4000.000000	100.401350
3999.000000	100.401395
3998.000000	100.401285
3997.000000	100.401247
3996.000000	100.401380
3995.000000	100.401586
3994.000000	100.401748
3993.000000	100.401873
3992.000000	100.402035
3991.000000	100.402211
3990.000000	100.402230
3989.000000	100.401915
3988.000000	100.401274
3987.000000	100.400474
3986.000000	100.399797
3985.000000	100.399474
3984.000000	100.399490
3983.000000	100.399674
3982.000000	100.399840
3981.000000	100.399867
3980.000000	100.399689
3979.000000	100.399243
3978.000000	100.398504
3977.000000	100.397554
3976.000000	100.396588
3975.000000	100.395836
3974.000000	100.395442
3973.000000	100.395368
3972.000000	100.395414
3971.000000	100.395365
3970.000000	100.395120
3969.000000	100.394655
3968.000000	100.393916
3967.000000	100.392821
3966.000000	100.391485
3965.000000	100.390360
3964.000000	100.389960
3963.000000	100.390347
3962.000000	100.390949
3961.000000	100.391061
3960.000000	100.390554
3959.000000	100.389941
3958.000000	100.389717
3957.000000	100.389651
3956.000000	100.388908
3955.000000	100.386978
3954.000000	100.384379
3953.000000	100.382281
3952.000000	100.381326
3951.000000	100.380957
3950.000000	100.380019
3949.000000	100.378014
3948.000000	100.375733
3947.000000	100.374584
3946.000000	100.375279
3945.000000	100.377031
3944.000000	100.377813
3943.000000	100.375751
3942.000000	100.370501
3941.000000	100.363726
3940.000000	100.358057
3939.000000	100.355298
3938.000000	100.355613
3937.000000	100.357805
3936.000000	100.360211
3935.000000	100.361725
3934.000000	100.362348
3933.000000	100.362970
3932.000000	100.364412
3931.000000	100.366321
3930.000000	100.367385
3929.000000	100.367017
3928.000000	100.366328
3927.000000	100.366855
3926.000000	100.368586
3925.000000	100.370086
3924.000000	100.370403
3923.000000	100.369687
3922.000000	100.367915
3921.000000	100.364325
3920.000000	100.358847
3919.000000	100.353219
3918.000000	100.349720
3917.000000	100.349049
3916.000000	100.350316
3915.000000	100.352289
3914.000000	100.354356
3913.000000	100.356343
3912.000000	100.358286
3911.000000	100.360499
3910.000000	100.363455
3909.000000	100.367257
3908.000000	100.371277
3907.000000	100.374475
3906.000000	100.375786
3905.000000	100.374648
3904.000000	100.371712
3903.000000	100.368704
3902.000000	100.366820
3901.000000	100.365547
3900.000000	100.363866
3899.000000	100.361998
3898.000000	100.361299
3897.000000	100.362307
3896.000000	100.363903
3895.000000	100.364654
3894.000000	100.364718
3893.000000	100.365371
3892.000000	100.366790
3891.000000	100.367734
3890.000000	100.367477
3889.000000	100.367303
3888.000000	100.369532
3887.000000	100.374636
3886.000000	100.380175
3885.000000	100.383219
3884.000000	100.382999
3883.000000	100.380912
3882.000000	100.378816
3881.000000	100.377155
3880.000000	100.375190
3879.000000	100.372624
3878.000000	100.370517
3877.000000	100.370631
3876.000000	100.373448
3875.000000	100.377099
3874.000000	100.379281
3873.000000	100.380257
3872.000000	100.382431
3871.000000	100.386286
3870.000000	100.388904
3869.000000	100.387806
3868.000000	100.384110
3867.000000	100.381056
3866.000000	100.380782
3865.000000	100.383154
3864.000000	100.386882
3863.000000	100.390873
3862.000000	100.395258
3861.000000	100.400868
3860.000000	100.407315
3859.000000	100.411993
3858.000000	100.411652
3857.000000	100.405610
3856.000000	100.397782
3855.000000	100.393263
3854.000000	100.392563
3853.000000	100.392430
3852.000000	100.390989
3851.000000	100.389535
3850.000000	100.389754
3849.000000	100.391806
3848.000000	100.394882
3847.000000	100.398041
3846.000000	100.400845
3845.000000	100.403127
3844.000000	100.404594
3843.000000	100.405121
3842.000000	100.404988
3841.000000	100.404205
3840.000000	100.402082
3839.000000	100.397942
3838.000000	100.392355
3837.000000	100.387163
3836.000000	100.383899
3835.000000	100.382903
3834.000000	100.383652
3833.000000	100.384938
3832.000000	100.385351
3831.000000	100.384256
3830.000000	100.382625
3829.000000	100.382467
3828.000000	100.384708
3827.000000	100.387796
3826.000000	100.389224
3825.000000	100.388337
3824.000000	100.387398
3823.000000	100.388963
3822.000000	100.391769
3821.000000	100.391867
3820.000000	100.387347
3819.000000	100.380526
3818.000000	100.375980
3817.000000	100.375708
3816.000000	100.377816
3815.000000	100.379740
3814.000000	100.380779
3813.000000	100.381428
3812.000000	100.381777
3811.000000	100.381796
3810.000000	100.383055
3809.000000	100.387619
3808.000000	100.393948
3807.000000	100.397113
3806.000000	100.394662
3805.000000	100.389352
3804.000000	100.386856
3803.000000	100.389475
3802.000000	100.392261
3801.000000	100.389240
3800.000000	100.380154
3799.000000	100.369179
3798.000000	100.359833
3797.000000	100.352809
3796.000000	100.348124
3795.000000	100.346763
3794.000000	100.349093
3793.000000	100.353347
3792.000000	100.356968
3791.000000	100.359022
3790.000000	100.360316
3789.000000	100.361279
3788.000000	100.360957
3787.000000	100.358326
3786.000000	100.353771
3785.000000	100.348770
3784.000000	100.344781
3783.000000	100.342536
3782.000000	100.342130
3781.000000	100.342841
3780.000000	100.343221
3779.000000	100.342724
3778.000000	100.343399
3777.000000	100.348099
3776.000000	100.356429
3775.000000	100.363711
3774.000000	100.365233
3773.000000	100.361152
3772.000000	100.355891
3771.000000	100.353303
3770.000000	100.353756
3769.000000	100.355492
3768.000000	100.357437
3767.000000	100.359665
3766.000000	100.362010
3765.000000	100.364549
3764.000000	100.369279
3763.000000	100.377988
3762.000000	100.388265
3761.000000	100.394346
3760.000000	100.393545
3759.000000	100.389518
3758.000000	100.387743
3757.000000	100.390311
3756.000000	100.395998
3755.000000	100.402471
3754.000000	100.406410
3753.000000	100.405390
3752.000000	100.401981
3751.000000	100.401015
3750.000000	100.402818
3749.000000	100.403382
3748.000000	100.400123
3747.000000	100.398352
3746.000000	100.402912
3745.000000	100.405036
3744.000000	100.398234
3743.000000	100.390794
3742.000000	100.390492
3741.000000	100.393567
3740.000000	100.391504
3739.000000	100.382354
3738.000000	100.372057
3737.000000	100.365486
3736.000000	100.360795
3735.000000	100.353465
3734.000000	100.342113
3733.000000	100.328945
3732.000000	100.316760
3731.000000	100.307603
3730.000000	100.303259
3729.000000	100.304835
3728.000000	100.309896
3727.000000	100.312390
3726.000000	100.308695
3725.000000	100.300830
3724.000000	100.293626
3723.000000	100.290107
3722.000000	100.289257
3721.000000	100.287782
3720.000000	100.283567
3719.000000	100.276734
3718.000000	100.268212
3717.000000	100.258971
3716.000000	100.250067
3715.000000	100.241837
3714.000000	100.232887
3713.000000	100.220940
3712.000000	100.205276
3711.000000	100.187731
3710.000000	100.171604
3709.000000	100.159715
3708.000000	100.152613
3707.000000	100.148291
3706.000000	100.143590
3705.000000	100.136285
3704.000000	100.126562
3703.000000	100.116659
3702.000000	100.108402
3701.000000	100.101759
3700.000000	100.096536
3699.000000	100.093737
3698.000000	100.093808
3697.000000	100.095259
3696.000000	100.096433
3695.000000	100.096937
3694.000000	100.096499
3693.000000	100.093973
3692.000000	100.089393
3691.000000	100.086257
3690.000000	100.086931
3689.000000	100.086298
3688.000000	100.077683
3687.000000	100.063209
3686.000000	100.051779
3685.000000	100.049636
3684.000000	100.055689
3683.000000	100.064758
3682.000000	100.072017
3681.000000	100.073517
3680.000000	100.066395
3679.000000	100.052369
3678.000000	100.040711
3677.000000	100.040391
3676.000000	100.047906
3675.000000	100.050729
3674.000000	100.041385
3673.000000	100.022584
3672.000000	100.001521
3671.000000	99.981783
3670.000000	99.962633
3669.000000	99.943286
3668.000000	99.924949
3667.000000	99.909751
3666.000000	99.898075
3665.000000	99.888074
3664.000000	99.877971
3663.000000	99.868472
3662.000000	99.861585
3661.000000	99.857447
3660.000000	99.853921
3659.000000	99.850383
3658.000000	99.849361
3657.000000	99.852079
3656.000000	99.855485
3655.000000	99.855021
3654.000000	99.848953
3653.000000	99.839293
3652.000000	99.828569
3651.000000	99.818014
3650.000000	99.809193
3649.000000	99.802703
3648.000000	99.797342
3647.000000	99.791762
3646.000000	99.784570
3645.000000	99.774774
3644.000000	99.762844
3643.000000	99.750511
3642.000000	99.739686
3641.000000	99.731383
3640.000000	99.724480
3639.000000	99.715972
3638.000000	99.704308
3637.000000	99.692908
3636.000000	99.688053
3635.000000	99.691726
3634.000000	99.698094
3633.000000	99.698434
3632.000000	99.690844
3631.000000	99.682393
3630.000000	99.678401
3629.000000	99.675016
3628.000000	99.666429
3627.000000	99.653669
3626.000000	99.642399
3625.000000	99.635528
3624.000000	99.631531
3623.000000	99.628935
3622.000000	99.629708
3621.000000	99.637379
3620.000000	99.651933
3619.000000	99.667282
3618.000000	99.676109
3617.000000	99.676916
3616.000000	99.674209
3615.000000	99.673017
3614.000000	99.674666
3613.000000	99.677456
3612.000000	99.680374
3611.000000	99.684635
3610.000000	99.691049
3609.000000	99.697655
3608.000000	99.701377
3607.000000	99.701389
3606.000000	99.699544
3605.000000	99.698209
3604.000000	99.698851
3603.000000	99.702330
3602.000000	99.708611
3601.000000	99.716554
3600.000000	99.724739
3599.000000	99.732197
3598.000000	99.738688
3597.000000	99.744604
3596.000000	99.750352
3595.000000	99.755587
3594.000000	99.759360
3593.000000	99.761073
3592.000000	99.761735
3591.000000	99.763942
3590.000000	99.769603
3589.000000	99.777195
3588.000000	99.781976
3587.000000	99.780334
3586.000000	99.773176
3585.000000	99.764591
3584.000000	99.758470
3583.000000	99.756659
3582.000000	99.758981
3581.000000	99.763750
3580.000000	99.768667
3579.000000	99.772041
3578.000000	99.773612
3577.000000	99.774242
3576.000000	99.774932
3575.000000	99.776121
3574.000000	99.777718
3573.000000	99.779406
3572.000000	99.780880
3571.000000	99.782143
3570.000000	99.783541
3569.000000	99.785343
3568.000000	99.787356
3567.000000	99.788947
3566.000000	99.789470
3565.000000	99.788754
3564.000000	99.787144
3563.000000	99.785242
3562.000000	99.783759
3561.000000	99.783330
3560.000000	99.784183
3559.000000	99.785915
3558.000000	99.787694
3557.000000	99.788875
3556.000000	99.789486
3555.000000	99.790197
3554.000000	99.791752
3553.000000	99.794242
3552.000000	99.796778
3551.000000	99.798049
3550.000000	99.797345
3549.000000	99.794985
3548.000000	99.792137
3547.000000	99.790183
3546.000000	99.789839
3545.000000	99.790947
3544.000000	99.792790
3543.000000	99.794536
3542.000000	99.795610
3541.000000	99.795770
3540.000000	99.795114
3539.000000	99.794046
3538.000000	99.793113
3537.000000	99.792792
3536.000000	99.793347
3535.000000	99.794767
3534.000000	99.796757
3533.000000	99.798878
3532.000000	99.800821
3531.000000	99.802550
3530.000000	99.804129
3529.000000	99.805416
3528.000000	99.806078
3527.000000	99.805942
3526.000000	99.805231
3525.000000	99.804486
3524.000000	99.804255
3523.000000	99.804853
3522.000000	99.806291
3521.000000	99.808307
3520.000000	99.810508
3519.000000	99.812507
3518.000000	99.813982
3517.000000	99.814742
3516.000000	99.814845
3515.000000	99.814710
3514.000000	99.814993
3513.000000	99.816141
3512.000000	99.818044
3511.000000	99.820079
3510.000000	99.821613
3509.000000	99.822520
3508.000000	99.823171
3507.000000	99.824063
3506.000000	99.825405
3505.000000	99.827053
3504.000000	99.828724
3503.000000	99.830248
3502.000000	99.831621
3501.000000	99.832784
3500.000000	99.833451
3499.000000	99.833258
3498.000000	99.832180
3497.000000	99.830858
3496.000000	99.830347
3495.000000	99.831332
3494.000000	99.833610
3493.000000	99.836231
3492.000000	99.838317
3491.000000	99.839791
3490.000000	99.841221
3489.000000	99.843039
3488.000000	99.844939
3487.000000	99.846135
3486.000000	99.846209
3485.000000	99.845678
3484.000000	99.845742
3483.000000	99.847324
3482.000000	99.850249
3481.000000	99.853279
3480.000000	99.855141
3479.000000	99.855532
3478.000000	99.855031
3477.000000	99.854202
3476.000000	99.853100
3475.000000	99.851715
3474.000000	99.850588
3473.000000	99.850532
3472.000000	99.851770
3471.000000	99.853657
3470.000000	99.855337
3469.000000	99.856514
3468.000000	99.857304
3467.000000	99.857482
3466.000000	99.856407
3465.000000	99.853867
3464.000000	99.850815
3463.000000	99.848921
3462.000000	99.849175
3461.000000	99.851276
3460.000000	99.854267
3459.000000	99.857474
3458.000000	99.860651
3457.000000	99.863432
3456.000000	99.865198
3455.000000	99.865624
3454.000000	99.865072
3453.000000	99.864352
3452.000000	99.864310
3451.000000	99.865592
3450.000000	99.868452
3449.000000	99.872380
3448.000000	99.876060
3447.000000	99.878279
3446.000000	99.878858
3445.000000	99.878528
3444.000000	99.878006
3443.000000	99.877483
3442.000000	99.877015
3441.000000	99.876965
3440.000000	99.877743
3439.000000	99.879258
3438.000000	99.880932
3437.000000	99.882300
3436.000000	99.883502
3435.000000	99.885068
3434.000000	99.887147
3433.000000	99.888980
3432.000000	99.889350
3431.000000	99.887727
3430.000000	99.885010
3429.000000	99.883107
3428.000000	99.883433
3427.000000	99.885970
3426.000000	99.889543
3425.000000	99.892949
3424.000000	99.895917
3423.000000	99.898835
3422.000000	99.901728
3421.000000	99.903817
3420.000000	99.904319
3419.000000	99.903562
3418.000000	99.902918
3417.000000	99.903368
3416.000000	99.904438
3415.000000	99.904837
3414.000000	99.904014
3413.000000	99.902706
3412.000000	99.901866
3411.000000	99.901374
3410.000000	99.900264
3409.000000	99.898149
3408.000000	99.896108
3407.000000	99.895796
3406.000000	99.897785
3405.000000	99.901020
3404.000000	99.903726
3403.000000	99.904987
3402.000000	99.905241
3401.000000	99.905473
3400.000000	99.906173
3399.000000	99.907068
3398.000000	99.907655
3397.000000	99.907715
3396.000000	99.907292
3395.000000	99.906412
3394.000000	99.905128
3393.000000	99.903771
3392.000000	99.902903
3391.000000	99.902868
3390.000000	99.903461
3389.000000	99.904155
3388.000000	99.904649
3387.000000	99.905126
3386.000000	99.905887
3385.000000	99.906869
3384.000000	99.907664
3383.000000	99.907929
3382.000000	99.907618
3381.000000	99.906945
3380.000000	99.906282
3379.000000	99.906002
3378.000000	99.906287
3377.000000	99.907049
3376.000000	99.908030
3375.000000	99.908913
3374.000000	99.909368
3373.000000	99.909196
3372.000000	99.908583
3371.000000	99.908083
3370.000000	99.908013
3369.000000	99.907990
3368.000000	99.907490
3367.000000	99.906893
3366.000000	99.907383
3365.000000	99.909453
3364.000000	99.911892
3363.000000	99.912802
3362.000000	99.911554
3361.000000	99.909241
3360.000000	99.907537
3359.000000	99.907332
3358.000000	99.908443
3357.000000	99.909907
3356.000000	99.910291
3355.000000	99.908456
3354.000000	99.904612
3353.000000	99.900517
3352.000000	99.897947
3351.000000	99.897037
3350.000000	99.896608
3349.000000	99.895993
3348.000000	99.895903
3347.000000	99.897317
3346.000000	99.900318
3345.000000	99.904262
3344.000000	99.908376
3343.000000	99.911703
3342.000000	99.913054
3341.000000	99.911868
3340.000000	99.909177
3339.000000	99.907189
3338.000000	99.907364
3337.000000	99.909324
3336.000000	99.911697
3335.000000	99.913616
3334.000000	99.915028
3333.000000	99.915849
3332.000000	99.915638
3331.000000	99.914270
3330.000000	99.912328
3329.000000	99.910490
3328.000000	99.908854
3327.000000	99.907226
3326.000000	99.905906
3325.000000	99.905703
3324.000000	99.907019
3323.000000	99.909184
3322.000000	99.910898
3321.000000	99.911354
3320.000000	99.910710
3319.000000	99.909605
3318.000000	99.908392
3317.000000	99.907000
3316.000000	99.905463
3315.000000	99.904232
3314.000000	99.903803
3313.000000	99.904146
3312.000000	99.904615
3311.000000	99.904502
3310.000000	99.903621
3309.000000	99.902309
3308.000000	99.901058
3307.000000	99.900151
3306.000000	99.899579
3305.000000	99.899153
3304.000000	99.898663
3303.000000	99.898001
3302.000000	99.897152
3301.000000	99.896083
3300.000000	99.894759
3299.000000	99.893358
3298.000000	99.892361
3297.000000	99.892203
3296.000000	99.892833
3295.000000	99.893564
3294.000000	99.893550
3293.000000	99.892409
3292.000000	99.890349
3291.000000	99.887989
3290.000000	99.885968
3289.000000	99.884606
3288.000000	99.883824
3287.000000	99.883372
3286.000000	99.883194
3285.000000	99.883456
3284.000000	99.884101
3283.000000	99.884578
3282.000000	99.884255
3281.000000	99.883098
3280.000000	99.881798
3279.000000	99.881155
3278.000000	99.881406
3277.000000	99.882161
3276.000000	99.882791
3275.000000	99.882798
3274.000000	99.881923
3273.000000	99.880198
3272.000000	99.878087
3271.000000	99.876549
3270.000000	99.876689
3269.000000	99.879035
3268.000000	99.882865
3267.000000	99.886341
3266.000000	99.887830
3265.000000	99.887119
3264.000000	99.885222
3263.000000	99.883000
3262.000000	99.880248
3261.000000	99.876464
3260.000000	99.872072
3259.000000	99.868376
3258.000000	99.866306
3257.000000	99.865641
3256.000000	99.865603
3255.000000	99.865848
3254.000000	99.866586
3253.000000	99.867929
3252.000000	99.869577
3251.000000	99.871201
3250.000000	99.872812
3249.000000	99.874527
3248.000000	99.875976
3247.000000	99.876150
3246.000000	99.874015
3245.000000	99.869390
3244.000000	99.863287
3243.000000	99.857477
3242.000000	99.853458
3241.000000	99.851582
3240.000000	99.851051
3239.000000	99.850864
3238.000000	99.850890
3237.000000	99.851852
3236.000000	99.854184
3235.000000	99.857129
3234.000000	99.859197
3233.000000	99.859414
3232.000000	99.857942
3231.000000	99.855657
3230.000000	99.853439
3229.000000	99.851784
3228.000000	99.850766
3227.000000	99.850173
3226.000000	99.849776
3225.000000	99.849506
3224.000000	99.849248
3223.000000	99.848629
3222.000000	99.847399
3221.000000	99.845974
3220.000000	99.845124
3219.000000	99.845036
3218.000000	99.845208
3217.000000	99.845460
3216.000000	99.846396
3215.000000	99.848380
3214.000000	99.850517
3213.000000	99.851208
3212.000000	99.849539
3211.000000	99.845859
3210.000000	99.841447
3209.000000	99.838147
3208.000000	99.837982
3207.000000	99.842221
3206.000000	99.850211
3205.000000	99.859356
3204.000000	99.866755
3203.000000	99.871078
3202.000000	99.872921
3201.000000	99.873735
3200.000000	99.874455
3199.000000	99.874976
3198.000000	99.874812
3197.000000	99.874006
3196.000000	99.873082
3195.000000	99.872260
3194.000000	99.871135
3193.000000	99.869337
3192.000000	99.867177
3191.000000	99.865350
3190.000000	99.864243
3189.000000	99.863883
3188.000000	99.864242
3187.000000	99.865105
3186.000000	99.865802
3185.000000	99.865617
3184.000000	99.864546
3183.000000	99.863356
3182.000000	99.862899
3181.000000	99.863648
3180.000000	99.865681
3179.000000	99.868584
3178.000000	99.871229
3177.000000	99.872212
3176.000000	99.870891
3175.000000	99.867890
3174.000000	99.864665
3173.000000	99.862502
3172.000000	99.861796
3171.000000	99.862071
3170.000000	99.862592
3169.000000	99.863218
3168.000000	99.864567
3167.000000	99.867068
3166.000000	99.870090
3165.000000	99.872267
3164.000000	99.872835
3163.000000	99.872198
3162.000000	99.871259
3161.000000	99.870514
3160.000000	99.870026
3159.000000	99.869941
3158.000000	99.870415
3157.000000	99.871138
3156.000000	99.871417
3155.000000	99.870908
3154.000000	99.870068
3153.000000	99.869751
3152.000000	99.870331
3151.000000	99.871398
3150.000000	99.872258
3149.000000	99.872695
3148.000000	99.873144
3147.000000	99.874174
3146.000000	99.875772
3145.000000	99.877128
3144.000000	99.877307
3143.000000	99.876273
3142.000000	99.875140
3141.000000	99.875095
3140.000000	99.876165
3139.000000	99.877378
3138.000000	99.878098
3137.000000	99.878812
3136.000000	99.880364
3135.000000	99.882856
3134.000000	99.885572
3133.000000	99.887731
3132.000000	99.889011
3131.000000	99.889429
3130.000000	99.889166
3129.000000	99.888657
3128.000000	99.888550
3127.000000	99.889435
3126.000000	99.891535
3125.000000	99.894470
3124.000000	99.897252
3123.000000	99.898797
3122.000000	99.898730
3121.000000	99.897725
3120.000000	99.896814
3119.000000	99.896184
3118.000000	99.895088
3117.000000	99.892986
3116.000000	99.890454
3115.000000	99.888748
3114.000000	99.888607
3113.000000	99.889754
3112.000000	99.891456
3111.000000	99.893399
3110.000000	99.895924
3109.000000	99.899395
3108.000000	99.903472
3107.000000	99.907013
3106.000000	99.908822
3105.000000	99.908595
3104.000000	99.907117
3103.000000	99.905674
3102.000000	99.905163
3101.000000	99.905786
3100.000000	99.907286
3099.000000	99.909184
3098.000000	99.910962
3097.000000	99.912349
3096.000000	99.913479
3095.000000	99.914575
3094.000000	99.915580
3093.000000	99.916346
3092.000000	99.917125
3091.000000	99.918466
3090.000000	99.920501
3089.000000	99.922578
3088.000000	99.923848
3087.000000	99.924099
3086.000000	99.923872
3085.000000	99.923945
3084.000000	99.924692
3083.000000	99.925936
3082.000000	99.927229
3081.000000	99.928313
3080.000000	99.929399
3079.000000	99.930973
3078.000000	99.933273
3077.000000	99.935947
3076.000000	99.938260
3075.000000	99.939702
3074.000000	99.940283
3073.000000	99.940388
3072.000000	99.940473
3071.000000	99.940931
3070.000000	99.941960
3069.000000	99.943443
3068.000000	99.945030
3067.000000	99.946429
3066.000000	99.947608
3065.000000	99.948675
3064.000000	99.949721
3063.000000	99.950802
3062.000000	99.951907
3061.000000	99.952857
3060.000000	99.953444
3059.000000	99.953822
3058.000000	99.954578
3057.000000	99.956187
3056.000000	99.958433
3055.000000	99.960521
3054.000000	99.961820
3053.000000	99.962324
3052.000000	99.962540
3051.000000	99.963177
3050.000000	99.964782
3049.000000	99.967282
3048.000000	99.969825
3047.000000	99.971570
3046.000000	99.972735
3045.000000	99.974402
3044.000000	99.977209
3043.000000	99.980641
3042.000000	99.983757
3041.000000	99.986306
3040.000000	99.988662
3039.000000	99.990791
3038.000000	99.992067
3037.000000	99.992481
3036.000000	99.993459
3035.000000	99.996689
3034.000000	100.002167
3033.000000	100.007769
3032.000000	100.011110
3031.000000	100.011874
3030.000000	100.012178
3029.000000	100.014539
3028.000000	100.019471
3027.000000	100.025284
3026.000000	100.030124
3025.000000	100.033795
3024.000000	100.037214
3023.000000	100.040535
3022.000000	100.042744
3021.000000	100.043389
3020.000000	100.043790
3019.000000	100.045598
3018.000000	100.048560
3017.000000	100.051078
3016.000000	100.053324
3015.000000	100.058333
3014.000000	100.068654
3013.000000	100.082492
3012.000000	100.094582
3011.000000	100.101263
3010.000000	100.103755
3009.000000	100.106074
3008.000000	100.110516
3007.000000	100.115541
3006.000000	100.117531
3005.000000	100.114195
3004.000000	100.106900
3003.000000	100.100263
3002.000000	100.099197
3001.000000	100.105804
3000.000000	100.118778
2999.000000	100.135255
2998.000000	100.152476
2997.000000	100.167825
2996.000000	100.178857
2995.000000	100.185000
2994.000000	100.189137
2993.000000	100.196067
2992.000000	100.208417
2991.000000	100.224098
2990.000000	100.238101
2989.000000	100.247098
2988.000000	100.252560
2987.000000	100.259334
2986.000000	100.270771
2985.000000	100.285350
2984.000000	100.298726
2983.000000	100.308805
2982.000000	100.317365
2981.000000	100.326459
2980.000000	100.335300
2979.000000	100.342325
2978.000000	100.348432
2977.000000	100.355455
2976.000000	100.362116
2975.000000	100.364584
2974.000000	100.361420
2973.000000	100.355099
2972.000000	100.347894
2971.000000	100.338897
2970.000000	100.326651
2969.000000	100.312167
2968.000000	100.297051
2967.000000	100.280535
2966.000000	100.261379
2965.000000	100.241874
2964.000000	100.226788
2963.000000	100.218206
2962.000000	100.213810
2961.000000	100.210537
2960.000000	100.207553
2959.000000	100.205053
2958.000000	100.202380
2957.000000	100.198756
2956.000000	100.194404
2955.000000	100.189832
2954.000000	100.185297
2953.000000	100.182075
2952.000000	100.182618
2951.000000	100.187611
2950.000000	100.193557
2949.000000	100.195141
2948.000000	100.190173
2947.000000	100.181360
2946.000000	100.173653
2945.000000	100.170979
2944.000000	100.174758
2943.000000	100.183281
2942.000000	100.191838
2941.000000	100.195496
2940.000000	100.193327
2939.000000	100.189347
2938.000000	100.188042
2937.000000	100.189392
2936.000000	100.189446
2935.000000	100.185752
2934.000000	100.180796
2933.000000	100.179336
2932.000000	100.183159
2931.000000	100.189443
2930.000000	100.193887
2929.000000	100.194763
2928.000000	100.193781
2927.000000	100.193688
2926.000000	100.195745
2925.000000	100.199319
2924.000000	100.203086
2923.000000	100.206009
2922.000000	100.207478
2921.000000	100.207335
2920.000000	100.206204
2919.000000	100.205445
2918.000000	100.206239
2917.000000	100.208612
2916.000000	100.211616
2915.000000	100.214514
2914.000000	100.217561
2913.000000	100.221434
2912.000000	100.226159
2911.000000	100.230998
2910.000000	100.235331
2909.000000	100.239209
2908.000000	100.242804
2907.000000	100.245673
2906.000000	100.247018
2905.000000	100.246661
2904.000000	100.245457
2903.000000	100.244840
2902.000000	100.246110
2901.000000	100.249718
2900.000000	100.254528
2899.000000	100.257926
2898.000000	100.257641
2897.000000	100.253921
2896.000000	100.249715
2895.000000	100.248298
2894.000000	100.250829
2893.000000	100.256084
2892.000000	100.261630
2891.000000	100.265041
2890.000000	100.264848
2889.000000	100.261403
2888.000000	100.256887
2887.000000	100.253559
2886.000000	100.251996
2885.000000	100.251392
2884.000000	100.251154
2883.000000	100.251284
2882.000000	100.251321
2881.000000	100.249997
2880.000000	100.246403
2879.000000	100.241052
2878.000000	100.235551
2877.000000	100.231606
2876.000000	100.230221
2875.000000	100.231091
2874.000000	100.232487
2873.000000	100.232653
2872.000000	100.231732
2871.000000	100.231549
2870.000000	100.232986
2869.000000	100.234336
2868.000000	100.233112
2867.000000	100.228828
2866.000000	100.223124
2865.000000	100.217716
2864.000000	100.213277
2863.000000	100.210125
2862.000000	100.208472
2861.000000	100.207454
2860.000000	100.205174
2859.000000	100.200751
2858.000000	100.195866
2857.000000	100.193211
2856.000000	100.193500
2855.000000	100.194654
2854.000000	100.193902
2853.000000	100.190551
2852.000000	100.186495
2851.000000	100.184283
2850.000000	100.184940
2849.000000	100.187551
2848.000000	100.190374
2847.000000	100.192238
2846.000000	100.193178
2845.000000	100.194028
2844.000000	100.195477
2843.000000	100.197288
2842.000000	100.198379
2841.000000	100.197836
2840.000000	100.195832
2839.000000	100.193448
2838.000000	100.191732
2837.000000	100.191232
2836.000000	100.192251
2835.000000	100.194794
2834.000000	100.197956
2833.000000	100.200042
2832.000000	100.199995
2831.000000	100.198374
2830.000000	100.196619
2829.000000	100.195624
2828.000000	100.195494
2827.000000	100.196319
2826.000000	100.198308
2825.000000	100.201062
2824.000000	100.203433
2823.000000	100.204563
2822.000000	100.204599
2821.000000	100.204334
2820.000000	100.204504
2819.000000	100.205511
2818.000000	100.207382
2817.000000	100.209568
2816.000000	100.211096
2815.000000	100.211371
2814.000000	100.210646
2813.000000	100.209691
2812.000000	100.209091
2811.000000	100.208996
2810.000000	100.209348
2809.000000	100.210040
2808.000000	100.210929
2807.000000	100.211878
2806.000000	100.212829
2805.000000	100.213763
2804.000000	100.214595
2803.000000	100.215216
2802.000000	100.215630
2801.000000	100.215983
2800.000000	100.216458
2799.000000	100.217155
2798.000000	100.218056
2797.000000	100.219016
2796.000000	100.219829
2795.000000	100.220402
2794.000000	100.220866
2793.000000	100.221470
2792.000000	100.222332
2791.000000	100.223358
2790.000000	100.224371
2789.000000	100.225230
2788.000000	100.225904
2787.000000	100.226569
2786.000000	100.227595
2785.000000	100.229217
2784.000000	100.231176
2783.000000	100.232785
2782.000000	100.233592
2781.000000	100.233825
2780.000000	100.234164
2779.000000	100.235031
2778.000000	100.236273
2777.000000	100.237467
2776.000000	100.238314
2775.000000	100.238733
2774.000000	100.238802
2773.000000	100.238767
2772.000000	100.238999
2771.000000	100.239738
2770.000000	100.240898
2769.000000	100.242189
2768.000000	100.243402
2767.000000	100.244513
2766.000000	100.245520
2765.000000	100.246385
2764.000000	100.247200
2763.000000	100.248323
2762.000000	100.250176
2761.000000	100.252790
2760.000000	100.255457
2759.000000	100.257078
2758.000000	100.257113
2757.000000	100.256011
2756.000000	100.254924
2755.000000	100.254581
2754.000000	100.254739
2753.000000	100.254814
2752.000000	100.254777
2751.000000	100.255237
2750.000000	100.256590
2749.000000	100.258464
2748.000000	100.260101
2747.000000	100.261124
2746.000000	100.261721
2745.000000	100.262247
2744.000000	100.262898
2743.000000	100.263722
2742.000000	100.264636
2741.000000	100.265370
2740.000000	100.265622
2739.000000	100.265434
2738.000000	100.265265
2737.000000	100.265544
2736.000000	100.266256
2735.000000	100.267043
2734.000000	100.267609
2733.000000	100.267921
2732.000000	100.268116
2731.000000	100.268351
2730.000000	100.268752
2729.000000	100.269377
2728.000000	100.270207
2727.000000	100.271183
2726.000000	100.272208
2725.000000	100.273129
2724.000000	100.273794
2723.000000	100.274183
2722.000000	100.274383
2721.000000	100.274446
2720.000000	100.274380
2719.000000	100.274338
2718.000000	100.274632
2717.000000	100.275402
2716.000000	100.276494
2715.000000	100.277636
2714.000000	100.278684
2713.000000	100.279619
2712.000000	100.280379
2711.000000	100.280894
2710.000000	100.281211
2709.000000	100.281506
2708.000000	100.281927
2707.000000	100.282466
2706.000000	100.283008
2705.000000	100.283477
2704.000000	100.283899
2703.000000	100.284329
2702.000000	100.284771
2701.000000	100.285208
2700.000000	100.285639
2699.000000	100.286061
2698.000000	100.286449
2697.000000	100.286792
2696.000000	100.287155
2695.000000	100.287621
2694.000000	100.288186
2693.000000	100.288724
2692.000000	100.289118
2691.000000	100.289397
2690.000000	100.289702
2689.000000	100.290106
2688.000000	100.290514
2687.000000	100.290792
2686.000000	100.290946
2685.000000	100.291124
2684.000000	100.291422
2683.000000	100.291755
2682.000000	100.291964
2681.000000	100.292028
2680.000000	100.292133
2679.000000	100.292488
2678.000000	100.293144
2677.000000	100.293963
2676.000000	100.294692
2675.000000	100.295134
2674.000000	100.295199
2673.000000	100.294938
2672.000000	100.294497
2671.000000	100.294046
2670.000000	100.293741
2669.000000	100.293696
2668.000000	100.293937
2667.000000	100.294391
2666.000000	100.294934
2665.000000	100.295476
2664.000000	100.295984
2663.000000	100.296469
2662.000000	100.296940
2661.000000	100.297369
2660.000000	100.297704
2659.000000	100.297912
2658.000000	100.298020
2657.000000	100.298088
2656.000000	100.298170
2655.000000	100.298321
2654.000000	100.298589
2653.000000	100.298929
2652.000000	100.299157
2651.000000	100.299107
2650.000000	100.298895
2649.000000	100.298897
2648.000000	100.299297
2647.000000	100.299761
2646.000000	100.299797
2645.000000	100.299427
2644.000000	100.299220
2643.000000	100.299550
2642.000000	100.300106
2641.000000	100.300297
2640.000000	100.299993
2639.000000	100.299650
2638.000000	100.299798
2637.000000	100.300531
2636.000000	100.301356
2635.000000	100.301459
2634.000000	100.300358
2633.000000	100.298498
2632.000000	100.297186
2631.000000	100.297492
2630.000000	100.299354
2629.000000	100.301744
2628.000000	100.303658
2627.000000	100.304759
2626.000000	100.305092
2625.000000	100.304775
2624.000000	100.304129
2623.000000	100.303700
2622.000000	100.303700
2621.000000	100.303554
2620.000000	100.302409
2619.000000	100.300154
2618.000000	100.297718
2617.000000	100.296182
2616.000000	100.295653
2615.000000	100.295188
2614.000000	100.293775
2613.000000	100.291226
2612.000000	100.288210
2611.000000	100.285722
2610.000000	100.284604
2609.000000	100.285174
2608.000000	100.286900
2607.000000	100.288664
2606.000000	100.289822
2605.000000	100.290798
2604.000000	100.292304
2603.000000	100.294195
2602.000000	100.295593
2601.000000	100.296026
2600.000000	100.295793
2599.000000	100.295241
2598.000000	100.294285
2597.000000	100.292849
2596.000000	100.291225
2595.000000	100.289753
2594.000000	100.288636
2593.000000	100.288292
2592.000000	100.289244
2591.000000	100.291223
2590.000000	100.292885
2589.000000	100.293131
2588.000000	100.292393
2587.000000	100.292076
2586.000000	100.292839
2585.000000	100.294019
2584.000000	100.294595
2583.000000	100.294187
2582.000000	100.293037
2581.000000	100.291606
2580.000000	100.290347
2579.000000	100.289548
2578.000000	100.289163
2577.000000	100.288994
2576.000000	100.289109
2575.000000	100.289881
2574.000000	100.291401
2573.000000	100.293032
2572.000000	100.293926
2571.000000	100.293922
2570.000000	100.293705
2569.000000	100.294061
2568.000000	100.295022
2567.000000	100.295845
2566.000000	100.295846
2565.000000	100.295218
2564.000000	100.294952
2563.000000	100.295821
2562.000000	100.297563
2561.000000	100.299183
2560.000000	100.300014
2559.000000	100.300228
2558.000000	100.300360
2557.000000	100.300625
2556.000000	100.300865
2555.000000	100.300888
2554.000000	100.300657
2553.000000	100.300312
2552.000000	100.300099
2551.000000	100.300151
2550.000000	100.300301
2549.000000	100.300267
2548.000000	100.300011
2547.000000	100.299698
2546.000000	100.299298
2545.000000	100.298579
2544.000000	100.297656
2543.000000	100.297205
2542.000000	100.297741
2541.000000	100.298931
2540.000000	100.299943
2539.000000	100.300524
2538.000000	100.301265
2537.000000	100.302672
2536.000000	100.304387
2535.000000	100.305513
2534.000000	100.305584
2533.000000	100.304981
2532.000000	100.304541
2531.000000	100.304810
2530.000000	100.305690
2529.000000	100.306678
2528.000000	100.307353
2527.000000	100.307701
2526.000000	100.308083
2525.000000	100.308892
2524.000000	100.310179
2523.000000	100.311501
2522.000000	100.312187
2521.000000	100.311810
2520.000000	100.310468
2519.000000	100.308770
2518.000000	100.307570
2517.000000	100.307525
2516.000000	100.308787
2515.000000	100.310911
2514.000000	100.313051
2513.000000	100.314535
2512.000000	100.315248
2511.000000	100.315482
2510.000000	100.315522
2509.000000	100.315447
2508.000000	100.315245
2507.000000	100.314955
2506.000000	100.314628
2505.000000	100.314250
2504.000000	100.313819
2503.000000	100.313471
2502.000000	100.313482
2501.000000	100.314133
2500.000000	100.315502
2499.000000	100.317320
2498.000000	100.319106
2497.000000	100.320522
2496.000000	100.321570
2495.000000	100.322421
2494.000000	100.323118
2493.000000	100.323590
2492.000000	100.323897
2491.000000	100.324252
2490.000000	100.324738
2489.000000	100.325175
2488.000000	100.325393
2487.000000	100.325517
2486.000000	100.325873
2485.000000	100.326625
2484.000000	100.327609
2483.000000	100.328533
2482.000000	100.329235
2481.000000	100.329758
2480.000000	100.330232
2479.000000	100.330739
2478.000000	100.331280
2477.000000	100.331831
2476.000000	100.332397
2475.000000	100.333017
2474.000000	100.333708
2473.000000	100.334433
2472.000000	100.335127
2471.000000	100.335751
2470.000000	100.336324
2469.000000	100.336911
2468.000000	100.337584
2467.000000	100.338356
2466.000000	100.339192
2465.000000	100.340029
2464.000000	100.340828
2463.000000	100.341600
2462.000000	100.342382
2461.000000	100.343205
2460.000000	100.344071
2459.000000	100.344952
2458.000000	100.345785
2457.000000	100.346520
2456.000000	100.347178
2455.000000	100.347863
2454.000000	100.348632
2453.000000	100.349403
2452.000000	100.350040
2451.000000	100.350522
2450.000000	100.350986
2449.000000	100.351578
2448.000000	100.352356
2447.000000	100.353374
2446.000000	100.354685
2445.000000	100.356181
2444.000000	100.357553
2443.000000	100.358529
2442.000000	100.359098
2441.000000	100.359515
2440.000000	100.360080
2439.000000	100.360937
2438.000000	100.362067
2437.000000	100.363342
2436.000000	100.364640
2435.000000	100.365983
2434.000000	100.367539
2433.000000	100.369396
2432.000000	100.371357
2431.000000	100.373076
2430.000000	100.374345
2429.000000	100.375173
2428.000000	100.375669
2427.000000	100.376039
2426.000000	100.376617
2425.000000	100.377692
2424.000000	100.379219
2423.000000	100.380821
2422.000000	100.382124
2421.000000	100.382976
2420.000000	100.383370
2419.000000	100.383384
2418.000000	100.383374
2417.000000	100.383972
2416.000000	100.385631
2415.000000	100.388191
2414.000000	100.390883
2413.000000	100.392922
2412.000000	100.394046
2411.000000	100.394525
2410.000000	100.394858
2409.000000	100.395422
2408.000000	100.396238
2407.000000	100.397063
2406.000000	100.397742
2405.000000	100.398423
2404.000000	100.399395
2403.000000	100.400713
2402.000000	100.402066
2401.000000	100.403034
2400.000000	100.403435
2399.000000	100.403398
2398.000000	100.403098
2397.000000	100.402614
2396.000000	100.402082
2395.000000	100.401779
2394.000000	100.402025
2393.000000	100.402966
2392.000000	100.404372
2391.000000	100.405738
2390.000000	100.406703
2389.000000	100.407329
2388.000000	100.407907
2387.000000	100.408562
2386.000000	100.409154
2385.000000	100.409561
2384.000000	100.409881
2383.000000	100.410293
2382.000000	100.410803
2381.000000	100.411261
2380.000000	100.411568
2379.000000	100.411768
2378.000000	100.411973
2377.000000	100.412275
2376.000000	100.412743
2375.000000	100.413383
2374.000000	100.414092
2373.000000	100.414721
2372.000000	100.415206
2371.000000	100.415587
2370.000000	100.415924
2369.000000	100.416305
2368.000000	100.416896
2367.000000	100.417801
2366.000000	100.418841
2365.000000	100.419596
2364.000000	100.419877
2363.000000	100.419881
2362.000000	100.419882
2361.000000	100.419897
2360.000000	100.419864
2359.000000	100.419902
2358.000000	100.420245
2357.000000	100.420954
2356.000000	100.421880
2355.000000	100.422777
2354.000000	100.423448
2353.000000	100.423872
2352.000000	100.424155
2351.000000	100.424453
2350.000000	100.424839
2349.000000	100.425253
2348.000000	100.425609
2347.000000	100.425867
2346.000000	100.426085
2345.000000	100.426297
2344.000000	100.426436
2343.000000	100.426477
2342.000000	100.426497
2341.000000	100.426581
2340.000000	100.426699
2339.000000	100.426820
2338.000000	100.427001
2337.000000	100.427309
2336.000000	100.427686
2335.000000	100.427954
2334.000000	100.427936
2333.000000	100.427607
2332.000000	100.427102
2331.000000	100.426652
2330.000000	100.426407
2329.000000	100.426320
2328.000000	100.426185
2327.000000	100.425783
2326.000000	100.425093
2325.000000	100.424261
2324.000000	100.423481
2323.000000	100.422867
2322.000000	100.422426
2321.000000	100.422114
2320.000000	100.421788
2319.000000	100.421319
2318.000000	100.420670
2317.000000	100.419907
2316.000000	100.419053
2315.000000	100.418060
2314.000000	100.416961
2313.000000	100.415910
2312.000000	100.414992
2311.000000	100.414077
2310.000000	100.412997
2309.000000	100.411782
2308.000000	100.410594
2307.000000	100.409458
2306.000000	100.408228
2305.000000	100.406838
2304.000000	100.405465
2303.000000	100.404349
2302.000000	100.403508
2301.000000	100.402752
2300.000000	100.401862
2299.000000	100.400734
2298.000000	100.399360
2297.000000	100.397816
2296.000000	100.396301
2295.000000	100.395022
2294.000000	100.394028
2293.000000	100.393148
2292.000000	100.392159
2291.000000	100.390924
2290.000000	100.389425
2289.000000	100.387780
2288.000000	100.386253
2287.000000	100.385092
2286.000000	100.384248
2285.000000	100.383426
2284.000000	100.382455
2283.000000	100.381532
2282.000000	100.380921
2281.000000	100.380464
2280.000000	100.379583
2279.000000	100.377864
2278.000000	100.375373
2277.000000	100.372531
2276.000000	100.369886
2275.000000	100.367938
2274.000000	100.366933
2273.000000	100.366643
2272.000000	100.366467
2271.000000	100.365984
2270.000000	100.365312
2269.000000	100.364737
2268.000000	100.364152
2267.000000	100.363148
2266.000000	100.361681
2265.000000	100.360234
2264.000000	100.359137
2263.000000	100.357950
2262.000000	100.355857
2261.000000	100.352608
2260.000000	100.348892
2259.000000	100.345789
2258.000000	100.343973
2257.000000	100.343521
2256.000000	100.344037
2255.000000	100.344756
2254.000000	100.344823
2253.000000	100.343831
2252.000000	100.342130
2251.000000	100.340470
2250.000000	100.339232
2249.000000	100.338127
2248.000000	100.336637
2247.000000	100.334600
2246.000000	100.332400
2245.000000	100.330720
2244.000000	100.330032
2243.000000	100.330146
2242.000000	100.330264
2241.000000	100.329722
2240.000000	100.328704
2239.000000	100.327990
2238.000000	100.328059
2237.000000	100.328718
2236.000000	100.329482
2235.000000	100.329986
2234.000000	100.329973
2233.000000	100.329271
2232.000000	100.328046
2231.000000	100.326834
2230.000000	100.326101
2229.000000	100.325897
2228.000000	100.326032
2227.000000	100.326308
2226.000000	100.326441
2225.000000	100.326063
2224.000000	100.325089
2223.000000	100.324019
2222.000000	100.323586
2221.000000	100.324036
2220.000000	100.324898
2219.000000	100.325416
2218.000000	100.325282
2217.000000	100.324842
2216.000000	100.324651
2215.000000	100.324854
2214.000000	100.325062
2213.000000	100.324834
2212.000000	100.324164
2211.000000	100.323433
2210.000000	100.322901
2209.000000	100.322450
2208.000000	100.321899
2207.000000	100.321346
2206.000000	100.321025
2205.000000	100.320978
2204.000000	100.321086
2203.000000	100.321331
2202.000000	100.321785
2201.000000	100.322374
2200.000000	100.322880
2199.000000	100.323140
2198.000000	100.323170
2197.000000	100.323107
2196.000000	100.323103
2195.000000	100.323242
2194.000000	100.323443
2193.000000	100.323460
2192.000000	100.323110
2191.000000	100.322466
2190.000000	100.321810
2189.000000	100.321395
2188.000000	100.321316
2187.000000	100.321532
2186.000000	100.321828
2185.000000	100.321867
2184.000000	100.321493
2183.000000	100.320976
2182.000000	100.320793
2181.000000	100.321066
2180.000000	100.321474
2179.000000	100.321719
2178.000000	100.321894
2177.000000	100.322203
2176.000000	100.322572
2175.000000	100.322767
2174.000000	100.322766
2173.000000	100.322805
2172.000000	100.323082
2171.000000	100.323538
2170.000000	100.323956
2169.000000	100.324192
2168.000000	100.324270
2167.000000	100.324289
2166.000000	100.324318
2165.000000	100.324394
2164.000000	100.324561
2163.000000	100.324864
2162.000000	100.325260
2161.000000	100.325587
2160.000000	100.325682
2159.000000	100.325521
2158.000000	100.325244
2157.000000	100.325077
2156.000000	100.325156
2155.000000	100.325468
2154.000000	100.325895
2153.000000	100.326315
2152.000000	100.326704
2151.000000	100.327109
2150.000000	100.327550
2149.000000	100.327973
2148.000000	100.328333
2147.000000	100.328691
2146.000000	100.329165
2145.000000	100.329740
2144.000000	100.330209
2143.000000	100.330394
2142.000000	100.330395
2141.000000	100.330556
2140.000000	100.331139
2139.000000	100.332138
2138.000000	100.333347
2137.000000	100.334507
2136.000000	100.335438
2135.000000	100.336065
2134.000000	100.336395
2133.000000	100.336500
2132.000000	100.336535
2131.000000	100.336730
2130.000000	100.337264
2129.000000	100.338097
2128.000000	100.339027
2127.000000	100.339990
2126.000000	100.341135
2125.000000	100.342471
2124.000000	100.343633
2123.000000	100.344261
2122.000000	100.344491
2121.000000	100.344857
2120.000000	100.345621
2119.000000	100.346512
2118.000000	100.347172
2117.000000	100.347582
2116.000000	100.347925
2115.000000	100.348267
2114.000000	100.348601
2113.000000	100.349053
2112.000000	100.349833
2111.000000	100.351098
2110.000000	100.352933
2109.000000	100.355310
2108.000000	100.357970
2107.000000	100.360505
2106.000000	100.362605
2105.000000	100.364032
2104.000000	100.364504
2103.000000	100.364012
2102.000000	100.363393
2101.000000	100.363968
2100.000000	100.366129
2099.000000	100.368624
2098.000000	100.369764
2097.000000	100.369149
2096.000000	100.367739
2095.000000	100.366556
2094.000000	100.366029
2093.000000	100.366430
2092.000000	100.367883
2091.000000	100.369828
2090.000000	100.371368
2089.000000	100.372456
2088.000000	100.373936
2087.000000	100.376048
2086.000000	100.377707
2085.000000	100.377819
2084.000000	100.376741
2083.000000	100.375868
2082.000000	100.376171
2081.000000	100.377727
2080.000000	100.380284
2079.000000	100.383620
2078.000000	100.387458
2077.000000	100.391543
2076.000000	100.395739
2075.000000	100.399488
2074.000000	100.401431
2073.000000	100.400356
2072.000000	100.396728
2071.000000	100.392768
2070.000000	100.390565
2069.000000	100.390366
2068.000000	100.391111
2067.000000	100.392259
2066.000000	100.394459
2065.000000	100.398235
2064.000000	100.402587
2063.000000	100.405535
2062.000000	100.406013
2061.000000	100.404713
2060.000000	100.403034
2059.000000	100.401601
2058.000000	100.400190
2057.000000	100.398716
2056.000000	100.397441
2055.000000	100.396179
2054.000000	100.394162
2053.000000	100.391081
2052.000000	100.387741
2051.000000	100.385177
2050.000000	100.383517
2049.000000	100.382239
2048.000000	100.381135
2047.000000	100.380230
2046.000000	100.378903
2045.000000	100.376216
2044.000000	100.372568
2043.000000	100.370151
2042.000000	100.370778
2041.000000	100.373675
2040.000000	100.376011
2039.000000	100.375780
2038.000000	100.373493
2037.000000	100.370973
2036.000000	100.369334
2035.000000	100.368420
2034.000000	100.367709
2033.000000	100.367086
2032.000000	100.366818
2031.000000	100.367176
2030.000000	100.368170
2029.000000	100.369343
2028.000000	100.369836
2027.000000	100.368928
2026.000000	100.366654
2025.000000	100.363822
2024.000000	100.361340
2023.000000	100.359605
2022.000000	100.358494
2021.000000	100.357695
2020.000000	100.356955
2019.000000	100.356145
2018.000000	100.355220
2017.000000	100.354141
2016.000000	100.352859
2015.000000	100.351434
2014.000000	100.350093
2013.000000	100.349025
2012.000000	100.348079
2011.000000	100.346804
2010.000000	100.344942
2009.000000	100.342841
2008.000000	100.341258
2007.000000	100.340682
2006.000000	100.341011
2005.000000	100.341749
2004.000000	100.342387
2003.000000	100.342595
2002.000000	100.342151
2001.000000	100.340892
2000.000000	100.338841
1999.000000	100.336383
1998.000000	100.334239
1997.000000	100.332976
1996.000000	100.332513
1995.000000	100.332147
1994.000000	100.331329
1993.000000	100.330309
1992.000000	100.329718
1991.000000	100.329646
1990.000000	100.329546
1989.000000	100.329079
1988.000000	100.328627
1987.000000	100.328739
1986.000000	100.329386
1985.000000	100.329956
1984.000000	100.329888
1983.000000	100.329092
1982.000000	100.327837
1981.000000	100.326505
1980.000000	100.325448
1979.000000	100.324876
1978.000000	100.324745
1977.000000	100.324770
1976.000000	100.324599
1975.000000	100.324054
1974.000000	100.323238
1973.000000	100.322487
1972.000000	100.322167
1971.000000	100.322416
1970.000000	100.323018
1969.000000	100.323572
1968.000000	100.323806
1967.000000	100.323723
1966.000000	100.323488
1965.000000	100.323245
1964.000000	100.323063
1963.000000	100.322892
1962.000000	100.322508
1961.000000	100.321661
1960.000000	100.320462
1959.000000	100.319464
1958.000000	100.319138
1957.000000	100.319374
1956.000000	100.319756
1955.000000	100.320160
1954.000000	100.320786
1953.000000	100.321683
1952.000000	100.322599
1951.000000	100.323293
1950.000000	100.323563
1949.000000	100.323058
1948.000000	100.321546
1947.000000	100.319525
1946.000000	100.318088
1945.000000	100.317757
1944.000000	100.317747
1943.000000	100.316914
1942.000000	100.315425
1941.000000	100.314831
1940.000000	100.316239
1939.000000	100.318818
1938.000000	100.320340
1937.000000	100.319201
1936.000000	100.315800
1935.000000	100.311958
1934.000000	100.309118
1933.000000	100.307350
1932.000000	100.306028
1931.000000	100.304997
1930.000000	100.304603
1929.000000	100.305077
1928.000000	100.306242
1927.000000	100.307660
1926.000000	100.308771
1925.000000	100.308822
1924.000000	100.307281
1923.000000	100.304274
1922.000000	100.300221
1921.000000	100.295294
1920.000000	100.289640
1919.000000	100.283935
1918.000000	100.279164
1917.000000	100.275386
1916.000000	100.271656
1915.000000	100.267717
1914.000000	100.264788
1913.000000	100.264035
1912.000000	100.264422
1911.000000	100.262941
1910.000000	100.257631
1909.000000	100.250252
1908.000000	100.244868
1907.000000	100.243226
1906.000000	100.242723
1905.000000	100.239396
1904.000000	100.232590
1903.000000	100.225409
1902.000000	100.220541
1901.000000	100.217334
1900.000000	100.213776
1899.000000	100.209712
1898.000000	100.206335
1897.000000	100.203258
1896.000000	100.198543
1895.000000	100.191947
1894.000000	100.186004
1893.000000	100.182918
1892.000000	100.182142
1891.000000	100.181714
1890.000000	100.180788
1889.000000	100.179860
1888.000000	100.179254
1887.000000	100.178915
1886.000000	100.179142
1885.000000	100.180246
1884.000000	100.181737
1883.000000	100.182523
1882.000000	100.181731
1881.000000	100.179180
1880.000000	100.175399
1879.000000	100.171468
1878.000000	100.168421
1877.000000	100.166206
1876.000000	100.163708
1875.000000	100.160391
1874.000000	100.157236
1873.000000	100.155595
1872.000000	100.155832
1871.000000	100.157329
1870.000000	100.159020
1869.000000	100.159748
1868.000000	100.159098
1867.000000	100.158350
1866.000000	100.159564
1865.000000	100.163239
1864.000000	100.167792
1863.000000	100.171810
1862.000000	100.175662
1861.000000	100.179657
1860.000000	100.181975
1859.000000	100.180688
1858.000000	100.177340
1857.000000	100.176162
1856.000000	100.179207
1855.000000	100.184294
1854.000000	100.188367
1853.000000	100.191485
1852.000000	100.196154
1851.000000	100.203452
1850.000000	100.211710
1849.000000	100.218546
1848.000000	100.223363
1847.000000	100.227477
1846.000000	100.232174
1845.000000	100.237024
1844.000000	100.240081
1843.000000	100.239852
1842.000000	100.236681
1841.000000	100.231997
1840.000000	100.227247
1839.000000	100.223883
1838.000000	100.222992
1837.000000	100.224227
1836.000000	100.225891
1835.000000	100.226626
1834.000000	100.226723
1833.000000	100.227436
1832.000000	100.229220
1831.000000	100.231391
1830.000000	100.233767
1829.000000	100.236818
1828.000000	100.240140
1827.000000	100.242549
1826.000000	100.243482
1825.000000	100.243673
1824.000000	100.244140
1823.000000	100.245007
1822.000000	100.245765
1821.000000	100.245820
1820.000000	100.244602
1819.000000	100.242087
1818.000000	100.239314
1817.000000	100.237579
1816.000000	100.237167
1815.000000	100.237428
1814.000000	100.238012
1813.000000	100.239155
1812.000000	100.240582
1811.000000	100.241283
1810.000000	100.240576
1809.000000	100.238895
1808.000000	100.237343
1807.000000	100.236881
1806.000000	100.238003
1805.000000	100.240564
1804.000000	100.243690
1803.000000	100.246269
1802.000000	100.247937
1801.000000	100.249312
1800.000000	100.250965
1799.000000	100.252655
1798.000000	100.253729
1797.000000	100.253935
1796.000000	100.253615
1795.000000	100.253371
1794.000000	100.253726
1793.000000	100.254941
1792.000000	100.256803
1791.000000	100.258644
1790.000000	100.259973
1789.000000	100.260913
1788.000000	100.261827
1787.000000	100.262928
1786.000000	100.264254
1785.000000	100.265805
1784.000000	100.267481
1783.000000	100.268986
1782.000000	100.270054
1781.000000	100.270795
1780.000000	100.271680
1779.000000	100.273067
1778.000000	100.274861
1777.000000	100.276712
1776.000000	100.278372
1775.000000	100.279804
1774.000000	100.281046
1773.000000	100.282192
1772.000000	100.283509
1771.000000	100.285293
1770.000000	100.287514
1769.000000	100.289720
1768.000000	100.291364
1767.000000	100.292238
1766.000000	100.292618
1765.000000	100.292979
1764.000000	100.293578
1763.000000	100.294442
1762.000000	100.295643
1761.000000	100.297352
1760.000000	100.299457
1759.000000	100.301404
1758.000000	100.302542
1757.000000	100.302886
1756.000000	100.303302
1755.000000	100.304423
1754.000000	100.305880
1753.000000	100.306777
1752.000000	100.306487
1751.000000	100.305179
1750.000000	100.303783
1749.000000	100.303251
1748.000000	100.304123
1747.000000	100.306133
1746.000000	100.308029
1745.000000	100.308384
1744.000000	100.306843
1743.000000	100.304668
1742.000000	100.303598
1741.000000	100.304125
1740.000000	100.305259
1739.000000	100.305901
1738.000000	100.305942
1737.000000	100.306002
1736.000000	100.306364
1735.000000	100.306380
1734.000000	100.305246
1733.000000	100.303130
1732.000000	100.300519
1731.000000	100.297280
1730.000000	100.293232
1729.000000	100.289209
1728.000000	100.286599
1727.000000	100.286128
1726.000000	100.287381
1725.000000	100.289083
1724.000000	100.289823
1723.000000	100.289105
1722.000000	100.287351
1721.000000	100.285117
1720.000000	100.282386
1719.000000	100.278529
1718.000000	100.273602
1717.000000	100.268975
1716.000000	100.265442
1715.000000	100.262350
1714.000000	100.258948
1713.000000	100.255213
1712.000000	100.251679
1711.000000	100.248899
1710.000000	100.247026
1709.000000	100.245628
1708.000000	100.243833
1707.000000	100.240932
1706.000000	100.237060
1705.000000	100.232998
1704.000000	100.228946
1703.000000	100.224267
1702.000000	100.218424
1701.000000	100.211921
1700.000000	100.206619
1699.000000	100.203384
1698.000000	100.201037
1697.000000	100.198237
1696.000000	100.194667
1695.000000	100.190612
1694.000000	100.186354
1693.000000	100.182082
1692.000000	100.177862
1691.000000	100.173631
1690.000000	100.169254
1689.000000	100.164750
1688.000000	100.160336
1687.000000	100.156172
1686.000000	100.152186
1685.000000	100.148032
1684.000000	100.143566
1683.000000	100.139054
1682.000000	100.134668
1681.000000	100.130412
1680.000000	100.126305
1679.000000	100.122340
1678.000000	100.118389
1677.000000	100.114266
1676.000000	100.109864
1675.000000	100.105278
1674.000000	100.100794
1673.000000	100.096527
1672.000000	100.092324
1671.000000	100.087955
1670.000000	100.083337
1669.000000	100.078754
1668.000000	100.074564
1667.000000	100.070721
1666.000000	100.066898
1665.000000	100.062906
1664.000000	100.058846
1663.000000	100.054967
1662.000000	100.051275
1661.000000	100.047496
1660.000000	100.043562
1659.000000	100.039765
1658.000000	100.036282
1657.000000	100.032773
1656.000000	100.028736
1655.000000	100.023943
1654.000000	100.018986
1653.000000	100.015770
1652.000000	100.014598
1651.000000	100.013640
1650.000000	100.011936
1649.000000	100.009242
1648.000000	100.005724
1647.000000	100.002329
1646.000000	100.000039
1645.000000	99.998207
1644.000000	99.995824
1643.000000	99.993094
1642.000000	99.990929
1641.000000	99.989794
1640.000000	99.988959
1639.000000	99.987079
1638.000000	99.983333
1637.000000	99.977987
1636.000000	99.973328
1635.000000	99.972105
1634.000000	99.973601
1633.000000	99.974611
1632.000000	99.973335
1631.000000	99.970430
1630.000000	99.968144
1629.000000	99.968379
1628.000000	99.970966
1627.000000	99.973845
1626.000000	99.975179
1625.000000	99.974535
1624.000000	99.972247
1623.000000	99.969377
1622.000000	99.967522
1621.000000	99.967376
1620.000000	99.968198
1619.000000	99.968896
1618.000000	99.969226
1617.000000	99.970163
1616.000000	99.972525
1615.000000	99.975245
1614.000000	99.977054
1613.000000	99.978301
1612.000000	99.980138
1611.000000	99.982800
1610.000000	99.985239
1609.000000	99.986865
1608.000000	99.988688
1607.000000	99.991941
1606.000000	99.996398
1605.000000	100.000904
1604.000000	100.004690
1603.000000	100.007759
1602.000000	100.010369
1601.000000	100.012378
1600.000000	100.013276
1599.000000	100.012970
1598.000000	100.012530
1597.000000	100.013685
1596.000000	100.017215
1595.000000	100.022066
1594.000000	100.026321
1593.000000	100.029257
1592.000000	100.031823
1591.000000	100.035197
1590.000000	100.039411
1589.000000	100.043403
1588.000000	100.046166
1587.000000	100.047660
1586.000000	100.048796
1585.000000	100.050684
1584.000000	100.053656
1583.000000	100.057130
1582.000000	100.060406
1581.000000	100.063349
1580.000000	100.066133
1579.000000	100.068749
1578.000000	100.071140
1577.000000	100.073482
1576.000000	100.076119
1575.000000	100.079025
1574.000000	100.081839
1573.000000	100.084421
1572.000000	100.086854
1571.000000	100.089213
1570.000000	100.091488
1569.000000	100.093722
1568.000000	100.096030
1567.000000	100.098433
1566.000000	100.100852
1565.000000	100.103181
1564.000000	100.105350
1563.000000	100.107321
1562.000000	100.109132
1561.000000	100.111004
1560.000000	100.113139
1559.000000	100.115477
1558.000000	100.117864
1557.000000	100.119980
1556.000000	100.121753
1555.000000	100.123183
1554.000000	100.124389
1553.000000	100.125623
1552.000000	100.127082
1551.000000	100.128782
1550.000000	100.130592
1549.000000	100.132397
1548.000000	100.134313
1547.000000	100.136627
1546.000000	100.139385
1545.000000	100.142056
1544.000000	100.143939
1543.000000	100.144865
1542.000000	100.145291
1541.000000	100.145764
1540.000000	100.147004
1539.000000	100.149371
1538.000000	100.151938
1537.000000	100.153814
1536.000000	100.154986
1535.000000	100.156015
1534.000000	100.157461
1533.000000	100.159226
1532.000000	100.160522
1531.000000	100.161031
1530.000000	100.161309
1529.000000	100.162045
1528.000000	100.163429
1527.000000	100.165108
1526.000000	100.166699
1525.000000	100.168197
1524.000000	100.169727
1523.000000	100.171104
1522.000000	100.171927
1521.000000	100.172522
1520.000000	100.173852
1519.000000	100.176336
1518.000000	100.179776
1517.000000	100.183684
1516.000000	100.187458
1515.000000	100.190562
1514.000000	100.192909
1513.000000	100.194805
1512.000000	100.196511
1511.000000	100.198143
1510.000000	100.199776
1509.000000	100.201488
1508.000000	100.203098
1507.000000	100.204819
1506.000000	100.207205
1505.000000	100.209682
1504.000000	100.211734
1503.000000	100.213406
1502.000000	100.215052
1501.000000	100.217172
1500.000000	100.220007
1499.000000	100.223195
1498.000000	100.225950
1497.000000	100.227735
1496.000000	100.228762
1495.000000	100.229711
1494.000000	100.231006
1493.000000	100.232841
1492.000000	100.235431
1491.000000	100.238759
1490.000000	100.242247
1489.000000	100.245121
1488.000000	100.247096
1487.000000	100.248580
1486.000000	100.250235
1485.000000	100.252540
1484.000000	100.255607
1483.000000	100.258989
1482.000000	100.261944
1481.000000	100.264044
1480.000000	100.265454
1479.000000	100.266397
1478.000000	100.266742
1477.000000	100.266516
1476.000000	100.266557
1475.000000	100.267863
1474.000000	100.270182
1473.000000	100.272088
1472.000000	100.272825
1471.000000	100.273064
1470.000000	100.273419
1469.000000	100.273922
1468.000000	100.274803
1467.000000	100.276599
1466.000000	100.279082
1465.000000	100.280687
1464.000000	100.280306
1463.000000	100.279010
1462.000000	100.278747
1461.000000	100.280424
1460.000000	100.283910
1459.000000	100.288218
1458.000000	100.291299
1457.000000	100.291524
1456.000000	100.289804
1455.000000	100.288114
1454.000000	100.287135
1453.000000	100.286627
1452.000000	100.286355
1451.000000	100.286140
1450.000000	100.285604
1449.000000	100.284265
1448.000000	100.282107
1447.000000	100.280001
1446.000000	100.278847
1445.000000	100.278872
1444.000000	100.279505
1443.000000	100.279696
1442.000000	100.278481
1441.000000	100.275719
1440.000000	100.272378
1439.000000	100.269929
1438.000000	100.269599
1437.000000	100.271860
1436.000000	100.276052
1435.000000	100.280208
1434.000000	100.282759
1433.000000	100.283442
1432.000000	100.282755
1431.000000	100.281004
1430.000000	100.277810
1429.000000	100.273118
1428.000000	100.268609
1427.000000	100.267020
1426.000000	100.269867
1425.000000	100.276426
1424.000000	100.283793
1423.000000	100.288675
1422.000000	100.290041
1421.000000	100.289130
1420.000000	100.287495
1419.000000	100.286238
1418.000000	100.286651
1417.000000	100.289491
1416.000000	100.294522
1415.000000	100.300493
1414.000000	100.305472
1413.000000	100.308487
1412.000000	100.310611
1411.000000	100.313425
1410.000000	100.316948
1409.000000	100.320217
1408.000000	100.323300
1407.000000	100.327058
1406.000000	100.330948
1405.000000	100.333247
1404.000000	100.333558
1403.000000	100.333078
1402.000000	100.332422
1401.000000	100.331361
1400.000000	100.330977
1399.000000	100.333841
1398.000000	100.340306
1397.000000	100.347219
1396.000000	100.352271
1395.000000	100.356843
1394.000000	100.363088
1393.000000	100.370324
1392.000000	100.376771
1391.000000	100.382462
1390.000000	100.388049
1389.000000	100.392500
1388.000000	100.394177
1387.000000	100.394332
1386.000000	100.396399
1385.000000	100.401083
1384.000000	100.405569
1383.000000	100.407007
1382.000000	100.405010
1381.000000	100.401396
1380.000000	100.398790
1379.000000	100.399029
1378.000000	100.401647
1377.000000	100.404095
1376.000000	100.404094
1375.000000	100.401397
1374.000000	100.397383
1373.000000	100.393526
1372.000000	100.390893
1371.000000	100.390473
1370.000000	100.391843
1369.000000	100.392448
1368.000000	100.390204
1367.000000	100.386564
1366.000000	100.384934
1365.000000	100.386292
1364.000000	100.388102
1363.000000	100.387738
1362.000000	100.385877
1361.000000	100.385049
1360.000000	100.386350
1359.000000	100.389051
1358.000000	100.391553
1357.000000	100.392024
1356.000000	100.389623
1355.000000	100.385932
1354.000000	100.384189
1353.000000	100.386225
1352.000000	100.390777
1351.000000	100.394983
1350.000000	100.396719
1349.000000	100.395757
1348.000000	100.393462
1347.000000	100.391814
1346.000000	100.391921
1345.000000	100.393126
1344.000000	100.393861
1343.000000	100.393440
1342.000000	100.392508
1341.000000	100.392064
1340.000000	100.393060
1339.000000	100.396505
1338.000000	100.402199
1337.000000	100.407485
1336.000000	100.409194
1335.000000	100.406936
1334.000000	100.403281
1333.000000	100.400534
1332.000000	100.398726
1331.000000	100.397602
1330.000000	100.398551
1329.000000	100.402623
1328.000000	100.407764
1327.000000	100.410343
1326.000000	100.409110
1325.000000	100.406060
1324.000000	100.403549
1323.000000	100.402034
1322.000000	100.401040
1321.000000	100.400718
1320.000000	100.401394
1319.000000	100.402325
1318.000000	100.402107
1317.000000	100.400513
1316.000000	100.399189
1315.000000	100.399984
1314.000000	100.402667
1313.000000	100.404804
1312.000000	100.404338
1311.000000	100.401929
1310.000000	100.400157
1309.000000	100.400662
1308.000000	100.402773
1307.000000	100.404784
1306.000000	100.405656
1305.000000	100.405441
1304.000000	100.404676
1303.000000	100.403653
1302.000000	100.401913
1301.000000	100.398652
1300.000000	100.394236
1299.000000	100.390874
1298.000000	100.390592
1297.000000	100.392575
1296.000000	100.393864
1295.000000	100.393090
1294.000000	100.392153
1293.000000	100.393317
1292.000000	100.395879
1291.000000	100.397043
1290.000000	100.395279
1289.000000	100.391343
1288.000000	100.386510
1287.000000	100.381436
1286.000000	100.376959
1285.000000	100.374484
1284.000000	100.374611
1283.000000	100.375856
1282.000000	100.375566
1281.000000	100.372369
1280.000000	100.367645
1279.000000	100.364586
1278.000000	100.365632
1277.000000	100.370465
1276.000000	100.376267
1275.000000	100.379969
1274.000000	100.380263
1273.000000	100.377375
1272.000000	100.371651
1271.000000	100.363656
1270.000000	100.355679
1269.000000	100.351373
1268.000000	100.352379
1267.000000	100.355911
1266.000000	100.357462
1265.000000	100.356236
1264.000000	100.355998
1263.000000	100.359563
1262.000000	100.364423
1261.000000	100.366089
1260.000000	100.364498
1259.000000	100.363831
1258.000000	100.365786
1257.000000	100.366405
1256.000000	100.361034
1255.000000	100.349770
1254.000000	100.336132
1253.000000	100.322411
1252.000000	100.308992
1251.000000	100.296920
1250.000000	100.288029
1249.000000	100.282687
1248.000000	100.279668
1247.000000	100.277985
1246.000000	100.277024
1245.000000	100.275544
1244.000000	100.272728
1243.000000	100.269521
1242.000000	100.266298
1241.000000	100.259670
1240.000000	100.245123
1239.000000	100.223727
1238.000000	100.203516
1237.000000	100.192445
1236.000000	100.191428
1235.000000	100.195101
1234.000000	100.197302
1233.000000	100.194438
1232.000000	100.185156
1231.000000	100.169253
1230.000000	100.147585
1229.000000	100.122520
1228.000000	100.097958
1227.000000	100.077491
1226.000000	100.061053
1225.000000	100.044026
1224.000000	100.021481
1223.000000	99.993010
1222.000000	99.961742
1221.000000	99.929216
1220.000000	99.893849
1219.000000	99.854597
1218.000000	99.813243
1217.000000	99.772096
1216.000000	99.731691
1215.000000	99.691807
1214.000000	99.652584
1213.000000	99.613131
1212.000000	99.570452
1211.000000	99.521303
1210.000000	99.464950
1209.000000	99.404096
1208.000000	99.344161
1207.000000	99.291269
1206.000000	99.248671
1205.000000	99.213996
1204.000000	99.180653
1203.000000	99.142325
1202.000000	99.096318
1201.000000	99.044142
1200.000000	98.990429
1199.000000	98.940313
1198.000000	98.895804
1197.000000	98.854725
1196.000000	98.814055
1195.000000	98.773250
1194.000000	98.733126
1193.000000	98.692996
1192.000000	98.650800
1191.000000	98.605106
1190.000000	98.555537
1189.000000	98.502795
1188.000000	98.450120
1187.000000	98.402599
1186.000000	98.361693
1185.000000	98.321650
1184.000000	98.274808
1183.000000	98.219693
1182.000000	98.160566
1181.000000	98.099686
1180.000000	98.034555
1179.000000	97.963795
1178.000000	97.891366
1177.000000	97.822215
1176.000000	97.756168
1175.000000	97.688713
1174.000000	97.616833
1173.000000	97.542363
1172.000000	97.469803
1171.000000	97.401747
1170.000000	97.336557
1169.000000	97.270691
1168.000000	97.203450
1167.000000	97.138616
1166.000000	97.081178
1165.000000	97.034390
1164.000000	97.001413
1163.000000	96.987497
1162.000000	96.996949
1161.000000	97.027338
1160.000000	97.068176
1159.000000	97.106124
1158.000000	97.131538
1157.000000	97.140316
1156.000000	97.131163
1155.000000	97.103248
1154.000000	97.057240
1153.000000	96.997490
1152.000000	96.931412
1151.000000	96.865524
1150.000000	96.801885
1149.000000	96.738745
1148.000000	96.674263
1147.000000	96.608809
1146.000000	96.544492
1145.000000	96.484301
1144.000000	96.431400
1143.000000	96.386628
1142.000000	96.345728
1141.000000	96.301222
1140.000000	96.248700
1139.000000	96.190559
1138.000000	96.132858
1137.000000	96.079157
1136.000000	96.027778
1135.000000	95.974188
1134.000000	95.915792
1133.000000	95.854995
1132.000000	95.797194
1131.000000	95.745058
1130.000000	95.695811
1129.000000	95.645383
1128.000000	95.593291
1127.000000	95.540826
1126.000000	95.486295
1125.000000	95.426436
1124.000000	95.362584
1123.000000	95.301254
1122.000000	95.247256
1121.000000	95.199321
1120.000000	95.153729
1119.000000	95.109273
1118.000000	95.066813
1117.000000	95.025941
1116.000000	94.983912
1115.000000	94.937360
1114.000000	94.885025
1113.000000	94.829664
1112.000000	94.776749
1111.000000	94.730386
1110.000000	94.691426
1109.000000	94.659907
1108.000000	94.635671
1107.000000	94.613874
1106.000000	94.584312
1105.000000	94.541140
1104.000000	94.491579
1103.000000	94.449903
1102.000000	94.423662
1101.000000	94.409482
1100.000000	94.399152
1099.000000	94.383922
1098.000000	94.355407
1097.000000	94.310697
1096.000000	94.258247
1095.000000	94.213277
1094.000000	94.185022
1093.000000	94.170755
1092.000000	94.160968
1091.000000	94.146361
1090.000000	94.121934
1089.000000	94.089835
1088.000000	94.057489
1087.000000	94.028580
1086.000000	93.997790
1085.000000	93.959279
1084.000000	93.917091
1083.000000	93.880266
1082.000000	93.849911
1081.000000	93.819025
1080.000000	93.784119
1079.000000	93.749173
1078.000000	93.718316
1077.000000	93.691397
1076.000000	93.666107
1075.000000	93.637237
1074.000000	93.595165
1073.000000	93.533461
1072.000000	93.458169
1071.000000	93.382447
1070.000000	93.311570
1069.000000	93.239686
1068.000000	93.159955
1067.000000	93.068976
1066.000000	92.962058
1065.000000	92.834746
1064.000000	92.692021
1063.000000	92.548687
1062.000000	92.418304
1061.000000	92.307113
1060.000000	92.217167
1059.000000	92.145478
1058.000000	92.079956
1057.000000	92.007493
1056.000000	91.928552
1055.000000	91.854414
1054.000000	91.787902
1053.000000	91.716605
1052.000000	91.628619
1051.000000	91.525255
1050.000000	91.413671
1049.000000	91.296526
1048.000000	91.173924
1047.000000	91.045925
1046.000000	90.908885
1045.000000	90.758540
1044.000000	90.600130
1043.000000	90.446951
1042.000000	90.305877
1041.000000	90.172375
1040.000000	90.041684
1039.000000	89.915219
1038.000000	89.793445
1037.000000	89.673622
1036.000000	89.559393
1035.000000	89.462173
1034.000000	89.386995
1033.000000	89.325409
1032.000000	89.267602
1031.000000	89.214116
1030.000000	89.170516
1029.000000	89.137470
1028.000000	89.111205
1027.000000	89.088461
1026.000000	89.067336
1025.000000	89.047290
1024.000000	89.029683
1023.000000	89.014197
1022.000000	88.995695
1021.000000	88.970195
1020.000000	88.942328
1019.000000	88.919910
1018.000000	88.902781
1017.000000	88.884616
1016.000000	88.863640
1015.000000	88.842565
1014.000000	88.819661
1013.000000	88.790050
1012.000000	88.755712
1011.000000	88.724736
1010.000000	88.700389
1009.000000	88.679442
1008.000000	88.660858
1007.000000	88.647377
1006.000000	88.639045
1005.000000	88.633898
1004.000000	88.633959
1003.000000	88.641583
1002.000000	88.651650
1001.000000	88.657694
1000.000000	88.664848
999.000000	88.685863
998.000000	88.724143
997.000000	88.770364
996.000000	88.815610
995.000000	88.858181
994.000000	88.897457
993.000000	88.931469
992.000000	88.962359
991.000000	88.996020
990.000000	89.034697
989.000000	89.075988
988.000000	89.118676
987.000000	89.164199
986.000000	89.215045
985.000000	89.277340
984.000000	89.359456
983.000000	89.459550
982.000000	89.560478
981.000000	89.648580
980.000000	89.732977
979.000000	89.833648
978.000000	89.955009
977.000000	90.084664
976.000000	90.214810
975.000000	90.349637
974.000000	90.491259
973.000000	90.632686
972.000000	90.767631
971.000000	90.896869
970.000000	91.023696
969.000000	91.152701
968.000000	91.292496
967.000000	91.448411
966.000000	91.611522
965.000000	91.765296
964.000000	91.904063
963.000000	92.035390
962.000000	92.164730
961.000000	92.288903
960.000000	92.406010
959.000000	92.520665
958.000000	92.636268
957.000000	92.750935
956.000000	92.863383
955.000000	92.974357
954.000000	93.080127
953.000000	93.173342
952.000000	93.253418
951.000000	93.329109
950.000000	93.408312
949.000000	93.491003
948.000000	93.573405
947.000000	93.652253
946.000000	93.723709
945.000000	93.784949
944.000000	93.838700
943.000000	93.890975
942.000000	93.943564
941.000000	93.993677
940.000000	94.040157
939.000000	94.084212
938.000000	94.125700
937.000000	94.165269
936.000000	94.208142
935.000000	94.258060
934.000000	94.309184
933.000000	94.352816
932.000000	94.390552
931.000000	94.431308
930.000000	94.476617
929.000000	94.519570
928.000000	94.558391
927.000000	94.599776
926.000000	94.646723
925.000000	94.693234
924.000000	94.733946
923.000000	94.769908
922.000000	94.802135
921.000000	94.828300
920.000000	94.849284
919.000000	94.871378
918.000000	94.898573
917.000000	94.928805
916.000000	94.959401
915.000000	94.989874
914.000000	95.019436
913.000000	95.050106
912.000000	95.092242
911.000000	95.156578
910.000000	95.239014
909.000000	95.323536
908.000000	95.403542
907.000000	95.489949
906.000000	95.593900
905.000000	95.711737
904.000000	95.831971
903.000000	95.948733
902.000000	96.063197
901.000000	96.178975
900.000000	96.301015
899.000000	96.432498
898.000000	96.567997
897.000000	96.694954
896.000000	96.805161
895.000000	96.899787
894.000000	96.982661
893.000000	97.057342
892.000000	97.133804
891.000000	97.227477
890.000000	97.343514
889.000000	97.468113
888.000000	97.582680
887.000000	97.682050
886.000000	97.773018
885.000000	97.860462
884.000000	97.942557
883.000000	98.016855
882.000000	98.083416
881.000000	98.142349
880.000000	98.194030
879.000000	98.241837
878.000000	98.290413
877.000000	98.341567
876.000000	98.395068
875.000000	98.451904
874.000000	98.513558
873.000000	98.579799
872.000000	98.649767
871.000000	98.722908
870.000000	98.796441
869.000000	98.865198
868.000000	98.927667
867.000000	98.989863
866.000000	99.059470
865.000000	99.137466
864.000000	99.218036
863.000000	99.294347
862.000000	99.361257
861.000000	99.415343
860.000000	99.457850
859.000000	99.497046
858.000000	99.541658
857.000000	99.590536
856.000000	99.634072
855.000000	99.668362
854.000000	99.703574
853.000000	99.753500
852.000000	99.817947
851.000000	99.879772
850.000000	99.920438
849.000000	99.936548
848.000000	99.941479
847.000000	99.953393
846.000000	99.980934
845.000000	100.016889
844.000000	100.044092
843.000000	100.049526
842.000000	100.034872
841.000000	100.012710
840.000000	99.992580
839.000000	99.974248
838.000000	99.955144
837.000000	99.937488
836.000000	99.922325
835.000000	99.901865
834.000000	99.868153
833.000000	99.829328
832.000000	99.807329
831.000000	99.815252
830.000000	99.843553
829.000000	99.872469
828.000000	99.890354
827.000000	99.895046
826.000000	99.888139
825.000000	99.877965
824.000000	99.878877
823.000000	99.894651
822.000000	99.909989
821.000000	99.910462
820.000000	99.900936
819.000000	99.890845
818.000000	99.870955
817.000000	99.821913
816.000000	99.742484
815.000000	99.653029
814.000000	99.568455
813.000000	99.480695
812.000000	99.371744
811.000000	99.230320
810.000000	99.048842
809.000000	98.816904
808.000000	98.529813
807.000000	98.198645
806.000000	97.843581
805.000000	97.481231
804.000000	97.124282
803.000000	96.786769
802.000000	96.481874
801.000000	96.219600
800.000000	96.011045
799.000000	95.866571
798.000000	95.784520
797.000000	95.751076
796.000000	95.756620
795.000000	95.801377
794.000000	95.878381
793.000000	95.963657
792.000000	96.035133
791.000000	96.093510
790.000000	96.152137
789.000000	96.210307
788.000000	96.247778
787.000000	96.244686
786.000000	96.197293
785.000000	96.112976
784.000000	95.998856
783.000000	95.861600
782.000000	95.715367
781.000000	95.583466
780.000000	95.487831
779.000000	95.435799
778.000000	95.420066
777.000000	95.434380
776.000000	95.484510
775.000000	95.576705
774.000000	95.699685
773.000000	95.829435
772.000000	95.952571
771.000000	96.074883
770.000000	96.205106
769.000000	96.339939
768.000000	96.467641
767.000000	96.577127
766.000000	96.660135
765.000000	96.714501
764.000000	96.751969
763.000000	96.794886
762.000000	96.856590
761.000000	96.929259
760.000000	96.997197
759.000000	97.056956
758.000000	97.116868
757.000000	97.181166
756.000000	97.244976
755.000000	97.305278
754.000000	97.367414
753.000000	97.435908
752.000000	97.503623
751.000000	97.556513
750.000000	97.590266
