4000.000000	99.387433
3999.000000	99.386788
3998.000000	99.387065
3997.000000	99.388245
3996.000000	99.389440
3995.000000	99.389657
3994.000000	99.388816
3993.000000	99.387945
3992.000000	99.388308
3991.000000	99.390028
3990.000000	99.391834
3989.000000	99.392273
3988.000000	99.391088
3987.000000	99.389305
3986.000000	99.388203
3985.000000	99.388307
3984.000000	99.389198
3983.000000	99.389931
3982.000000	99.389582
3981.000000	99.387714
3980.000000	99.384708
3979.000000	99.381667
3978.000000	99.379742
3977.000000	99.379390
3976.000000	99.380152
3975.000000	99.381086
3974.000000	99.381538
3973.000000	99.381490
3972.000000	99.381223
3971.000000	99.380855
3970.000000	99.380246
3969.000000	99.379290
3968.000000	99.378209
3967.000000	99.377504
3966.000000	99.377642
3965.000000	99.378735
3964.000000	99.380391
3963.000000	99.381746
3962.000000	99.381814
3961.000000	99.380129
3960.000000	99.377188
3959.000000	99.374212
3958.000000	99.372133
3957.000000	99.370821
3956.000000	99.369490
3955.000000	99.367837
3954.000000	99.366532
3953.000000	99.366383
3952.000000	99.367193
3951.000000	99.367664
3950.000000	99.366570
3949.000000	99.363927
3948.000000	99.361042
3947.000000	99.359410
3946.000000	99.359571
3945.000000	99.360929
3944.000000	99.362158
3943.000000	99.361996
3942.000000	99.359872
3941.000000	99.356131
3940.000000	99.351975
3939.000000	99.348934
3938.000000	99.348003
3937.000000	99.349028
3936.000000	99.350866
3935.000000	99.352345
3934.000000	99.353333
3933.000000	99.354754
3932.000000	99.357401
3931.000000	99.360802
3930.000000	99.363590
3929.000000	99.364915
3928.000000	99.364932
3927.000000	99.364093
3926.000000	99.362543
3925.000000	99.360266
3924.000000	99.357513
3923.000000	99.354834
3922.000000	99.352706
3921.000000	99.351288
3920.000000	99.350619
3919.000000	99.350857
3918.000000	99.351967
3917.000000	99.353295
3916.000000	99.353958
3915.000000	99.353822
3914.000000	99.353709
3913.000000	99.354459
3912.000000	99.355979
3911.000000	99.357425
3910.000000	99.358247
3909.000000	99.358712
3908.000000	99.359318
3907.000000	99.359927
3906.000000	99.359717
3905.000000	99.358086
3904.000000	99.355483
3903.000000	99.353278
3902.000000	99.352657
3901.000000	99.353772
3900.000000	99.355793
3899.000000	99.357684
3898.000000	99.359101
3897.000000	99.360394
3896.000000	99.361955
3895.000000	99.363728
3894.000000	99.365212
3893.000000	99.365803
3892.000000	99.365213
3891.000000	99.363704
3890.000000	99.362028
3889.000000	99.361087
3888.000000	99.361464
3887.000000	99.363142
3886.000000	99.365414
3885.000000	99.367169
3884.000000	99.367669
3883.000000	99.366891
3882.000000	99.365315
3881.000000	99.363610
3880.000000	99.362369
3879.000000	99.361905
3878.000000	99.362264
3877.000000	99.363196
3876.000000	99.364155
3875.000000	99.364830
3874.000000	99.365593
3873.000000	99.367083
3872.000000	99.369345
3871.000000	99.371427
3870.000000	99.371975
3869.000000	99.370542
3868.000000	99.368254
3867.000000	99.367011
3866.000000	99.367983
3865.000000	99.370950
3864.000000	99.374684
3863.000000	99.377995
3862.000000	99.380546
3861.000000	99.382449
3860.000000	99.383407
3859.000000	99.382717
3858.000000	99.380047
3857.000000	99.376006
3856.000000	99.372052
3855.000000	99.370062
3854.000000	99.371378
3853.000000	99.375450
3852.000000	99.379665
3851.000000	99.382014
3850.000000	99.382329
3849.000000	99.381121
3848.000000	99.379020
3847.000000	99.376504
3846.000000	99.373649
3845.000000	99.370495
3844.000000	99.367589
3843.000000	99.365900
3842.000000	99.365960
3841.000000	99.367299
3840.000000	99.368791
3839.000000	99.369686
3838.000000	99.370190
3837.000000	99.370966
3836.000000	99.372332
3835.000000	99.374021
3834.000000	99.375330
3833.000000	99.375577
3832.000000	99.374785
3831.000000	99.373946
3830.000000	99.374223
3829.000000	99.375693
3828.000000	99.376989
3827.000000	99.376632
3826.000000	99.374803
3825.000000	99.373381
3824.000000	99.374206
3823.000000	99.377332
3822.000000	99.380711
3821.000000	99.382232
3820.000000	99.382102
3819.000000	99.382446
3818.000000	99.385038
3817.000000	99.389352
3816.000000	99.392802
3815.000000	99.393191
3814.000000	99.390447
3813.000000	99.386025
3812.000000	99.381424
3811.000000	99.377744
3810.000000	99.375823
3809.000000	99.375919
3808.000000	99.377303
3807.000000	99.378840
3806.000000	99.380529
3805.000000	99.383795
3804.000000	99.389706
3803.000000	99.396710
3802.000000	99.400607
3801.000000	99.398289
3800.000000	99.390656
3799.000000	99.381683
3798.000000	99.374760
3797.000000	99.370537
3796.000000	99.367991
3795.000000	99.366173
3794.000000	99.365083
3793.000000	99.365183
3792.000000	99.366593
3791.000000	99.369079
3790.000000	99.372454
3789.000000	99.376561
3788.000000	99.380818
3787.000000	99.383981
3786.000000	99.384694
3785.000000	99.382564
3784.000000	99.378646
3783.000000	99.374646
3782.000000	99.371610
3781.000000	99.369434
3780.000000	99.367654
3779.000000	99.366508
3778.000000	99.366599
3777.000000	99.367561
3776.000000	99.367639
3775.000000	99.364908
3774.000000	99.359168
3773.000000	99.352515
3772.000000	99.347797
3771.000000	99.346420
3770.000000	99.347584
3769.000000	99.349382
3768.000000	99.350434
3767.000000	99.350384
3766.000000	99.349570
3765.000000	99.349159
3764.000000	99.350928
3763.000000	99.355838
3762.000000	99.362348
3761.000000	99.366398
3760.000000	99.364235
3759.000000	99.355949
3758.000000	99.345964
3757.000000	99.339656
3756.000000	99.340044
3755.000000	99.347196
3754.000000	99.358995
3753.000000	99.371910
3752.000000	99.382062
3751.000000	99.387259
3750.000000	99.388342
3749.000000	99.388165
3748.000000	99.388860
3747.000000	99.388347
3746.000000	99.381342
3745.000000	99.366401
3744.000000	99.350395
3743.000000	99.341902
3742.000000	99.341821
3741.000000	99.343511
3740.000000	99.341070
3739.000000	99.334944
3738.000000	99.329236
3737.000000	99.326263
3736.000000	99.323597
3735.000000	99.316114
3734.000000	99.300689
3733.000000	99.279255
3732.000000	99.257728
3731.000000	99.241631
3730.000000	99.233355
3729.000000	99.232298
3728.000000	99.235953
3727.000000	99.240951
3726.000000	99.243840
3725.000000	99.241948
3724.000000	99.234037
3723.000000	99.220472
3722.000000	99.203183
3721.000000	99.184949
3720.000000	99.167710
3719.000000	99.151084
3718.000000	99.133265
3717.000000	99.113526
3716.000000	99.092936
3715.000000	99.072790
3714.000000	99.052628
3713.000000	99.030803
3712.000000	99.007093
3711.000000	98.983121
3710.000000	98.959506
3709.000000	98.935715
3708.000000	98.912695
3707.000000	98.891763
3706.000000	98.872025
3705.000000	98.850055
3704.000000	98.822815
3703.000000	98.791441
3702.000000	98.762212
3701.000000	98.742399
3700.000000	98.735133
3699.000000	98.738608
3698.000000	98.747680
3697.000000	98.755855
3696.000000	98.758168
3695.000000	98.753946
3694.000000	98.746612
3693.000000	98.740828
3692.000000	98.738985
3691.000000	98.739584
3690.000000	98.737914
3689.000000	98.729238
3688.000000	98.713242
3687.000000	98.695489
3686.000000	98.682935
3685.000000	98.677735
3684.000000	98.676633
3683.000000	98.673507
3682.000000	98.662885
3681.000000	98.643825
3680.000000	98.620521
3679.000000	98.598196
3678.000000	98.578265
3677.000000	98.557851
3676.000000	98.534098
3675.000000	98.507515
3674.000000	98.479839
3673.000000	98.452663
3672.000000	98.425704
3671.000000	98.396344
3670.000000	98.363860
3669.000000	98.329549
3668.000000	98.294128
3667.000000	98.258821
3666.000000	98.224689
3665.000000	98.191339
3664.000000	98.158517
3663.000000	98.127125
3662.000000	98.098499
3661.000000	98.073290
3660.000000	98.050844
3659.000000	98.029573
3658.000000	98.007989
3657.000000	97.985953
3656.000000	97.964893
3655.000000	97.946134
3654.000000	97.929357
3653.000000	97.912807
3652.000000	97.895136
3651.000000	97.876939
3650.000000	97.858704
3649.000000	97.836682
3648.000000	97.805257
3647.000000	97.766494
3646.000000	97.731239
3645.000000	97.708443
3644.000000	97.698210
3643.000000	97.693778
3642.000000	97.686800
3641.000000	97.671935
3640.000000	97.648807
3639.000000	97.621280
3638.000000	97.594208
3637.000000	97.569422
3636.000000	97.544789
3635.000000	97.518089
3634.000000	97.491932
3633.000000	97.472860
3632.000000	97.464289
3631.000000	97.460485
3630.000000	97.447640
3629.000000	97.416466
3628.000000	97.374740
3627.000000	97.339142
3626.000000	97.319908
3625.000000	97.316546
3624.000000	97.323518
3623.000000	97.336732
3622.000000	97.354014
3621.000000	97.372703
3620.000000	97.389551
3619.000000	97.403966
3618.000000	97.419779
3617.000000	97.441459
3616.000000	97.468936
3615.000000	97.497074
3614.000000	97.520998
3613.000000	97.541013
3612.000000	97.560480
3611.000000	97.580276
3610.000000	97.597483
3609.000000	97.609679
3608.000000	97.618896
3607.000000	97.628866
3606.000000	97.640444
3605.000000	97.652284
3604.000000	97.664155
3603.000000	97.677845
3602.000000	97.695411
3601.000000	97.716968
3600.000000	97.739905
3599.000000	97.760166
3598.000000	97.774402
3597.000000	97.781829
3596.000000	97.784711
3595.000000	97.787076
3594.000000	97.791758
3593.000000	97.798990
3592.000000	97.807782
3591.000000	97.816870
3590.000000	97.823763
3589.000000	97.825119
3588.000000	97.820436
3587.000000	97.814308
3586.000000	97.812660
3585.000000	97.817757
3584.000000	97.827036
3583.000000	97.834920
3582.000000	97.836976
3581.000000	97.833034
3580.000000	97.826795
3579.000000	97.823081
3578.000000	97.824623
3577.000000	97.830337
3576.000000	97.836055
3575.000000	97.837659
3574.000000	97.834154
3573.000000	97.828051
3572.000000	97.822914
3571.000000	97.820703
3570.000000	97.821291
3569.000000	97.823657
3568.000000	97.826727
3567.000000	97.828847
3566.000000	97.827529
3565.000000	97.821838
3564.000000	97.814481
3563.000000	97.809563
3562.000000	97.809210
3561.000000	97.812528
3560.000000	97.816338
3559.000000	97.817532
3558.000000	97.815574
3557.000000	97.812617
3556.000000	97.810912
3555.000000	97.810673
3554.000000	97.810885
3553.000000	97.811382
3552.000000	97.812781
3551.000000	97.814511
3550.000000	97.814591
3549.000000	97.811953
3548.000000	97.807968
3547.000000	97.805142
3546.000000	97.804513
3545.000000	97.804905
3544.000000	97.804722
3543.000000	97.803742
3542.000000	97.802953
3541.000000	97.803117
3540.000000	97.803971
3539.000000	97.804643
3538.000000	97.804545
3537.000000	97.803878
3536.000000	97.803312
3535.000000	97.803236
3534.000000	97.803440
3533.000000	97.803550
3532.000000	97.803578
3531.000000	97.803843
3530.000000	97.804484
3529.000000	97.805266
3528.000000	97.805875
3527.000000	97.806197
3526.000000	97.806233
3525.000000	97.805940
3524.000000	97.805399
3523.000000	97.805053
3522.000000	97.805509
3521.000000	97.807034
3520.000000	97.809245
3519.000000	97.811252
3518.000000	97.812243
3517.000000	97.812134
3516.000000	97.811832
3515.000000	97.812648
3514.000000	97.815043
3513.000000	97.817886
3512.000000	97.819248
3511.000000	97.818133
3510.000000	97.815268
3509.000000	97.812506
3508.000000	97.811282
3507.000000	97.811798
3506.000000	97.813328
3505.000000	97.814908
3504.000000	97.816060
3503.000000	97.817043
3502.000000	97.818311
3501.000000	97.819657
3500.000000	97.820029
3499.000000	97.818321
3498.000000	97.814299
3497.000000	97.808972
3496.000000	97.804127
3495.000000	97.801250
3494.000000	97.800618
3493.000000	97.801153
3492.000000	97.801388
3491.000000	97.800940
3490.000000	97.800995
3489.000000	97.803080
3488.000000	97.807334
3487.000000	97.812052
3486.000000	97.815009
3485.000000	97.815194
3484.000000	97.813389
3483.000000	97.811376
3482.000000	97.810381
3481.000000	97.810059
3480.000000	97.809112
3479.000000	97.806794
3478.000000	97.803357
3477.000000	97.798995
3476.000000	97.793242
3475.000000	97.786145
3474.000000	97.779590
3473.000000	97.776271
3472.000000	97.777089
3471.000000	97.780132
3470.000000	97.782573
3469.000000	97.783134
3468.000000	97.782155
3467.000000	97.779805
3466.000000	97.775264
3465.000000	97.768126
3464.000000	97.759761
3463.000000	97.752410
3462.000000	97.746965
3461.000000	97.742367
3460.000000	97.737500
3459.000000	97.733288
3458.000000	97.732137
3457.000000	97.735281
3456.000000	97.741213
3455.000000	97.746825
3454.000000	97.750036
3453.000000	97.750861
3452.000000	97.750285
3451.000000	97.749105
3450.000000	97.748035
3449.000000	97.748019
3448.000000	97.749375
3447.000000	97.750706
3446.000000	97.749793
3445.000000	97.746084
3444.000000	97.741487
3443.000000	97.738240
3442.000000	97.736446
3441.000000	97.734403
3440.000000	97.731030
3439.000000	97.727100
3438.000000	97.724124
3437.000000	97.722782
3436.000000	97.722826
3435.000000	97.723846
3434.000000	97.725434
3433.000000	97.726772
3432.000000	97.726753
3431.000000	97.724809
3430.000000	97.721462
3429.000000	97.718093
3428.000000	97.716072
3427.000000	97.715933
3426.000000	97.717151
3425.000000	97.718492
3424.000000	97.718940
3423.000000	97.718387
3422.000000	97.717364
3421.000000	97.716254
3420.000000	97.714975
3419.000000	97.713404
3418.000000	97.711792
3417.000000	97.710602
3416.000000	97.710096
3415.000000	97.710185
3414.000000	97.710499
3413.000000	97.710481
3412.000000	97.709562
3411.000000	97.707516
3410.000000	97.704760
3409.000000	97.702164
3408.000000	97.700518
3407.000000	97.700206
3406.000000	97.701145
3405.000000	97.702791
3404.000000	97.704474
3403.000000	97.706064
3402.000000	97.708133
3401.000000	97.710926
3400.000000	97.713285
3399.000000	97.713414
3398.000000	97.710855
3397.000000	97.707100
3396.000000	97.703998
3395.000000	97.701909
3394.000000	97.700067
3393.000000	97.698177
3392.000000	97.696908
3391.000000	97.696929
3390.000000	97.698178
3389.000000	97.700240
3388.000000	97.702910
3387.000000	97.706091
3386.000000	97.709320
3385.000000	97.711618
3384.000000	97.711952
3383.000000	97.709885
3382.000000	97.705866
3381.000000	97.701027
3380.000000	97.696613
3379.000000	97.693607
3378.000000	97.692685
3377.000000	97.694103
3376.000000	97.697464
3375.000000	97.701716
3374.000000	97.705796
3373.000000	97.709340
3372.000000	97.712644
3371.000000	97.716069
3370.000000	97.719525
3369.000000	97.722396
3368.000000	97.723902
3367.000000	97.723758
3366.000000	97.722653
3365.000000	97.721979
3364.000000	97.722740
3363.000000	97.724695
3362.000000	97.726580
3361.000000	97.727167
3360.000000	97.726175
3359.000000	97.724398
3358.000000	97.723155
3357.000000	97.723375
3356.000000	97.725008
3355.000000	97.727194
3354.000000	97.729077
3353.000000	97.730447
3352.000000	97.731610
3351.000000	97.732859
3350.000000	97.734231
3349.000000	97.735599
3348.000000	97.736818
3347.000000	97.737818
3346.000000	97.738666
3345.000000	97.739510
3344.000000	97.740356
3343.000000	97.741000
3342.000000	97.741343
3341.000000	97.741622
3340.000000	97.742193
3339.000000	97.743110
3338.000000	97.744097
3337.000000	97.744883
3336.000000	97.745457
3335.000000	97.745954
3334.000000	97.746474
3333.000000	97.747037
3332.000000	97.747621
3331.000000	97.748197
3330.000000	97.748739
3329.000000	97.749240
3328.000000	97.749701
3327.000000	97.750122
3326.000000	97.750505
3325.000000	97.750879
3324.000000	97.751283
3323.000000	97.751738
3322.000000	97.752226
3321.000000	97.752723
3320.000000	97.753232
3319.000000	97.753744
3318.000000	97.754192
3317.000000	97.754511
3316.000000	97.754716
3315.000000	97.754881
3314.000000	97.755061
3313.000000	97.755248
3312.000000	97.755401
3311.000000	97.755479
3310.000000	97.755456
3309.000000	97.755355
3308.000000	97.755304
3307.000000	97.755492
3306.000000	97.755999
3305.000000	97.756705
3304.000000	97.757356
3303.000000	97.757822
3302.000000	97.758159
3301.000000	97.758497
3300.000000	97.758875
3299.000000	97.759224
3298.000000	97.759525
3297.000000	97.759887
3296.000000	97.760418
3295.000000	97.761068
3294.000000	97.761644
3293.000000	97.761998
3292.000000	97.762157
3291.000000	97.762275
3290.000000	97.762500
3289.000000	97.762898
3288.000000	97.763493
3287.000000	97.764277
3286.000000	97.765170
3285.000000	97.766002
3284.000000	97.766620
3283.000000	97.767025
3282.000000	97.767413
3281.000000	97.768051
3280.000000	97.769067
3279.000000	97.770372
3278.000000	97.771709
3277.000000	97.772802
3276.000000	97.773484
3275.000000	97.773782
3274.000000	97.773978
3273.000000	97.774501
3272.000000	97.775640
3271.000000	97.777400
3270.000000	97.779571
3269.000000	97.781885
3268.000000	97.784043
3267.000000	97.785701
3266.000000	97.786667
3265.000000	97.787117
3264.000000	97.787530
3263.000000	97.788285
3262.000000	97.789375
3261.000000	97.790580
3260.000000	97.791773
3259.000000	97.792974
3258.000000	97.794205
3257.000000	97.795427
3256.000000	97.796616
3255.000000	97.797766
3254.000000	97.798849
3253.000000	97.799849
3252.000000	97.800841
3251.000000	97.801963
3250.000000	97.803309
3249.000000	97.804932
3248.000000	97.806900
3247.000000	97.809200
3246.000000	97.811526
3245.000000	97.813400
3244.000000	97.814593
3243.000000	97.815344
3242.000000	97.816141
3241.000000	97.817262
3240.000000	97.818656
3239.000000	97.820178
3238.000000	97.821791
3237.000000	97.823586
3236.000000	97.825660
3235.000000	97.827923
3234.000000	97.829994
3233.000000	97.831418
3232.000000	97.832110
3231.000000	97.832528
3230.000000	97.833350
3229.000000	97.834940
3228.000000	97.837227
3227.000000	97.839944
3226.000000	97.842792
3225.000000	97.845400
3224.000000	97.847445
3223.000000	97.848997
3222.000000	97.850642
3221.000000	97.852985
3220.000000	97.856004
3219.000000	97.858994
3218.000000	97.861256
3217.000000	97.862697
3216.000000	97.863769
3215.000000	97.864940
3214.000000	97.866371
3213.000000	97.868032
3212.000000	97.869925
3211.000000	97.872019
3210.000000	97.874183
3209.000000	97.876425
3208.000000	97.879176
3207.000000	97.882965
3206.000000	97.887624
3205.000000	97.891973
3204.000000	97.894738
3203.000000	97.895851
3202.000000	97.896758
3201.000000	97.899243
3200.000000	97.903825
3199.000000	97.909393
3198.000000	97.914254
3197.000000	97.917616
3196.000000	97.919884
3195.000000	97.921851
3194.000000	97.923807
3193.000000	97.925474
3192.000000	97.926491
3191.000000	97.926745
3190.000000	97.926543
3189.000000	97.926668
3188.000000	97.927993
3187.000000	97.930763
3186.000000	97.934278
3185.000000	97.937539
3184.000000	97.940267
3183.000000	97.943009
3182.000000	97.946345
3181.000000	97.950309
3180.000000	97.954566
3179.000000	97.958780
3178.000000	97.962656
3177.000000	97.965922
3176.000000	97.968476
3175.000000	97.970443
3174.000000	97.972045
3173.000000	97.973510
3172.000000	97.975142
3171.000000	97.977183
3170.000000	97.979571
3169.000000	97.982074
3168.000000	97.984755
3167.000000	97.988042
3166.000000	97.992183
3165.000000	97.996836
3164.000000	98.001280
3163.000000	98.004973
3162.000000	98.007839
3161.000000	98.010217
3160.000000	98.012678
3159.000000	98.015589
3158.000000	98.018734
3157.000000	98.021528
3156.000000	98.023813
3155.000000	98.026240
3154.000000	98.029620
3153.000000	98.034037
3152.000000	98.038832
3151.000000	98.043196
3150.000000	98.046826
3149.000000	98.049935
3148.000000	98.052920
3147.000000	98.056049
3146.000000	98.059318
3145.000000	98.062561
3144.000000	98.065704
3143.000000	98.068947
3142.000000	98.072625
3141.000000	98.076850
3140.000000	98.081326
3139.000000	98.085555
3138.000000	98.089307
3137.000000	98.092784
3136.000000	98.096355
3135.000000	98.100113
3134.000000	98.103773
3133.000000	98.107047
3132.000000	98.110026
3131.000000	98.113117
3130.000000	98.116619
3129.000000	98.120450
3128.000000	98.124273
3127.000000	98.127878
3126.000000	98.131396
3125.000000	98.135125
3124.000000	98.139136
3123.000000	98.143098
3122.000000	98.146566
3121.000000	98.149420
3120.000000	98.151960
3119.000000	98.154677
3118.000000	98.157864
3117.000000	98.161522
3116.000000	98.165462
3115.000000	98.169416
3114.000000	98.173134
3113.000000	98.176459
3112.000000	98.179372
3111.000000	98.181987
3110.000000	98.184558
3109.000000	98.187415
3108.000000	98.190775
3107.000000	98.194519
3106.000000	98.198175
3105.000000	98.201324
3104.000000	98.203992
3103.000000	98.206579
3102.000000	98.209449
3101.000000	98.212725
3100.000000	98.216445
3099.000000	98.220603
3098.000000	98.224948
3097.000000	98.229031
3096.000000	98.232649
3095.000000	98.235985
3094.000000	98.239214
3093.000000	98.242281
3092.000000	98.245222
3091.000000	98.248410
3090.000000	98.252142
3089.000000	98.256195
3088.000000	98.260044
3087.000000	98.263419
3086.000000	98.266389
3085.000000	98.269037
3084.000000	98.271426
3083.000000	98.273834
3082.000000	98.276674
3081.000000	98.280146
3080.000000	98.284119
3079.000000	98.288275
3078.000000	98.292245
3077.000000	98.295713
3076.000000	98.298609
3075.000000	98.301183
3074.000000	98.303774
3073.000000	98.306461
3072.000000	98.309224
3071.000000	98.312284
3070.000000	98.315890
3069.000000	98.319857
3068.000000	98.323622
3067.000000	98.326854
3066.000000	98.329786
3065.000000	98.332876
3064.000000	98.336323
3063.000000	98.340052
3062.000000	98.343912
3061.000000	98.347755
3060.000000	98.351485
3059.000000	98.355157
3058.000000	98.358981
3057.000000	98.363088
3056.000000	98.367262
3055.000000	98.371055
3054.000000	98.374279
3053.000000	98.377316
3052.000000	98.380802
3051.000000	98.384998
3050.000000	98.389605
3049.000000	98.394090
3048.000000	98.398185
3047.000000	98.402065
3046.000000	98.406100
3045.000000	98.410437
3044.000000	98.414808
3043.000000	98.418789
3042.000000	98.422278
3041.000000	98.425628
3040.000000	98.429214
3039.000000	98.432970
3038.000000	98.436560
3037.000000	98.440050
3036.000000	98.444244
3035.000000	98.450063
3034.000000	98.457455
3033.000000	98.464933
3032.000000	98.470625
3031.000000	98.474006
3030.000000	98.476476
3029.000000	98.480115
3028.000000	98.485841
3027.000000	98.493087
3026.000000	98.500745
3025.000000	98.507817
3024.000000	98.513240
3023.000000	98.516165
3022.000000	98.517208
3021.000000	98.518917
3020.000000	98.523725
3019.000000	98.531220
3018.000000	98.538165
3017.000000	98.542194
3016.000000	98.545076
3015.000000	98.551187
3014.000000	98.562939
3013.000000	98.578478
3012.000000	98.593818
3011.000000	98.606362
3010.000000	98.615560
3009.000000	98.621223
3008.000000	98.623126
3007.000000	98.622448
3006.000000	98.621885
3005.000000	98.623189
3004.000000	98.625625
3003.000000	98.628224
3002.000000	98.632812
3001.000000	98.642984
3000.000000	98.659852
2999.000000	98.679935
2998.000000	98.697601
2997.000000	98.709066
2996.000000	98.714310
2995.000000	98.716714
2994.000000	98.721305
2993.000000	98.731738
2992.000000	98.747517
2991.000000	98.764352
2990.000000	98.777918
2989.000000	98.787167
2988.000000	98.794046
2987.000000	98.801036
2986.000000	98.809593
2985.000000	98.820188
2984.000000	98.832828
2983.000000	98.847537
2982.000000	98.864410
2981.000000	98.882474
2980.000000	98.898559
2979.000000	98.908998
2978.000000	98.913508
2977.000000	98.916218
2976.000000	98.921180
2975.000000	98.927266
2974.000000	98.929352
2973.000000	98.924139
2972.000000	98.913270
2971.000000	98.901223
2970.000000	98.891593
2969.000000	98.885185
2968.000000	98.879848
2967.000000	98.871628
2966.000000	98.857971
2965.000000	98.840952
2964.000000	98.826340
2963.000000	98.818434
2962.000000	98.816431
2961.000000	98.816201
2960.000000	98.814402
2959.000000	98.810231
2958.000000	98.804556
2957.000000	98.798878
2956.000000	98.794648
2955.000000	98.792266
2954.000000	98.790773
2953.000000	98.789280
2952.000000	98.788447
2951.000000	98.789759
2950.000000	98.793532
2949.000000	98.798146
2948.000000	98.800957
2947.000000	98.799661
2946.000000	98.793856
2945.000000	98.786299
2944.000000	98.781744
2943.000000	98.782849
2942.000000	98.787388
2941.000000	98.790954
2940.000000	98.792427
2939.000000	98.795159
2938.000000	98.802201
2937.000000	98.811957
2936.000000	98.819638
2935.000000	98.822250
2934.000000	98.821163
2933.000000	98.820364
2932.000000	98.823370
2931.000000	98.831580
2930.000000	98.844167
2929.000000	98.858727
2928.000000	98.872399
2927.000000	98.883124
2926.000000	98.890527
2925.000000	98.896025
2924.000000	98.901760
2923.000000	98.908725
2922.000000	98.915846
2921.000000	98.921486
2920.000000	98.925865
2919.000000	98.931114
2918.000000	98.938383
2917.000000	98.945635
2916.000000	98.949123
2915.000000	98.946776
2914.000000	98.939707
2913.000000	98.931107
2912.000000	98.924479
2911.000000	98.922467
2910.000000	98.925941
2909.000000	98.933308
2908.000000	98.941115
2907.000000	98.946245
2906.000000	98.947768
2905.000000	98.946722
2904.000000	98.944711
2903.000000	98.943217
2902.000000	98.943757
2901.000000	98.947443
2900.000000	98.953661
2899.000000	98.959624
2898.000000	98.962256
2897.000000	98.960830
2896.000000	98.957614
2895.000000	98.955874
2894.000000	98.957055
2893.000000	98.959824
2892.000000	98.961606
2891.000000	98.961043
2890.000000	98.959058
2889.000000	98.957695
2888.000000	98.958000
2887.000000	98.959232
2886.000000	98.960146
2885.000000	98.960585
2884.000000	98.961288
2883.000000	98.962384
2882.000000	98.962922
2881.000000	98.962129
2880.000000	98.960421
2879.000000	98.958800
2878.000000	98.957758
2877.000000	98.957278
2876.000000	98.957455
2875.000000	98.958375
2874.000000	98.959465
2873.000000	98.959641
2872.000000	98.958380
2871.000000	98.956385
2870.000000	98.954914
2869.000000	98.954516
2868.000000	98.954721
2867.000000	98.954799
2866.000000	98.954410
2865.000000	98.953497
2864.000000	98.952011
2863.000000	98.949976
2862.000000	98.947710
2861.000000	98.945809
2860.000000	98.944720
2859.000000	98.944256
2858.000000	98.943713
2857.000000	98.942788
2856.000000	98.942210
2855.000000	98.942930
2854.000000	98.944888
2853.000000	98.947312
2852.000000	98.950144
2851.000000	98.954118
2850.000000	98.959062
2849.000000	98.962985
2848.000000	98.963776
2847.000000	98.961318
2846.000000	98.957457
2845.000000	98.954249
2844.000000	98.952458
2843.000000	98.951765
2842.000000	98.951639
2841.000000	98.951745
2840.000000	98.951966
2839.000000	98.952383
2838.000000	98.953192
2837.000000	98.954533
2836.000000	98.956298
2835.000000	98.958038
2834.000000	98.959105
2833.000000	98.959177
2832.000000	98.958693
2831.000000	98.958500
2830.000000	98.958962
2829.000000	98.959762
2828.000000	98.960723
2827.000000	98.962358
2826.000000	98.965133
2825.000000	98.968562
2824.000000	98.971494
2823.000000	98.973258
2822.000000	98.974140
2821.000000	98.974912
2820.000000	98.976264
2819.000000	98.978633
2818.000000	98.982076
2817.000000	98.985979
2816.000000	98.989170
2815.000000	98.990725
2814.000000	98.990533
2813.000000	98.989317
2812.000000	98.988240
2811.000000	98.988312
2810.000000	98.989970
2809.000000	98.992910
2808.000000	98.996324
2807.000000	98.999525
2806.000000	99.002309
2805.000000	99.004717
2804.000000	99.006743
2803.000000	99.008399
2802.000000	99.009895
2801.000000	99.011548
2800.000000	99.013480
2799.000000	99.015485
2798.000000	99.017216
2797.000000	99.018568
2796.000000	99.019961
2795.000000	99.022143
2794.000000	99.025483
2793.000000	99.029440
2792.000000	99.032992
2791.000000	99.035694
2790.000000	99.038025
2789.000000	99.040634
2788.000000	99.043586
2787.000000	99.046589
2786.000000	99.049586
2785.000000	99.052700
2784.000000	99.055739
2783.000000	99.058230
2782.000000	99.059986
2781.000000	99.061237
2780.000000	99.062259
2779.000000	99.063269
2778.000000	99.064616
2777.000000	99.066598
2776.000000	99.068844
2775.000000	99.070289
2774.000000	99.070230
2773.000000	99.069353
2772.000000	99.069476
2771.000000	99.071827
2770.000000	99.076051
2769.000000	99.080659
2768.000000	99.084391
2767.000000	99.087099
2766.000000	99.089275
2765.000000	99.091260
2764.000000	99.093064
2763.000000	99.094710
2762.000000	99.096392
2761.000000	99.098236
2760.000000	99.100094
2759.000000	99.101716
2758.000000	99.103014
2757.000000	99.104054
2756.000000	99.104886
2755.000000	99.105503
2754.000000	99.105985
2753.000000	99.106607
2752.000000	99.107734
2751.000000	99.109568
2750.000000	99.111970
2749.000000	99.114478
2748.000000	99.116556
2747.000000	99.117940
2746.000000	99.118774
2745.000000	99.119542
2744.000000	99.120743
2743.000000	99.122496
2742.000000	99.124410
2741.000000	99.125875
2740.000000	99.126620
2739.000000	99.126892
2738.000000	99.127200
2737.000000	99.127838
2736.000000	99.128723
2735.000000	99.129637
2734.000000	99.130461
2733.000000	99.131230
2732.000000	99.132057
2731.000000	99.133040
2730.000000	99.134177
2729.000000	99.135332
2728.000000	99.136303
2727.000000	99.136978
2726.000000	99.137398
2725.000000	99.137698
2724.000000	99.138042
2723.000000	99.138545
2722.000000	99.139204
2721.000000	99.139872
2720.000000	99.140376
2719.000000	99.140699
2718.000000	99.140987
2717.000000	99.141369
2716.000000	99.141828
2715.000000	99.142311
2714.000000	99.142874
2713.000000	99.143587
2712.000000	99.144360
2711.000000	99.144971
2710.000000	99.145319
2709.000000	99.145538
2708.000000	99.145855
2707.000000	99.146323
2706.000000	99.146787
2705.000000	99.147079
2704.000000	99.147135
2703.000000	99.146986
2702.000000	99.146756
2701.000000	99.146615
2700.000000	99.146650
2699.000000	99.146769
2698.000000	99.146836
2697.000000	99.146851
2696.000000	99.146947
2695.000000	99.147213
2694.000000	99.147595
2693.000000	99.147932
2692.000000	99.148124
2691.000000	99.148188
2690.000000	99.148221
2689.000000	99.148313
2688.000000	99.148482
2687.000000	99.148678
2686.000000	99.148847
2685.000000	99.148978
2684.000000	99.149105
2683.000000	99.149250
2682.000000	99.149392
2681.000000	99.149511
2680.000000	99.149660
2679.000000	99.149911
2678.000000	99.150260
2677.000000	99.150607
2676.000000	99.150839
2675.000000	99.150936
2674.000000	99.150953
2673.000000	99.150964
2672.000000	99.151006
2671.000000	99.151083
2670.000000	99.151191
2669.000000	99.151342
2668.000000	99.151568
2667.000000	99.151877
2666.000000	99.152228
2665.000000	99.152554
2664.000000	99.152821
2663.000000	99.153053
2662.000000	99.153292
2661.000000	99.153562
2660.000000	99.153864
2659.000000	99.154175
2658.000000	99.154462
2657.000000	99.154709
2656.000000	99.154920
2655.000000	99.155109
2654.000000	99.155286
2653.000000	99.155451
2652.000000	99.155593
2651.000000	99.155699
2650.000000	99.155772
2649.000000	99.155845
2648.000000	99.155953
2647.000000	99.156079
2646.000000	99.156154
2645.000000	99.156135
2644.000000	99.156049
2643.000000	99.155962
2642.000000	99.155884
2641.000000	99.155768
2640.000000	99.155573
2639.000000	99.155329
2638.000000	99.155133
2637.000000	99.155045
2636.000000	99.155045
2635.000000	99.155026
2634.000000	99.154912
2633.000000	99.154739
2632.000000	99.154614
2631.000000	99.154593
2630.000000	99.154619
2629.000000	99.154583
2628.000000	99.154465
2627.000000	99.154345
2626.000000	99.154287
2625.000000	99.154229
2624.000000	99.154078
2623.000000	99.153909
2622.000000	99.153930
2621.000000	99.154194
2620.000000	99.154476
2619.000000	99.154543
2618.000000	99.154385
2617.000000	99.154047
2616.000000	99.153373
2615.000000	99.152162
2614.000000	99.150554
2613.000000	99.149086
2612.000000	99.148339
2611.000000	99.148565
2610.000000	99.149587
2609.000000	99.150956
2608.000000	99.152234
2607.000000	99.153199
2606.000000	99.153756
2605.000000	99.153715
2604.000000	99.152885
2603.000000	99.151454
2602.000000	99.150073
2601.000000	99.149361
2600.000000	99.149522
2599.000000	99.150497
2598.000000	99.152148
2597.000000	99.153993
2596.000000	99.155186
2595.000000	99.155302
2594.000000	99.154980
2593.000000	99.155291
2592.000000	99.156470
2591.000000	99.157771
2590.000000	99.158523
2589.000000	99.158830
2588.000000	99.159174
2587.000000	99.159822
2586.000000	99.160700
2585.000000	99.161505
2584.000000	99.161803
2583.000000	99.161342
2582.000000	99.160347
2581.000000	99.159291
2580.000000	99.158311
2579.000000	99.157168
2578.000000	99.155867
2577.000000	99.155000
2576.000000	99.155197
2575.000000	99.156370
2574.000000	99.157690
2573.000000	99.158260
2572.000000	99.157835
2571.000000	99.156990
2570.000000	99.156711
2569.000000	99.157580
2568.000000	99.159266
2567.000000	99.160807
2566.000000	99.161572
2565.000000	99.161777
2564.000000	99.161982
2563.000000	99.162341
2562.000000	99.162626
2561.000000	99.162814
2560.000000	99.163207
2559.000000	99.163913
2558.000000	99.164543
2557.000000	99.164636
2556.000000	99.164288
2555.000000	99.164195
2554.000000	99.164990
2553.000000	99.166513
2552.000000	99.167781
2551.000000	99.167885
2550.000000	99.166970
2549.000000	99.166237
2548.000000	99.166750
2547.000000	99.168358
2546.000000	99.169926
2545.000000	99.170489
2544.000000	99.169941
2543.000000	99.168717
2542.000000	99.167236
2541.000000	99.165851
2540.000000	99.165048
2539.000000	99.165368
2538.000000	99.167123
2537.000000	99.170210
2536.000000	99.174086
2535.000000	99.177894
2534.000000	99.180861
2533.000000	99.182775
2532.000000	99.184087
2531.000000	99.185454
2530.000000	99.187088
2529.000000	99.188589
2528.000000	99.189436
2527.000000	99.189617
2526.000000	99.189763
2525.000000	99.190604
2524.000000	99.192258
2523.000000	99.194095
2522.000000	99.195329
2521.000000	99.195719
2520.000000	99.195676
2519.000000	99.195832
2518.000000	99.196591
2517.000000	99.198012
2516.000000	99.199912
2515.000000	99.201953
2514.000000	99.203777
2513.000000	99.205210
2512.000000	99.206376
2511.000000	99.207580
2510.000000	99.209067
2509.000000	99.210865
2508.000000	99.212775
2507.000000	99.214478
2506.000000	99.215743
2505.000000	99.216616
2504.000000	99.217424
2503.000000	99.218546
2502.000000	99.220117
2501.000000	99.222001
2500.000000	99.223956
2499.000000	99.225803
2498.000000	99.227481
2497.000000	99.229013
2496.000000	99.230450
2495.000000	99.231849
2494.000000	99.233247
2493.000000	99.234643
2492.000000	99.236019
2491.000000	99.237362
2490.000000	99.238649
2489.000000	99.239845
2488.000000	99.240947
2487.000000	99.242084
2486.000000	99.243492
2485.000000	99.245306
2484.000000	99.247372
2483.000000	99.249284
2482.000000	99.250662
2481.000000	99.251427
2480.000000	99.251927
2479.000000	99.252736
2478.000000	99.254141
2477.000000	99.255827
2476.000000	99.257206
2475.000000	99.258133
2474.000000	99.259081
2473.000000	99.260541
2472.000000	99.262478
2471.000000	99.264493
2470.000000	99.266278
2469.000000	99.267690
2468.000000	99.268631
2467.000000	99.269183
2466.000000	99.269776
2465.000000	99.270934
2464.000000	99.272946
2463.000000	99.275964
2462.000000	99.280109
2461.000000	99.285025
2460.000000	99.289465
2459.000000	99.292006
2458.000000	99.292379
2457.000000	99.291694
2456.000000	99.291145
2455.000000	99.290784
2454.000000	99.289806
2453.000000	99.287752
2452.000000	99.285313
2451.000000	99.284042
2450.000000	99.285151
2449.000000	99.288476
2448.000000	99.292520
2447.000000	99.295770
2446.000000	99.298088
2445.000000	99.300478
2444.000000	99.303625
2443.000000	99.306999
2442.000000	99.309436
2441.000000	99.310350
2440.000000	99.310275
2439.000000	99.310468
2438.000000	99.311991
2437.000000	99.314985
2436.000000	99.318682
2435.000000	99.322090
2434.000000	99.324721
2433.000000	99.326653
2432.000000	99.328218
2431.000000	99.329822
2430.000000	99.331752
2429.000000	99.333780
2428.000000	99.335226
2427.000000	99.335852
2426.000000	99.336445
2425.000000	99.337900
2424.000000	99.339871
2423.000000	99.341136
2422.000000	99.341300
2421.000000	99.341266
2420.000000	99.341801
2419.000000	99.342470
2418.000000	99.342643
2417.000000	99.342908
2416.000000	99.344616
2415.000000	99.348202
2414.000000	99.352542
2413.000000	99.355973
2412.000000	99.357684
2411.000000	99.357967
2410.000000	99.357627
2409.000000	99.357293
2408.000000	99.357174
2407.000000	99.357281
2406.000000	99.357659
2405.000000	99.358317
2404.000000	99.359035
2403.000000	99.359441
2402.000000	99.359402
2401.000000	99.359227
2400.000000	99.359376
2399.000000	99.359983
2398.000000	99.360765
2397.000000	99.361277
2396.000000	99.361256
2395.000000	99.360874
2394.000000	99.360725
2393.000000	99.361320
2392.000000	99.362510
2391.000000	99.363521
2390.000000	99.363750
2389.000000	99.363393
2388.000000	99.363142
2387.000000	99.363505
2386.000000	99.364451
2385.000000	99.365718
2384.000000	99.367035
2383.000000	99.368120
2382.000000	99.368810
2381.000000	99.369155
2380.000000	99.369335
2379.000000	99.369503
2378.000000	99.369711
2377.000000	99.369974
2376.000000	99.370301
2375.000000	99.370673
2374.000000	99.371026
2373.000000	99.371304
2372.000000	99.371509
2371.000000	99.371681
2370.000000	99.371865
2369.000000	99.372086
2368.000000	99.372339
2367.000000	99.372581
2366.000000	99.372756
2365.000000	99.372840
2364.000000	99.372853
2363.000000	99.372846
2362.000000	99.372856
2361.000000	99.372875
2360.000000	99.372896
2359.000000	99.372927
2358.000000	99.372973
2357.000000	99.373019
2356.000000	99.373013
2355.000000	99.372904
2354.000000	99.372688
2353.000000	99.372396
2352.000000	99.372065
2351.000000	99.371714
2350.000000	99.371365
2349.000000	99.371029
2348.000000	99.370700
2347.000000	99.370359
2346.000000	99.369971
2345.000000	99.369505
2344.000000	99.368947
2343.000000	99.368312
2342.000000	99.367628
2341.000000	99.366921
2340.000000	99.366204
2339.000000	99.365477
2338.000000	99.364727
2337.000000	99.363945
2336.000000	99.363124
2335.000000	99.362261
2334.000000	99.361358
2333.000000	99.360417
2332.000000	99.359441
2331.000000	99.358423
2330.000000	99.357355
2329.000000	99.356226
2328.000000	99.355030
2327.000000	99.353774
2326.000000	99.352470
2325.000000	99.351140
2324.000000	99.349803
2323.000000	99.348471
2322.000000	99.347141
2321.000000	99.345795
2320.000000	99.344416
2319.000000	99.342992
2318.000000	99.341526
2317.000000	99.340024
2316.000000	99.338483
2315.000000	99.336895
2314.000000	99.335256
2313.000000	99.333572
2312.000000	99.331854
2311.000000	99.330108
2310.000000	99.328338
2309.000000	99.326542
2308.000000	99.324718
2307.000000	99.322859
2306.000000	99.320958
2305.000000	99.319013
2304.000000	99.317046
2303.000000	99.315086
2302.000000	99.313145
2301.000000	99.311208
2300.000000	99.309271
2299.000000	99.307333
2298.000000	99.305346
2297.000000	99.303269
2296.000000	99.301118
2295.000000	99.298970
2294.000000	99.296874
2293.000000	99.294824
2292.000000	99.292778
2291.000000	99.290703
2290.000000	99.288565
2289.000000	99.286340
2288.000000	99.284048
2287.000000	99.281791
2286.000000	99.279692
2285.000000	99.277805
2284.000000	99.276044
2283.000000	99.274274
2282.000000	99.272427
2281.000000	99.270469
2280.000000	99.268333
2279.000000	99.266018
2278.000000	99.263646
2277.000000	99.261306
2276.000000	99.258884
2275.000000	99.256193
2274.000000	99.253352
2273.000000	99.250754
2272.000000	99.248605
2271.000000	99.246774
2270.000000	99.245058
2269.000000	99.243478
2268.000000	99.242158
2267.000000	99.241103
2266.000000	99.240201
2265.000000	99.239239
2264.000000	99.237882
2263.000000	99.235850
2262.000000	99.233295
2261.000000	99.230871
2260.000000	99.229063
2259.000000	99.227683
2258.000000	99.226238
2257.000000	99.224702
2256.000000	99.223430
2255.000000	99.222313
2254.000000	99.220673
2253.000000	99.218207
2252.000000	99.215675
2251.000000	99.214135
2250.000000	99.213765
2249.000000	99.213768
2248.000000	99.213223
2247.000000	99.211919
2246.000000	99.210339
2245.000000	99.209127
2244.000000	99.208472
2243.000000	99.207905
2242.000000	99.206808
2241.000000	99.205198
2240.000000	99.203743
2239.000000	99.202921
2238.000000	99.202489
2237.000000	99.201953
2236.000000	99.201229
2235.000000	99.200589
2234.000000	99.200213
2233.000000	99.200100
2232.000000	99.200197
2231.000000	99.200363
2230.000000	99.200378
2229.000000	99.200225
2228.000000	99.200203
2227.000000	99.200472
2226.000000	99.200647
2225.000000	99.200168
2224.000000	99.198969
2223.000000	99.197512
2222.000000	99.196226
2221.000000	99.195250
2220.000000	99.194701
2219.000000	99.194759
2218.000000	99.195399
2217.000000	99.196304
2216.000000	99.197140
2215.000000	99.197742
2214.000000	99.197978
2213.000000	99.197811
2212.000000	99.197565
2211.000000	99.197810
2210.000000	99.198752
2209.000000	99.199987
2208.000000	99.200988
2207.000000	99.201648
2206.000000	99.202169
2205.000000	99.202583
2204.000000	99.202717
2203.000000	99.202602
2202.000000	99.202654
2201.000000	99.203278
2200.000000	99.204464
2199.000000	99.205832
2198.000000	99.206941
2197.000000	99.207628
2196.000000	99.208028
2195.000000	99.208455
2194.000000	99.209174
2193.000000	99.210235
2192.000000	99.211443
2191.000000	99.212464
2190.000000	99.213025
2189.000000	99.213079
2188.000000	99.212873
2187.000000	99.212834
2186.000000	99.213241
2185.000000	99.213984
2184.000000	99.214669
2183.000000	99.215053
2182.000000	99.215329
2181.000000	99.215868
2180.000000	99.216734
2179.000000	99.217651
2178.000000	99.218428
2177.000000	99.219197
2176.000000	99.220125
2175.000000	99.221077
2174.000000	99.221797
2173.000000	99.222356
2172.000000	99.223191
2171.000000	99.224608
2170.000000	99.226325
2169.000000	99.227591
2168.000000	99.227795
2167.000000	99.227005
2166.000000	99.226064
2165.000000	99.225988
2164.000000	99.227113
2163.000000	99.228806
2162.000000	99.230029
2161.000000	99.230186
2160.000000	99.229339
2159.000000	99.227866
2158.000000	99.226318
2157.000000	99.225480
2156.000000	99.226047
2155.000000	99.227964
2154.000000	99.230168
2153.000000	99.231457
2152.000000	99.231649
2151.000000	99.231662
2150.000000	99.232553
2149.000000	99.234648
2148.000000	99.237543
2147.000000	99.240620
2146.000000	99.243415
2145.000000	99.245572
2144.000000	99.246785
2143.000000	99.247102
2142.000000	99.247195
2141.000000	99.247942
2140.000000	99.249593
2139.000000	99.251574
2138.000000	99.253264
2137.000000	99.254721
2136.000000	99.256440
2135.000000	99.258589
2134.000000	99.260788
2133.000000	99.262595
2132.000000	99.264015
2131.000000	99.265500
2130.000000	99.267497
2129.000000	99.269929
2128.000000	99.272144
2127.000000	99.273606
2126.000000	99.274658
2125.000000	99.276272
2124.000000	99.278856
2123.000000	99.281682
2122.000000	99.283744
2121.000000	99.284869
2120.000000	99.285598
2119.000000	99.286375
2118.000000	99.287336
2117.000000	99.288601
2116.000000	99.290213
2115.000000	99.291969
2114.000000	99.293841
2113.000000	99.296377
2112.000000	99.300072
2111.000000	99.304478
2110.000000	99.308414
2109.000000	99.311313
2108.000000	99.313730
2107.000000	99.316339
2106.000000	99.318914
2105.000000	99.320723
2104.000000	99.321606
2103.000000	99.322366
2102.000000	99.324250
2101.000000	99.327984
2100.000000	99.332870
2099.000000	99.336855
2098.000000	99.338237
2097.000000	99.337399
2096.000000	99.336397
2095.000000	99.336483
2094.000000	99.337035
2093.000000	99.337302
2092.000000	99.337854
2091.000000	99.339388
2090.000000	99.341268
2089.000000	99.342572
2088.000000	99.343844
2087.000000	99.346344
2086.000000	99.350010
2085.000000	99.353434
2084.000000	99.355660
2083.000000	99.356974
2082.000000	99.358189
2081.000000	99.360172
2080.000000	99.363689
2079.000000	99.368568
2078.000000	99.373160
2077.000000	99.375789
2076.000000	99.376620
2075.000000	99.377103
2074.000000	99.377835
2073.000000	99.378232
2072.000000	99.378388
2071.000000	99.379639
2070.000000	99.382448
2069.000000	99.384922
2068.000000	99.384754
2067.000000	99.382333
2066.000000	99.380966
2065.000000	99.383524
2064.000000	99.389213
2063.000000	99.394284
2062.000000	99.395833
2061.000000	99.394124
2060.000000	99.391343
2059.000000	99.389008
2058.000000	99.387206
2057.000000	99.385696
2056.000000	99.384439
2055.000000	99.383223
2054.000000	99.381972
2053.000000	99.381356
2052.000000	99.381785
2051.000000	99.381728
2050.000000	99.378808
2049.000000	99.373079
2048.000000	99.367577
2047.000000	99.364665
2046.000000	99.363298
2045.000000	99.361286
2044.000000	99.358769
2043.000000	99.357529
2042.000000	99.357614
2041.000000	99.356887
2040.000000	99.354080
2039.000000	99.350502
2038.000000	99.348082
2037.000000	99.347064
2036.000000	99.346397
2035.000000	99.345488
2034.000000	99.344631
2033.000000	99.344115
2032.000000	99.343766
2031.000000	99.343342
2030.000000	99.342810
2029.000000	99.342106
2028.000000	99.340997
2027.000000	99.339271
2026.000000	99.336807
2025.000000	99.333376
2024.000000	99.328746
2023.000000	99.323306
2022.000000	99.318378
2021.000000	99.315316
2020.000000	99.314186
2019.000000	99.313767
2018.000000	99.312767
2017.000000	99.310970
2016.000000	99.308987
2015.000000	99.307319
2014.000000	99.305996
2013.000000	99.304774
2012.000000	99.303190
2011.000000	99.300633
2010.000000	99.296966
2009.000000	99.293123
2008.000000	99.290500
2007.000000	99.289510
2006.000000	99.289130
2005.000000	99.287991
2004.000000	99.285794
2003.000000	99.283251
2002.000000	99.280973
2001.000000	99.278896
2000.000000	99.276676
1999.000000	99.274350
1998.000000	99.272483
1997.000000	99.271598
1996.000000	99.271490
1995.000000	99.271260
1994.000000	99.270262
1993.000000	99.268913
1992.000000	99.268145
1991.000000	99.268102
1990.000000	99.267953
1989.000000	99.267092
1988.000000	99.265917
1987.000000	99.265197
1986.000000	99.265111
1985.000000	99.265211
1984.000000	99.265005
1983.000000	99.264256
1982.000000	99.262933
1981.000000	99.261284
1980.000000	99.259891
1979.000000	99.259222
1978.000000	99.259123
1977.000000	99.258900
1976.000000	99.258013
1975.000000	99.256559
1974.000000	99.255125
1973.000000	99.254248
1972.000000	99.254066
1971.000000	99.254414
1970.000000	99.255028
1969.000000	99.255627
1968.000000	99.255906
1967.000000	99.255576
1966.000000	99.254600
1965.000000	99.253381
1964.000000	99.252504
1963.000000	99.252119
1962.000000	99.251754
1961.000000	99.250949
1960.000000	99.249942
1959.000000	99.249284
1958.000000	99.248895
1957.000000	99.248094
1956.000000	99.246645
1955.000000	99.245180
1954.000000	99.244480
1953.000000	99.244739
1952.000000	99.245693
1951.000000	99.246926
1950.000000	99.247952
1949.000000	99.248412
1948.000000	99.248071
1947.000000	99.246473
1946.000000	99.243262
1945.000000	99.239401
1944.000000	99.237320
1943.000000	99.238432
1942.000000	99.240628
1941.000000	99.240076
1940.000000	99.235760
1939.000000	99.230520
1938.000000	99.227681
1937.000000	99.227716
1936.000000	99.228308
1935.000000	99.226857
1934.000000	99.222602
1933.000000	99.217089
1932.000000	99.213223
1931.000000	99.213058
1930.000000	99.216135
1929.000000	99.220223
1928.000000	99.223068
1927.000000	99.223448
1926.000000	99.220987
1925.000000	99.216505
1924.000000	99.212199
1923.000000	99.209481
1922.000000	99.206856
1921.000000	99.201612
1920.000000	99.193583
1919.000000	99.185638
1918.000000	99.180088
1917.000000	99.175673
1916.000000	99.169372
1915.000000	99.160182
1914.000000	99.149777
1913.000000	99.140391
1912.000000	99.133006
1911.000000	99.127067
1910.000000	99.121640
1909.000000	99.116732
1908.000000	99.112956
1907.000000	99.110214
1906.000000	99.106873
1905.000000	99.101203
1904.000000	99.093303
1903.000000	99.084546
1902.000000	99.076080
1901.000000	99.068529
1900.000000	99.062501
1899.000000	99.058333
1898.000000	99.054919
1897.000000	99.049932
1896.000000	99.041868
1895.000000	99.031203
1894.000000	99.019827
1893.000000	99.009917
1892.000000	99.003275
1891.000000	99.000609
1890.000000	99.000764
1889.000000	99.001451
1888.000000	99.001269
1887.000000	99.000094
1886.000000	98.997644
1885.000000	98.993092
1884.000000	98.986667
1883.000000	98.980361
1882.000000	98.976361
1881.000000	98.975445
1880.000000	98.976913
1879.000000	98.979487
1878.000000	98.981726
1877.000000	98.982343
1876.000000	98.981081
1875.000000	98.978468
1874.000000	98.974721
1873.000000	98.970204
1872.000000	98.966699
1871.000000	98.966635
1870.000000	98.970320
1869.000000	98.974844
1868.000000	98.977658
1867.000000	98.979831
1866.000000	98.983489
1865.000000	98.988587
1864.000000	98.993846
1863.000000	98.999115
1862.000000	99.005451
1861.000000	99.013371
1860.000000	99.022243
1859.000000	99.031378
1858.000000	99.040690
1857.000000	99.050270
1856.000000	99.060028
1855.000000	99.069581
1854.000000	99.077961
1853.000000	99.084469
1852.000000	99.089778
1851.000000	99.095677
1850.000000	99.102504
1849.000000	99.107871
1848.000000	99.110516
1847.000000	99.114038
1846.000000	99.124353
1845.000000	99.142167
1844.000000	99.159200
1843.000000	99.166683
1842.000000	99.164900
1841.000000	99.159861
1840.000000	99.156044
1839.000000	99.154831
1838.000000	99.156032
1837.000000	99.159208
1836.000000	99.163653
1835.000000	99.168099
1834.000000	99.171454
1833.000000	99.173603
1832.000000	99.175175
1831.000000	99.176709
1830.000000	99.177663
1829.000000	99.177017
1828.000000	99.175207
1827.000000	99.174270
1826.000000	99.176177
1825.000000	99.180789
1824.000000	99.185585
1823.000000	99.188012
1822.000000	99.187542
1821.000000	99.185477
1820.000000	99.183899
1819.000000	99.184532
1818.000000	99.187290
1817.000000	99.190103
1816.000000	99.190668
1815.000000	99.188523
1814.000000	99.185643
1813.000000	99.184584
1812.000000	99.186339
1811.000000	99.189533
1810.000000	99.191745
1809.000000	99.192295
1808.000000	99.192666
1807.000000	99.194044
1806.000000	99.195516
1805.000000	99.195249
1804.000000	99.193223
1803.000000	99.191814
1802.000000	99.193739
1801.000000	99.199367
1800.000000	99.206659
1799.000000	99.213125
1798.000000	99.217016
1797.000000	99.217417
1796.000000	99.214655
1795.000000	99.210809
1794.000000	99.208881
1793.000000	99.210408
1792.000000	99.214337
1791.000000	99.218843
1790.000000	99.223065
1789.000000	99.226870
1788.000000	99.230495
1787.000000	99.234804
1786.000000	99.240789
1785.000000	99.247978
1784.000000	99.254107
1783.000000	99.257574
1782.000000	99.259918
1781.000000	99.263549
1780.000000	99.268712
1779.000000	99.273933
1778.000000	99.278359
1777.000000	99.282628
1776.000000	99.286921
1775.000000	99.290796
1774.000000	99.294794
1773.000000	99.300392
1772.000000	99.307915
1771.000000	99.316038
1770.000000	99.323708
1769.000000	99.331385
1768.000000	99.339772
1767.000000	99.347492
1766.000000	99.351979
1765.000000	99.352309
1764.000000	99.350269
1763.000000	99.349340
1762.000000	99.352637
1761.000000	99.359650
1760.000000	99.366398
1759.000000	99.369337
1758.000000	99.368157
1757.000000	99.365514
1756.000000	99.364082
1755.000000	99.364478
1754.000000	99.365893
1753.000000	99.367655
1752.000000	99.368620
1751.000000	99.366657
1750.000000	99.361196
1749.000000	99.356367
1748.000000	99.357564
1747.000000	99.364888
1746.000000	99.373099
1745.000000	99.377062
1744.000000	99.376727
1743.000000	99.376038
1742.000000	99.377934
1741.000000	99.381765
1740.000000	99.384474
1739.000000	99.382873
1738.000000	99.376206
1737.000000	99.367083
1736.000000	99.360008
1735.000000	99.358491
1734.000000	99.359581
1733.000000	99.356300
1732.000000	99.347969
1731.000000	99.339315
1730.000000	99.333490
1729.000000	99.330618
1728.000000	99.329425
1727.000000	99.329060
1726.000000	99.328893
1725.000000	99.327403
1724.000000	99.323730
1723.000000	99.318418
1722.000000	99.311760
1721.000000	99.303198
1720.000000	99.292036
1719.000000	99.278177
1718.000000	99.262654
1717.000000	99.249546
1716.000000	99.243646
1715.000000	99.244633
1714.000000	99.247269
1713.000000	99.246355
1712.000000	99.240471
1711.000000	99.231424
1710.000000	99.221361
1709.000000	99.211144
1708.000000	99.200689
1707.000000	99.190006
1706.000000	99.178643
1705.000000	99.166220
1704.000000	99.153823
1703.000000	99.142625
1702.000000	99.132266
1701.000000	99.119929
1700.000000	99.104368
1699.000000	99.089826
1698.000000	99.079181
1697.000000	99.070468
1696.000000	99.061048
1695.000000	99.050294
1694.000000	99.038916
1693.000000	99.026978
1692.000000	99.014272
1691.000000	99.001124
1690.000000	98.988523
1689.000000	98.977408
1688.000000	98.967900
1687.000000	98.959572
1686.000000	98.951389
1685.000000	98.940692
1684.000000	98.925501
1683.000000	98.908976
1682.000000	98.895174
1681.000000	98.884231
1680.000000	98.875028
1679.000000	98.866592
1678.000000	98.858047
1677.000000	98.848418
1676.000000	98.836821
1675.000000	98.823872
1674.000000	98.811893
1673.000000	98.801779
1672.000000	98.791899
1671.000000	98.779989
1670.000000	98.765637
1669.000000	98.752097
1668.000000	98.742728
1667.000000	98.736881
1666.000000	98.731713
1665.000000	98.725452
1664.000000	98.718023
1663.000000	98.709335
1662.000000	98.698642
1661.000000	98.686107
1660.000000	98.673606
1659.000000	98.663604
1658.000000	98.656485
1657.000000	98.650393
1656.000000	98.642857
1655.000000	98.632623
1654.000000	98.616126
1653.000000	98.593591
1652.000000	98.578709
1651.000000	98.577078
1650.000000	98.580831
1649.000000	98.582502
1648.000000	98.576193
1647.000000	98.561832
1646.000000	98.547725
1645.000000	98.540043
1644.000000	98.536637
1643.000000	98.534378
1642.000000	98.533328
1641.000000	98.533849
1640.000000	98.534734
1639.000000	98.534481
1638.000000	98.531538
1637.000000	98.523546
1636.000000	98.509816
1635.000000	98.498532
1634.000000	98.498190
1633.000000	98.505439
1632.000000	98.512152
1631.000000	98.513699
1630.000000	98.510903
1629.000000	98.508416
1628.000000	98.509990
1627.000000	98.515066
1626.000000	98.520493
1625.000000	98.523971
1624.000000	98.525244
1623.000000	98.525880
1622.000000	98.528437
1621.000000	98.534108
1620.000000	98.542075
1619.000000	98.551456
1618.000000	98.561416
1617.000000	98.570511
1616.000000	98.578025
1615.000000	98.584591
1614.000000	98.590305
1613.000000	98.595069
1612.000000	98.599912
1611.000000	98.606099
1610.000000	98.613797
1609.000000	98.622107
1608.000000	98.631139
1607.000000	98.642408
1606.000000	98.656667
1605.000000	98.671880
1604.000000	98.685049
1603.000000	98.695448
1602.000000	98.703945
1601.000000	98.710655
1600.000000	98.715015
1599.000000	98.717851
1598.000000	98.721517
1597.000000	98.727477
1596.000000	98.735302
1595.000000	98.744265
1594.000000	98.754590
1593.000000	98.766455
1592.000000	98.778896
1591.000000	98.790518
1590.000000	98.800728
1589.000000	98.809534
1588.000000	98.816784
1587.000000	98.822380
1586.000000	98.826702
1585.000000	98.830544
1584.000000	98.834315
1583.000000	98.838616
1582.000000	98.844468
1581.000000	98.851853
1580.000000	98.859020
1579.000000	98.864166
1578.000000	98.867130
1577.000000	98.869404
1576.000000	98.873325
1575.000000	98.879971
1574.000000	98.888230
1573.000000	98.896690
1572.000000	98.904883
1571.000000	98.912387
1570.000000	98.918126
1569.000000	98.922027
1568.000000	98.925583
1567.000000	98.930207
1566.000000	98.936150
1565.000000	98.942704
1564.000000	98.948439
1563.000000	98.952588
1562.000000	98.956437
1561.000000	98.962504
1560.000000	98.972013
1559.000000	98.978367
1558.000000	98.977574
1557.000000	98.976106
1556.000000	98.977683
1555.000000	98.981204
1554.000000	98.984820
1553.000000	98.986943
1552.000000	98.988236
1551.000000	98.990609
1550.000000	98.994922
1549.000000	99.000430
1548.000000	99.006219
1547.000000	99.012640
1546.000000	99.020599
1545.000000	99.029430
1544.000000	99.036504
1543.000000	99.039770
1542.000000	99.039528
1541.000000	99.038399
1540.000000	99.039834
1539.000000	99.045239
1538.000000	99.051678
1537.000000	99.055711
1536.000000	99.056903
1535.000000	99.055838
1534.000000	99.052899
1533.000000	99.048542
1532.000000	99.043983
1531.000000	99.040149
1530.000000	99.037550
1529.000000	99.037311
1528.000000	99.039963
1527.000000	99.043918
1526.000000	99.046774
1525.000000	99.048345
1524.000000	99.051264
1523.000000	99.058290
1522.000000	99.068482
1521.000000	99.077003
1520.000000	99.081264
1519.000000	99.084077
1518.000000	99.089308
1517.000000	99.097855
1516.000000	99.107442
1515.000000	99.115550
1514.000000	99.122260
1513.000000	99.128577
1512.000000	99.134217
1511.000000	99.137679
1510.000000	99.139090
1509.000000	99.141181
1508.000000	99.147397
1507.000000	99.155910
1506.000000	99.160610
1505.000000	99.160667
1504.000000	99.159561
1503.000000	99.159398
1502.000000	99.160348
1501.000000	99.162003
1500.000000	99.164379
1499.000000	99.167721
1498.000000	99.171681
1497.000000	99.175791
1496.000000	99.181008
1495.000000	99.187938
1494.000000	99.194916
1493.000000	99.199926
1492.000000	99.202854
1491.000000	99.205323
1490.000000	99.208722
1489.000000	99.212705
1488.000000	99.216452
1487.000000	99.220117
1486.000000	99.224344
1485.000000	99.229662
1484.000000	99.235777
1483.000000	99.242356
1482.000000	99.248761
1481.000000	99.253443
1480.000000	99.254931
1479.000000	99.253024
1478.000000	99.248894
1477.000000	99.244347
1476.000000	99.241270
1475.000000	99.240779
1474.000000	99.243814
1473.000000	99.250621
1472.000000	99.258726
1471.000000	99.263720
1470.000000	99.263605
1469.000000	99.260785
1468.000000	99.259699
1467.000000	99.262658
1466.000000	99.267639
1465.000000	99.270412
1464.000000	99.269762
1463.000000	99.268072
1462.000000	99.265929
1461.000000	99.261991
1460.000000	99.256394
1459.000000	99.251767
1458.000000	99.249909
1457.000000	99.248723
1456.000000	99.246522
1455.000000	99.244613
1454.000000	99.243922
1453.000000	99.243696
1452.000000	99.242963
1451.000000	99.240871
1450.000000	99.235781
1449.000000	99.225906
1448.000000	99.212799
1447.000000	99.201623
1446.000000	99.196343
1445.000000	99.196069
1444.000000	99.197826
1443.000000	99.199541
1442.000000	99.199355
1441.000000	99.195853
1440.000000	99.189636
1439.000000	99.183517
1438.000000	99.179614
1437.000000	99.177553
1436.000000	99.176480
1435.000000	99.177180
1434.000000	99.179824
1433.000000	99.182440
1432.000000	99.182388
1431.000000	99.178079
1430.000000	99.169721
1429.000000	99.159276
1428.000000	99.150532
1427.000000	99.147314
1426.000000	99.151322
1425.000000	99.160499
1424.000000	99.169941
1423.000000	99.176327
1422.000000	99.180198
1421.000000	99.183292
1420.000000	99.185010
1419.000000	99.183331
1418.000000	99.179451
1417.000000	99.177688
1416.000000	99.180714
1415.000000	99.187996
1414.000000	99.197051
1413.000000	99.205755
1412.000000	99.214350
1411.000000	99.224284
1410.000000	99.235017
1409.000000	99.243601
1408.000000	99.248120
1407.000000	99.249872
1406.000000	99.252422
1405.000000	99.258070
1404.000000	99.265527
1403.000000	99.271735
1402.000000	99.275120
1401.000000	99.276673
1400.000000	99.278553
1399.000000	99.282394
1398.000000	99.288667
1397.000000	99.297694
1396.000000	99.309960
1395.000000	99.323557
1394.000000	99.333624
1393.000000	99.337366
1392.000000	99.338140
1391.000000	99.342159
1390.000000	99.352078
1389.000000	99.364294
1388.000000	99.372294
1387.000000	99.373670
1386.000000	99.372934
1385.000000	99.375869
1384.000000	99.383515
1383.000000	99.392534
1382.000000	99.398373
1381.000000	99.398598
1380.000000	99.394341
1379.000000	99.389067
1378.000000	99.385783
1377.000000	99.385071
1376.000000	99.385567
1375.000000	99.385429
1374.000000	99.383347
1373.000000	99.379065
1372.000000	99.373883
1371.000000	99.370239
1370.000000	99.370241
1369.000000	99.373791
1368.000000	99.378393
1367.000000	99.381342
1366.000000	99.381575
1365.000000	99.379685
1364.000000	99.377198
1363.000000	99.375983
1362.000000	99.377199
1361.000000	99.380550
1360.000000	99.385096
1359.000000	99.390088
1358.000000	99.394463
1357.000000	99.396647
1356.000000	99.395944
1355.000000	99.393508
1354.000000	99.390939
1353.000000	99.388352
1352.000000	99.385204
1351.000000	99.382048
1350.000000	99.380256
1349.000000	99.379760
1348.000000	99.378973
1347.000000	99.377458
1346.000000	99.376978
1345.000000	99.379103
1344.000000	99.382912
1343.000000	99.386206
1342.000000	99.388308
1341.000000	99.390481
1340.000000	99.393481
1339.000000	99.395616
1338.000000	99.394567
1337.000000	99.390928
1336.000000	99.388536
1335.000000	99.390515
1334.000000	99.395252
1333.000000	99.397396
1332.000000	99.393496
1331.000000	99.386085
1330.000000	99.381682
1329.000000	99.384353
1328.000000	99.391892
1327.000000	99.398156
1326.000000	99.398752
1325.000000	99.394371
1324.000000	99.389317
1323.000000	99.387116
1322.000000	99.387613
1321.000000	99.388490
1320.000000	99.388658
1319.000000	99.388856
1318.000000	99.389381
1317.000000	99.389465
1316.000000	99.389400
1315.000000	99.390881
1314.000000	99.393898
1313.000000	99.395321
1312.000000	99.392716
1311.000000	99.388244
1310.000000	99.386564
1309.000000	99.389440
1308.000000	99.394200
1307.000000	99.396981
1306.000000	99.396075
1305.000000	99.392455
1304.000000	99.388496
1303.000000	99.385957
1302.000000	99.384202
1301.000000	99.381113
1300.000000	99.376445
1299.000000	99.372687
1298.000000	99.371003
1297.000000	99.368314
1296.000000	99.361501
1295.000000	99.353461
1294.000000	99.351085
1293.000000	99.356414
1292.000000	99.363117
1291.000000	99.363429
1290.000000	99.356276
1289.000000	99.346743
1288.000000	99.339458
1287.000000	99.334801
1286.000000	99.330737
1285.000000	99.325310
1284.000000	99.316804
1283.000000	99.303811
1282.000000	99.287030
1281.000000	99.270604
1280.000000	99.260197
1279.000000	99.258899
1278.000000	99.264881
1277.000000	99.273011
1276.000000	99.278692
1275.000000	99.280210
1274.000000	99.278411
1273.000000	99.275211
1272.000000	99.272075
1271.000000	99.268582
1270.000000	99.262383
1269.000000	99.251964
1268.000000	99.239761
1267.000000	99.231124
1266.000000	99.229510
1265.000000	99.233791
1264.000000	99.240466
1263.000000	99.246532
1262.000000	99.249515
1261.000000	99.247115
1260.000000	99.238666
1259.000000	99.225915
1258.000000	99.211274
1257.000000	99.196396
1256.000000	99.182821
1255.000000	99.171628
1254.000000	99.161210
1253.000000	99.147786
1252.000000	99.129932
1251.000000	99.110785
1250.000000	99.094295
1249.000000	99.081346
1248.000000	99.071129
1247.000000	99.063644
1246.000000	99.058134
1245.000000	99.051104
1244.000000	99.038639
1243.000000	99.019344
1242.000000	98.993277
1241.000000	98.960441
1240.000000	98.923269
1239.000000	98.888302
1238.000000	98.861232
1237.000000	98.840863
1236.000000	98.821182
1235.000000	98.798653
1234.000000	98.774719
1233.000000	98.751902
1232.000000	98.730194
1231.000000	98.706973
1230.000000	98.678435
1229.000000	98.641860
1228.000000	98.598380
1227.000000	98.552590
1226.000000	98.507279
1225.000000	98.459372
1224.000000	98.403069
1223.000000	98.335853
1222.000000	98.259748
1221.000000	98.178588
1220.000000	98.096412
1219.000000	98.016295
1218.000000	97.937300
1217.000000	97.853991
1216.000000	97.762116
1215.000000	97.663728
1214.000000	97.564172
1213.000000	97.465393
1212.000000	97.365143
1211.000000	97.261575
1210.000000	97.155796
1209.000000	97.050866
1208.000000	96.950268
1207.000000	96.855762
1206.000000	96.764901
1205.000000	96.672783
1204.000000	96.577601
1203.000000	96.481732
1202.000000	96.386539
1201.000000	96.289927
1200.000000	96.190584
1199.000000	96.090518
1198.000000	95.991056
1197.000000	95.890554
1196.000000	95.788973
1195.000000	95.690634
1194.000000	95.598896
1193.000000	95.511122
1192.000000	95.421938
1191.000000	95.328813
1190.000000	95.232391
1189.000000	95.134524
1188.000000	95.037999
1187.000000	94.944772
1186.000000	94.852421
1185.000000	94.755859
1184.000000	94.653928
1183.000000	94.549874
1182.000000	94.443798
1181.000000	94.330293
1180.000000	94.206531
1179.000000	94.077514
1178.000000	93.949538
1177.000000	93.822872
1176.000000	93.694366
1175.000000	93.562682
1174.000000	93.427176
1173.000000	93.285757
1172.000000	93.137574
1171.000000	92.984598
1170.000000	92.828256
1169.000000	92.668715
1168.000000	92.509533
1167.000000	92.358418
1166.000000	92.222155
1165.000000	92.107090
1164.000000	92.025716
1163.000000	91.993779
1162.000000	92.015989
1161.000000	92.079705
1160.000000	92.164309
1159.000000	92.250325
1158.000000	92.318926
1157.000000	92.353349
1156.000000	92.347131
1155.000000	92.306029
1154.000000	92.238326
1153.000000	92.147914
1152.000000	92.039236
1151.000000	91.921585
1150.000000	91.802735
1149.000000	91.683144
1148.000000	91.561122
1147.000000	91.438807
1146.000000	91.318785
1145.000000	91.199936
1144.000000	91.080993
1143.000000	90.963715
1142.000000	90.849021
1141.000000	90.734507
1140.000000	90.618374
1139.000000	90.500891
1138.000000	90.380234
1137.000000	90.253012
1136.000000	90.120875
1135.000000	89.990229
1134.000000	89.863534
1133.000000	89.737509
1132.000000	89.610964
1131.000000	89.486335
1130.000000	89.362460
1129.000000	89.235337
1128.000000	89.107694
1127.000000	88.987203
1126.000000	88.872315
1125.000000	88.751195
1124.000000	88.618922
1123.000000	88.484661
1122.000000	88.356690
1121.000000	88.231326
1120.000000	88.103062
1119.000000	87.974652
1118.000000	87.849023
1117.000000	87.721010
1116.000000	87.586193
1115.000000	87.450608
1114.000000	87.323532
1113.000000	87.206128
1112.000000	87.093188
1111.000000	86.980220
1110.000000	86.864489
1109.000000	86.745623
1108.000000	86.628289
1107.000000	86.516867
1106.000000	86.405382
1105.000000	86.282094
1104.000000	86.146960
1103.000000	86.014518
1102.000000	85.895586
1101.000000	85.785524
1100.000000	85.673735
1099.000000	85.555283
1098.000000	85.430144
1097.000000	85.300877
1096.000000	85.174990
1095.000000	85.061046
1094.000000	84.959199
1093.000000	84.862616
1092.000000	84.767585
1091.000000	84.673077
1090.000000	84.573107
1089.000000	84.462160
1088.000000	84.346815
1087.000000	84.238871
1086.000000	84.138272
1085.000000	84.036663
1084.000000	83.935584
1083.000000	83.844497
1082.000000	83.761519
1081.000000	83.673963
1080.000000	83.579251
1079.000000	83.487882
1078.000000	83.403754
1077.000000	83.318454
1076.000000	83.227296
1075.000000	83.133881
1074.000000	83.036509
1073.000000	82.926700
1072.000000	82.802796
1071.000000	82.668637
1070.000000	82.518327
1069.000000	82.340133
1068.000000	82.136611
1067.000000	81.922801
1066.000000	81.702774
1065.000000	81.467577
1064.000000	81.219808
1063.000000	80.980184
1062.000000	80.764502
1061.000000	80.571449
1060.000000	80.395543
1059.000000	80.232503
1058.000000	80.070309
1057.000000	79.897277
1056.000000	79.722765
1055.000000	79.567808
1054.000000	79.429694
1053.000000	79.277432
1052.000000	79.089092
1051.000000	78.871818
1050.000000	78.638575
1049.000000	78.390764
1048.000000	78.133061
1047.000000	77.877956
1046.000000	77.624902
1045.000000	77.358794
1044.000000	77.076608
1043.000000	76.794049
1042.000000	76.520484
1041.000000	76.249117
1040.000000	75.977307
1039.000000	75.713340
1038.000000	75.456747
1037.000000	75.196401
1036.000000	74.936376
1035.000000	74.699740
1034.000000	74.497862
1033.000000	74.318587
1032.000000	74.151721
1031.000000	74.002626
1030.000000	73.872360
1029.000000	73.748226
1028.000000	73.623790
1027.000000	73.507336
1026.000000	73.402836
1025.000000	73.303552
1024.000000	73.210038
1023.000000	73.131727
1022.000000	73.064832
1021.000000	72.991897
1020.000000	72.909512
1019.000000	72.833074
1018.000000	72.767678
1017.000000	72.698119
1016.000000	72.614915
1015.000000	72.527459
1014.000000	72.444107
1013.000000	72.361086
1012.000000	72.277516
1011.000000	72.199709
1010.000000	72.124562
1009.000000	72.040087
1008.000000	71.948324
1007.000000	71.867280
1006.000000	71.805475
1005.000000	71.754733
1004.000000	71.710429
1003.000000	71.676887
1002.000000	71.650743
1001.000000	71.622712
1000.000000	71.598984
999.000000	71.597088
998.000000	71.617464
997.000000	71.642767
996.000000	71.667531
995.000000	71.703020
994.000000	71.749266
993.000000	71.789435
992.000000	71.818652
991.000000	71.853619
990.000000	71.906054
989.000000	71.969180
988.000000	72.036584
987.000000	72.112590
986.000000	72.198219
985.000000	72.288455
984.000000	72.388625
983.000000	72.512478
982.000000	72.659690
981.000000	72.816095
980.000000	72.979843
979.000000	73.165949
978.000000	73.381410
977.000000	73.616904
976.000000	73.865760
975.000000	74.129616
974.000000	74.402581
973.000000	74.671967
972.000000	74.938737
971.000000	75.217119
970.000000	75.511523
969.000000	75.813701
968.000000	76.122697
967.000000	76.444586
966.000000	76.770780
965.000000	77.080688
964.000000	77.370402
963.000000	77.656855
962.000000	77.949455
961.000000	78.238985
960.000000	78.518968
959.000000	78.796100
958.000000	79.073196
957.000000	79.341661
956.000000	79.597059
955.000000	79.843714
954.000000	80.078729
953.000000	80.290189
952.000000	80.477007
951.000000	80.653066
950.000000	80.826485
949.000000	80.991987
948.000000	81.148379
947.000000	81.304389
946.000000	81.460054
945.000000	81.600234
944.000000	81.715700
943.000000	81.816523
942.000000	81.917603
941.000000	82.023490
940.000000	82.132760
939.000000	82.244036
938.000000	82.352690
937.000000	82.454013
936.000000	82.552636
935.000000	82.656201
934.000000	82.759228
933.000000	82.848913
932.000000	82.927883
931.000000	83.013848
930.000000	83.114477
929.000000	83.220568
928.000000	83.326944
927.000000	83.440634
926.000000	83.562947
925.000000	83.681838
924.000000	83.788818
923.000000	83.887081
922.000000	83.976912
921.000000	84.049576
920.000000	84.102777
919.000000	84.147436
918.000000	84.192878
917.000000	84.239593
916.000000	84.291712
915.000000	84.361005
914.000000	84.452344
913.000000	84.560077
912.000000	84.684201
911.000000	84.834517
910.000000	85.012922
909.000000	85.207568
908.000000	85.411627
907.000000	85.633274
906.000000	85.880643
905.000000	86.150921
904.000000	86.439354
903.000000	86.744487
902.000000	87.059063
901.000000	87.370093
900.000000	87.674018
899.000000	87.979618
898.000000	88.291554
897.000000	88.602926
896.000000	88.906504
895.000000	89.200046
894.000000	89.478303
893.000000	89.734572
892.000000	89.974329
891.000000	90.213509
890.000000	90.458402
889.000000	90.700063
888.000000	90.932485
887.000000	91.161931
886.000000	91.392746
885.000000	91.618163
884.000000	91.832742
883.000000	92.041331
882.000000	92.247797
881.000000	92.446518
880.000000	92.633524
879.000000	92.815499
878.000000	92.999306
877.000000	93.182611
876.000000	93.363698
875.000000	93.550962
874.000000	93.752782
873.000000	93.964996
872.000000	94.176820
871.000000	94.383937
870.000000	94.589748
869.000000	94.798214
868.000000	95.009650
867.000000	95.219622
866.000000	95.420617
865.000000	95.610398
864.000000	95.799196
863.000000	96.000905
862.000000	96.214882
861.000000	96.424109
860.000000	96.614037
859.000000	96.785472
858.000000	96.945816
857.000000	97.095713
856.000000	97.230798
855.000000	97.351992
854.000000	97.467460
853.000000	97.584998
852.000000	97.705108
851.000000	97.820171
850.000000	97.919379
849.000000	97.996821
848.000000	98.055533
847.000000	98.102067
846.000000	98.138388
845.000000	98.162329
844.000000	98.173801
843.000000	98.174638
842.000000	98.162905
841.000000	98.133370
840.000000	98.084201
839.000000	98.018830
838.000000	97.942220
837.000000	97.860131
836.000000	97.779814
835.000000	97.704748
834.000000	97.630848
833.000000	97.556317
832.000000	97.493535
831.000000	97.460490
830.000000	97.459736
829.000000	97.476808
828.000000	97.500423
827.000000	97.530944
826.000000	97.566036
825.000000	97.593573
824.000000	97.606638
823.000000	97.612820
822.000000	97.620284
821.000000	97.624960
820.000000	97.616906
819.000000	97.588972
818.000000	97.535706
817.000000	97.453218
816.000000	97.342214
815.000000	97.201737
814.000000	97.017700
813.000000	96.767427
812.000000	96.438856
811.000000	96.035802
810.000000	95.561388
809.000000	95.008480
808.000000	94.373783
807.000000	93.671283
806.000000	92.924074
805.000000	92.153047
804.000000	91.381957
803.000000	90.642309
802.000000	89.962945
801.000000	89.364304
800.000000	88.868996
799.000000	88.502967
798.000000	88.276640
797.000000	88.177420
796.000000	88.186651
795.000000	88.288336
794.000000	88.455308
793.000000	88.645454
792.000000	88.823859
791.000000	88.978978
790.000000	89.110679
789.000000	89.211748
788.000000	89.265117
787.000000	89.249473
786.000000	89.145478
785.000000	88.948502
784.000000	88.680101
783.000000	88.378413
782.000000	88.075449
781.000000	87.793157
780.000000	87.558292
779.000000	87.401883
778.000000	87.340085
777.000000	87.372422
776.000000	87.500619
775.000000	87.727963
774.000000	88.034453
773.000000	88.373718
772.000000	88.705070
771.000000	89.015015
770.000000	89.303090
769.000000	89.564574
768.000000	89.795366
767.000000	89.998025
766.000000	90.172700
765.000000	90.313966
764.000000	90.425245
763.000000	90.525298
762.000000	90.631711
761.000000	90.746876
760.000000	90.866390
759.000000	90.990297
758.000000	91.118725
757.000000	91.246875
756.000000	91.373147
755.000000	91.504816
754.000000	91.648311
753.000000	91.799203
752.000000	91.946063
751.000000	92.078888
750.000000	92.193227
