4000.000000	99.704577
3999.000000	99.700617
3998.000000	99.700076
3997.000000	99.703318
3996.000000	99.708739
3995.000000	99.713595
3994.000000	99.715764
3993.000000	99.714681
3992.000000	99.711538
3991.000000	99.708557
3990.000000	99.707309
3989.000000	99.707843
3988.000000	99.709199
3987.000000	99.710188
3986.000000	99.709799
3985.000000	99.707710
3984.000000	99.704702
3983.000000	99.701941
3982.000000	99.699541
3981.000000	99.696440
3980.000000	99.692140
3979.000000	99.687968
3978.000000	99.685887
3977.000000	99.686265
3976.000000	99.687311
3975.000000	99.687067
3974.000000	99.685622
3973.000000	99.684900
3972.000000	99.686300
3971.000000	99.689084
3970.000000	99.691127
3969.000000	99.691000
3968.000000	99.688983
3967.000000	99.686158
3966.000000	99.683167
3965.000000	99.680119
3964.000000	99.677509
3963.000000	99.676400
3962.000000	99.677314
3961.000000	99.679376
3960.000000	99.680860
3959.000000	99.680615
3958.000000	99.678833
3957.000000	99.676495
3956.000000	99.674585
3955.000000	99.673611
3954.000000	99.673522
3953.000000	99.673853
3952.000000	99.674030
3951.000000	99.673703
3950.000000	99.672890
3949.000000	99.671978
3948.000000	99.671537
3947.000000	99.671894
3946.000000	99.672787
3945.000000	99.673505
3944.000000	99.673410
3943.000000	99.672313
3942.000000	99.670387
3941.000000	99.667927
3940.000000	99.665396
3939.000000	99.663616
3938.000000	99.663341
3937.000000	99.664519
3936.000000	99.666189
3935.000000	99.667252
3934.000000	99.667456
3933.000000	99.667353
3932.000000	99.667583
3931.000000	99.668327
3930.000000	99.669297
3929.000000	99.670116
3928.000000	99.670537
3927.000000	99.670495
3926.000000	99.670181
3925.000000	99.670077
3924.000000	99.670527
3923.000000	99.671259
3922.000000	99.671647
3921.000000	99.671370
3920.000000	99.670537
3919.000000	99.669486
3918.000000	99.668656
3917.000000	99.668347
3916.000000	99.668531
3915.000000	99.668913
3914.000000	99.669197
3913.000000	99.669318
3912.000000	99.669368
3911.000000	99.669442
3910.000000	99.669613
3909.000000	99.669901
3908.000000	99.670274
3907.000000	99.670646
3906.000000	99.670947
3905.000000	99.671189
3904.000000	99.671431
3903.000000	99.671722
3902.000000	99.672083
3901.000000	99.672520
3900.000000	99.673041
3899.000000	99.673641
3898.000000	99.674301
3897.000000	99.674991
3896.000000	99.675680
3895.000000	99.676353
3894.000000	99.677021
3893.000000	99.677698
3892.000000	99.678400
3891.000000	99.679147
3890.000000	99.679942
3889.000000	99.680772
3888.000000	99.681621
3887.000000	99.682490
3886.000000	99.683384
3885.000000	99.684293
3884.000000	99.685188
3883.000000	99.686037
3882.000000	99.686836
3881.000000	99.687609
3880.000000	99.688402
3879.000000	99.689254
3878.000000	99.690183
3877.000000	99.691183
3876.000000	99.692241
3875.000000	99.693346
3874.000000	99.694468
3873.000000	99.695559
3872.000000	99.696578
3871.000000	99.697515
3870.000000	99.698391
3869.000000	99.699229
3868.000000	99.700005
3867.000000	99.700689
3866.000000	99.701328
3865.000000	99.702013
3864.000000	99.702774
3863.000000	99.703557
3862.000000	99.704290
3861.000000	99.704963
3860.000000	99.705606
3859.000000	99.706218
3858.000000	99.706769
3857.000000	99.707218
3856.000000	99.707513
3855.000000	99.707647
3854.000000	99.707711
3853.000000	99.707833
3852.000000	99.707960
3851.000000	99.707969
3850.000000	99.707887
3849.000000	99.707788
3848.000000	99.707709
3847.000000	99.707653
3846.000000	99.707624
3845.000000	99.707618
3844.000000	99.707626
3843.000000	99.707647
3842.000000	99.707687
3841.000000	99.707754
3840.000000	99.707845
3839.000000	99.707943
3838.000000	99.708028
3837.000000	99.708082
3836.000000	99.708089
3835.000000	99.708039
3834.000000	99.707930
3833.000000	99.707771
3832.000000	99.707581
3831.000000	99.707386
3830.000000	99.707211
3829.000000	99.707073
3828.000000	99.706978
3827.000000	99.706921
3826.000000	99.706891
3825.000000	99.706864
3824.000000	99.706798
3823.000000	99.706652
3822.000000	99.706413
3821.000000	99.706106
3820.000000	99.705754
3819.000000	99.705354
3818.000000	99.704898
3817.000000	99.704401
3816.000000	99.703895
3815.000000	99.703406
3814.000000	99.702923
3813.000000	99.702399
3812.000000	99.701824
3811.000000	99.701283
3810.000000	99.700842
3809.000000	99.700415
3808.000000	99.699859
3807.000000	99.699278
3806.000000	99.699006
3805.000000	99.698980
3804.000000	99.698593
3803.000000	99.697466
3802.000000	99.695857
3801.000000	99.694626
3800.000000	99.694055
3799.000000	99.693070
3798.000000	99.690898
3797.000000	99.687967
3796.000000	99.685093
3795.000000	99.682813
3794.000000	99.681237
3793.000000	99.680424
3792.000000	99.680545
3791.000000	99.681395
3790.000000	99.682468
3789.000000	99.683446
3788.000000	99.684071
3787.000000	99.683886
3786.000000	99.682408
3785.000000	99.679934
3784.000000	99.677473
3783.000000	99.675607
3782.000000	99.673934
3781.000000	99.672036
3780.000000	99.670456
3779.000000	99.670327
3778.000000	99.671868
3777.000000	99.673499
3776.000000	99.674197
3775.000000	99.675106
3774.000000	99.677423
3773.000000	99.679993
3772.000000	99.680606
3771.000000	99.679092
3770.000000	99.677655
3769.000000	99.676971
3768.000000	99.674037
3767.000000	99.666764
3766.000000	99.658856
3765.000000	99.656390
3764.000000	99.660803
3763.000000	99.667631
3762.000000	99.672216
3761.000000	99.673634
3760.000000	99.672399
3759.000000	99.668831
3758.000000	99.665017
3757.000000	99.664722
3756.000000	99.670559
3755.000000	99.681546
3754.000000	99.694092
3753.000000	99.702872
3752.000000	99.702388
3751.000000	99.693976
3750.000000	99.689127
3749.000000	99.696997
3748.000000	99.712523
3747.000000	99.722129
3746.000000	99.715637
3745.000000	99.694050
3744.000000	99.673549
3743.000000	99.665139
3742.000000	99.657637
3741.000000	99.645904
3740.000000	99.639558
3739.000000	99.640672
3738.000000	99.641851
3737.000000	99.637428
3736.000000	99.628653
3735.000000	99.617390
3734.000000	99.601133
3733.000000	99.579977
3732.000000	99.562102
3731.000000	99.554334
3730.000000	99.552990
3729.000000	99.550771
3728.000000	99.546091
3727.000000	99.541402
3726.000000	99.536597
3725.000000	99.527315
3724.000000	99.510821
3723.000000	99.492133
3722.000000	99.478705
3721.000000	99.471394
3720.000000	99.463836
3719.000000	99.450014
3718.000000	99.430788
3717.000000	99.411895
3716.000000	99.397261
3715.000000	99.385831
3714.000000	99.374466
3713.000000	99.360019
3712.000000	99.341439
3711.000000	99.321184
3710.000000	99.300729
3709.000000	99.277833
3708.000000	99.251813
3707.000000	99.225307
3706.000000	99.200206
3705.000000	99.175830
3704.000000	99.151707
3703.000000	99.130060
3702.000000	99.114472
3701.000000	99.106102
3700.000000	99.100249
3699.000000	99.090200
3698.000000	99.076346
3697.000000	99.066557
3696.000000	99.066610
3695.000000	99.073653
3694.000000	99.080537
3693.000000	99.083273
3692.000000	99.081104
3691.000000	99.073065
3690.000000	99.059725
3689.000000	99.045906
3688.000000	99.035808
3687.000000	99.025091
3686.000000	99.007618
3685.000000	98.987615
3684.000000	98.974403
3683.000000	98.968728
3682.000000	98.962611
3681.000000	98.951618
3680.000000	98.940968
3679.000000	98.934710
3678.000000	98.924437
3677.000000	98.899248
3676.000000	98.865859
3675.000000	98.846890
3674.000000	98.841701
3673.000000	98.822277
3672.000000	98.780058
3671.000000	98.731050
3670.000000	98.690958
3669.000000	98.662858
3668.000000	98.634272
3667.000000	98.596478
3666.000000	98.557687
3665.000000	98.525799
3664.000000	98.497723
3663.000000	98.467625
3662.000000	98.436712
3661.000000	98.411561
3660.000000	98.394876
3659.000000	98.381380
3658.000000	98.364752
3657.000000	98.347237
3656.000000	98.337732
3655.000000	98.337476
3654.000000	98.334756
3653.000000	98.322243
3652.000000	98.305263
3651.000000	98.289775
3650.000000	98.273481
3649.000000	98.250338
3648.000000	98.217197
3647.000000	98.177123
3646.000000	98.137501
3645.000000	98.104000
3644.000000	98.077999
3643.000000	98.058113
3642.000000	98.041943
3641.000000	98.026623
3640.000000	98.010318
3639.000000	97.993310
3638.000000	97.976751
3637.000000	97.959158
3636.000000	97.938526
3635.000000	97.918480
3634.000000	97.905734
3633.000000	97.899193
3632.000000	97.887069
3631.000000	97.860413
3630.000000	97.826030
3629.000000	97.803613
3628.000000	97.801680
3627.000000	97.798373
3626.000000	97.773870
3625.000000	97.742754
3624.000000	97.726959
3623.000000	97.730323
3622.000000	97.744595
3621.000000	97.762618
3620.000000	97.783666
3619.000000	97.808959
3618.000000	97.835250
3617.000000	97.854832
3616.000000	97.863850
3615.000000	97.866329
3614.000000	97.869029
3613.000000	97.876173
3612.000000	97.886725
3611.000000	97.896143
3610.000000	97.902404
3609.000000	97.908872
3608.000000	97.920243
3607.000000	97.936608
3606.000000	97.952869
3605.000000	97.964883
3604.000000	97.973027
3603.000000	97.979633
3602.000000	97.987926
3601.000000	98.002664
3600.000000	98.026644
3599.000000	98.055758
3598.000000	98.081243
3597.000000	98.097461
3596.000000	98.105481
3595.000000	98.111112
3594.000000	98.118917
3593.000000	98.128161
3592.000000	98.134862
3591.000000	98.137188
3590.000000	98.136293
3589.000000	98.134983
3588.000000	98.137142
3587.000000	98.144696
3586.000000	98.151553
3585.000000	98.148056
3584.000000	98.133917
3583.000000	98.118979
3582.000000	98.112664
3581.000000	98.116288
3580.000000	98.123827
3579.000000	98.128485
3578.000000	98.128502
3577.000000	98.127082
3576.000000	98.127409
3575.000000	98.129598
3574.000000	98.131799
3573.000000	98.132479
3572.000000	98.130963
3571.000000	98.126897
3570.000000	98.120411
3569.000000	98.112665
3568.000000	98.105821
3567.000000	98.101440
3566.000000	98.098428
3565.000000	98.093670
3564.000000	98.087071
3563.000000	98.082305
3562.000000	98.081503
3561.000000	98.083319
3560.000000	98.085389
3559.000000	98.086373
3558.000000	98.086433
3557.000000	98.086962
3556.000000	98.089299
3555.000000	98.093084
3554.000000	98.096658
3553.000000	98.099095
3552.000000	98.100740
3551.000000	98.101231
3550.000000	98.098935
3549.000000	98.093230
3548.000000	98.086035
3547.000000	98.080351
3546.000000	98.077761
3545.000000	98.077408
3544.000000	98.077119
3543.000000	98.075470
3542.000000	98.072802
3541.000000	98.070507
3540.000000	98.069622
3539.000000	98.069927
3538.000000	98.070265
3537.000000	98.069686
3536.000000	98.068046
3535.000000	98.065577
3534.000000	98.062653
3533.000000	98.060166
3532.000000	98.059338
3531.000000	98.060676
3530.000000	98.063270
3529.000000	98.065444
3528.000000	98.066174
3527.000000	98.065587
3526.000000	98.064272
3525.000000	98.062719
3524.000000	98.061290
3523.000000	98.060300
3522.000000	98.059868
3521.000000	98.059854
3520.000000	98.060115
3519.000000	98.060588
3518.000000	98.061120
3517.000000	98.061410
3516.000000	98.061264
3515.000000	98.060764
3514.000000	98.059991
3513.000000	98.058697
3512.000000	98.056550
3511.000000	98.053758
3510.000000	98.051211
3509.000000	98.049868
3508.000000	98.049995
3507.000000	98.051036
3506.000000	98.052105
3505.000000	98.052630
3504.000000	98.052572
3503.000000	98.052237
3502.000000	98.051875
3501.000000	98.051410
3500.000000	98.050486
3499.000000	98.048718
3498.000000	98.045983
3497.000000	98.042665
3496.000000	98.039567
3495.000000	98.037359
3494.000000	98.036172
3493.000000	98.035721
3492.000000	98.035718
3491.000000	98.036026
3490.000000	98.036454
3489.000000	98.036584
3488.000000	98.035879
3487.000000	98.033972
3486.000000	98.031006
3485.000000	98.027930
3484.000000	98.026211
3483.000000	98.026690
3482.000000	98.028456
3481.000000	98.029160
3480.000000	98.027100
3479.000000	98.022678
3478.000000	98.017836
3477.000000	98.014031
3476.000000	98.011075
3475.000000	98.008035
3474.000000	98.004755
3473.000000	98.002164
3472.000000	98.001186
3471.000000	98.001769
3470.000000	98.003024
3469.000000	98.004053
3468.000000	98.004332
3467.000000	98.003295
3466.000000	98.000133
3465.000000	97.994548
3464.000000	97.987602
3463.000000	97.981188
3462.000000	97.976382
3461.000000	97.972823
3460.000000	97.969861
3459.000000	97.967729
3458.000000	97.967003
3457.000000	97.967324
3456.000000	97.967494
3455.000000	97.966856
3454.000000	97.966032
3453.000000	97.966038
3452.000000	97.966930
3451.000000	97.967536
3450.000000	97.966623
3449.000000	97.964280
3448.000000	97.961875
3447.000000	97.960419
3446.000000	97.959254
3445.000000	97.957081
3444.000000	97.953982
3443.000000	97.951337
3442.000000	97.949691
3441.000000	97.947920
3440.000000	97.945088
3439.000000	97.942000
3438.000000	97.939986
3437.000000	97.938967
3436.000000	97.937940
3435.000000	97.936920
3434.000000	97.936876
3433.000000	97.937704
3432.000000	97.937515
3431.000000	97.934586
3430.000000	97.929293
3429.000000	97.923854
3428.000000	97.920275
3427.000000	97.918951
3426.000000	97.918995
3425.000000	97.919227
3424.000000	97.919056
3423.000000	97.918864
3422.000000	97.919534
3421.000000	97.921334
3420.000000	97.923369
3419.000000	97.924394
3418.000000	97.924042
3417.000000	97.922878
3416.000000	97.921513
3415.000000	97.920186
3414.000000	97.919128
3413.000000	97.918716
3412.000000	97.918835
3411.000000	97.918463
3410.000000	97.916445
3409.000000	97.912735
3408.000000	97.908734
3407.000000	97.906256
3406.000000	97.906175
3405.000000	97.907920
3404.000000	97.910073
3403.000000	97.911687
3402.000000	97.913078
3401.000000	97.915227
3400.000000	97.918408
3399.000000	97.921581
3398.000000	97.923209
3397.000000	97.922629
3396.000000	97.920509
3395.000000	97.918025
3394.000000	97.915857
3393.000000	97.913946
3392.000000	97.912091
3391.000000	97.910542
3390.000000	97.909852
3389.000000	97.910286
3388.000000	97.911575
3387.000000	97.913265
3386.000000	97.915118
3385.000000	97.917010
3384.000000	97.918698
3383.000000	97.919982
3382.000000	97.920940
3381.000000	97.921814
3380.000000	97.922698
3379.000000	97.923492
3378.000000	97.924115
3377.000000	97.924680
3376.000000	97.925415
3375.000000	97.926483
3374.000000	97.927901
3373.000000	97.929540
3372.000000	97.931172
3371.000000	97.932579
3370.000000	97.933685
3369.000000	97.934622
3368.000000	97.935650
3367.000000	97.936943
3366.000000	97.938442
3365.000000	97.939970
3364.000000	97.941412
3363.000000	97.942783
3362.000000	97.944137
3361.000000	97.945507
3360.000000	97.946902
3359.000000	97.948321
3358.000000	97.949768
3357.000000	97.951238
3356.000000	97.952723
3355.000000	97.954218
3354.000000	97.955728
3353.000000	97.957262
3352.000000	97.958829
3351.000000	97.960428
3350.000000	97.962051
3349.000000	97.963689
3348.000000	97.965334
3347.000000	97.966981
3346.000000	97.968630
3345.000000	97.970278
3344.000000	97.971922
3343.000000	97.973556
3342.000000	97.975175
3341.000000	97.976779
3340.000000	97.978373
3339.000000	97.979957
3338.000000	97.981533
3337.000000	97.983107
3336.000000	97.984687
3335.000000	97.986285
3334.000000	97.987903
3333.000000	97.989531
3332.000000	97.991146
3331.000000	97.992731
3330.000000	97.994279
3329.000000	97.995797
3328.000000	97.997294
3327.000000	97.998777
3326.000000	98.000255
3325.000000	98.001739
3324.000000	98.003215
3323.000000	98.004611
3322.000000	98.005849
3321.000000	98.006943
3320.000000	98.008056
3319.000000	98.009349
3318.000000	98.010827
3317.000000	98.012320
3316.000000	98.013654
3315.000000	98.014870
3314.000000	98.016178
3313.000000	98.017671
3312.000000	98.019137
3311.000000	98.020281
3310.000000	98.021073
3309.000000	98.021749
3308.000000	98.022475
3307.000000	98.023172
3306.000000	98.023777
3305.000000	98.024539
3304.000000	98.025845
3303.000000	98.027769
3302.000000	98.029853
3301.000000	98.031426
3300.000000	98.032153
3299.000000	98.032306
3298.000000	98.032614
3297.000000	98.033712
3296.000000	98.035663
3295.000000	98.037902
3294.000000	98.039626
3293.000000	98.040262
3292.000000	98.039590
3291.000000	98.037784
3290.000000	98.035560
3289.000000	98.034053
3288.000000	98.034176
3287.000000	98.035925
3286.000000	98.038317
3285.000000	98.040148
3284.000000	98.040938
3283.000000	98.041234
3282.000000	98.042138
3281.000000	98.044394
3280.000000	98.047752
3279.000000	98.051121
3278.000000	98.053479
3277.000000	98.054565
3276.000000	98.054803
3275.000000	98.054818
3274.000000	98.055072
3273.000000	98.055758
3272.000000	98.056863
3271.000000	98.058394
3270.000000	98.060587
3269.000000	98.063665
3268.000000	98.067284
3267.000000	98.070474
3266.000000	98.072453
3265.000000	98.073286
3264.000000	98.073550
3263.000000	98.073638
3262.000000	98.073755
3261.000000	98.074313
3260.000000	98.075701
3259.000000	98.077665
3258.000000	98.079349
3257.000000	98.080071
3256.000000	98.079814
3255.000000	98.079067
3254.000000	98.078556
3253.000000	98.079007
3252.000000	98.080711
3251.000000	98.083224
3250.000000	98.085704
3249.000000	98.087660
3248.000000	98.089159
3247.000000	98.090491
3246.000000	98.092004
3245.000000	98.094137
3244.000000	98.097085
3243.000000	98.100455
3242.000000	98.103623
3241.000000	98.106435
3240.000000	98.109149
3239.000000	98.111718
3238.000000	98.113738
3237.000000	98.115304
3236.000000	98.117318
3235.000000	98.120393
3234.000000	98.123698
3233.000000	98.125490
3232.000000	98.124836
3231.000000	98.122569
3230.000000	98.120716
3229.000000	98.120860
3228.000000	98.123163
3227.000000	98.126718
3226.000000	98.130536
3225.000000	98.134268
3224.000000	98.138031
3223.000000	98.141891
3222.000000	98.145714
3221.000000	98.149308
3220.000000	98.152455
3219.000000	98.155033
3218.000000	98.157382
3217.000000	98.160371
3216.000000	98.164617
3215.000000	98.169589
3214.000000	98.173828
3213.000000	98.176227
3212.000000	98.176872
3211.000000	98.176702
3210.000000	98.176765
3209.000000	98.177890
3208.000000	98.180537
3207.000000	98.184601
3206.000000	98.189333
3205.000000	98.193706
3204.000000	98.197099
3203.000000	98.199739
3202.000000	98.202574
3201.000000	98.206556
3200.000000	98.211767
3199.000000	98.217231
3198.000000	98.221824
3197.000000	98.225412
3196.000000	98.228797
3195.000000	98.232632
3194.000000	98.236719
3193.000000	98.240442
3192.000000	98.243445
3191.000000	98.245721
3190.000000	98.247460
3189.000000	98.249119
3188.000000	98.251272
3187.000000	98.254106
3186.000000	98.257301
3185.000000	98.260601
3184.000000	98.264318
3183.000000	98.268892
3182.000000	98.274189
3181.000000	98.279619
3180.000000	98.284752
3179.000000	98.289477
3178.000000	98.293625
3177.000000	98.296911
3176.000000	98.299367
3175.000000	98.301591
3174.000000	98.304358
3173.000000	98.307970
3172.000000	98.312074
3171.000000	98.316009
3170.000000	98.319374
3169.000000	98.322348
3168.000000	98.325530
3167.000000	98.329384
3166.000000	98.333866
3165.000000	98.338564
3164.000000	98.343035
3163.000000	98.347089
3162.000000	98.350766
3161.000000	98.354249
3160.000000	98.357764
3159.000000	98.361437
3158.000000	98.365249
3157.000000	98.369111
3156.000000	98.372976
3155.000000	98.376857
3154.000000	98.380744
3153.000000	98.384569
3152.000000	98.388282
3151.000000	98.391921
3150.000000	98.395578
3149.000000	98.399319
3148.000000	98.403181
3147.000000	98.407180
3146.000000	98.411272
3145.000000	98.415350
3144.000000	98.419325
3143.000000	98.423198
3142.000000	98.427030
3141.000000	98.430888
3140.000000	98.434795
3139.000000	98.438719
3138.000000	98.442607
3137.000000	98.446448
3136.000000	98.450285
3135.000000	98.454157
3134.000000	98.458042
3133.000000	98.461882
3132.000000	98.465656
3131.000000	98.469432
3130.000000	98.473316
3129.000000	98.477325
3128.000000	98.481320
3127.000000	98.485125
3126.000000	98.488746
3125.000000	98.492397
3124.000000	98.496219
3123.000000	98.500051
3122.000000	98.503634
3121.000000	98.507051
3120.000000	98.510758
3119.000000	98.515085
3118.000000	98.519825
3117.000000	98.524365
3116.000000	98.528287
3115.000000	98.531647
3114.000000	98.534746
3113.000000	98.537779
3112.000000	98.540729
3111.000000	98.543518
3110.000000	98.546240
3109.000000	98.549268
3108.000000	98.552985
3107.000000	98.557345
3106.000000	98.561736
3105.000000	98.565456
3104.000000	98.568293
3103.000000	98.570581
3102.000000	98.572849
3101.000000	98.575471
3100.000000	98.578617
3099.000000	98.582278
3098.000000	98.586287
3097.000000	98.590424
3096.000000	98.594581
3095.000000	98.598728
3094.000000	98.602739
3093.000000	98.606480
3092.000000	98.610020
3091.000000	98.613588
3090.000000	98.617300
3089.000000	98.621072
3088.000000	98.624764
3087.000000	98.628222
3086.000000	98.631280
3085.000000	98.633944
3084.000000	98.636580
3083.000000	98.639618
3082.000000	98.643043
3081.000000	98.646448
3080.000000	98.649681
3079.000000	98.653104
3078.000000	98.657018
3077.000000	98.661099
3076.000000	98.664667
3075.000000	98.667372
3074.000000	98.669350
3073.000000	98.671034
3072.000000	98.672963
3071.000000	98.675676
3070.000000	98.679498
3069.000000	98.684279
3068.000000	98.689430
3067.000000	98.694328
3066.000000	98.698615
3065.000000	98.702194
3064.000000	98.705185
3063.000000	98.707894
3062.000000	98.710631
3061.000000	98.713457
3060.000000	98.716233
3059.000000	98.718967
3058.000000	98.721947
3057.000000	98.725432
3056.000000	98.729352
3055.000000	98.733416
3054.000000	98.737391
3053.000000	98.741118
3052.000000	98.744422
3051.000000	98.747303
3050.000000	98.750172
3049.000000	98.753562
3048.000000	98.757532
3047.000000	98.761645
3046.000000	98.765603
3045.000000	98.769570
3044.000000	98.773686
3043.000000	98.777664
3042.000000	98.781225
3041.000000	98.784667
3040.000000	98.788463
3039.000000	98.792292
3038.000000	98.795087
3037.000000	98.796343
3036.000000	98.797149
3035.000000	98.799460
3034.000000	98.804220
3033.000000	98.810599
3032.000000	98.816714
3031.000000	98.821379
3030.000000	98.824984
3029.000000	98.828822
3028.000000	98.833846
3027.000000	98.840035
3026.000000	98.846687
3025.000000	98.852989
3024.000000	98.858224
3023.000000	98.861817
3022.000000	98.863745
3021.000000	98.865016
3020.000000	98.867173
3019.000000	98.870908
3018.000000	98.875487
3017.000000	98.879947
3016.000000	98.884633
3015.000000	98.890826
3014.000000	98.899009
3013.000000	98.908129
3012.000000	98.916688
3011.000000	98.924095
3010.000000	98.930751
3009.000000	98.937284
3008.000000	98.943937
3007.000000	98.950282
3006.000000	98.955245
3005.000000	98.957815
3004.000000	98.958112
3003.000000	98.957586
3002.000000	98.958007
3001.000000	98.960615
3000.000000	98.966241
2999.000000	98.975263
2998.000000	98.986517
2997.000000	98.996845
2996.000000	99.003227
2995.000000	99.005863
2994.000000	99.008285
2993.000000	99.013916
2992.000000	99.023063
2991.000000	99.033406
2990.000000	99.042460
2989.000000	99.049042
2988.000000	99.053495
2987.000000	99.057924
2986.000000	99.065468
2985.000000	99.077627
2984.000000	99.092207
2983.000000	99.105227
2982.000000	99.114861
2981.000000	99.122067
2980.000000	99.127497
2979.000000	99.130108
2978.000000	99.130012
2977.000000	99.130640
2976.000000	99.135801
2975.000000	99.145179
2974.000000	99.154732
2973.000000	99.161108
2972.000000	99.163903
2971.000000	99.164087
2970.000000	99.162319
2969.000000	99.159041
2968.000000	99.154582
2967.000000	99.148595
2966.000000	99.140728
2965.000000	99.132364
2964.000000	99.126444
2963.000000	99.124940
2962.000000	99.127315
2961.000000	99.131659
2960.000000	99.136235
2959.000000	99.139769
2958.000000	99.141685
2957.000000	99.142590
2956.000000	99.143139
2955.000000	99.141875
2954.000000	99.136112
2953.000000	99.126398
2952.000000	99.118296
2951.000000	99.117291
2950.000000	99.122580
2949.000000	99.127860
2948.000000	99.128307
2947.000000	99.125105
2946.000000	99.122750
2945.000000	99.123893
2944.000000	99.127782
2943.000000	99.132124
2942.000000	99.135032
2941.000000	99.135931
2940.000000	99.136124
2939.000000	99.138566
2938.000000	99.145768
2937.000000	99.157025
2936.000000	99.167965
2935.000000	99.173740
2934.000000	99.173387
2933.000000	99.171124
2932.000000	99.172863
2931.000000	99.180987
2930.000000	99.192613
2929.000000	99.203067
2928.000000	99.210866
2927.000000	99.218528
2926.000000	99.228835
2925.000000	99.241427
2924.000000	99.253444
2923.000000	99.262573
2922.000000	99.268629
2921.000000	99.272855
2920.000000	99.276868
2919.000000	99.282110
2918.000000	99.288926
2917.000000	99.295461
2916.000000	99.298254
2915.000000	99.294975
2914.000000	99.286677
2913.000000	99.276945
2912.000000	99.268873
2911.000000	99.263338
2910.000000	99.259976
2909.000000	99.258588
2908.000000	99.259022
2907.000000	99.260461
2906.000000	99.261711
2905.000000	99.262172
2904.000000	99.262269
2903.000000	99.263266
2902.000000	99.266749
2901.000000	99.273226
2900.000000	99.280492
2899.000000	99.284229
2898.000000	99.281857
2897.000000	99.275725
2896.000000	99.271392
2895.000000	99.272220
2894.000000	99.276467
2893.000000	99.279652
2892.000000	99.278660
2891.000000	99.273393
2890.000000	99.266002
2889.000000	99.259720
2888.000000	99.257352
2887.000000	99.259405
2886.000000	99.263727
2885.000000	99.267613
2884.000000	99.270346
2883.000000	99.272923
2882.000000	99.275780
2881.000000	99.278007
2880.000000	99.278764
2879.000000	99.278368
2878.000000	99.277770
2877.000000	99.277802
2876.000000	99.279220
2875.000000	99.282586
2874.000000	99.287424
2873.000000	99.291945
2872.000000	99.294346
2871.000000	99.294354
2870.000000	99.293111
2869.000000	99.291767
2868.000000	99.290598
2867.000000	99.289373
2866.000000	99.287917
2865.000000	99.286129
2864.000000	99.283968
2863.000000	99.281871
2862.000000	99.280968
2861.000000	99.282478
2860.000000	99.286742
2859.000000	99.292884
2858.000000	99.299363
2857.000000	99.304855
2856.000000	99.308723
2855.000000	99.311003
2854.000000	99.312418
2853.000000	99.314454
2852.000000	99.318890
2851.000000	99.326450
2850.000000	99.335691
2849.000000	99.343637
2848.000000	99.347871
2847.000000	99.347839
2846.000000	99.344157
2845.000000	99.337572
2844.000000	99.329093
2843.000000	99.320526
2842.000000	99.314003
2841.000000	99.310544
2840.000000	99.309230
2839.000000	99.308140
2838.000000	99.306289
2837.000000	99.304631
2836.000000	99.304968
2835.000000	99.307871
2834.000000	99.311854
2833.000000	99.314669
2832.000000	99.315271
2831.000000	99.314219
2830.000000	99.312468
2829.000000	99.310535
2828.000000	99.309081
2827.000000	99.309542
2826.000000	99.313244
2825.000000	99.319765
2824.000000	99.326667
2823.000000	99.331242
2822.000000	99.332503
2821.000000	99.331537
2820.000000	99.330459
2819.000000	99.331103
2818.000000	99.334141
2817.000000	99.338796
2816.000000	99.343311
2815.000000	99.346153
2814.000000	99.347022
2813.000000	99.346714
2812.000000	99.346256
2811.000000	99.346464
2810.000000	99.348116
2809.000000	99.351782
2808.000000	99.357038
2807.000000	99.362190
2806.000000	99.365455
2805.000000	99.366445
2804.000000	99.366308
2803.000000	99.366646
2802.000000	99.368279
2801.000000	99.370991
2800.000000	99.374162
2799.000000	99.377414
2798.000000	99.380703
2797.000000	99.384067
2796.000000	99.387516
2795.000000	99.391072
2794.000000	99.394708
2793.000000	99.398238
2792.000000	99.401392
2791.000000	99.404103
2790.000000	99.406607
2789.000000	99.409163
2788.000000	99.411755
2787.000000	99.414268
2786.000000	99.416878
2785.000000	99.419885
2784.000000	99.423044
2783.000000	99.425510
2782.000000	99.426879
2781.000000	99.428036
2780.000000	99.430437
2779.000000	99.434380
2778.000000	99.438505
2777.000000	99.441287
2776.000000	99.442457
2775.000000	99.442744
2774.000000	99.442753
2773.000000	99.442634
2772.000000	99.442707
2771.000000	99.443656
2770.000000	99.445880
2769.000000	99.449011
2768.000000	99.452225
2767.000000	99.454906
2766.000000	99.456993
2765.000000	99.458827
2764.000000	99.460738
2763.000000	99.462724
2762.000000	99.464529
2761.000000	99.465993
2760.000000	99.467156
2759.000000	99.468071
2758.000000	99.468722
2757.000000	99.469257
2756.000000	99.470134
2755.000000	99.471722
2754.000000	99.473847
2753.000000	99.475943
2752.000000	99.477682
2751.000000	99.479245
2750.000000	99.480922
2749.000000	99.482682
2748.000000	99.484253
2747.000000	99.485510
2746.000000	99.486639
2745.000000	99.487918
2744.000000	99.489426
2743.000000	99.491015
2742.000000	99.492482
2741.000000	99.493710
2740.000000	99.494702
2739.000000	99.495582
2738.000000	99.496557
2737.000000	99.497781
2736.000000	99.499228
2735.000000	99.500714
2734.000000	99.502050
2733.000000	99.503163
2732.000000	99.504097
2731.000000	99.504969
2730.000000	99.505914
2729.000000	99.506997
2728.000000	99.508116
2727.000000	99.509056
2726.000000	99.509756
2725.000000	99.510514
2724.000000	99.511750
2723.000000	99.513573
2722.000000	99.515596
2721.000000	99.517209
2720.000000	99.518120
2719.000000	99.518515
2718.000000	99.518869
2717.000000	99.519512
2716.000000	99.520451
2715.000000	99.521549
2714.000000	99.522756
2713.000000	99.524121
2712.000000	99.525633
2711.000000	99.527157
2710.000000	99.528546
2709.000000	99.529742
2708.000000	99.530718
2707.000000	99.531372
2706.000000	99.531547
2705.000000	99.531148
2704.000000	99.530250
2703.000000	99.529186
2702.000000	99.528505
2701.000000	99.528688
2700.000000	99.529731
2699.000000	99.531038
2698.000000	99.531891
2697.000000	99.532138
2696.000000	99.532294
2695.000000	99.532916
2694.000000	99.533990
2693.000000	99.534996
2692.000000	99.535503
2691.000000	99.535551
2690.000000	99.535497
2689.000000	99.535609
2688.000000	99.535899
2687.000000	99.536232
2686.000000	99.536434
2685.000000	99.536343
2684.000000	99.535895
2683.000000	99.535280
2682.000000	99.534927
2681.000000	99.535164
2680.000000	99.535892
2679.000000	99.536702
2678.000000	99.537363
2677.000000	99.537997
2676.000000	99.538722
2675.000000	99.539268
2674.000000	99.539157
2673.000000	99.538238
2672.000000	99.536922
2671.000000	99.535921
2670.000000	99.535733
2669.000000	99.536416
2668.000000	99.537695
2667.000000	99.539122
2666.000000	99.540250
2665.000000	99.540816
2664.000000	99.540861
2663.000000	99.540717
2662.000000	99.540813
2661.000000	99.541368
2660.000000	99.542242
2659.000000	99.543068
2658.000000	99.543558
2657.000000	99.543700
2656.000000	99.543722
2655.000000	99.543903
2654.000000	99.544342
2653.000000	99.544789
2652.000000	99.544768
2651.000000	99.544049
2650.000000	99.543025
2649.000000	99.542464
2648.000000	99.542700
2647.000000	99.543235
2646.000000	99.543269
2645.000000	99.542659
2644.000000	99.542067
2643.000000	99.542075
2642.000000	99.542396
2641.000000	99.542216
2640.000000	99.541145
2639.000000	99.539558
2638.000000	99.538161
2637.000000	99.537355
2636.000000	99.537152
2635.000000	99.537419
2634.000000	99.537993
2633.000000	99.538607
2632.000000	99.538920
2631.000000	99.538752
2630.000000	99.538302
2629.000000	99.538051
2628.000000	99.538327
2627.000000	99.538944
2626.000000	99.539350
2625.000000	99.539246
2624.000000	99.538963
2623.000000	99.539012
2622.000000	99.539253
2621.000000	99.538838
2620.000000	99.537180
2619.000000	99.534731
2618.000000	99.532629
2617.000000	99.531509
2616.000000	99.531038
2615.000000	99.530588
2614.000000	99.530014
2613.000000	99.529468
2612.000000	99.528695
2611.000000	99.527196
2610.000000	99.525218
2609.000000	99.523964
2608.000000	99.524308
2607.000000	99.525765
2606.000000	99.527145
2605.000000	99.527996
2604.000000	99.528822
2603.000000	99.530014
2602.000000	99.531224
2601.000000	99.531896
2600.000000	99.531841
2599.000000	99.531180
2598.000000	99.530129
2597.000000	99.529025
2596.000000	99.528225
2595.000000	99.527909
2594.000000	99.528196
2593.000000	99.529352
2592.000000	99.531506
2591.000000	99.534070
2590.000000	99.535902
2589.000000	99.536308
2588.000000	99.535669
2587.000000	99.534981
2586.000000	99.534879
2585.000000	99.535155
2584.000000	99.535091
2583.000000	99.534145
2582.000000	99.532473
2581.000000	99.530832
2580.000000	99.529840
2579.000000	99.529310
2578.000000	99.528439
2577.000000	99.526634
2576.000000	99.524112
2575.000000	99.521825
2574.000000	99.520911
2573.000000	99.521980
2572.000000	99.524650
2571.000000	99.527728
2570.000000	99.530097
2569.000000	99.531429
2568.000000	99.531961
2567.000000	99.532022
2566.000000	99.532078
2565.000000	99.532895
2564.000000	99.535031
2563.000000	99.538123
2562.000000	99.541070
2561.000000	99.542987
2560.000000	99.543644
2559.000000	99.543127
2558.000000	99.541668
2557.000000	99.539948
2556.000000	99.539018
2555.000000	99.539503
2554.000000	99.541007
2553.000000	99.542475
2552.000000	99.543123
2551.000000	99.542973
2550.000000	99.542662
2549.000000	99.542906
2548.000000	99.543979
2547.000000	99.545478
2546.000000	99.546555
2545.000000	99.546531
2544.000000	99.545389
2543.000000	99.543783
2542.000000	99.542575
2541.000000	99.542273
2540.000000	99.542902
2539.000000	99.544301
2538.000000	99.546382
2537.000000	99.548940
2536.000000	99.551393
2535.000000	99.553074
2534.000000	99.553855
2533.000000	99.554226
2532.000000	99.554725
2531.000000	99.555436
2530.000000	99.556155
2529.000000	99.556776
2528.000000	99.557334
2527.000000	99.557871
2526.000000	99.558522
2525.000000	99.559594
2524.000000	99.561268
2523.000000	99.563274
2522.000000	99.565037
2521.000000	99.566226
2520.000000	99.566931
2519.000000	99.567394
2518.000000	99.567817
2517.000000	99.568418
2516.000000	99.569414
2515.000000	99.570819
2514.000000	99.572371
2513.000000	99.573771
2512.000000	99.574984
2511.000000	99.576144
2510.000000	99.577296
2509.000000	99.578389
2508.000000	99.579421
2507.000000	99.580459
2506.000000	99.581530
2505.000000	99.582602
2504.000000	99.583658
2503.000000	99.584738
2502.000000	99.585910
2501.000000	99.587217
2500.000000	99.588640
2499.000000	99.590085
2498.000000	99.591441
2497.000000	99.592684
2496.000000	99.593897
2495.000000	99.595186
2494.000000	99.596521
2493.000000	99.597736
2492.000000	99.598764
2491.000000	99.599765
2490.000000	99.600906
2489.000000	99.602144
2488.000000	99.603319
2487.000000	99.604398
2486.000000	99.605509
2485.000000	99.606764
2484.000000	99.608192
2483.000000	99.609756
2482.000000	99.611356
2481.000000	99.612893
2480.000000	99.614375
2479.000000	99.615867
2478.000000	99.617270
2477.000000	99.618377
2476.000000	99.619210
2475.000000	99.620140
2474.000000	99.621504
2473.000000	99.623160
2472.000000	99.624586
2471.000000	99.625422
2470.000000	99.625773
2469.000000	99.626105
2468.000000	99.626867
2467.000000	99.628207
2466.000000	99.629970
2465.000000	99.631880
2464.000000	99.633739
2463.000000	99.635463
2462.000000	99.637053
2461.000000	99.638657
2460.000000	99.640556
2459.000000	99.642909
2458.000000	99.645396
2457.000000	99.647355
2456.000000	99.648407
2455.000000	99.648785
2454.000000	99.649083
2453.000000	99.649697
2452.000000	99.650655
2451.000000	99.651830
2450.000000	99.653094
2449.000000	99.654373
2448.000000	99.655772
2447.000000	99.657612
2446.000000	99.660075
2445.000000	99.662732
2444.000000	99.664722
2443.000000	99.665640
2442.000000	99.666070
2441.000000	99.666980
2440.000000	99.668519
2439.000000	99.669874
2438.000000	99.670412
2437.000000	99.670606
2436.000000	99.671559
2435.000000	99.673772
2434.000000	99.676699
2433.000000	99.679400
2432.000000	99.681446
2431.000000	99.683202
2430.000000	99.685281
2429.000000	99.687725
2428.000000	99.689766
2427.000000	99.690614
2426.000000	99.690380
2425.000000	99.689986
2424.000000	99.690121
2423.000000	99.690633
2422.000000	99.691064
2421.000000	99.691254
2420.000000	99.691120
2419.000000	99.690415
2418.000000	99.689372
2417.000000	99.689233
2416.000000	99.691295
2415.000000	99.695481
2414.000000	99.700290
2413.000000	99.704231
2412.000000	99.706912
2411.000000	99.708521
2410.000000	99.709042
2409.000000	99.708454
2408.000000	99.707277
2407.000000	99.706415
2406.000000	99.706433
2405.000000	99.707259
2404.000000	99.708345
2403.000000	99.708976
2402.000000	99.708768
2401.000000	99.707999
2400.000000	99.707319
2399.000000	99.706991
2398.000000	99.706604
2397.000000	99.705659
2396.000000	99.704187
2395.000000	99.702780
2394.000000	99.702174
2393.000000	99.702734
2392.000000	99.704100
2391.000000	99.705266
2390.000000	99.705404
2389.000000	99.704579
2388.000000	99.703533
2387.000000	99.702881
2386.000000	99.702659
2385.000000	99.702627
2384.000000	99.702644
2383.000000	99.702636
2382.000000	99.702470
2381.000000	99.702098
2380.000000	99.701686
2379.000000	99.701431
2378.000000	99.701307
2377.000000	99.701112
2376.000000	99.700754
2375.000000	99.700333
2374.000000	99.699991
2373.000000	99.699768
2372.000000	99.699622
2371.000000	99.699514
2370.000000	99.699437
2369.000000	99.699384
2368.000000	99.699337
2367.000000	99.699269
2366.000000	99.699157
2365.000000	99.699011
2364.000000	99.698860
2363.000000	99.698729
2362.000000	99.698623
2361.000000	99.698539
2360.000000	99.698483
2359.000000	99.698469
2358.000000	99.698511
2357.000000	99.698605
2356.000000	99.698739
2355.000000	99.698889
2354.000000	99.699028
2353.000000	99.699132
2352.000000	99.699178
2351.000000	99.699174
2350.000000	99.699150
2349.000000	99.699132
2348.000000	99.699134
2347.000000	99.699156
2346.000000	99.699207
2345.000000	99.699252
2344.000000	99.699251
2343.000000	99.699192
2342.000000	99.699109
2341.000000	99.699039
2340.000000	99.698952
2339.000000	99.698824
2338.000000	99.698679
2337.000000	99.698613
2336.000000	99.698625
2335.000000	99.698643
2334.000000	99.698497
2333.000000	99.698187
2332.000000	99.697700
2331.000000	99.697292
2330.000000	99.697081
2329.000000	99.697133
2328.000000	99.697131
2327.000000	99.696608
2326.000000	99.695499
2325.000000	99.694141
2324.000000	99.693106
2323.000000	99.692517
2322.000000	99.692154
2321.000000	99.692155
2320.000000	99.692516
2319.000000	99.693242
2318.000000	99.693427
2317.000000	99.692945
2316.000000	99.691621
2315.000000	99.690151
2314.000000	99.688545
2313.000000	99.687314
2312.000000	99.685970
2311.000000	99.684205
2310.000000	99.681513
2309.000000	99.678670
2308.000000	99.676319
2307.000000	99.674726
2306.000000	99.673173
2305.000000	99.671570
2304.000000	99.670026
2303.000000	99.668943
2302.000000	99.668000
2301.000000	99.667328
2300.000000	99.666813
2299.000000	99.666154
2298.000000	99.664353
2297.000000	99.661231
2296.000000	99.657393
2295.000000	99.653544
2294.000000	99.649631
2293.000000	99.645590
2292.000000	99.642150
2291.000000	99.640077
2290.000000	99.639098
2289.000000	99.637927
2288.000000	99.635676
2287.000000	99.632519
2286.000000	99.629384
2285.000000	99.627040
2284.000000	99.625718
2283.000000	99.625036
2282.000000	99.624349
2281.000000	99.623144
2280.000000	99.621203
2279.000000	99.618542
2278.000000	99.615381
2277.000000	99.612308
2276.000000	99.609890
2275.000000	99.608095
2274.000000	99.606227
2273.000000	99.603789
2272.000000	99.601049
2271.000000	99.598487
2270.000000	99.595962
2269.000000	99.592941
2268.000000	99.589511
2267.000000	99.586633
2266.000000	99.585072
2265.000000	99.584496
2264.000000	99.583764
2263.000000	99.581993
2262.000000	99.579249
2261.000000	99.576227
2260.000000	99.573604
2259.000000	99.571645
2258.000000	99.570394
2257.000000	99.569982
2256.000000	99.570483
2255.000000	99.571496
2254.000000	99.572022
2253.000000	99.571198
2252.000000	99.568987
2251.000000	99.566197
2250.000000	99.563779
2249.000000	99.562096
2248.000000	99.560838
2247.000000	99.559444
2246.000000	99.557553
2245.000000	99.555232
2244.000000	99.552865
2243.000000	99.550856
2242.000000	99.549523
2241.000000	99.549155
2240.000000	99.549874
2239.000000	99.551231
2238.000000	99.552222
2237.000000	99.552081
2236.000000	99.550998
2235.000000	99.549814
2234.000000	99.549021
2233.000000	99.548324
2232.000000	99.547232
2231.000000	99.545811
2230.000000	99.544670
2229.000000	99.544367
2228.000000	99.544962
2227.000000	99.545974
2226.000000	99.546627
2225.000000	99.546328
2224.000000	99.545098
2223.000000	99.543649
2222.000000	99.542903
2221.000000	99.543284
2220.000000	99.544483
2219.000000	99.545761
2218.000000	99.546570
2217.000000	99.546894
2216.000000	99.547054
2215.000000	99.547266
2214.000000	99.547400
2213.000000	99.547215
2212.000000	99.546757
2211.000000	99.546352
2210.000000	99.546159
2209.000000	99.545901
2208.000000	99.545222
2207.000000	99.544269
2206.000000	99.543710
2205.000000	99.544074
2204.000000	99.545240
2203.000000	99.546659
2202.000000	99.547978
2201.000000	99.549312
2200.000000	99.550863
2199.000000	99.552472
2198.000000	99.553675
2197.000000	99.554166
2196.000000	99.554136
2195.000000	99.554149
2194.000000	99.554719
2193.000000	99.555946
2192.000000	99.557505
2191.000000	99.558867
2190.000000	99.559579
2189.000000	99.559526
2188.000000	99.559025
2187.000000	99.558636
2186.000000	99.558754
2185.000000	99.559290
2184.000000	99.559831
2183.000000	99.560179
2182.000000	99.560612
2181.000000	99.561419
2180.000000	99.562342
2179.000000	99.562851
2178.000000	99.562982
2177.000000	99.563438
2176.000000	99.564612
2175.000000	99.565945
2174.000000	99.566700
2173.000000	99.567091
2172.000000	99.568008
2171.000000	99.569691
2170.000000	99.571312
2169.000000	99.572077
2168.000000	99.572133
2167.000000	99.572077
2166.000000	99.572093
2165.000000	99.572064
2164.000000	99.572178
2163.000000	99.572810
2162.000000	99.573900
2161.000000	99.574857
2160.000000	99.575145
2159.000000	99.574695
2158.000000	99.573822
2157.000000	99.573050
2156.000000	99.572989
2155.000000	99.574023
2154.000000	99.575942
2153.000000	99.577972
2152.000000	99.579318
2151.000000	99.579674
2150.000000	99.579360
2149.000000	99.579208
2148.000000	99.580139
2147.000000	99.582529
2146.000000	99.585892
2145.000000	99.589179
2144.000000	99.591566
2143.000000	99.592913
2142.000000	99.593581
2141.000000	99.594056
2140.000000	99.594691
2139.000000	99.595583
2138.000000	99.596646
2137.000000	99.597832
2136.000000	99.599223
2135.000000	99.600845
2134.000000	99.602515
2133.000000	99.604042
2132.000000	99.605520
2131.000000	99.607181
2130.000000	99.608976
2129.000000	99.610600
2128.000000	99.611990
2127.000000	99.613533
2126.000000	99.615594
2125.000000	99.618014
2124.000000	99.620279
2123.000000	99.622139
2122.000000	99.623809
2121.000000	99.625515
2120.000000	99.627046
2119.000000	99.628039
2118.000000	99.628615
2117.000000	99.629480
2116.000000	99.631193
2115.000000	99.633537
2114.000000	99.635762
2113.000000	99.637491
2112.000000	99.639154
2111.000000	99.641372
2110.000000	99.644132
2109.000000	99.646852
2108.000000	99.649210
2107.000000	99.651493
2106.000000	99.653944
2105.000000	99.656209
2104.000000	99.657773
2103.000000	99.658877
2102.000000	99.660665
2101.000000	99.664094
2100.000000	99.668553
2099.000000	99.671927
2098.000000	99.672483
2097.000000	99.670621
2096.000000	99.668548
2095.000000	99.667826
2094.000000	99.667947
2093.000000	99.667824
2092.000000	99.667860
2091.000000	99.669467
2090.000000	99.672856
2089.000000	99.676454
2088.000000	99.678721
2087.000000	99.679648
2086.000000	99.680114
2085.000000	99.680576
2084.000000	99.680858
2083.000000	99.680820
2082.000000	99.680864
2081.000000	99.681950
2080.000000	99.685054
2079.000000	99.690125
2078.000000	99.695591
2077.000000	99.699614
2076.000000	99.701981
2075.000000	99.703968
2074.000000	99.706276
2073.000000	99.707998
2072.000000	99.708170
2071.000000	99.707324
2070.000000	99.706528
2069.000000	99.705777
2068.000000	99.704662
2067.000000	99.704237
2066.000000	99.706436
2065.000000	99.711041
2064.000000	99.714674
2063.000000	99.714095
2062.000000	99.709593
2061.000000	99.704365
2060.000000	99.701028
2059.000000	99.699669
2058.000000	99.699243
2057.000000	99.699223
2056.000000	99.699277
2055.000000	99.698540
2054.000000	99.696352
2053.000000	99.693093
2052.000000	99.689461
2051.000000	99.685437
2050.000000	99.680875
2049.000000	99.676776
2048.000000	99.674667
2047.000000	99.674485
2046.000000	99.674094
2045.000000	99.671729
2044.000000	99.668232
2043.000000	99.666018
2042.000000	99.666069
2041.000000	99.666730
2040.000000	99.665605
2039.000000	99.662188
2038.000000	99.658257
2037.000000	99.655931
2036.000000	99.655660
2035.000000	99.656169
2034.000000	99.656098
2033.000000	99.655314
2032.000000	99.654541
2031.000000	99.654132
2030.000000	99.653605
2029.000000	99.652112
2028.000000	99.649016
2027.000000	99.644104
2026.000000	99.637803
2025.000000	99.631269
2024.000000	99.625807
2023.000000	99.622053
2022.000000	99.619688
2021.000000	99.617978
2020.000000	99.616369
2019.000000	99.614668
2018.000000	99.612926
2017.000000	99.611157
2016.000000	99.608960
2015.000000	99.605625
2014.000000	99.600956
2013.000000	99.595739
2012.000000	99.590922
2011.000000	99.586494
2010.000000	99.581958
2009.000000	99.577905
2008.000000	99.576106
2007.000000	99.577456
2006.000000	99.580523
2005.000000	99.582594
2004.000000	99.582002
2003.000000	99.578932
2002.000000	99.574250
2001.000000	99.568541
2000.000000	99.562181
1999.000000	99.556018
1998.000000	99.551626
1997.000000	99.550155
1996.000000	99.550963
1995.000000	99.551731
1994.000000	99.550557
1993.000000	99.547882
1992.000000	99.545928
1991.000000	99.546086
1990.000000	99.547577
1989.000000	99.548888
1988.000000	99.549608
1987.000000	99.550352
1986.000000	99.551561
1985.000000	99.552993
1984.000000	99.554023
1983.000000	99.553953
1982.000000	99.552248
1981.000000	99.549225
1980.000000	99.546331
1979.000000	99.545094
1978.000000	99.545605
1977.000000	99.546085
1976.000000	99.544487
1975.000000	99.540436
1974.000000	99.535641
1973.000000	99.532315
1972.000000	99.531244
1971.000000	99.531563
1970.000000	99.532043
1969.000000	99.532247
1968.000000	99.532339
1967.000000	99.532283
1966.000000	99.531786
1965.000000	99.530921
1964.000000	99.530181
1963.000000	99.529668
1962.000000	99.528796
1961.000000	99.527263
1960.000000	99.525942
1959.000000	99.526245
1958.000000	99.528604
1957.000000	99.531950
1956.000000	99.534669
1955.000000	99.535828
1954.000000	99.535719
1953.000000	99.535337
1952.000000	99.535337
1951.000000	99.535166
1950.000000	99.533499
1949.000000	99.530239
1948.000000	99.527034
1947.000000	99.525292
1946.000000	99.524488
1945.000000	99.523236
1944.000000	99.521290
1943.000000	99.519287
1942.000000	99.517032
1941.000000	99.513533
1940.000000	99.509132
1939.000000	99.506325
1938.000000	99.507371
1937.000000	99.511627
1936.000000	99.515663
1935.000000	99.516180
1934.000000	99.512578
1933.000000	99.506866
1932.000000	99.501913
1931.000000	99.498999
1930.000000	99.497082
1929.000000	99.495043
1928.000000	99.492729
1927.000000	99.490496
1926.000000	99.488024
1925.000000	99.484681
1924.000000	99.480941
1923.000000	99.477370
1922.000000	99.473785
1921.000000	99.469804
1920.000000	99.465919
1919.000000	99.462591
1918.000000	99.458529
1917.000000	99.451630
1916.000000	99.441685
1915.000000	99.431006
1914.000000	99.422497
1913.000000	99.416946
1912.000000	99.412589
1911.000000	99.406807
1910.000000	99.398836
1909.000000	99.390819
1908.000000	99.384689
1907.000000	99.379542
1906.000000	99.372500
1905.000000	99.362343
1904.000000	99.351581
1903.000000	99.343059
1902.000000	99.337560
1901.000000	99.334603
1900.000000	99.333195
1899.000000	99.331401
1898.000000	99.326182
1897.000000	99.315511
1896.000000	99.301328
1895.000000	99.288236
1894.000000	99.279516
1893.000000	99.274893
1892.000000	99.271938
1891.000000	99.268461
1890.000000	99.264036
1889.000000	99.260271
1888.000000	99.258757
1887.000000	99.258741
1886.000000	99.257806
1885.000000	99.254188
1884.000000	99.248451
1883.000000	99.242495
1882.000000	99.237585
1881.000000	99.234009
1880.000000	99.231403
1879.000000	99.229599
1878.000000	99.228556
1877.000000	99.227322
1876.000000	99.224813
1875.000000	99.221055
1874.000000	99.217009
1873.000000	99.213830
1872.000000	99.212161
1871.000000	99.211905
1870.000000	99.212670
1869.000000	99.214877
1868.000000	99.219756
1867.000000	99.227075
1866.000000	99.234821
1865.000000	99.241392
1864.000000	99.246788
1863.000000	99.252343
1862.000000	99.259514
1861.000000	99.268559
1860.000000	99.277958
1859.000000	99.285530
1858.000000	99.290786
1857.000000	99.295820
1856.000000	99.303233
1855.000000	99.313155
1854.000000	99.323008
1853.000000	99.330891
1852.000000	99.337045
1851.000000	99.343214
1850.000000	99.351108
1849.000000	99.359880
1848.000000	99.367733
1847.000000	99.374920
1846.000000	99.384165
1845.000000	99.396118
1844.000000	99.406267
1843.000000	99.409292
1842.000000	99.405379
1841.000000	99.399711
1840.000000	99.396853
1839.000000	99.398655
1838.000000	99.404301
1837.000000	99.410896
1836.000000	99.415896
1835.000000	99.419071
1834.000000	99.422630
1833.000000	99.427917
1832.000000	99.432607
1831.000000	99.433664
1830.000000	99.432407
1829.000000	99.433108
1828.000000	99.436395
1827.000000	99.438727
1826.000000	99.437961
1825.000000	99.436047
1824.000000	99.436916
1823.000000	99.440963
1822.000000	99.444715
1821.000000	99.445353
1820.000000	99.443119
1819.000000	99.440383
1818.000000	99.438394
1817.000000	99.436842
1816.000000	99.435677
1815.000000	99.434806
1814.000000	99.434203
1813.000000	99.433907
1812.000000	99.433958
1811.000000	99.433679
1810.000000	99.431243
1809.000000	99.427148
1808.000000	99.424784
1807.000000	99.425965
1806.000000	99.428835
1805.000000	99.431067
1804.000000	99.433126
1803.000000	99.436644
1802.000000	99.442098
1801.000000	99.447960
1800.000000	99.451985
1799.000000	99.452946
1798.000000	99.450485
1797.000000	99.446181
1796.000000	99.442279
1795.000000	99.439608
1794.000000	99.437995
1793.000000	99.437900
1792.000000	99.441023
1791.000000	99.447948
1790.000000	99.456171
1789.000000	99.463867
1788.000000	99.471015
1787.000000	99.477452
1786.000000	99.482415
1785.000000	99.486390
1784.000000	99.490890
1783.000000	99.495356
1782.000000	99.498558
1781.000000	99.500499
1780.000000	99.502828
1779.000000	99.508036
1778.000000	99.515974
1777.000000	99.524638
1776.000000	99.530747
1775.000000	99.532556
1774.000000	99.532256
1773.000000	99.533946
1772.000000	99.540263
1771.000000	99.550766
1770.000000	99.562273
1769.000000	99.572458
1768.000000	99.581373
1767.000000	99.589531
1766.000000	99.596650
1765.000000	99.602061
1764.000000	99.606194
1763.000000	99.610372
1762.000000	99.615748
1761.000000	99.621750
1760.000000	99.626831
1759.000000	99.630554
1758.000000	99.633227
1757.000000	99.636167
1756.000000	99.639993
1755.000000	99.644449
1754.000000	99.648098
1753.000000	99.648750
1752.000000	99.645221
1751.000000	99.640832
1750.000000	99.640679
1749.000000	99.645498
1748.000000	99.652471
1747.000000	99.659108
1746.000000	99.665994
1745.000000	99.673321
1744.000000	99.679818
1743.000000	99.684558
1742.000000	99.686770
1741.000000	99.685894
1740.000000	99.682965
1739.000000	99.680108
1738.000000	99.676988
1737.000000	99.671496
1736.000000	99.662429
1735.000000	99.650113
1734.000000	99.638630
1733.000000	99.633200
1732.000000	99.631790
1731.000000	99.631188
1730.000000	99.629958
1729.000000	99.627924
1728.000000	99.625749
1727.000000	99.624227
1726.000000	99.624340
1725.000000	99.625331
1724.000000	99.625966
1723.000000	99.625961
1722.000000	99.624824
1721.000000	99.621949
1720.000000	99.615846
1719.000000	99.603863
1718.000000	99.584728
1717.000000	99.565170
1716.000000	99.554924
1715.000000	99.553603
1714.000000	99.553978
1713.000000	99.552082
1712.000000	99.549508
1711.000000	99.548128
1710.000000	99.547148
1709.000000	99.544698
1708.000000	99.539471
1707.000000	99.530920
1706.000000	99.518981
1705.000000	99.505722
1704.000000	99.493937
1703.000000	99.483464
1702.000000	99.472692
1701.000000	99.460767
1700.000000	99.450190
1699.000000	99.442401
1698.000000	99.433808
1697.000000	99.423802
1696.000000	99.414777
1695.000000	99.409161
1694.000000	99.405126
1693.000000	99.399878
1692.000000	99.393155
1691.000000	99.385171
1690.000000	99.376576
1689.000000	99.368361
1688.000000	99.360532
1687.000000	99.352733
1686.000000	99.344363
1685.000000	99.333611
1684.000000	99.320555
1683.000000	99.308620
1682.000000	99.299101
1681.000000	99.291932
1680.000000	99.286770
1679.000000	99.282791
1678.000000	99.278782
1677.000000	99.273260
1676.000000	99.265585
1675.000000	99.257361
1674.000000	99.251135
1673.000000	99.246450
1672.000000	99.240901
1671.000000	99.232686
1670.000000	99.222184
1669.000000	99.212848
1668.000000	99.206434
1667.000000	99.201304
1666.000000	99.195705
1665.000000	99.189327
1664.000000	99.183053
1663.000000	99.177154
1662.000000	99.170533
1661.000000	99.162398
1660.000000	99.153512
1659.000000	99.146178
1658.000000	99.141091
1657.000000	99.135042
1656.000000	99.123468
1655.000000	99.106244
1654.000000	99.088466
1653.000000	99.079107
1652.000000	99.081177
1651.000000	99.084731
1650.000000	99.087238
1649.000000	99.087748
1648.000000	99.082081
1647.000000	99.070969
1646.000000	99.060885
1645.000000	99.055143
1644.000000	99.051857
1643.000000	99.049594
1642.000000	99.048393
1641.000000	99.048638
1640.000000	99.048700
1639.000000	99.046049
1638.000000	99.039137
1637.000000	99.028689
1636.000000	99.018107
1635.000000	99.013081
1634.000000	99.013376
1633.000000	99.012682
1632.000000	99.008848
1631.000000	99.003140
1630.000000	99.000485
1629.000000	99.005775
1628.000000	99.017622
1627.000000	99.028364
1626.000000	99.033118
1625.000000	99.034235
1624.000000	99.036304
1623.000000	99.040884
1622.000000	99.046264
1621.000000	99.050495
1620.000000	99.052776
1619.000000	99.053984
1618.000000	99.055849
1617.000000	99.060554
1616.000000	99.068405
1615.000000	99.076858
1614.000000	99.084627
1613.000000	99.092736
1612.000000	99.101510
1611.000000	99.109623
1610.000000	99.115794
1609.000000	99.120092
1608.000000	99.124134
1607.000000	99.130660
1606.000000	99.142253
1605.000000	99.158354
1604.000000	99.174729
1603.000000	99.188595
1602.000000	99.200317
1601.000000	99.210325
1600.000000	99.216893
1599.000000	99.219037
1598.000000	99.219754
1597.000000	99.223809
1596.000000	99.233195
1595.000000	99.245761
1594.000000	99.258047
1593.000000	99.268612
1592.000000	99.278256
1591.000000	99.288157
1590.000000	99.298268
1589.000000	99.306971
1588.000000	99.312375
1587.000000	99.314456
1586.000000	99.315844
1585.000000	99.320124
1584.000000	99.327920
1583.000000	99.336991
1582.000000	99.345426
1581.000000	99.351878
1580.000000	99.355024
1579.000000	99.354926
1578.000000	99.354330
1577.000000	99.356567
1576.000000	99.363273
1575.000000	99.373257
1574.000000	99.384341
1573.000000	99.395082
1572.000000	99.403884
1571.000000	99.409405
1570.000000	99.412155
1569.000000	99.414888
1568.000000	99.417994
1567.000000	99.420444
1566.000000	99.423549
1565.000000	99.428934
1564.000000	99.435345
1563.000000	99.439668
1562.000000	99.441048
1561.000000	99.442893
1560.000000	99.446040
1559.000000	99.446270
1558.000000	99.447883
1557.000000	99.451201
1556.000000	99.453539
1555.000000	99.455700
1554.000000	99.458604
1553.000000	99.462530
1552.000000	99.465736
1551.000000	99.467670
1550.000000	99.468321
1549.000000	99.468271
1548.000000	99.467845
1547.000000	99.467489
1546.000000	99.469473
1545.000000	99.475203
1544.000000	99.483362
1543.000000	99.491423
1542.000000	99.498177
1541.000000	99.504127
1540.000000	99.511176
1539.000000	99.518647
1538.000000	99.521922
1537.000000	99.519491
1536.000000	99.512815
1535.000000	99.501054
1534.000000	99.485777
1533.000000	99.472014
1532.000000	99.463034
1531.000000	99.457637
1530.000000	99.453392
1529.000000	99.449684
1528.000000	99.447116
1527.000000	99.446020
1526.000000	99.445755
1525.000000	99.444145
1524.000000	99.439322
1523.000000	99.432531
1522.000000	99.427444
1521.000000	99.427918
1520.000000	99.433522
1519.000000	99.441286
1518.000000	99.450943
1517.000000	99.461865
1516.000000	99.471887
1515.000000	99.479214
1514.000000	99.484623
1513.000000	99.489693
1512.000000	99.494509
1511.000000	99.498430
1510.000000	99.501579
1509.000000	99.506245
1508.000000	99.514057
1507.000000	99.521591
1506.000000	99.524081
1505.000000	99.521560
1504.000000	99.517163
1503.000000	99.514079
1502.000000	99.512693
1501.000000	99.513883
1500.000000	99.518562
1499.000000	99.525141
1498.000000	99.529912
1497.000000	99.530635
1496.000000	99.529902
1495.000000	99.530739
1494.000000	99.532462
1493.000000	99.533216
1492.000000	99.532226
1491.000000	99.530295
1490.000000	99.529924
1489.000000	99.534040
1488.000000	99.542402
1487.000000	99.550159
1486.000000	99.552776
1485.000000	99.551883
1484.000000	99.551544
1483.000000	99.553478
1482.000000	99.556580
1481.000000	99.559071
1480.000000	99.560821
1479.000000	99.561733
1478.000000	99.560895
1477.000000	99.557915
1476.000000	99.555330
1475.000000	99.556567
1474.000000	99.563567
1473.000000	99.574998
1472.000000	99.586150
1471.000000	99.593204
1470.000000	99.595854
1469.000000	99.597064
1468.000000	99.600053
1467.000000	99.605494
1466.000000	99.610906
1465.000000	99.613176
1464.000000	99.611788
1463.000000	99.609594
1462.000000	99.608442
1461.000000	99.608076
1460.000000	99.607885
1459.000000	99.608475
1458.000000	99.610456
1457.000000	99.611970
1456.000000	99.611294
1455.000000	99.608213
1454.000000	99.604095
1453.000000	99.598674
1452.000000	99.591884
1451.000000	99.585850
1450.000000	99.580331
1449.000000	99.572031
1448.000000	99.559964
1447.000000	99.547486
1446.000000	99.538766
1445.000000	99.534000
1444.000000	99.530115
1443.000000	99.525680
1442.000000	99.520511
1441.000000	99.514861
1440.000000	99.509192
1439.000000	99.505415
1438.000000	99.505170
1437.000000	99.507580
1436.000000	99.510166
1435.000000	99.511104
1434.000000	99.510118
1433.000000	99.507777
1432.000000	99.505381
1431.000000	99.503883
1430.000000	99.501655
1429.000000	99.495627
1428.000000	99.486736
1427.000000	99.479299
1426.000000	99.477680
1425.000000	99.482774
1424.000000	99.490852
1423.000000	99.497633
1422.000000	99.500804
1421.000000	99.500617
1420.000000	99.497991
1419.000000	99.494612
1418.000000	99.493184
1417.000000	99.495181
1416.000000	99.501023
1415.000000	99.510083
1414.000000	99.520899
1413.000000	99.532567
1412.000000	99.545370
1411.000000	99.558789
1410.000000	99.569057
1409.000000	99.572241
1408.000000	99.569919
1407.000000	99.567515
1406.000000	99.569215
1405.000000	99.575490
1404.000000	99.584132
1403.000000	99.592937
1402.000000	99.600092
1401.000000	99.605501
1400.000000	99.611636
1399.000000	99.621159
1398.000000	99.632364
1397.000000	99.640576
1396.000000	99.644813
1395.000000	99.649162
1394.000000	99.658009
1393.000000	99.670098
1392.000000	99.680764
1391.000000	99.687504
1390.000000	99.689904
1389.000000	99.688958
1388.000000	99.687924
1387.000000	99.691023
1386.000000	99.698807
1385.000000	99.707157
1384.000000	99.712105
1383.000000	99.713425
1382.000000	99.712837
1381.000000	99.711652
1380.000000	99.710648
1379.000000	99.710446
1378.000000	99.710801
1377.000000	99.709897
1376.000000	99.705823
1375.000000	99.698661
1374.000000	99.691220
1373.000000	99.686573
1372.000000	99.685606
1371.000000	99.687218
1370.000000	99.689443
1369.000000	99.690188
1368.000000	99.688963
1367.000000	99.688181
1366.000000	99.689733
1365.000000	99.691787
1364.000000	99.690966
1363.000000	99.687935
1362.000000	99.688156
1361.000000	99.694744
1360.000000	99.704133
1359.000000	99.710847
1358.000000	99.713233
1357.000000	99.713296
1356.000000	99.713026
1355.000000	99.712416
1354.000000	99.710584
1353.000000	99.707667
1352.000000	99.705329
1351.000000	99.704927
1350.000000	99.706277
1349.000000	99.707791
1348.000000	99.707812
1347.000000	99.706823
1346.000000	99.706898
1345.000000	99.709135
1344.000000	99.711876
1343.000000	99.712279
1342.000000	99.709117
1341.000000	99.703989
1340.000000	99.700195
1339.000000	99.700128
1338.000000	99.703022
1337.000000	99.705865
1336.000000	99.706854
1335.000000	99.706979
1334.000000	99.707907
1333.000000	99.709393
1332.000000	99.709975
1331.000000	99.709757
1330.000000	99.710733
1329.000000	99.713723
1328.000000	99.716527
1327.000000	99.716290
1326.000000	99.713076
1325.000000	99.709832
1324.000000	99.709048
1323.000000	99.710516
1322.000000	99.711864
1321.000000	99.710921
1320.000000	99.707703
1319.000000	99.704321
1318.000000	99.702663
1317.000000	99.702626
1316.000000	99.703325
1315.000000	99.705062
1314.000000	99.708450
1313.000000	99.712061
1312.000000	99.713107
1311.000000	99.710992
1310.000000	99.708565
1309.000000	99.708849
1308.000000	99.711609
1307.000000	99.713908
1306.000000	99.713536
1305.000000	99.710888
1304.000000	99.707725
1303.000000	99.705109
1302.000000	99.702507
1301.000000	99.698847
1300.000000	99.694341
1299.000000	99.690882
1298.000000	99.689826
1297.000000	99.689761
1296.000000	99.687705
1295.000000	99.682903
1294.000000	99.678313
1293.000000	99.677173
1292.000000	99.678500
1291.000000	99.677121
1290.000000	99.668660
1289.000000	99.653946
1288.000000	99.638255
1287.000000	99.626454
1286.000000	99.619354
1285.000000	99.614621
1284.000000	99.609807
1283.000000	99.603513
1282.000000	99.594700
1281.000000	99.583060
1280.000000	99.570491
1279.000000	99.560785
1278.000000	99.556782
1277.000000	99.558055
1276.000000	99.561467
1275.000000	99.563295
1274.000000	99.561154
1273.000000	99.555266
1272.000000	99.548246
1271.000000	99.542468
1270.000000	99.537327
1269.000000	99.530454
1268.000000	99.521778
1267.000000	99.514532
1266.000000	99.511494
1265.000000	99.511914
1264.000000	99.512993
1263.000000	99.512329
1262.000000	99.507822
1261.000000	99.497729
1260.000000	99.483207
1259.000000	99.469504
1258.000000	99.462062
1257.000000	99.461537
1256.000000	99.463818
1255.000000	99.463741
1254.000000	99.457668
1253.000000	99.443853
1252.000000	99.422626
1251.000000	99.396619
1250.000000	99.370004
1249.000000	99.347175
1248.000000	99.331635
1247.000000	99.324179
1246.000000	99.321103
1245.000000	99.315874
1244.000000	99.304102
1243.000000	99.285884
1242.000000	99.262818
1241.000000	99.235143
1240.000000	99.203845
1239.000000	99.173426
1238.000000	99.149043
1237.000000	99.130898
1236.000000	99.113860
1235.000000	99.092860
1234.000000	99.067037
1233.000000	99.038453
1232.000000	99.008305
1231.000000	98.975300
1230.000000	98.937253
1229.000000	98.893705
1228.000000	98.846730
1227.000000	98.799226
1226.000000	98.752827
1225.000000	98.707499
1224.000000	98.661517
1223.000000	98.610297
1222.000000	98.547163
1221.000000	98.468543
1220.000000	98.378052
1219.000000	98.282650
1218.000000	98.185132
1217.000000	98.084335
1216.000000	97.982814
1215.000000	97.888407
1214.000000	97.805106
1213.000000	97.726434
1212.000000	97.641289
1211.000000	97.543517
1210.000000	97.433825
1209.000000	97.316488
1208.000000	97.197692
1207.000000	97.083975
1206.000000	96.978136
1205.000000	96.877927
1204.000000	96.780549
1203.000000	96.685794
1202.000000	96.593261
1201.000000	96.499987
1200.000000	96.403283
1199.000000	96.303491
1198.000000	96.202332
1197.000000	96.101055
1196.000000	96.001240
1195.000000	95.904011
1194.000000	95.807273
1193.000000	95.707165
1192.000000	95.603290
1191.000000	95.499228
1190.000000	95.397685
1189.000000	95.299239
1188.000000	95.205597
1187.000000	95.118041
1186.000000	95.031528
1185.000000	94.936788
1184.000000	94.830689
1183.000000	94.718839
1182.000000	94.605188
1181.000000	94.484574
1180.000000	94.349460
1179.000000	94.199940
1178.000000	94.043618
1177.000000	93.888818
1176.000000	93.740318
1175.000000	93.597823
1174.000000	93.455866
1173.000000	93.308440
1172.000000	93.155082
1171.000000	92.999180
1170.000000	92.841112
1169.000000	92.679029
1168.000000	92.516740
1167.000000	92.364256
1166.000000	92.229922
1165.000000	92.119236
1164.000000	92.041832
1163.000000	92.010418
1162.000000	92.029467
1161.000000	92.090663
1160.000000	92.179038
1159.000000	92.275450
1158.000000	92.354309
1157.000000	92.391147
1156.000000	92.377305
1155.000000	92.321829
1154.000000	92.238143
1153.000000	92.134904
1152.000000	92.019956
1151.000000	91.903010
1150.000000	91.788668
1149.000000	91.673053
1148.000000	91.551835
1147.000000	91.426859
1146.000000	91.302769
1145.000000	91.182809
1144.000000	91.069330
1143.000000	90.961618
1142.000000	90.852057
1141.000000	90.732328
1140.000000	90.605235
1139.000000	90.482675
1138.000000	90.369752
1137.000000	90.258505
1136.000000	90.139439
1135.000000	90.011650
1134.000000	89.879807
1133.000000	89.748711
1132.000000	89.622370
1131.000000	89.501051
1130.000000	89.378604
1129.000000	89.250543
1128.000000	89.123769
1127.000000	89.008242
1126.000000	88.899709
1125.000000	88.782786
1124.000000	88.652173
1123.000000	88.518412
1122.000000	88.390522
1121.000000	88.265433
1120.000000	88.138261
1119.000000	88.010903
1118.000000	87.885497
1117.000000	87.760120
1116.000000	87.635519
1115.000000	87.516096
1114.000000	87.400767
1113.000000	87.283058
1112.000000	87.162890
1111.000000	87.047069
1110.000000	86.936437
1109.000000	86.824643
1108.000000	86.710375
1107.000000	86.597190
1106.000000	86.480580
1105.000000	86.351004
1104.000000	86.212450
1103.000000	86.082184
1102.000000	85.967862
1101.000000	85.859328
1100.000000	85.746548
1099.000000	85.631147
1098.000000	85.516244
1097.000000	85.399493
1096.000000	85.281188
1095.000000	85.166412
1094.000000	85.055275
1093.000000	84.942805
1092.000000	84.829992
1091.000000	84.722449
1090.000000	84.618373
1089.000000	84.511727
1088.000000	84.406038
1087.000000	84.309321
1086.000000	84.217275
1085.000000	84.119367
1084.000000	84.019931
1083.000000	83.933315
1082.000000	83.858209
1081.000000	83.777735
1080.000000	83.686540
1079.000000	83.597050
1078.000000	83.516785
1077.000000	83.439799
1076.000000	83.362802
1075.000000	83.287982
1074.000000	83.206612
1073.000000	83.101616
1072.000000	82.970690
1071.000000	82.827164
1070.000000	82.674274
1069.000000	82.497979
1068.000000	82.288933
1067.000000	82.052329
1066.000000	81.793708
1065.000000	81.516011
1064.000000	81.234850
1063.000000	80.974712
1062.000000	80.743099
1061.000000	80.527407
1060.000000	80.320246
1059.000000	80.126340
1058.000000	79.942647
1057.000000	79.756988
1056.000000	79.571525
1055.000000	79.402264
1054.000000	79.247539
1053.000000	79.081137
1052.000000	78.886326
1051.000000	78.673308
1050.000000	78.453031
1049.000000	78.219331
1048.000000	77.968226
1047.000000	77.708044
1046.000000	77.440477
1045.000000	77.156732
1044.000000	76.859726
1043.000000	76.566565
1042.000000	76.282973
1041.000000	75.998623
1040.000000	75.713581
1039.000000	75.444050
1038.000000	75.194256
1037.000000	74.948513
1036.000000	74.700710
1035.000000	74.466863
1034.000000	74.258364
1033.000000	74.066963
1032.000000	73.885994
1031.000000	73.723784
1030.000000	73.585676
1029.000000	73.463246
1028.000000	73.349809
1027.000000	73.247644
1026.000000	73.154336
1025.000000	73.061721
1024.000000	72.971891
1023.000000	72.893654
1022.000000	72.821438
1021.000000	72.739849
1020.000000	72.649984
1019.000000	72.567278
1018.000000	72.492748
1017.000000	72.411805
1016.000000	72.322197
1015.000000	72.236267
1014.000000	72.154003
1013.000000	72.061608
1012.000000	71.959421
1011.000000	71.863423
1010.000000	71.775816
1009.000000	71.682101
1008.000000	71.581700
1007.000000	71.494024
1006.000000	71.428701
1005.000000	71.375606
1004.000000	71.328299
1003.000000	71.291540
1002.000000	71.262134
1001.000000	71.229052
1000.000000	71.196891
999.000000	71.183692
998.000000	71.192132
997.000000	71.207728
996.000000	71.226523
995.000000	71.257174
994.000000	71.293918
993.000000	71.317032
992.000000	71.325171
991.000000	71.339968
990.000000	71.373608
989.000000	71.418071
988.000000	71.469859
987.000000	71.538254
986.000000	71.624420
985.000000	71.718593
984.000000	71.822392
983.000000	71.948578
982.000000	72.095567
981.000000	72.248232
980.000000	72.407072
979.000000	72.589861
978.000000	72.801002
977.000000	73.025799
976.000000	73.258244
975.000000	73.507640
974.000000	73.773816
973.000000	74.042823
972.000000	74.312355
971.000000	74.595806
970.000000	74.896316
969.000000	75.201929
968.000000	75.510492
967.000000	75.833352
966.000000	76.168630
965.000000	76.495821
964.000000	76.804064
963.000000	77.103733
962.000000	77.404511
961.000000	77.703311
960.000000	77.998409
959.000000	78.293751
958.000000	78.584067
957.000000	78.856223
956.000000	79.109678
955.000000	79.356258
954.000000	79.596975
953.000000	79.819678
952.000000	80.022488
951.000000	80.218352
950.000000	80.412827
949.000000	80.597779
948.000000	80.770140
947.000000	80.935804
946.000000	81.092033
945.000000	81.227666
944.000000	81.345001
943.000000	81.460599
942.000000	81.579930
941.000000	81.691845
940.000000	81.792615
939.000000	81.894322
938.000000	82.004194
937.000000	82.115527
936.000000	82.223749
935.000000	82.331615
934.000000	82.435125
933.000000	82.526010
932.000000	82.612549
931.000000	82.715772
930.000000	82.838964
929.000000	82.962036
928.000000	83.071854
927.000000	83.176912
926.000000	83.286036
925.000000	83.394107
924.000000	83.496128
923.000000	83.594825
922.000000	83.686996
921.000000	83.762640
920.000000	83.825393
919.000000	83.894253
918.000000	83.976961
917.000000	84.060171
916.000000	84.133025
915.000000	84.202190
914.000000	84.277698
913.000000	84.363859
912.000000	84.470582
911.000000	84.612370
910.000000	84.787798
909.000000	84.979857
908.000000	85.184316
907.000000	85.416908
906.000000	85.684515
905.000000	85.971426
904.000000	86.263588
903.000000	86.565485
902.000000	86.881655
901.000000	87.201373
900.000000	87.514544
899.000000	87.826632
898.000000	88.145531
897.000000	88.466168
896.000000	88.776679
895.000000	89.067889
894.000000	89.331920
893.000000	89.566741
892.000000	89.788007
891.000000	90.020531
890.000000	90.270641
889.000000	90.521882
888.000000	90.763235
887.000000	91.002712
886.000000	91.245116
885.000000	91.477220
884.000000	91.688913
883.000000	91.891696
882.000000	92.100043
881.000000	92.308247
880.000000	92.503053
879.000000	92.688098
878.000000	92.877986
877.000000	93.075708
876.000000	93.273222
875.000000	93.470083
874.000000	93.676484
873.000000	93.899027
872.000000	94.133111
871.000000	94.367527
870.000000	94.590835
869.000000	94.797921
868.000000	94.995948
867.000000	95.199804
866.000000	95.417440
865.000000	95.644037
864.000000	95.872014
863.000000	96.098115
862.000000	96.316721
861.000000	96.515903
860.000000	96.688469
859.000000	96.841872
858.000000	96.989953
857.000000	97.137721
856.000000	97.279674
855.000000	97.410264
854.000000	97.531176
853.000000	97.649715
852.000000	97.772330
851.000000	97.897253
850.000000	98.012315
849.000000	98.103980
848.000000	98.170129
847.000000	98.220755
846.000000	98.265859
845.000000	98.307173
844.000000	98.341231
843.000000	98.363010
842.000000	98.364945
841.000000	98.340114
840.000000	98.290030
839.000000	98.224376
838.000000	98.151436
837.000000	98.074016
836.000000	97.995246
835.000000	97.920681
834.000000	97.852634
833.000000	97.790431
832.000000	97.738966
831.000000	97.708368
830.000000	97.701285
829.000000	97.708923
828.000000	97.723930
827.000000	97.748433
826.000000	97.784551
825.000000	97.825960
824.000000	97.864593
823.000000	97.897585
822.000000	97.922954
821.000000	97.936011
820.000000	97.931784
819.000000	97.902790
818.000000	97.835808
817.000000	97.722023
816.000000	97.570383
815.000000	97.398271
814.000000	97.204810
813.000000	96.963687
812.000000	96.646071
811.000000	96.239557
810.000000	95.740964
809.000000	95.145646
808.000000	94.456023
807.000000	93.692444
806.000000	92.884902
805.000000	92.059829
804.000000	91.241428
803.000000	90.455450
802.000000	89.723368
801.000000	89.063814
800.000000	88.505827
799.000000	88.084917
798.000000	87.816931
797.000000	87.689320
796.000000	87.682306
795.000000	87.779181
794.000000	87.949898
793.000000	88.147755
792.000000	88.336288
791.000000	88.505341
790.000000	88.651217
789.000000	88.755219
788.000000	88.792228
787.000000	88.749217
786.000000	88.625825
785.000000	88.426371
784.000000	88.161673
783.000000	87.853304
782.000000	87.529147
781.000000	87.219096
780.000000	86.956265
779.000000	86.771469
778.000000	86.681709
777.000000	86.691707
776.000000	86.804817
775.000000	87.018433
774.000000	87.310074
773.000000	87.644999
772.000000	87.998618
771.000000	88.356886
770.000000	88.698421
769.000000	88.997562
768.000000	89.247601
767.000000	89.462550
766.000000	89.652478
765.000000	89.814159
764.000000	89.949695
763.000000	90.076003
762.000000	90.208111
761.000000	90.346969
760.000000	90.489254
759.000000	90.635167
758.000000	90.781765
757.000000	90.923043
756.000000	91.061864
755.000000	91.208222
754.000000	91.361172
753.000000	91.506357
752.000000	91.635781
751.000000	91.756647
750.000000	91.878083
