4000.000000	98.209970 
3999.000000	98.209774 
3998.000000	98.209937 
3997.000000	98.210371 
3996.000000	98.210743 
3995.000000	98.210745 
3994.000000	98.210354 
3993.000000	98.209871 
3992.000000	98.209646 
3991.000000	98.209770 
3990.000000	98.210145 
3989.000000	98.210682 
3988.000000	98.211267 
3987.000000	98.211656 
3986.000000	98.211591 
3985.000000	98.211025 
3984.000000	98.210185 
3983.000000	98.209438 
3982.000000	98.209090 
3981.000000	98.209215 
3980.000000	98.209624 
3979.000000	98.210021 
3978.000000	98.210195 
3977.000000	98.210081 
3976.000000	98.209634 
3975.000000	98.208748 
3974.000000	98.207411 
3973.000000	98.205960 
3972.000000	98.205014 
3971.000000	98.204974 
3970.000000	98.205778 
3969.000000	98.207102 
3968.000000	98.208539 
3967.000000	98.209699 
3966.000000	98.210314 
3965.000000	98.210316 
3964.000000	98.209874 
3963.000000	98.209331 
3962.000000	98.208984 
3961.000000	98.208936 
3960.000000	98.209062 
3959.000000	98.209001 
3958.000000	98.208430 
3957.000000	98.207488 
3956.000000	98.206710 
3955.000000	98.206506 
3954.000000	98.206866 
3953.000000	98.207443 
3952.000000	98.207843 
3951.000000	98.207907 
3950.000000	98.207969 
3949.000000	98.208574 
3948.000000	98.209617 
3947.000000	98.210282 
3946.000000	98.209909 
3945.000000	98.208531 
3944.000000	98.206643 
3943.000000	98.204894 
3942.000000	98.203804 
3941.000000	98.203506 
3940.000000	98.203706 
3939.000000	98.203911 
3938.000000	98.203851 
3937.000000	98.203813 
3936.000000	98.204292 
3935.000000	98.205281 
3934.000000	98.206298 
3933.000000	98.206995 
3932.000000	98.207394 
3931.000000	98.207330 
3930.000000	98.206312 
3929.000000	98.204124 
3928.000000	98.201373 
3927.000000	98.199334 
3926.000000	98.198727 
3925.000000	98.199211 
3924.000000	98.200294 
3923.000000	98.201717 
3922.000000	98.203059 
3921.000000	98.203890 
3920.000000	98.204438 
3919.000000	98.205476 
3918.000000	98.207024 
3917.000000	98.208095 
3916.000000	98.208023 
3915.000000	98.207193 
3914.000000	98.206301 
3913.000000	98.205554 
3912.000000	98.204988 
3911.000000	98.204734 
3910.000000	98.204725 
3909.000000	98.204721 
3908.000000	98.204641 
3907.000000	98.204568 
3906.000000	98.204622 
3905.000000	98.204727 
3904.000000	98.204752 
3903.000000	98.204632 
3902.000000	98.204387 
3901.000000	98.204097 
3900.000000	98.203833 
3899.000000	98.203626 
3898.000000	98.203449 
3897.000000	98.203256 
3896.000000	98.203036 
3895.000000	98.202784 
3894.000000	98.202504 
3893.000000	98.202204 
3892.000000	98.201894 
3891.000000	98.201578 
3890.000000	98.201258 
3889.000000	98.200944 
3888.000000	98.200642 
3887.000000	98.200354 
3886.000000	98.200070 
3885.000000	98.199783 
3884.000000	98.199489 
3883.000000	98.199185 
3882.000000	98.198867 
3881.000000	98.198541 
3880.000000	98.198211 
3879.000000	98.197878 
3878.000000	98.197539 
3877.000000	98.197185 
3876.000000	98.196810 
3875.000000	98.196415 
3874.000000	98.196015 
3873.000000	98.195644 
3872.000000	98.195342 
3871.000000	98.195121 
3870.000000	98.194902 
3869.000000	98.194615 
3868.000000	98.194303 
3867.000000	98.194032 
3866.000000	98.193701 
3865.000000	98.193233 
3864.000000	98.192916 
3863.000000	98.193033 
3862.000000	98.193413 
3861.000000	98.193682 
3860.000000	98.193781 
3859.000000	98.193752 
3858.000000	98.193547 
3857.000000	98.193066 
3856.000000	98.192444 
3855.000000	98.191670 
3854.000000	98.190839 
3853.000000	98.190454 
3852.000000	98.190779 
3851.000000	98.191660 
3850.000000	98.192668 
3849.000000	98.193448 
3848.000000	98.194162 
3847.000000	98.195107 
3846.000000	98.196069 
3845.000000	98.196684 
3844.000000	98.196893 
3843.000000	98.196722 
3842.000000	98.196331 
3841.000000	98.196099 
3840.000000	98.196198 
3839.000000	98.196520 
3838.000000	98.196883 
3837.000000	98.197123 
3836.000000	98.197263 
3835.000000	98.197401 
3834.000000	98.197617 
3833.000000	98.197896 
3832.000000	98.198149 
3831.000000	98.198345 
3830.000000	98.198500 
3829.000000	98.198635 
3828.000000	98.198771 
3827.000000	98.198902 
3826.000000	98.199015 
3825.000000	98.199119 
3824.000000	98.199209 
3823.000000	98.199276 
3822.000000	98.199317 
3821.000000	98.199326 
3820.000000	98.199313 
3819.000000	98.199291 
3818.000000	98.199263 
3817.000000	98.199218 
3816.000000	98.199150 
3815.000000	98.199064 
3814.000000	98.198972 
3813.000000	98.198877 
3812.000000	98.198778 
3811.000000	98.198670 
3810.000000	98.198557 
3809.000000	98.198434 
3808.000000	98.198294 
3807.000000	98.198125 
3806.000000	98.197931 
3805.000000	98.197722 
3804.000000	98.197511 
3803.000000	98.197302 
3802.000000	98.197097 
3801.000000	98.196904 
3800.000000	98.196737 
3799.000000	98.196602 
3798.000000	98.196495 
3797.000000	98.196408 
3796.000000	98.196339 
3795.000000	98.196281 
3794.000000	98.196232 
3793.000000	98.196192 
3792.000000	98.196170 
3791.000000	98.196176 
3790.000000	98.196210 
3789.000000	98.196266 
3788.000000	98.196343 
3787.000000	98.196442 
3786.000000	98.196561 
3785.000000	98.196694 
3784.000000	98.196840 
3783.000000	98.197003 
3782.000000	98.197187 
3781.000000	98.197395 
3780.000000	98.197634 
3779.000000	98.197911 
3778.000000	98.198224 
3777.000000	98.198566 
3776.000000	98.198935 
3775.000000	98.199330 
3774.000000	98.199753 
3773.000000	98.200203 
3772.000000	98.200669 
3771.000000	98.201150 
3770.000000	98.201642 
3769.000000	98.202123 
3768.000000	98.202589 
3767.000000	98.203051 
3766.000000	98.203501 
3765.000000	98.203896 
3764.000000	98.204289 
3763.000000	98.204820 
3762.000000	98.205382 
3761.000000	98.205602 
3760.000000	98.205499 
3759.000000	98.205752 
3758.000000	98.206546 
3757.000000	98.207174 
3756.000000	98.207393 
3755.000000	98.207631 
3754.000000	98.208074 
3753.000000	98.208363 
3752.000000	98.209079 
3751.000000	98.211768 
3750.000000	98.214724 
3749.000000	98.214228 
3748.000000	98.210402 
3747.000000	98.207357 
3746.000000	98.207418 
3745.000000	98.207667 
3744.000000	98.205182 
3743.000000	98.202817 
3742.000000	98.203924 
3741.000000	98.206488 
3740.000000	98.207183 
3739.000000	98.207568 
3738.000000	98.210613 
3737.000000	98.213743 
3736.000000	98.213566 
3735.000000	98.211898 
3734.000000	98.212275 
3733.000000	98.212550 
3732.000000	98.208690 
3731.000000	98.202393 
3730.000000	98.198130 
3729.000000	98.197207 
3728.000000	98.196572 
3727.000000	98.193050 
3726.000000	98.187940 
3725.000000	98.184775 
3724.000000	98.183552 
3723.000000	98.181365 
3722.000000	98.177528 
3721.000000	98.173470 
3720.000000	98.169581 
3719.000000	98.166505 
3718.000000	98.164319 
3717.000000	98.162242 
3716.000000	98.161283 
3715.000000	98.162133 
3714.000000	98.162694 
3713.000000	98.159780 
3712.000000	98.154001 
3711.000000	98.148252 
3710.000000	98.142272 
3709.000000	98.134605 
3708.000000	98.124905 
3707.000000	98.113501 
3706.000000	98.101781 
3705.000000	98.091119 
3704.000000	98.081535 
3703.000000	98.072272 
3702.000000	98.063378 
3701.000000	98.054805 
3700.000000	98.045652 
3699.000000	98.036104 
3698.000000	98.026900 
3697.000000	98.018024 
3696.000000	98.011045 
3695.000000	98.008361 
3694.000000	98.008285 
3693.000000	98.005935 
3692.000000	97.999690 
3691.000000	97.993425 
3690.000000	97.991015 
3689.000000	97.990498 
3688.000000	97.986845 
3687.000000	97.980112 
3686.000000	97.974993 
3685.000000	97.972848 
3684.000000	97.971248 
3683.000000	97.968672 
3682.000000	97.965247 
3681.000000	97.959163 
3680.000000	97.947764 
3679.000000	97.933185 
3678.000000	97.922782 
3677.000000	97.919172 
3676.000000	97.916508 
3675.000000	97.910130 
3674.000000	97.901075 
3673.000000	97.892269 
3672.000000	97.883154 
3671.000000	97.870606 
3670.000000	97.856405 
3669.000000	97.845238 
3668.000000	97.837087 
3667.000000	97.829222 
3666.000000	97.821403 
3665.000000	97.814694 
3664.000000	97.808479 
3663.000000	97.800680 
3662.000000	97.789478 
3661.000000	97.775222 
3660.000000	97.761192 
3659.000000	97.750541 
3658.000000	97.743028 
3657.000000	97.734566 
3656.000000	97.721756 
3655.000000	97.707263 
3654.000000	97.696332 
3653.000000	97.689458 
3652.000000	97.681194 
3651.000000	97.667352 
3650.000000	97.652366 
3649.000000	97.641794 
3648.000000	97.632627 
3647.000000	97.621025 
3646.000000	97.609396 
3645.000000	97.600947 
3644.000000	97.595028 
3643.000000	97.589037 
3642.000000	97.580555 
3641.000000	97.569466 
3640.000000	97.557435 
3639.000000	97.545567 
3638.000000	97.534627 
3637.000000	97.525457 
3636.000000	97.518180 
3635.000000	97.510267 
3634.000000	97.499256 
3633.000000	97.487771 
3632.000000	97.480563 
3631.000000	97.477203 
3630.000000	97.471074 
3629.000000	97.459571 
3628.000000	97.446308 
3627.000000	97.435408 
3626.000000	97.427231 
3625.000000	97.418783 
3624.000000	97.408039 
3623.000000	97.395703 
3622.000000	97.383450 
3621.000000	97.371892 
3620.000000	97.363953 
3619.000000	97.364349 
3618.000000	97.371770 
3617.000000	97.380058 
3616.000000	97.387792 
3615.000000	97.397777 
3614.000000	97.412307 
3613.000000	97.430978 
3612.000000	97.450253 
3611.000000	97.465615 
3610.000000	97.474640 
3609.000000	97.478317 
3608.000000	97.480205 
3607.000000	97.482668 
3606.000000	97.484274 
3605.000000	97.483007 
3604.000000	97.479406 
3603.000000	97.475914 
3602.000000	97.475117 
3601.000000	97.477504 
3600.000000	97.482999 
3599.000000	97.491785 
3598.000000	97.501422 
3597.000000	97.507922 
3596.000000	97.510731 
3595.000000	97.512756 
3594.000000	97.517121 
3593.000000	97.524535 
3592.000000	97.532218 
3591.000000	97.537107 
3590.000000	97.537438 
3589.000000	97.533488 
3588.000000	97.528202 
3587.000000	97.524806 
3586.000000	97.523134 
3585.000000	97.521862 
3584.000000	97.520802 
3583.000000	97.520352 
3582.000000	97.520312 
3581.000000	97.519927 
3580.000000	97.518812 
3579.000000	97.517707 
3578.000000	97.517914 
3577.000000	97.520263 
3576.000000	97.524527 
3575.000000	97.529212 
3574.000000	97.531855 
3573.000000	97.531082 
3572.000000	97.527563 
3571.000000	97.523577 
3570.000000	97.521333 
3569.000000	97.520775 
3568.000000	97.520142 
3567.000000	97.518570 
3566.000000	97.516303 
3565.000000	97.514135 
3564.000000	97.513066 
3563.000000	97.512978 
3562.000000	97.512433 
3561.000000	97.510308 
3560.000000	97.506824 
3559.000000	97.503395 
3558.000000	97.501026 
3557.000000	97.499354 
3556.000000	97.497597 
3555.000000	97.496088 
3554.000000	97.495909 
3553.000000	97.497363 
3552.000000	97.499299 
3551.000000	97.500228 
3550.000000	97.499922 
3549.000000	97.499254 
3548.000000	97.498918 
3547.000000	97.498885 
3546.000000	97.498485 
3545.000000	97.497184 
3544.000000	97.495338 
3543.000000	97.493961 
3542.000000	97.493670 
3541.000000	97.494096 
3540.000000	97.494216 
3539.000000	97.493330 
3538.000000	97.491673 
3537.000000	97.490162 
3536.000000	97.489588 
3535.000000	97.489943 
3534.000000	97.490678 
3533.000000	97.491301 
3532.000000	97.491649 
3531.000000	97.491733 
3530.000000	97.491620 
3529.000000	97.491551 
3528.000000	97.491848 
3527.000000	97.492563 
3526.000000	97.493252 
3525.000000	97.493299 
3524.000000	97.492528 
3523.000000	97.491389 
3522.000000	97.490513 
3521.000000	97.490182 
3520.000000	97.490286 
3519.000000	97.490584 
3518.000000	97.490902 
3517.000000	97.491135 
3516.000000	97.491230 
3515.000000	97.491203 
3514.000000	97.491216 
3513.000000	97.491535 
3512.000000	97.492303 
3511.000000	97.493437 
3510.000000	97.494704 
3509.000000	97.495772 
3508.000000	97.496273 
3507.000000	97.496042 
3506.000000	97.495342 
3505.000000	97.494830 
3504.000000	97.495079 
3503.000000	97.496030 
3502.000000	97.496957 
3501.000000	97.497156 
3500.000000	97.496582 
3499.000000	97.495743 
3498.000000	97.495211 
3497.000000	97.495244 
3496.000000	97.495768 
3495.000000	97.496438 
3494.000000	97.496732 
3493.000000	97.496243 
3492.000000	97.494957 
3491.000000	97.493293 
3490.000000	97.491872 
3489.000000	97.491088 
3488.000000	97.490870 
3487.000000	97.490787 
3486.000000	97.490393 
3485.000000	97.489548 
3484.000000	97.488456 
3483.000000	97.487450 
3482.000000	97.486756 
3481.000000	97.486367 
3480.000000	97.486081 
3479.000000	97.485685 
3478.000000	97.485141 
3477.000000	97.484553 
3476.000000	97.483937 
3475.000000	97.483080 
3474.000000	97.481753 
3473.000000	97.480029 
3472.000000	97.478270 
3471.000000	97.476794 
3470.000000	97.475634 
3469.000000	97.474638 
3468.000000	97.473614 
3467.000000	97.472407 
3466.000000	97.470945 
3465.000000	97.469313 
3464.000000	97.467748 
3463.000000	97.466456 
3462.000000	97.465423 
3461.000000	97.464419 
3460.000000	97.463214 
3459.000000	97.461790 
3458.000000	97.460287 
3457.000000	97.458855 
3456.000000	97.457543 
3455.000000	97.456293 
3454.000000	97.455020 
3453.000000	97.453680 
3452.000000	97.452270 
3451.000000	97.450784 
3450.000000	97.449194 
3449.000000	97.447502 
3448.000000	97.445791 
3447.000000	97.444149 
3446.000000	97.442520 
3445.000000	97.440733 
3444.000000	97.438751 
3443.000000	97.436838 
3442.000000	97.435378 
3441.000000	97.434506 
3440.000000	97.433937 
3439.000000	97.433096 
3438.000000	97.431567 
3437.000000	97.429414 
3436.000000	97.427155 
3435.000000	97.425352 
3434.000000	97.424217 
3433.000000	97.423551 
3432.000000	97.423033 
3431.000000	97.422466 
3430.000000	97.421663 
3429.000000	97.420317 
3428.000000	97.418165 
3427.000000	97.415346 
3426.000000	97.412352 
3425.000000	97.409617 
3424.000000	97.407248 
3423.000000	97.405200 
3422.000000	97.403615 
3421.000000	97.402780 
3420.000000	97.402578 
3419.000000	97.402237 
3418.000000	97.400996 
3417.000000	97.398960 
3416.000000	97.396995 
3415.000000	97.395788 
3414.000000	97.395211 
3413.000000	97.394654 
3412.000000	97.393748 
3411.000000	97.392633 
3410.000000	97.391773 
3409.000000	97.391604 
3408.000000	97.392086 
3407.000000	97.392471 
3406.000000	97.391853 
3405.000000	97.390259 
3404.000000	97.388814 
3403.000000	97.388403 
3402.000000	97.388535 
3401.000000	97.387996 
3400.000000	97.386482 
3399.000000	97.384941 
3398.000000	97.384313 
3397.000000	97.384541 
3396.000000	97.384986 
3395.000000	97.385451 
3394.000000	97.386472 
3393.000000	97.388571 
3392.000000	97.391344 
3391.000000	97.393460 
3390.000000	97.393769 
3389.000000	97.392371 
3388.000000	97.390565 
3387.000000	97.389797 
3386.000000	97.390647 
3385.000000	97.392783 
3384.000000	97.395487 
3383.000000	97.398094 
3382.000000	97.400210 
3381.000000	97.401761 
3380.000000	97.402877 
3379.000000	97.403609 
3378.000000	97.403854 
3377.000000	97.403547 
3376.000000	97.402769 
3375.000000	97.401718 
3374.000000	97.400804 
3373.000000	97.400747 
3372.000000	97.402160 
3371.000000	97.404893 
3370.000000	97.408009 
3369.000000	97.410606 
3368.000000	97.412457 
3367.000000	97.413712 
3366.000000	97.414420 
3365.000000	97.414724 
3364.000000	97.415259 
3363.000000	97.416769 
3362.000000	97.419250 
3361.000000	97.421839 
3360.000000	97.423709 
3359.000000	97.424897 
3358.000000	97.426132 
3357.000000	97.428001 
3356.000000	97.430408 
3355.000000	97.432739 
3354.000000	97.434465 
3353.000000	97.435602 
3352.000000	97.436653 
3351.000000	97.438118 
3350.000000	97.440083 
3349.000000	97.442328 
3348.000000	97.444685 
3347.000000	97.447174 
3346.000000	97.449810 
3345.000000	97.452426 
3344.000000	97.454756 
3343.000000	97.456611 
3342.000000	97.458009 
3341.000000	97.459114 
3340.000000	97.459987 
3339.000000	97.460430 
3338.000000	97.460285 
3337.000000	97.459955 
3336.000000	97.460379 
3335.000000	97.462196 
3334.000000	97.465097 
3333.000000	97.468100 
3332.000000	97.470380 
3331.000000	97.471667 
3330.000000	97.472026 
3329.000000	97.471787 
3328.000000	97.471689 
3327.000000	97.472611 
3326.000000	97.474833 
3325.000000	97.477691 
3324.000000	97.480211 
3323.000000	97.482080 
3322.000000	97.483832 
3321.000000	97.486192 
3320.000000	97.489395 
3319.000000	97.493102 
3318.000000	97.496749 
3317.000000	97.499864 
3316.000000	97.502264 
3315.000000	97.504166 
3314.000000	97.506078 
3313.000000	97.508336 
3312.000000	97.510616 
3311.000000	97.512138 
3310.000000	97.512528 
3309.000000	97.512321 
3308.000000	97.512448 
3307.000000	97.513289 
3306.000000	97.514458 
3305.000000	97.515456 
3304.000000	97.516220 
3303.000000	97.517032 
3302.000000	97.518207 
3301.000000	97.519952 
3300.000000	97.522312 
3299.000000	97.525024 
3298.000000	97.527550 
3297.000000	97.529443 
3296.000000	97.530780 
3295.000000	97.532154 
3294.000000	97.534143 
3293.000000	97.536755 
3292.000000	97.539317 
3291.000000	97.541050 
3290.000000	97.541813 
3289.000000	97.542233 
3288.000000	97.543097 
3287.000000	97.544597 
3286.000000	97.546339 
3285.000000	97.547966 
3284.000000	97.549555 
3283.000000	97.551350 
3282.000000	97.553374 
3281.000000	97.555445 
3280.000000	97.557417 
3279.000000	97.559320 
3278.000000	97.561296 
3277.000000	97.563450 
3276.000000	97.565712 
3275.000000	97.567838 
3274.000000	97.569612 
3273.000000	97.571071 
3272.000000	97.572468 
3271.000000	97.574041 
3270.000000	97.575848 
3269.000000	97.577844 
3268.000000	97.579991 
3267.000000	97.582240 
3266.000000	97.584469 
3265.000000	97.586532 
3264.000000	97.588346 
3263.000000	97.589915 
3262.000000	97.591289 
3261.000000	97.592597 
3260.000000	97.594064 
3259.000000	97.595887 
3258.000000	97.598107 
3257.000000	97.600602 
3256.000000	97.603173 
3255.000000	97.605604 
3254.000000	97.607726 
3253.000000	97.609521 
3252.000000	97.611188 
3251.000000	97.612976 
3250.000000	97.614962 
3249.000000	97.617058 
3248.000000	97.619210 
3247.000000	97.621457 
3246.000000	97.623771 
3245.000000	97.625979 
3244.000000	97.627930 
3243.000000	97.629670 
3242.000000	97.631403 
3241.000000	97.633295 
3240.000000	97.635369 
3239.000000	97.637574 
3238.000000	97.639896 
3237.000000	97.642373 
3236.000000	97.644988 
3235.000000	97.647583 
3234.000000	97.649892 
3233.000000	97.651712 
3232.000000	97.653055 
3231.000000	97.654157 
3230.000000	97.655355 
3229.000000	97.656899 
3228.000000	97.658835 
3227.000000	97.661045 
3226.000000	97.663412 
3225.000000	97.665946 
3224.000000	97.668699 
3223.000000	97.671548 
3222.000000	97.674135 
3221.000000	97.676156 
3220.000000	97.677636 
3219.000000	97.678913 
3218.000000	97.680361 
3217.000000	97.682124 
3216.000000	97.684125 
3215.000000	97.686201 
3214.000000	97.688224 
3213.000000	97.690163 
3212.000000	97.692080 
3211.000000	97.694066 
3210.000000	97.696138 
3209.000000	97.698184 
3208.000000	97.700025 
3207.000000	97.701588 
3206.000000	97.703031 
3205.000000	97.704673 
3204.000000	97.706712 
3203.000000	97.709058 
3202.000000	97.711458 
3201.000000	97.713770 
3200.000000	97.716030 
3199.000000	97.718271 
3198.000000	97.720402 
3197.000000	97.722325 
3196.000000	97.724081 
3195.000000	97.725823 
3194.000000	97.727682 
3193.000000	97.729682 
3192.000000	97.731782 
3191.000000	97.733936 
3190.000000	97.736120 
3189.000000	97.738320 
3188.000000	97.740502 
3187.000000	97.742619 
3186.000000	97.744632 
3185.000000	97.746554 
3184.000000	97.748481 
3183.000000	97.750523 
3182.000000	97.752714 
3181.000000	97.754962 
3180.000000	97.757140 
3179.000000	97.759218 
3178.000000	97.761278 
3177.000000	97.763420 
3176.000000	97.765668 
3175.000000	97.767942 
3174.000000	97.770117 
3173.000000	97.772104 
3172.000000	97.773928 
3171.000000	97.775741 
3170.000000	97.777733 
3169.000000	97.779959 
3168.000000	97.782272 
3167.000000	97.784460 
3166.000000	97.786448 
3165.000000	97.788338 
3164.000000	97.790275 
3163.000000	97.792305 
3162.000000	97.794376 
3161.000000	97.796414 
3160.000000	97.798401 
3159.000000	97.800427 
3158.000000	97.802660 
3157.000000	97.805185 
3156.000000	97.807819 
3155.000000	97.810202 
3154.000000	97.812152 
3153.000000	97.813876 
3152.000000	97.815705 
3151.000000	97.817619 
3150.000000	97.819253 
3149.000000	97.820375 
3148.000000	97.821237 
3147.000000	97.822383 
3146.000000	97.824113 
3145.000000	97.826282 
3144.000000	97.828596 
3143.000000	97.830993 
3142.000000	97.833605 
3141.000000	97.836406 
3140.000000	97.839054 
3139.000000	97.841189 
3138.000000	97.842825 
3137.000000	97.844346 
3136.000000	97.846138 
3135.000000	97.848253 
3134.000000	97.850477 
3133.000000	97.852575 
3132.000000	97.854384 
3131.000000	97.855818 
3130.000000	97.856931 
3129.000000	97.858000 
3128.000000	97.859394 
3127.000000	97.861272 
3126.000000	97.863516 
3125.000000	97.865881 
3124.000000	97.868160 
3123.000000	97.870228 
3122.000000	97.871996 
3121.000000	97.873450 
3120.000000	97.874706 
3119.000000	97.875970 
3118.000000	97.877403 
3117.000000	97.879051 
3116.000000	97.880861 
3115.000000	97.882729 
3114.000000	97.884548 
3113.000000	97.886258 
3112.000000	97.887863 
3111.000000	97.889413 
3110.000000	97.890963 
3109.000000	97.892524 
3108.000000	97.894053 
3107.000000	97.895509 
3106.000000	97.896917 
3105.000000	97.898360 
3104.000000	97.899884 
3103.000000	97.901445 
3102.000000	97.902961 
3101.000000	97.904403 
3100.000000	97.905820 
3099.000000	97.907265 
3098.000000	97.908716 
3097.000000	97.910110 
3096.000000	97.911423 
3095.000000	97.912699 
3094.000000	97.914004 
3093.000000	97.915364 
3092.000000	97.916757 
3091.000000	97.918110 
3090.000000	97.919325 
3089.000000	97.920345 
3088.000000	97.921261 
3087.000000	97.922309 
3086.000000	97.923700 
3085.000000	97.925461 
3084.000000	97.927344 
3083.000000	97.928993 
3082.000000	97.930193 
3081.000000	97.931059 
3080.000000	97.931996 
3079.000000	97.933256 
3078.000000	97.934553 
3077.000000	97.935294 
3076.000000	97.935249 
3075.000000	97.934889 
3074.000000	97.935035 
3073.000000	97.936115 
3072.000000	97.937779 
3071.000000	97.939210 
3070.000000	97.939946 
3069.000000	97.940442 
3068.000000	97.941456 
3067.000000	97.942924 
3066.000000	97.943991 
3065.000000	97.944397 
3064.000000	97.945039 
3063.000000	97.946492 
3062.000000	97.947676 
3061.000000	97.947151 
3060.000000	97.945464 
3059.000000	97.945013 
3058.000000	97.947213 
3057.000000	97.950660 
3056.000000	97.952675 
3055.000000	97.952140 
3054.000000	97.950286 
3053.000000	97.948991 
3052.000000	97.948934 
3051.000000	97.949424 
3050.000000	97.949493 
3049.000000	97.948851 
3048.000000	97.947915 
3047.000000	97.947289 
3046.000000	97.947447 
3045.000000	97.948700 
3044.000000	97.951066 
3043.000000	97.954127 
3042.000000	97.957102 
3041.000000	97.959104 
3040.000000	97.959241 
3039.000000	97.957006 
3038.000000	97.952889 
3037.000000	97.948272 
3036.000000	97.944165 
3035.000000	97.940269 
3034.000000	97.935997 
3033.000000	97.932058 
3032.000000	97.929811 
3031.000000	97.929032 
3030.000000	97.927611 
3029.000000	97.924029 
3028.000000	97.919047 
3027.000000	97.914321 
3026.000000	97.910212 
3025.000000	97.905924 
3024.000000	97.901171 
3023.000000	97.896538 
3022.000000	97.892386 
3021.000000	97.888431 
3020.000000	97.884395 
3019.000000	97.880305 
3018.000000	97.875979 
3017.000000	97.870888 
3016.000000	97.864678 
3015.000000	97.857535 
3014.000000	97.850013 
3013.000000	97.842701 
3012.000000	97.835832 
3011.000000	97.828961 
3010.000000	97.821406 
3009.000000	97.813237 
3008.000000	97.805335 
3007.000000	97.798152 
3006.000000	97.791038 
3005.000000	97.783410 
3004.000000	97.775859 
3003.000000	97.769152 
3002.000000	97.762643 
3001.000000	97.754861 
3000.000000	97.745630 
2999.000000	97.736528 
2998.000000	97.729175 
2997.000000	97.724122 
2996.000000	97.721305 
2995.000000	97.720129 
2994.000000	97.718442 
2993.000000	97.712829 
2992.000000	97.701626 
2991.000000	97.687523 
2990.000000	97.676035 
2989.000000	97.671001 
2988.000000	97.672014 
2987.000000	97.675805 
2986.000000	97.679180 
2985.000000	97.680651 
2984.000000	97.680375 
2983.000000	97.679707 
2982.000000	97.680424 
2981.000000	97.683212 
2980.000000	97.686579 
2979.000000	97.688012 
2978.000000	97.686650 
2977.000000	97.684197 
2976.000000	97.682721 
2975.000000	97.682170 
2974.000000	97.681027 
2973.000000	97.679195 
2972.000000	97.679022 
2971.000000	97.682895 
2970.000000	97.690436 
2969.000000	97.698636 
2968.000000	97.704613 
2967.000000	97.708067 
2966.000000	97.711245 
2965.000000	97.716884 
2964.000000	97.725896 
2963.000000	97.736554 
2962.000000	97.745822 
2961.000000	97.751885 
2960.000000	97.755514 
2959.000000	97.759076 
2958.000000	97.764357 
2957.000000	97.771409 
2956.000000	97.779052 
2955.000000	97.785962 
2954.000000	97.791293 
2953.000000	97.794796 
2952.000000	97.796850 
2951.000000	97.798433 
2950.000000	97.800782 
2949.000000	97.804737 
2948.000000	97.810140 
2947.000000	97.815853 
2946.000000	97.820506 
2945.000000	97.823353 
2944.000000	97.824490 
2943.000000	97.824492 
2942.000000	97.824010 
2941.000000	97.823506 
2940.000000	97.823134 
2939.000000	97.822810 
2938.000000	97.822487 
2937.000000	97.822401 
2936.000000	97.823061 
2935.000000	97.825066 
2934.000000	97.828777 
2933.000000	97.833761 
2932.000000	97.838318 
2931.000000	97.840053 
2930.000000	97.837585 
2929.000000	97.831840 
2928.000000	97.825582 
2927.000000	97.821478 
2926.000000	97.820615 
2925.000000	97.822391 
2924.000000	97.825222 
2923.000000	97.827477 
2922.000000	97.828380 
2921.000000	97.828232 
2920.000000	97.827542 
2919.000000	97.826173 
2918.000000	97.823809 
2917.000000	97.821083 
2916.000000	97.819437 
2915.000000	97.819654 
2914.000000	97.821043 
2913.000000	97.822369 
2912.000000	97.823139 
2911.000000	97.823729 
2910.000000	97.824655 
2909.000000	97.826097 
2908.000000	97.827850 
2907.000000	97.829264 
2906.000000	97.829351 
2905.000000	97.827280 
2904.000000	97.823101 
2903.000000	97.818246 
2902.000000	97.815374 
2901.000000	97.816791 
2900.000000	97.823161 
2899.000000	97.832395 
2898.000000	97.840916 
2897.000000	97.846341 
2896.000000	97.848893 
2895.000000	97.850349 
2894.000000	97.852139 
2893.000000	97.854459 
2892.000000	97.856765 
2891.000000	97.858659 
2890.000000	97.860337 
2889.000000	97.862312 
2888.000000	97.864684 
2887.000000	97.866841 
2886.000000	97.868223 
2885.000000	97.869315 
2884.000000	97.871385 
2883.000000	97.875162 
2882.000000	97.880221 
2881.000000	97.885737 
2880.000000	97.891308 
2879.000000	97.896930 
2878.000000	97.902656 
2877.000000	97.908508 
2876.000000	97.914340 
2875.000000	97.919729 
2874.000000	97.924485 
2873.000000	97.929297 
2872.000000	97.935073 
2871.000000	97.941281 
2870.000000	97.945756 
2869.000000	97.946943 
2868.000000	97.945984 
2867.000000	97.946013 
2866.000000	97.949367 
2865.000000	97.956046 
2864.000000	97.964546 
2863.000000	97.973420 
2862.000000	97.981954 
2861.000000	97.989871 
2860.000000	97.996950 
2859.000000	98.003041 
2858.000000	98.008203 
2857.000000	98.012567 
2856.000000	98.015923 
2855.000000	98.017778 
2854.000000	98.018232 
2853.000000	98.018513 
2852.000000	98.019985 
2851.000000	98.022698 
2850.000000	98.025529 
2849.000000	98.027730 
2848.000000	98.029764 
2847.000000	98.032611 
2846.000000	98.036936 
2845.000000	98.043045 
2844.000000	98.050703 
2843.000000	98.058560 
2842.000000	98.064578 
2841.000000	98.067719 
2840.000000	98.068785 
2839.000000	98.069310 
2838.000000	98.070082 
2837.000000	98.071187 
2836.000000	98.072779 
2835.000000	98.074983 
2834.000000	98.077531 
2833.000000	98.080252 
2832.000000	98.083434 
2831.000000	98.086930 
2830.000000	98.089447 
2829.000000	98.089821 
2828.000000	98.088766 
2827.000000	98.088286 
2826.000000	98.089366 
2825.000000	98.091252 
2824.000000	98.093110 
2823.000000	98.095228 
2822.000000	98.098098 
2821.000000	98.101214 
2820.000000	98.103481 
2819.000000	98.104433 
2818.000000	98.104549 
2817.000000	98.104660 
2816.000000	98.105360 
2815.000000	98.106748 
2814.000000	98.108508 
2813.000000	98.110214 
2812.000000	98.111649 
2811.000000	98.112762 
2810.000000	98.113486 
2809.000000	98.113844 
2808.000000	98.114207 
2807.000000	98.115055 
2806.000000	98.116371 
2805.000000	98.117509 
2804.000000	98.117862 
2803.000000	98.117544 
2802.000000	98.117297 
2801.000000	98.117734 
2800.000000	98.118794 
2799.000000	98.119957 
2798.000000	98.120899 
2797.000000	98.121826 
2796.000000	98.123119 
2795.000000	98.124794 
2794.000000	98.126482 
2793.000000	98.127903 
2792.000000	98.129074 
2791.000000	98.129988 
2790.000000	98.130389 
2789.000000	98.130115 
2788.000000	98.129499 
2787.000000	98.129175 
2786.000000	98.129497 
2785.000000	98.130337 
2784.000000	98.131376 
2783.000000	98.132354 
2782.000000	98.133073 
2781.000000	98.133444 
2780.000000	98.133698 
2779.000000	98.134371 
2778.000000	98.135846 
2777.000000	98.137952 
2776.000000	98.140000 
2775.000000	98.141313 
2774.000000	98.141748 
2773.000000	98.141761 
2772.000000	98.142037 
2771.000000	98.142866 
2770.000000	98.143929 
2769.000000	98.144704 
2768.000000	98.145027 
2767.000000	98.145130 
2766.000000	98.145195 
2765.000000	98.145066 
2764.000000	98.144529 
2763.000000	98.143789 
2762.000000	98.143501 
2761.000000	98.144206 
2760.000000	98.145796 
2759.000000	98.147523 
2758.000000	98.148662 
2757.000000	98.149233 
2756.000000	98.149933 
2755.000000	98.151331 
2754.000000	98.153250 
2753.000000	98.154971 
2752.000000	98.156022 
2751.000000	98.156561 
2750.000000	98.156979 
2749.000000	98.157394 
2748.000000	98.157681 
2747.000000	98.157864 
2746.000000	98.158187 
2745.000000	98.158786 
2744.000000	98.159513 
2743.000000	98.160170 
2742.000000	98.160743 
2741.000000	98.161277 
2740.000000	98.161668 
2739.000000	98.161812 
2738.000000	98.161933 
2737.000000	98.162486 
2736.000000	98.163632 
2735.000000	98.164947 
2734.000000	98.165816 
2733.000000	98.166076 
2732.000000	98.166070 
2731.000000	98.166207 
2730.000000	98.166634 
2729.000000	98.167359 
2728.000000	98.168429 
2727.000000	98.169802 
2726.000000	98.171177 
2725.000000	98.172169 
2724.000000	98.172635 
2723.000000	98.172760 
2722.000000	98.172850 
2721.000000	98.173025 
2720.000000	98.173145 
2719.000000	98.173015 
2718.000000	98.172688 
2717.000000	98.172526 
2716.000000	98.172857 
2715.000000	98.173573 
2714.000000	98.174146 
2713.000000	98.174164 
2712.000000	98.173782 
2711.000000	98.173498 
2710.000000	98.173561 
2709.000000	98.173867 
2708.000000	98.174366 
2707.000000	98.175223 
2706.000000	98.176453 
2705.000000	98.177614 
2704.000000	98.178152 
2703.000000	98.178035 
2702.000000	98.177920 
2701.000000	98.178528 
2700.000000	98.179833 
2699.000000	98.180982 
2698.000000	98.181134 
2697.000000	98.180276 
2696.000000	98.179121 
2695.000000	98.178358 
2694.000000	98.178176 
2693.000000	98.178354 
2692.000000	98.178451 
2691.000000	98.177991 
2690.000000	98.176877 
2689.000000	98.175570 
2688.000000	98.174528 
2687.000000	98.173639 
2686.000000	98.172773 
2685.000000	98.172687 
2684.000000	98.174495 
2683.000000	98.177924 
2682.000000	98.180897 
2681.000000	98.181476 
2680.000000	98.179588 
2679.000000	98.176602 
2678.000000	98.173888 
2677.000000	98.172246 
2676.000000	98.172129 
2675.000000	98.173408 
2674.000000	98.174993 
2673.000000	98.175461 
2672.000000	98.174203 
2671.000000	98.171685 
2670.000000	98.168857 
2669.000000	98.166668 
2668.000000	98.165702 
2667.000000	98.165592 
2666.000000	98.164928 
2665.000000	98.162367 
2664.000000	98.157829 
2663.000000	98.152283 
2662.000000	98.146645 
2661.000000	98.141476 
2660.000000	98.137505 
2659.000000	98.135453 
2658.000000	98.135044 
2657.000000	98.134796 
2656.000000	98.133337 
2655.000000	98.130692 
2654.000000	98.127987 
2653.000000	98.126208 
2652.000000	98.125540 
2651.000000	98.125622 
2650.000000	98.125895 
2649.000000	98.125648 
2648.000000	98.124135 
2647.000000	98.121071 
2646.000000	98.117206 
2645.000000	98.114208 
2644.000000	98.113549 
2643.000000	98.115217 
2642.000000	98.117452 
2641.000000	98.118019 
2640.000000	98.115989 
2639.000000	98.112333 
2638.000000	98.108990 
2637.000000	98.107334 
2636.000000	98.107465 
2635.000000	98.108704 
2634.000000	98.110464 
2633.000000	98.112556 
2632.000000	98.114753 
2631.000000	98.116463 
2630.000000	98.117161 
2629.000000	98.116994 
2628.000000	98.116549 
2627.000000	98.116123 
2626.000000	98.115527 
2625.000000	98.114592 
2624.000000	98.113553 
2623.000000	98.112878 
2622.000000	98.112885 
2621.000000	98.113513 
2620.000000	98.114296 
2619.000000	98.114657 
2618.000000	98.114432 
2617.000000	98.114022 
2616.000000	98.113844 
2615.000000	98.113810 
2614.000000	98.113645 
2613.000000	98.113510 
2612.000000	98.113893 
2611.000000	98.114938 
2610.000000	98.116273 
2609.000000	98.117473 
2608.000000	98.118394 
2607.000000	98.119062 
2606.000000	98.119595 
2605.000000	98.120242 
2604.000000	98.121195 
2603.000000	98.122336 
2602.000000	98.123365 
2601.000000	98.124142 
2600.000000	98.124765 
2599.000000	98.125389 
2598.000000	98.126094 
2597.000000	98.126882 
2596.000000	98.127715 
2595.000000	98.128546 
2594.000000	98.129346 
2593.000000	98.130113 
2592.000000	98.130866 
2591.000000	98.131624 
2590.000000	98.132398 
2589.000000	98.133196 
2588.000000	98.134021 
2587.000000	98.134875 
2586.000000	98.135748 
2585.000000	98.136628 
2584.000000	98.137508 
2583.000000	98.138387 
2582.000000	98.139270 
2581.000000	98.140158 
2580.000000	98.141055 
2579.000000	98.141957 
2578.000000	98.142860 
2577.000000	98.143759 
2576.000000	98.144650 
2575.000000	98.145530 
2574.000000	98.146395 
2573.000000	98.147247 
2572.000000	98.148090 
2571.000000	98.148925 
2570.000000	98.149751 
2569.000000	98.150564 
2568.000000	98.151363 
2567.000000	98.152141 
2566.000000	98.152892 
2565.000000	98.153606 
2564.000000	98.154282 
2563.000000	98.154926 
2562.000000	98.155545 
2561.000000	98.156145 
2560.000000	98.156727 
2559.000000	98.157287 
2558.000000	98.157820 
2557.000000	98.158324 
2556.000000	98.158807 
2555.000000	98.159282 
2554.000000	98.159757 
2553.000000	98.160240 
2552.000000	98.160732 
2551.000000	98.161228 
2550.000000	98.161718 
2549.000000	98.162187 
2548.000000	98.162626 
2547.000000	98.163034 
2546.000000	98.163412 
2545.000000	98.163763 
2544.000000	98.164089 
2543.000000	98.164398 
2542.000000	98.164693 
2541.000000	98.164972 
2540.000000	98.165236 
2539.000000	98.165488 
2538.000000	98.165719 
2537.000000	98.165903 
2536.000000	98.166032 
2535.000000	98.166156 
2534.000000	98.166356 
2533.000000	98.166674 
2532.000000	98.167060 
2531.000000	98.167401 
2530.000000	98.167586 
2529.000000	98.167565 
2528.000000	98.167388 
2527.000000	98.167196 
2526.000000	98.167103 
2525.000000	98.167123 
2524.000000	98.167208 
2523.000000	98.167300 
2522.000000	98.167332 
2521.000000	98.167266 
2520.000000	98.167195 
2519.000000	98.167283 
2518.000000	98.167546 
2517.000000	98.167856 
2516.000000	98.168237 
2515.000000	98.168987 
2514.000000	98.170324 
2513.000000	98.171981 
2512.000000	98.173278 
2511.000000	98.173650 
2510.000000	98.173037 
2509.000000	98.171947 
2508.000000	98.171148 
2507.000000	98.171024 
2506.000000	98.171275 
2505.000000	98.171328 
2504.000000	98.171063 
2503.000000	98.170819 
2502.000000	98.170695 
2501.000000	98.170326 
2500.000000	98.169629 
2499.000000	98.169336 
2498.000000	98.170334 
2497.000000	98.172665 
2496.000000	98.175328 
2495.000000	98.176988 
2494.000000	98.176940 
2493.000000	98.175585 
2492.000000	98.174265 
2491.000000	98.174277 
2490.000000	98.175803 
2489.000000	98.177932 
2488.000000	98.179706 
2487.000000	98.180916 
2486.000000	98.181800 
2485.000000	98.182356 
2484.000000	98.182280 
2483.000000	98.181387 
2482.000000	98.179904 
2481.000000	98.178535 
2480.000000	98.178286 
2479.000000	98.179891 
2478.000000	98.183174 
2477.000000	98.186995 
2476.000000	98.189919 
2475.000000	98.190948 
2474.000000	98.189878 
2473.000000	98.187484 
2472.000000	98.185172 
2471.000000	98.183828 
2470.000000	98.183060 
2469.000000	98.181991 
2468.000000	98.180507 
2467.000000	98.179061 
2466.000000	98.177530 
2465.000000	98.175302 
2464.000000	98.172566 
2463.000000	98.170553 
2462.000000	98.170163 
2461.000000	98.170993 
2460.000000	98.171913 
2459.000000	98.172022 
2458.000000	98.170951 
2457.000000	98.168980 
2456.000000	98.167199 
2455.000000	98.166815 
2454.000000	98.167811 
2453.000000	98.168809 
2452.000000	98.168580 
2451.000000	98.167326 
2450.000000	98.166293 
2449.000000	98.166650 
2448.000000	98.168835 
2447.000000	98.172268 
2446.000000	98.175489 
2445.000000	98.177143 
2444.000000	98.177146 
2443.000000	98.176611 
2442.000000	98.176609 
2441.000000	98.177347 
2440.000000	98.178498 
2439.000000	98.179687 
2438.000000	98.180497 
2437.000000	98.180541 
2436.000000	98.179837 
2435.000000	98.178814 
2434.000000	98.177899 
2433.000000	98.177421 
2432.000000	98.177824 
2431.000000	98.179429 
2430.000000	98.181911 
2429.000000	98.184343 
2428.000000	98.185906 
2427.000000	98.186417 
2426.000000	98.186248 
2425.000000	98.186089 
2424.000000	98.186681 
2423.000000	98.188319 
2422.000000	98.190586 
2421.000000	98.192847 
2420.000000	98.194990 
2419.000000	98.197262 
2418.000000	98.199441 
2417.000000	98.200783 
2416.000000	98.200941 
2415.000000	98.200480 
2414.000000	98.200268 
2413.000000	98.200695 
2412.000000	98.201714 
2411.000000	98.203179 
2410.000000	98.204826 
2409.000000	98.206189 
2408.000000	98.206935 
2407.000000	98.207143 
2406.000000	98.207134 
2405.000000	98.207169 
2404.000000	98.207463 
2403.000000	98.208221 
2402.000000	98.209363 
2401.000000	98.210459 
2400.000000	98.211266 
2399.000000	98.212121 
2398.000000	98.213513 
2397.000000	98.215378 
2396.000000	98.216987 
2395.000000	98.217554 
2394.000000	98.216896 
2393.000000	98.215653 
2392.000000	98.214910 
2391.000000	98.215380 
2390.000000	98.216816 
2389.000000	98.218162 
2388.000000	98.218381 
2387.000000	98.217315 
2386.000000	98.215901 
2385.000000	98.215438 
2384.000000	98.216352 
2383.000000	98.217661 
2382.000000	98.217944 
2381.000000	98.216817 
2380.000000	98.215191 
2379.000000	98.213969 
2378.000000	98.213040 
2377.000000	98.211851 
2376.000000	98.210429 
2375.000000	98.209323 
2374.000000	98.208900 
2373.000000	98.209148 
2372.000000	98.209749 
2371.000000	98.209924 
2370.000000	98.208714 
2369.000000	98.206116 
2368.000000	98.203330 
2367.000000	98.201413 
2366.000000	98.200056 
2365.000000	98.198197 
2364.000000	98.195357 
2363.000000	98.191754 
2362.000000	98.187409 
2361.000000	98.182431 
2360.000000	98.177904 
2359.000000	98.175228 
2358.000000	98.174841 
2357.000000	98.175619 
2356.000000	98.176198 
2355.000000	98.176166 
2354.000000	98.175197 
2353.000000	98.172905 
2352.000000	98.169562 
2351.000000	98.166560 
2350.000000	98.164455 
2349.000000	98.162058 
2348.000000	98.158598 
2347.000000	98.154494 
2346.000000	98.150810 
2345.000000	98.148155 
2344.000000	98.146774 
2343.000000	98.146440 
2342.000000	98.145233 
2341.000000	98.141930 
2340.000000	98.137223 
2339.000000	98.133384 
2338.000000	98.131841 
2337.000000	98.131603 
2336.000000	98.130588 
2335.000000	98.127724 
2334.000000	98.124086 
2333.000000	98.121572 
2332.000000	98.121578 
2331.000000	98.123647 
2330.000000	98.125797 
2329.000000	98.124774 
2328.000000	98.118796 
2327.000000	98.107129 
2326.000000	98.091792 
2325.000000	98.076907 
2324.000000	98.067460 
2323.000000	98.065848 
2322.000000	98.069807 
2321.000000	98.074967 
2320.000000	98.078720 
2319.000000	98.081551 
2318.000000	98.084240 
2317.000000	98.086334 
2316.000000	98.087453 
2315.000000	98.087486 
2314.000000	98.086830 
2313.000000	98.085387 
2312.000000	98.084032 
2311.000000	98.083285 
2310.000000	98.083350 
2309.000000	98.083378 
2308.000000	98.083626 
2307.000000	98.084524 
2306.000000	98.086234 
2305.000000	98.087743 
2304.000000	98.088503 
2303.000000	98.088083 
2302.000000	98.086045 
2301.000000	98.081927 
2300.000000	98.076909 
2299.000000	98.072773 
2298.000000	98.070550 
2297.000000	98.069510 
2296.000000	98.068794 
2295.000000	98.067306 
2294.000000	98.063867 
2293.000000	98.057853 
2292.000000	98.050893 
2291.000000	98.045168 
2290.000000	98.040505 
2289.000000	98.034458 
2288.000000	98.026017 
2287.000000	98.017377 
2286.000000	98.011530 
2285.000000	98.009896 
2284.000000	98.012457 
2283.000000	98.018432 
2282.000000	98.025930 
2281.000000	98.032933 
2280.000000	98.039143 
2279.000000	98.045249 
2278.000000	98.049865 
2277.000000	98.050336 
2276.000000	98.047242 
2275.000000	98.045136 
2274.000000	98.047283 
2273.000000	98.051891 
2272.000000	98.055041 
2271.000000	98.055480 
2270.000000	98.055176 
2269.000000	98.056484 
2268.000000	98.060028 
2267.000000	98.064351 
2266.000000	98.066991 
2265.000000	98.066837 
2264.000000	98.065543 
2263.000000	98.065353 
2262.000000	98.065940 
2261.000000	98.064942 
2260.000000	98.061419 
2259.000000	98.056917 
2258.000000	98.053243 
2257.000000	98.050972 
2256.000000	98.050233 
2255.000000	98.051177 
2254.000000	98.053134 
2253.000000	98.054708 
2252.000000	98.055219 
2251.000000	98.055042 
2250.000000	98.054560 
2249.000000	98.053773 
2248.000000	98.052931 
2247.000000	98.052403 
2246.000000	98.052079 
2245.000000	98.051562 
2244.000000	98.050824 
2243.000000	98.050111 
2242.000000	98.049494 
2241.000000	98.048902 
2240.000000	98.048431 
2239.000000	98.048349 
2238.000000	98.048672 
2237.000000	98.048865 
2236.000000	98.048333 
2235.000000	98.047124 
2234.000000	98.046031 
2233.000000	98.045772 
2232.000000	98.046348 
2231.000000	98.047172 
2230.000000	98.047602 
2229.000000	98.047325 
2228.000000	98.046317 
2227.000000	98.044638 
2226.000000	98.042299 
2225.000000	98.039521 
2224.000000	98.037228 
2223.000000	98.036612 
2222.000000	98.037865 
2221.000000	98.039846 
2220.000000	98.041082 
2219.000000	98.041005 
2218.000000	98.040059 
2217.000000	98.039075 
2216.000000	98.038742 
2215.000000	98.039251 
2214.000000	98.040038 
2213.000000	98.040085 
2212.000000	98.038751 
2211.000000	98.036204 
2210.000000	98.033185 
2209.000000	98.030725 
2208.000000	98.029904 
2207.000000	98.031231 
2206.000000	98.034084 
2205.000000	98.037254 
2204.000000	98.040359 
2203.000000	98.043976 
2202.000000	98.047824 
2201.000000	98.049969 
2200.000000	98.048408 
2199.000000	98.043206 
2198.000000	98.036389 
2197.000000	98.030063 
2196.000000	98.025886 
2195.000000	98.024558 
2194.000000	98.024900 
2193.000000	98.024485 
2192.000000	98.021566 
2191.000000	98.015886 
2190.000000	98.008208 
2189.000000	98.000127 
2188.000000	97.993718 
2187.000000	97.990253 
2186.000000	97.989958 
2185.000000	97.993809 
2184.000000	98.003621 
2183.000000	98.018077 
2182.000000	98.030336 
2181.000000	98.033332 
2180.000000	98.027071 
2179.000000	98.017683 
2178.000000	98.010262 
2177.000000	98.006286 
2176.000000	98.007102 
2175.000000	98.014652 
2174.000000	98.027298 
2173.000000	98.038882 
2172.000000	98.044203 
2171.000000	98.042912 
2170.000000	98.037009 
2169.000000	98.027737 
2168.000000	98.016364 
2167.000000	98.005079 
2166.000000	97.994930 
2165.000000	97.984595 
2164.000000	97.972891 
2163.000000	97.961858 
2162.000000	97.957553 
2161.000000	97.969096 
2160.000000	98.004499 
2159.000000	98.061731 
2158.000000	98.122305 
2157.000000	98.162650 
2156.000000	98.174765 
2155.000000	98.168442 
2154.000000	98.157588 
2153.000000	98.148667 
2152.000000	98.142032 
2151.000000	98.137965 
2150.000000	98.137104 
2149.000000	98.138551 
2148.000000	98.141691 
2147.000000	98.148135 
2146.000000	98.158974 
2145.000000	98.171795 
2144.000000	98.183058 
2143.000000	98.191752 
2142.000000	98.198075 
2141.000000	98.200292 
2140.000000	98.196224 
2139.000000	98.187625 
2138.000000	98.180702 
2137.000000	98.181463 
2136.000000	98.190931 
2135.000000	98.204574 
2134.000000	98.215828 
2133.000000	98.220894 
2132.000000	98.220844 
2131.000000	98.218878 
2130.000000	98.215890 
2129.000000	98.209927 
2128.000000	98.199988 
2127.000000	98.188697 
2126.000000	98.180331 
2125.000000	98.176750 
2124.000000	98.175766 
2123.000000	98.173323 
2122.000000	98.167265 
2121.000000	98.159244 
2120.000000	98.152638 
2119.000000	98.148275 
2118.000000	98.143118 
2117.000000	98.134128 
2116.000000	98.122497 
2115.000000	98.112423 
2114.000000	98.107181 
2113.000000	98.107532 
2112.000000	98.113096 
2111.000000	98.122510 
2110.000000	98.131243 
2109.000000	98.133647 
2108.000000	98.128596 
2107.000000	98.120430 
2106.000000	98.113786 
2105.000000	98.109687 
2104.000000	98.106990 
2103.000000	98.104865 
2102.000000	98.102664 
2101.000000	98.099547 
2100.000000	98.095737 
2099.000000	98.093136 
2098.000000	98.093941 
2097.000000	98.099305 
2096.000000	98.108844 
2095.000000	98.119684 
2094.000000	98.126799 
2093.000000	98.126746 
2092.000000	98.120912 
2091.000000	98.113917 
2090.000000	98.108961 
2089.000000	98.105676 
2088.000000	98.102138 
2087.000000	98.097265 
2086.000000	98.091318 
2085.000000	98.085579 
2084.000000	98.081897 
2083.000000	98.081437 
2082.000000	98.083327 
2081.000000	98.085095 
2080.000000	98.084907 
2079.000000	98.082854 
2078.000000	98.080007 
2077.000000	98.077202 
2076.000000	98.074945 
2075.000000	98.073522 
2074.000000	98.072647 
2073.000000	98.071642 
2072.000000	98.070314 
2071.000000	98.069216 
2070.000000	98.068872 
2069.000000	98.069186 
2068.000000	98.069640 
2067.000000	98.069553 
2066.000000	98.068270 
2065.000000	98.065937 
2064.000000	98.064022 
2063.000000	98.064012 
2062.000000	98.065533 
2061.000000	98.066500 
2060.000000	98.065179 
2059.000000	98.061489 
2058.000000	98.056809 
2057.000000	98.053461 
2056.000000	98.053517 
2055.000000	98.056422 
2054.000000	98.057892 
2053.000000	98.053353 
2052.000000	98.042652 
2051.000000	98.030565 
2050.000000	98.022310 
2049.000000	98.019609 
2048.000000	98.021645 
2047.000000	98.027209 
2046.000000	98.034553 
2045.000000	98.040920 
2044.000000	98.044136 
2043.000000	98.043935 
2042.000000	98.041114 
2041.000000	98.036835 
2040.000000	98.033092 
2039.000000	98.032054 
2038.000000	98.034485 
2037.000000	98.040070 
2036.000000	98.048730 
2035.000000	98.059457 
2034.000000	98.068491 
2033.000000	98.072240 
2032.000000	98.071996 
2031.000000	98.072135 
2030.000000	98.073444 
2029.000000	98.072660 
2028.000000	98.069067 
2027.000000	98.066307 
2026.000000	98.066199 
2025.000000	98.065647 
2024.000000	98.062246 
2023.000000	98.058775 
2022.000000	98.059009 
2021.000000	98.062101 
2020.000000	98.064204 
2019.000000	98.063442 
2018.000000	98.060559 
2017.000000	98.057271 
2016.000000	98.056451 
2015.000000	98.061123 
2014.000000	98.070643 
2013.000000	98.079792 
2012.000000	98.083578 
2011.000000	98.081267 
2010.000000	98.075471 
2009.000000	98.070471 
2008.000000	98.071002 
2007.000000	98.078192 
2006.000000	98.086225 
2005.000000	98.087973 
2004.000000	98.083859 
2003.000000	98.079722 
2002.000000	98.076691 
2001.000000	98.070201 
2000.000000	98.059393 
1999.000000	98.049565 
1998.000000	98.043674 
1997.000000	98.038882 
1996.000000	98.033535 
1995.000000	98.030468 
1994.000000	98.029904 
1993.000000	98.025688 
1992.000000	98.014169 
1991.000000	98.001969 
1990.000000	97.998190 
1989.000000	98.002951 
1988.000000	98.008555 
1987.000000	98.008864 
1986.000000	98.004079 
1985.000000	97.998221 
1984.000000	97.994877 
1983.000000	97.993943 
1982.000000	97.991190 
1981.000000	97.983903 
1980.000000	97.977631 
1979.000000	97.982478 
1978.000000	98.001383 
1977.000000	98.026318 
1976.000000	98.047888 
1975.000000	98.064338 
1974.000000	98.077387 
1973.000000	98.086210 
1972.000000	98.089842 
1971.000000	98.090139 
1970.000000	98.088381 
1969.000000	98.083009 
1968.000000	98.074163 
1967.000000	98.066690 
1966.000000	98.064705 
1965.000000	98.066437 
1964.000000	98.067996 
1963.000000	98.069305 
1962.000000	98.073358 
1961.000000	98.081427 
1960.000000	98.091085 
1959.000000	98.097998 
1958.000000	98.098995 
1957.000000	98.095035 
1956.000000	98.091653 
1955.000000	98.093995 
1954.000000	98.100731 
1953.000000	98.105162 
1952.000000	98.103151 
1951.000000	98.097360 
1950.000000	98.093226 
1949.000000	98.093171 
1948.000000	98.096237 
1947.000000	98.100710 
1946.000000	98.105060 
1945.000000	98.108111 
1944.000000	98.109745 
1943.000000	98.110699 
1942.000000	98.111146 
1941.000000	98.110675 
1940.000000	98.109662 
1939.000000	98.109152 
1938.000000	98.109548 
1937.000000	98.110397 
1936.000000	98.111244 
1935.000000	98.111966 
1934.000000	98.112470 
1933.000000	98.112540 
1932.000000	98.112176 
1931.000000	98.111711 
1930.000000	98.111414 
1929.000000	98.111275 
1928.000000	98.111211 
1927.000000	98.111192 
1926.000000	98.111153 
1925.000000	98.110959 
1924.000000	98.110602 
1923.000000	98.110362 
1922.000000	98.110441 
1921.000000	98.110577 
1920.000000	98.110347 
1919.000000	98.109669 
1918.000000	98.108758 
1917.000000	98.107759 
1916.000000	98.106795 
1915.000000	98.106126 
1914.000000	98.105811 
1913.000000	98.105462 
1912.000000	98.104744 
1911.000000	98.103981 
1910.000000	98.103544 
1909.000000	98.103025 
1908.000000	98.101835 
1907.000000	98.100120 
1906.000000	98.098507 
1905.000000	98.097183 
1904.000000	98.095974 
1903.000000	98.095008 
1902.000000	98.094308 
1901.000000	98.093449 
1900.000000	98.092316 
1899.000000	98.091555 
1898.000000	98.091667 
1897.000000	98.092064 
1896.000000	98.091714 
1895.000000	98.090418 
1894.000000	98.088606 
1893.000000	98.086605 
1892.000000	98.084888 
1891.000000	98.084271 
1890.000000	98.085113 
1889.000000	98.086659 
1888.000000	98.087955 
1887.000000	98.088783 
1886.000000	98.088928 
1885.000000	98.087756 
1884.000000	98.085319 
1883.000000	98.083088 
1882.000000	98.082429 
1881.000000	98.083297 
1880.000000	98.084907 
1879.000000	98.086624 
1878.000000	98.087866 
1877.000000	98.088151 
1876.000000	98.087957 
1875.000000	98.088593 
1874.000000	98.090256 
1873.000000	98.091335 
1872.000000	98.090838 
1871.000000	98.089940 
1870.000000	98.089781 
1869.000000	98.089402 
1868.000000	98.088272 
1867.000000	98.088275 
1866.000000	98.090438 
1865.000000	98.093505 
1864.000000	98.096526 
1863.000000	98.100313 
1862.000000	98.104910 
1861.000000	98.107853 
1860.000000	98.107460 
1859.000000	98.105832 
1858.000000	98.105926 
1857.000000	98.107471 
1856.000000	98.108539 
1855.000000	98.109188 
1854.000000	98.110826 
1853.000000	98.113578 
1852.000000	98.116768 
1851.000000	98.120491 
1850.000000	98.125009 
1849.000000	98.129827 
1848.000000	98.134282 
1847.000000	98.138432 
1846.000000	98.142084 
1845.000000	98.144097 
1844.000000	98.144238 
1843.000000	98.143989 
1842.000000	98.143751 
1841.000000	98.142629 
1840.000000	98.140556 
1839.000000	98.138857 
1838.000000	98.138898 
1837.000000	98.140504 
1836.000000	98.142917 
1835.000000	98.146119 
1834.000000	98.149803 
1833.000000	98.152640 
1832.000000	98.153265 
1831.000000	98.151627 
1830.000000	98.149384 
1829.000000	98.148208 
1828.000000	98.148070 
1827.000000	98.148624 
1826.000000	98.149951 
1825.000000	98.151590 
1824.000000	98.152734 
1823.000000	98.153498 
1822.000000	98.154378 
1821.000000	98.155059 
1820.000000	98.155161 
1819.000000	98.155725 
1818.000000	98.157876 
1817.000000	98.160174 
1816.000000	98.160351 
1815.000000	98.158721 
1814.000000	98.157335 
1813.000000	98.156941 
1812.000000	98.156631 
1811.000000	98.156282 
1810.000000	98.156577 
1809.000000	98.156913 
1808.000000	98.156396 
1807.000000	98.155472 
1806.000000	98.154876 
1805.000000	98.154395 
1804.000000	98.153718 
1803.000000	98.153377 
1802.000000	98.153883 
1801.000000	98.154763 
1800.000000	98.155307 
1799.000000	98.155710 
1798.000000	98.156301 
1797.000000	98.156782 
1796.000000	98.157096 
1795.000000	98.157810 
1794.000000	98.159136 
1793.000000	98.160234 
1792.000000	98.160261 
1791.000000	98.159814 
1790.000000	98.159920 
1789.000000	98.160511 
1788.000000	98.161076 
1787.000000	98.161668 
1786.000000	98.162650 
1785.000000	98.163794 
1784.000000	98.164552 
1783.000000	98.164932 
1782.000000	98.165370 
1781.000000	98.166246 
1780.000000	98.167640 
1779.000000	98.169384 
1778.000000	98.171166 
1777.000000	98.172628 
1776.000000	98.173627 
1775.000000	98.174257 
1774.000000	98.174767 
1773.000000	98.175499 
1772.000000	98.176554 
1771.000000	98.177822 
1770.000000	98.179430 
1769.000000	98.181431 
1768.000000	98.183365 
1767.000000	98.184712 
1766.000000	98.185482 
1765.000000	98.186011 
1764.000000	98.186462 
1763.000000	98.186904 
1762.000000	98.187728 
1761.000000	98.189259 
1760.000000	98.191127 
1759.000000	98.192843 
1758.000000	98.194399 
1757.000000	98.196055 
1756.000000	98.197731 
1755.000000	98.199038 
1754.000000	98.200275 
1753.000000	98.202278 
1752.000000	98.204964 
1751.000000	98.206750 
1750.000000	98.206770 
1749.000000	98.206065 
1748.000000	98.205836 
1747.000000	98.205978 
1746.000000	98.206232 
1745.000000	98.207019 
1744.000000	98.208284 
1743.000000	98.209126 
1742.000000	98.209188 
1741.000000	98.209096 
1740.000000	98.209386 
1739.000000	98.209920 
1738.000000	98.210313 
1737.000000	98.210371 
1736.000000	98.210273 
1735.000000	98.210473 
1734.000000	98.211014 
1733.000000	98.211120 
1732.000000	98.210528 
1731.000000	98.209853 
1730.000000	98.209798 
1729.000000	98.210517 
1728.000000	98.211432 
1727.000000	98.211750 
1726.000000	98.211238 
1725.000000	98.210277 
1724.000000	98.209297 
1723.000000	98.208675 
1722.000000	98.208609 
1721.000000	98.208663 
1720.000000	98.208151 
1719.000000	98.207039 
1718.000000	98.206036 
1717.000000	98.204662 
1716.000000	98.202274 
1715.000000	98.200056 
1714.000000	98.198783 
1713.000000	98.197753 
1712.000000	98.196343 
1711.000000	98.194820 
1710.000000	98.193606 
1709.000000	98.192444 
1708.000000	98.190831 
1707.000000	98.188899 
1706.000000	98.187072 
1705.000000	98.185142 
1704.000000	98.182807 
1703.000000	98.180469 
1702.000000	98.178626 
1701.000000	98.177103 
1700.000000	98.175048 
1699.000000	98.172506 
1698.000000	98.170105 
1697.000000	98.167835 
1696.000000	98.165554 
1695.000000	98.163290 
1694.000000	98.160948 
1693.000000	98.158363 
1692.000000	98.155575 
1691.000000	98.152792 
1690.000000	98.150172 
1689.000000	98.147666 
1688.000000	98.145094 
1687.000000	98.142323 
1686.000000	98.139305 
1685.000000	98.136021 
1684.000000	98.132831 
1683.000000	98.130138 
1682.000000	98.127349 
1681.000000	98.124445 
1680.000000	98.121952 
1679.000000	98.119826 
1678.000000	98.117439 
1677.000000	98.114821 
1676.000000	98.113039 
1675.000000	98.112327 
1674.000000	98.111216 
1673.000000	98.108826 
1672.000000	98.105312 
1671.000000	98.100906 
1670.000000	98.095679 
1669.000000	98.091113 
1668.000000	98.089204 
1667.000000	98.088840 
1666.000000	98.087484 
1665.000000	98.083911 
1664.000000	98.078951 
1663.000000	98.074654 
1662.000000	98.071065 
1661.000000	98.067370 
1660.000000	98.065073 
1659.000000	98.064613 
1658.000000	98.063689 
1657.000000	98.060761 
1656.000000	98.056896 
1655.000000	98.051991 
1654.000000	98.044342 
1653.000000	98.037177 
1652.000000	98.033986 
1651.000000	98.031916 
1650.000000	98.030312 
1649.000000	98.028636 
1648.000000	98.026951 
1647.000000	98.025411 
1646.000000	98.024053 
1645.000000	98.021872 
1644.000000	98.020055 
1643.000000	98.020906 
1642.000000	98.023810 
1641.000000	98.026388 
1640.000000	98.027765 
1639.000000	98.027880 
1638.000000	98.026506 
1637.000000	98.024004 
1636.000000	98.022973 
1635.000000	98.022718 
1634.000000	98.020134 
1633.000000	98.017392 
1632.000000	98.018442 
1631.000000	98.023449 
1630.000000	98.027995 
1629.000000	98.028133 
1628.000000	98.025641 
1627.000000	98.024183 
1626.000000	98.023669 
1625.000000	98.023504 
1624.000000	98.026162 
1623.000000	98.033023 
1622.000000	98.039875 
1621.000000	98.043659 
1620.000000	98.046550 
1619.000000	98.050454 
1618.000000	98.054235 
1617.000000	98.057068 
1616.000000	98.061301 
1615.000000	98.065870 
1614.000000	98.067865 
1613.000000	98.069296 
1612.000000	98.074233 
1611.000000	98.082401 
1610.000000	98.088499 
1609.000000	98.090590 
1608.000000	98.092648 
1607.000000	98.096711 
1606.000000	98.100059 
1605.000000	98.101577 
1604.000000	98.103670 
1603.000000	98.107339 
1602.000000	98.111115 
1601.000000	98.114528 
1600.000000	98.118495 
1599.000000	98.122448 
1598.000000	98.124823 
1597.000000	98.125998 
1596.000000	98.127980 
1595.000000	98.131433 
1594.000000	98.135004 
1593.000000	98.137916 
1592.000000	98.140955 
1591.000000	98.144506 
1590.000000	98.147731 
1589.000000	98.150285 
1588.000000	98.153068 
1587.000000	98.156593 
1586.000000	98.160075 
1585.000000	98.162967 
1584.000000	98.166062 
1583.000000	98.169785 
1582.000000	98.173145 
1581.000000	98.175702 
1580.000000	98.178266 
1579.000000	98.180757 
1578.000000	98.181783 
1577.000000	98.181571 
1576.000000	98.183087 
1575.000000	98.186491 
1574.000000	98.188495 
1573.000000	98.188708 
1572.000000	98.189088 
1571.000000	98.190942 
1570.000000	98.193670 
1569.000000	98.196898 
1568.000000	98.200993 
1567.000000	98.204336 
1566.000000	98.205554 
1565.000000	98.205832 
1564.000000	98.207065 
1563.000000	98.208496 
1562.000000	98.208123 
1561.000000	98.207655 
1560.000000	98.211922 
1559.000000	98.218440 
1558.000000	98.217247 
1557.000000	98.210269 
1556.000000	98.205689 
1555.000000	98.205039 
1554.000000	98.205180 
1553.000000	98.204200 
1552.000000	98.202846 
1551.000000	98.202563 
1550.000000	98.203713 
1549.000000	98.205005 
1548.000000	98.205177 
1547.000000	98.204168 
1546.000000	98.202055 
1545.000000	98.198654 
1544.000000	98.194939 
1543.000000	98.192656 
1542.000000	98.192103 
1541.000000	98.190759 
1540.000000	98.188641 
1539.000000	98.187560 
1538.000000	98.183887 
1537.000000	98.176446 
1536.000000	98.167590 
1535.000000	98.160297 
1534.000000	98.155770 
1533.000000	98.152872 
1532.000000	98.149916 
1531.000000	98.147282 
1530.000000	98.144909 
1529.000000	98.140518 
1528.000000	98.133239 
1527.000000	98.125772 
1526.000000	98.120593 
1525.000000	98.116115 
1524.000000	98.110215 
1523.000000	98.103801 
1522.000000	98.098579 
1521.000000	98.093404 
1520.000000	98.086322 
1519.000000	98.078528 
1518.000000	98.072280 
1517.000000	98.067831 
1516.000000	98.063718 
1515.000000	98.059108 
1514.000000	98.054810 
1513.000000	98.050862 
1512.000000	98.045197 
1511.000000	98.037456 
1510.000000	98.029726 
1509.000000	98.022635 
1508.000000	98.014353 
1507.000000	98.006160 
1506.000000	98.000703 
1505.000000	97.994496 
1504.000000	97.986684 
1503.000000	97.978752 
1502.000000	97.971248 
1501.000000	97.963771 
1500.000000	97.955530 
1499.000000	97.946833 
1498.000000	97.939607 
1497.000000	97.934486 
1496.000000	97.929649 
1495.000000	97.924060 
1494.000000	97.918442 
1493.000000	97.912921 
1492.000000	97.906578 
1491.000000	97.898835 
1490.000000	97.890378 
1489.000000	97.881881 
1488.000000	97.873339 
1487.000000	97.865488 
1486.000000	97.858569 
1485.000000	97.851701 
1484.000000	97.844523 
1483.000000	97.837418 
1482.000000	97.830769 
1481.000000	97.824170 
1480.000000	97.817060 
1479.000000	97.809984 
1478.000000	97.803788 
1477.000000	97.798023 
1476.000000	97.791528 
1475.000000	97.784813 
1474.000000	97.778602 
1473.000000	97.771912 
1472.000000	97.763430 
1471.000000	97.754384 
1470.000000	97.746604 
1469.000000	97.739717 
1468.000000	97.732255 
1467.000000	97.724413 
1466.000000	97.717717 
1465.000000	97.712269 
1464.000000	97.706537 
1463.000000	97.699550 
1462.000000	97.692298 
1461.000000	97.685256 
1460.000000	97.677543 
1459.000000	97.668361 
1458.000000	97.660293 
1457.000000	97.657341 
1456.000000	97.655480 
1455.000000	97.648942 
1454.000000	97.640140 
1453.000000	97.632504 
1452.000000	97.625903 
1451.000000	97.618746 
1450.000000	97.612009 
1449.000000	97.607277 
1448.000000	97.602616 
1447.000000	97.595915 
1446.000000	97.588120 
1445.000000	97.581515 
1444.000000	97.576421 
1443.000000	97.571095 
1442.000000	97.566130 
1441.000000	97.563834 
1440.000000	97.562909 
1439.000000	97.558924 
1438.000000	97.552793 
1437.000000	97.550146 
1436.000000	97.550997 
1435.000000	97.549851 
1434.000000	97.546727 
1433.000000	97.543962 
1432.000000	97.541368 
1431.000000	97.536643 
1430.000000	97.531419 
1429.000000	97.529872 
1428.000000	97.530478 
1427.000000	97.528586 
1426.000000	97.523592 
1425.000000	97.521324 
1424.000000	97.524604 
1423.000000	97.526904 
1422.000000	97.524246 
1421.000000	97.520985 
1420.000000	97.520660 
1419.000000	97.519109 
1418.000000	97.515389 
1417.000000	97.513045 
1416.000000	97.511098 
1415.000000	97.506708 
1414.000000	97.499654 
1413.000000	97.493141 
1412.000000	97.489246 
1411.000000	97.487031 
1410.000000	97.487112 
1409.000000	97.490863 
1408.000000	97.496240 
1407.000000	97.501079 
1406.000000	97.506986 
1405.000000	97.518387 
1404.000000	97.534799 
1403.000000	97.549877 
1402.000000	97.561615 
1401.000000	97.573686 
1400.000000	97.588190 
1399.000000	97.600746 
1398.000000	97.606147 
1397.000000	97.604382 
1396.000000	97.599180 
1395.000000	97.595968 
1394.000000	97.600868 
1393.000000	97.617570 
1392.000000	97.641793 
1391.000000	97.664714 
1390.000000	97.680649 
1389.000000	97.689725 
1388.000000	97.695143 
1387.000000	97.699713 
1386.000000	97.704888 
1385.000000	97.711852 
1384.000000	97.721143 
1383.000000	97.731434 
1382.000000	97.741214 
1381.000000	97.750547 
1380.000000	97.760822 
1379.000000	97.772321 
1378.000000	97.783429 
1377.000000	97.793311 
1376.000000	97.803466 
1375.000000	97.815687 
1374.000000	97.829632 
1373.000000	97.843499 
1372.000000	97.855686 
1371.000000	97.865877 
1370.000000	97.874638 
1369.000000	97.884335 
1368.000000	97.896845 
1367.000000	97.910313 
1366.000000	97.921251 
1365.000000	97.928604 
1364.000000	97.934650 
1363.000000	97.942800 
1362.000000	97.954225 
1361.000000	97.967135 
1360.000000	97.979393 
1359.000000	97.990210 
1358.000000	97.999830 
1357.000000	98.009431 
1356.000000	98.019865 
1355.000000	98.030162 
1354.000000	98.038637 
1353.000000	98.045150 
1352.000000	98.051449 
1351.000000	98.059530 
1350.000000	98.068344 
1349.000000	98.076259 
1348.000000	98.082683 
1347.000000	98.087505 
1346.000000	98.091560 
1345.000000	98.097185 
1344.000000	98.105641 
1343.000000	98.114519 
1342.000000	98.120085 
1341.000000	98.122152 
1340.000000	98.124236 
1339.000000	98.128406 
1338.000000	98.133331 
1337.000000	98.138029 
1336.000000	98.143279 
1335.000000	98.149347 
1334.000000	98.155495 
1333.000000	98.161739 
1332.000000	98.168286 
1331.000000	98.173131 
1330.000000	98.173304 
1329.000000	98.169465 
1328.000000	98.165995 
1327.000000	98.165717 
1326.000000	98.167248 
1325.000000	98.169329 
1324.000000	98.172608 
1323.000000	98.176638 
1322.000000	98.179100 
1321.000000	98.179081 
1320.000000	98.178480 
1319.000000	98.179448 
1318.000000	98.182465 
1317.000000	98.187100 
1316.000000	98.192676 
1315.000000	98.197750 
1314.000000	98.200978 
1313.000000	98.202776 
1312.000000	98.204634 
1311.000000	98.206891 
1310.000000	98.208840 
1309.000000	98.210629 
1308.000000	98.212968 
1307.000000	98.215224 
1306.000000	98.215411 
1305.000000	98.213427 
1304.000000	98.211377 
1303.000000	98.210661 
1302.000000	98.210461 
1301.000000	98.209572 
1300.000000	98.208096 
1299.000000	98.207013 
1298.000000	98.207338 
1297.000000	98.209631 
1296.000000	98.213333 
1295.000000	98.216318 
1294.000000	98.216569 
1293.000000	98.214448 
1292.000000	98.212326 
1291.000000	98.211952 
1290.000000	98.212899 
1289.000000	98.213567 
1288.000000	98.212895 
1287.000000	98.211007 
1286.000000	98.208896 
1285.000000	98.207590 
1284.000000	98.207399 
1283.000000	98.208079 
1282.000000	98.209433 
1281.000000	98.211060 
1280.000000	98.211922 
1279.000000	98.211062 
1278.000000	98.209273 
1277.000000	98.208631 
1276.000000	98.209884 
1275.000000	98.211410 
1274.000000	98.211618 
1273.000000	98.211109 
1272.000000	98.211457 
1271.000000	98.212981 
1270.000000	98.214821 
1269.000000	98.216118 
1268.000000	98.216056 
1267.000000	98.214003 
1266.000000	98.211028 
1265.000000	98.209572 
1264.000000	98.210487 
1263.000000	98.212176 
1262.000000	98.213473 
1261.000000	98.215024 
1260.000000	98.216580 
1259.000000	98.215376 
1258.000000	98.210083 
1257.000000	98.204021 
1256.000000	98.201697 
1255.000000	98.203629 
1254.000000	98.206932 
1253.000000	98.209525 
1252.000000	98.211222 
1251.000000	98.211776 
1250.000000	98.210828 
1249.000000	98.209501 
1248.000000	98.209702 
1247.000000	98.211897 
1246.000000	98.215197 
1245.000000	98.218453 
1244.000000	98.219860 
1243.000000	98.217344 
1242.000000	98.211475 
1241.000000	98.206516 
1240.000000	98.206149 
1239.000000	98.209218 
1238.000000	98.211792 
1237.000000	98.212107 
1236.000000	98.210946 
1235.000000	98.208287 
1234.000000	98.202715 
1233.000000	98.194298 
1232.000000	98.185591 
1231.000000	98.179220 
1230.000000	98.175623 
1229.000000	98.172749 
1228.000000	98.166906 
1227.000000	98.154852 
1226.000000	98.136777 
1225.000000	98.116791 
1224.000000	98.098988 
1223.000000	98.083493 
1222.000000	98.067681 
1221.000000	98.050242 
1220.000000	98.031875 
1219.000000	98.012413 
1218.000000	97.989735 
1217.000000	97.962052 
1216.000000	97.929718 
1215.000000	97.894309 
1214.000000	97.856924 
1213.000000	97.817768 
1212.000000	97.776564 
1211.000000	97.733083 
1210.000000	97.687531 
1209.000000	97.640458 
1208.000000	97.592351 
1207.000000	97.543773 
1206.000000	97.495821 
1205.000000	97.449314 
1204.000000	97.403081 
1203.000000	97.354107 
1202.000000	97.300365 
1201.000000	97.242837 
1200.000000	97.183833 
1199.000000	97.124273 
1198.000000	97.064148 
1197.000000	97.004799 
1196.000000	96.948391 
1195.000000	96.894731 
1194.000000	96.840307 
1193.000000	96.781495 
1192.000000	96.717525 
1191.000000	96.649721 
1190.000000	96.579339 
1189.000000	96.507191 
1188.000000	96.434060 
1187.000000	96.359897 
1186.000000	96.283327 
1185.000000	96.203472 
1184.000000	96.121875 
1183.000000	96.041091 
1182.000000	95.961387 
1181.000000	95.880278 
1180.000000	95.795532 
1179.000000	95.707366 
1178.000000	95.617621 
1177.000000	95.527828 
1176.000000	95.437956 
1175.000000	95.345853 
1174.000000	95.248117 
1173.000000	95.143228 
1172.000000	95.033889 
1171.000000	94.925010 
1170.000000	94.819573 
1169.000000	94.717880 
1168.000000	94.620605 
1167.000000	94.530894 
1166.000000	94.453746 
1165.000000	94.395144 
1164.000000	94.361060 
1163.000000	94.354345 
1162.000000	94.371605 
1161.000000	94.404318 
1160.000000	94.442408 
1159.000000	94.475337 
1158.000000	94.492185 
1157.000000	94.484756 
1156.000000	94.451233 
1155.000000	94.395820 
1154.000000	94.325602 
1153.000000	94.248347 
1152.000000	94.170845 
1151.000000	94.096009 
1150.000000	94.021924 
1149.000000	93.946150 
1148.000000	93.870230 
1147.000000	93.797580 
1146.000000	93.728212 
1145.000000	93.658852 
1144.000000	93.587567 
1143.000000	93.514809 
1142.000000	93.440542 
1141.000000	93.364044 
1140.000000	93.286593 
1139.000000	93.210951 
1138.000000	93.137780 
1137.000000	93.065180 
1136.000000	92.991627 
1135.000000	92.917015 
1134.000000	92.841599 
1133.000000	92.766476 
1132.000000	92.693643 
1131.000000	92.622596 
1130.000000	92.548866 
1129.000000	92.469679 
1128.000000	92.388723 
1127.000000	92.310754 
1126.000000	92.233761 
1125.000000	92.152285 
1124.000000	92.066778 
1123.000000	91.983044 
1122.000000	91.902987 
1121.000000	91.822755 
1120.000000	91.740588 
1119.000000	91.659695 
1118.000000	91.581825 
1117.000000	91.504337 
1116.000000	91.425548 
1115.000000	91.347345 
1114.000000	91.270752 
1113.000000	91.194374 
1112.000000	91.118558 
1111.000000	91.045495 
1110.000000	90.974465 
1109.000000	90.902637 
1108.000000	90.829912 
1107.000000	90.757499 
1106.000000	90.682550 
1105.000000	90.601555 
1104.000000	90.518521 
1103.000000	90.441371 
1102.000000	90.369867 
1101.000000	90.295836 
1100.000000	90.215261 
1099.000000	90.133803 
1098.000000	90.056062 
1097.000000	89.980137 
1096.000000	89.904224 
1095.000000	89.830372 
1094.000000	89.758792 
1093.000000	89.685787 
1092.000000	89.609906 
1091.000000	89.533552 
1090.000000	89.457254 
1089.000000	89.379748 
1088.000000	89.304783 
1087.000000	89.239445 
1086.000000	89.183631 
1085.000000	89.128931 
1084.000000	89.069570 
1083.000000	89.006851 
1082.000000	88.942081 
1081.000000	88.873826 
1080.000000	88.803556 
1079.000000	88.735272 
1078.000000	88.667884 
1077.000000	88.596399 
1076.000000	88.521475 
1075.000000	88.448268 
1074.000000	88.374773 
1073.000000	88.291401 
1072.000000	88.193096 
1071.000000	88.081123 
1070.000000	87.951878 
1069.000000	87.796588 
1068.000000	87.616486 
1067.000000	87.427848 
1066.000000	87.246058 
1065.000000	87.072308 
1064.000000	86.900340 
1063.000000	86.726052 
1062.000000	86.545261 
1061.000000	86.352551 
1060.000000	86.149526 
1059.000000	85.947169 
1058.000000	85.754428 
1057.000000	85.570065 
1056.000000	85.388382 
1055.000000	85.204941 
1054.000000	85.014448 
1053.000000	84.813033 
1052.000000	84.606711 
1051.000000	84.407712 
1050.000000	84.217779 
1049.000000	84.025685 
1048.000000	83.824930 
1047.000000	83.621912 
1046.000000	83.423790 
1045.000000	83.230703 
1044.000000	83.042352 
1043.000000	82.860216 
1042.000000	82.680539 
1041.000000	82.496400 
1040.000000	82.309958 
1039.000000	82.132235 
1038.000000	81.968265 
1037.000000	81.813049 
1036.000000	81.664063 
1035.000000	81.526068 
1034.000000	81.400905 
1033.000000	81.283683 
1032.000000	81.171434 
1031.000000	81.065283 
1030.000000	80.963515 
1029.000000	80.864166 
1028.000000	80.774908 
1027.000000	80.707303 
1026.000000	80.659567 
1025.000000	80.617154 
1024.000000	80.571181 
1023.000000	80.523590 
1022.000000	80.474542 
1021.000000	80.419441 
1020.000000	80.359700 
1019.000000	80.302241 
1018.000000	80.246222 
1017.000000	80.183502 
1016.000000	80.113799 
1015.000000	80.045993 
1014.000000	79.983235 
1013.000000	79.920573 
1012.000000	79.858561 
1011.000000	79.804690 
1010.000000	79.759185 
1009.000000	79.713547 
1008.000000	79.665854 
1007.000000	79.624208 
1006.000000	79.592874 
1005.000000	79.568172 
1004.000000	79.549764 
1003.000000	79.542674 
1002.000000	79.546126 
1001.000000	79.553327 
1000.000000	79.563836 
999.000000	 79.583446 
998.000000	 79.611065 
997.000000	 79.638860 
996.000000	 79.666003 
995.000000	 79.698736 
994.000000	 79.736422 
993.000000	 79.771693 
992.000000	 79.805317 
991.000000	 79.846801 
990.000000	 79.898890 
989.000000	 79.954829 
988.000000	 80.011766 
987.000000	 80.073444 
986.000000	 80.139205 
985.000000	 80.204287 
984.000000	 80.271662 
983.000000	 80.349734 
982.000000	 80.437989 
981.000000	 80.528817 
980.000000	 80.623590 
979.000000	 80.732297 
978.000000	 80.856565 
977.000000	 80.987476 
976.000000	 81.120814 
975.000000	 81.260150 
974.000000	 81.404282 
973.000000	 81.546749 
972.000000	 81.689391 
971.000000	 81.841911 
970.000000	 82.006076 
969.000000	 82.173654 
968.000000	 82.340960 
967.000000	 82.511827 
966.000000	 82.685258 
965.000000	 82.854370 
964.000000	 83.019470 
963.000000	 83.188673 
962.000000	 83.363428 
961.000000	 83.535867 
960.000000	 83.702027 
959.000000	 83.865404 
958.000000	 84.026456 
957.000000	 84.181319 
956.000000	 84.332322 
955.000000	 84.486999 
954.000000	 84.644361 
953.000000	 84.794073 
952.000000	 84.931531 
951.000000	 85.062693 
950.000000	 85.192575 
949.000000	 85.319783 
948.000000	 85.443825 
947.000000	 85.566915 
946.000000	 85.686706 
945.000000	 85.797098 
944.000000	 85.897613 
943.000000	 85.993236 
942.000000	 86.085344 
941.000000	 86.172094 
940.000000	 86.256692 
939.000000	 86.344793 
938.000000	 86.434492 
937.000000	 86.519653 
936.000000	 86.602209 
935.000000	 86.690194 
934.000000	 86.784639 
933.000000	 86.879897 
932.000000	 86.975613 
931.000000	 87.075777 
930.000000	 87.176688 
929.000000	 87.269010 
928.000000	 87.352256 
927.000000	 87.434924 
926.000000	 87.519913 
925.000000	 87.602008 
924.000000	 87.679832 
923.000000	 87.756989 
922.000000	 87.830376 
921.000000	 87.890991 
920.000000	 87.938945 
919.000000	 87.985450 
918.000000	 88.037317 
917.000000	 88.090886 
916.000000	 88.143069 
915.000000	 88.196180 
914.000000	 88.249749 
913.000000	 88.300681 
912.000000	 88.355516 
911.000000	 88.430208 
910.000000	 88.532813 
909.000000	 88.656355 
908.000000	 88.791838 
907.000000	 88.937853 
906.000000	 89.093866 
905.000000	 89.255145 
904.000000	 89.419580 
903.000000	 89.591196 
902.000000	 89.772709 
901.000000	 89.960877 
900.000000	 90.150806 
899.000000	 90.338879 
898.000000	 90.521404 
897.000000	 90.697631 
896.000000	 90.872542 
895.000000	 91.049712 
894.000000	 91.223893 
893.000000	 91.388676 
892.000000	 91.547899 
891.000000	 91.709389 
890.000000	 91.870092 
889.000000	 92.018585 
888.000000	 92.150837 
887.000000	 92.272558 
886.000000	 92.387196 
885.000000	 92.492729 
884.000000	 92.590134 
883.000000	 92.683827 
882.000000	 92.773187 
881.000000	 92.854718 
880.000000	 92.933197 
879.000000	 93.019118 
878.000000	 93.113670 
877.000000	 93.207964 
876.000000	 93.298750 
875.000000	 93.393060 
874.000000	 93.495874 
873.000000	 93.605366 
872.000000	 93.722244 
871.000000	 93.851661 
870.000000	 93.993130 
869.000000	 94.139524 
868.000000	 94.288354 
867.000000	 94.443548 
866.000000	 94.603820 
865.000000	 94.759598 
864.000000	 94.905068 
863.000000	 95.044992 
862.000000	 95.186751 
861.000000	 95.332872 
860.000000	 95.483424 
859.000000	 95.637653 
858.000000	 95.789791 
857.000000	 95.929977 
856.000000	 96.053330 
855.000000	 96.164394 
854.000000	 96.270976 
853.000000	 96.376898 
852.000000	 96.481051 
851.000000	 96.579366 
850.000000	 96.667596 
849.000000	 96.746082 
848.000000	 96.820967 
847.000000	 96.896839 
846.000000	 96.970126 
845.000000	 97.034496 
844.000000	 97.089843 
843.000000	 97.139800 
842.000000	 97.183344 
841.000000	 97.216745 
840.000000	 97.242187 
839.000000	 97.266122 
838.000000	 97.289115 
837.000000	 97.304889 
836.000000	 97.310243 
835.000000	 97.309348 
834.000000	 97.307729 
833.000000	 97.308286 
832.000000	 97.313489 
831.000000	 97.324644 
830.000000	 97.338215 
829.000000	 97.349941 
828.000000	 97.363774 
827.000000	 97.389687 
826.000000	 97.431145 
825.000000	 97.481615 
824.000000	 97.533792 
823.000000	 97.583696 
822.000000	 97.625879 
821.000000	 97.655015 
820.000000	 97.673582 
819.000000	 97.689730 
818.000000	 97.706676 
817.000000	 97.720291 
816.000000	 97.725898 
815.000000	 97.719559 
814.000000	 97.692134 
813.000000	 97.629638 
812.000000	 97.521935 
811.000000	 97.366577 
810.000000	 97.164290 
809.000000	 96.916909 
808.000000	 96.630165 
807.000000	 96.311102 
806.000000	 95.960735 
805.000000	 95.577559 
804.000000	 95.172237 
803.000000	 94.770990 
802.000000	 94.399723 
801.000000	 94.071690 
800.000000	 93.793881 
799.000000	 93.574740 
798.000000	 93.418850 
797.000000	 93.321906 
796.000000	 93.275745 
795.000000	 93.271204 
794.000000	 93.294282 
793.000000	 93.329214 
792.000000	 93.368235 
791.000000	 93.409877 
790.000000	 93.446418 
789.000000	 93.462679 
788.000000	 93.449224 
787.000000	 93.407600 
786.000000	 93.340855 
785.000000	 93.248711 
784.000000	 93.135072 
783.000000	 93.010669 
782.000000	 92.884031 
781.000000	 92.757769 
780.000000	 92.637641 
779.000000	 92.537681 
778.000000	 92.472545 
777.000000	 92.450729 
776.000000	 92.475487 
775.000000	 92.542802 
774.000000	 92.636738 
773.000000	 92.736824 
772.000000	 92.833269 
771.000000	 92.928062 
770.000000	 93.021444 
769.000000	 93.106226 
768.000000	 93.176102 
767.000000	 93.231100 
766.000000	 93.274101 
765.000000	 93.309717 
764.000000	 93.346399 
763.000000	 93.391472 
762.000000	 93.443591 
761.000000	 93.497019 
760.000000	 93.551922 
759.000000	 93.612615 
758.000000	 93.678222 
757.000000	 93.744395 
756.000000	 93.811839 
755.000000	 93.883507 
754.000000	 93.956436 
753.000000	 94.026743 
752.000000	 94.098842 
751.000000	 94.177787 
750.000000	 94.255711 
749.000000	 94.319385 
748.000000	 94.369991 
747.000000	 94.422195 
746.000000	 94.484052 
745.000000	 94.551202 
744.000000	 94.621597 
743.000000	 94.702276 
742.000000	 94.798806 
741.000000	 94.909278 
740.000000	 95.030124 
739.000000	 95.157114 
738.000000	 95.280365 
737.000000	 95.389968 
736.000000	 95.487803 
735.000000	 95.583206 
734.000000	 95.676271 
733.000000	 95.756140 
732.000000	 95.816330 
731.000000	 95.861496 
730.000000	 95.898653 
729.000000	 95.931960 
728.000000	 95.966842 
727.000000	 96.008795 
726.000000	 96.056369 
725.000000	 96.103797 
724.000000	 96.151012 
723.000000	 96.202958 
722.000000	 96.260432 
721.000000	 96.321210 
720.000000	 96.388650 
719.000000	 96.467506 
718.000000	 96.551365 
717.000000	 96.626518 
716.000000	 96.688742 
715.000000	 96.745620 
714.000000	 96.802329 
713.000000	 96.856137 
712.000000	 96.906141 
711.000000	 96.957627 
710.000000	 97.014281 
709.000000	 97.074359 
708.000000	 97.134516 
707.000000	 97.188228 
706.000000	 97.222310 
705.000000	 97.226212 
704.000000	 97.203874 
703.000000	 97.164825 
702.000000	 97.103901 
701.000000	 97.002616 
700.000000	 96.851980 
699.000000	 96.661425 
698.000000	 96.446165 
697.000000	 96.222511 
696.000000	 96.018700 
695.000000	 95.872201 
694.000000	 95.805401 
693.000000	 95.812978 
692.000000	 95.876490 
691.000000	 95.980154 
690.000000	 96.110239 
689.000000	 96.251856 
688.000000	 96.393020 
687.000000	 96.525255 
686.000000	 96.638567 
685.000000	 96.726758 
684.000000	 96.799109 
683.000000	 96.872952 
682.000000	 96.952334 
681.000000	 97.025786 
680.000000	 97.086762 
679.000000	 97.142591 
678.000000	 97.199166 
677.000000	 97.251128 
676.000000	 97.292756 
675.000000	 97.325762 
674.000000	 97.353854 
673.000000	 97.380140 
672.000000	 97.410922 
671.000000	 97.452804 
670.000000	 97.508569 
669.000000	 97.579274 
668.000000	 97.667665 
667.000000	 97.766956 
666.000000	 97.848204 
665.000000	 97.899272 
664.000000	 97.941757 
663.000000	 97.996594 
662.000000	 98.062299 
661.000000	 98.122981 
660.000000	 98.175571 
659.000000	 98.228810 
658.000000	 98.278623 
657.000000	 98.308467 
656.000000	 98.314120 
655.000000	 98.305946 
654.000000	 98.286698 
653.000000	 98.247275 
652.000000	 98.190019 
651.000000	 98.140213 
650.000000	 98.124365 

