4000.000000	99.726833 
3999.000000	99.725569 
3998.000000	99.724585 
3997.000000	99.724085 
3996.000000	99.724268 
3995.000000	99.725137 
3994.000000	99.726305 
3993.000000	99.727162 
3992.000000	99.727342 
3991.000000	99.726874 
3990.000000	99.726133 
3989.000000	99.725598 
3988.000000	99.725436 
3987.000000	99.725279 
3986.000000	99.724597 
3985.000000	99.723285 
3984.000000	99.721840 
3983.000000	99.720891 
3982.000000	99.720640 
3981.000000	99.720794 
3980.000000	99.720870 
3979.000000	99.720591 
3978.000000	99.720011 
3977.000000	99.719295 
3976.000000	99.718425 
3975.000000	99.717187 
3974.000000	99.715496 
3973.000000	99.713636 
3972.000000	99.712068 
3971.000000	99.711044 
3970.000000	99.710543 
3969.000000	99.710543 
3968.000000	99.711068 
3967.000000	99.711925 
3966.000000	99.712655 
3965.000000	99.712866 
3964.000000	99.712551 
3963.000000	99.712040 
3962.000000	99.711688 
3961.000000	99.711582 
3960.000000	99.711516 
3959.000000	99.711139 
3958.000000	99.710181 
3957.000000	99.708740 
3956.000000	99.707319 
3955.000000	99.706456 
3954.000000	99.706346 
3953.000000	99.706703 
3952.000000	99.706937 
3951.000000	99.706574 
3950.000000	99.705693 
3949.000000	99.704957 
3948.000000	99.704886 
3947.000000	99.705138 
3946.000000	99.704789 
3945.000000	99.703230 
3944.000000	99.700645 
3943.000000	99.697889 
3942.000000	99.695908 
3941.000000	99.695089 
3940.000000	99.695161 
3939.000000	99.695578 
3938.000000	99.695949 
3937.000000	99.696198 
3936.000000	99.696460 
3935.000000	99.696838 
3934.000000	99.697328 
3933.000000	99.697772 
3932.000000	99.697847 
3931.000000	99.697169 
3930.000000	99.695594 
3929.000000	99.693472 
3928.000000	99.691427 
3927.000000	99.689973 
3926.000000	99.689348 
3925.000000	99.689429 
3924.000000	99.690038 
3923.000000	99.691007 
3922.000000	99.691909 
3921.000000	99.692324 
3920.000000	99.692224 
3919.000000	99.691933 
3918.000000	99.691712 
3917.000000	99.691489 
3916.000000	99.691107 
3915.000000	99.690563 
3914.000000	99.689970 
3913.000000	99.689424 
3912.000000	99.688983 
3911.000000	99.688705 
3910.000000	99.688581 
3909.000000	99.688515 
3908.000000	99.688422 
3907.000000	99.688236 
3906.000000	99.687938 
3905.000000	99.687549 
3904.000000	99.687122 
3903.000000	99.686709 
3902.000000	99.686313 
3901.000000	99.685932 
3900.000000	99.685576 
3899.000000	99.685243 
3898.000000	99.684913 
3897.000000	99.684564 
3896.000000	99.684184 
3895.000000	99.683772 
3894.000000	99.683328 
3893.000000	99.682855 
3892.000000	99.682360 
3891.000000	99.681851 
3890.000000	99.681334 
3889.000000	99.680819 
3888.000000	99.680313 
3887.000000	99.679820 
3886.000000	99.679340 
3885.000000	99.678862 
3884.000000	99.678374 
3883.000000	99.677867 
3882.000000	99.677344 
3881.000000	99.676817 
3880.000000	99.676300 
3879.000000	99.675796 
3878.000000	99.675298 
3877.000000	99.674800 
3876.000000	99.674287 
3875.000000	99.673743 
3874.000000	99.673165 
3873.000000	99.672565 
3872.000000	99.671965 
3871.000000	99.671393 
3870.000000	99.670863 
3869.000000	99.670372 
3868.000000	99.669888 
3867.000000	99.669357 
3866.000000	99.668736 
3865.000000	99.668057 
3864.000000	99.667463 
3863.000000	99.667060 
3862.000000	99.666764 
3861.000000	99.666455 
3860.000000	99.666168 
3859.000000	99.665915 
3858.000000	99.665583 
3857.000000	99.665062 
3856.000000	99.664479 
3855.000000	99.663993 
3854.000000	99.663364 
3853.000000	99.662507 
3852.000000	99.661861 
3851.000000	99.661536 
3850.000000	99.661266 
3849.000000	99.661022 
3848.000000	99.661006 
3847.000000	99.661351 
3846.000000	99.661844 
3845.000000	99.662113 
3844.000000	99.662092 
3843.000000	99.661878 
3842.000000	99.661452 
3841.000000	99.660917 
3840.000000	99.660565 
3839.000000	99.660549 
3838.000000	99.660735 
3837.000000	99.660684 
3836.000000	99.660117 
3835.000000	99.659086 
3834.000000	99.657884 
3833.000000	99.656931 
3832.000000	99.656449 
3831.000000	99.656364 
3830.000000	99.656403 
3829.000000	99.656263 
3828.000000	99.655905 
3827.000000	99.655525 
3826.000000	99.655234 
3825.000000	99.654959 
3824.000000	99.654594 
3823.000000	99.654064 
3822.000000	99.653401 
3821.000000	99.652773 
3820.000000	99.652326 
3819.000000	99.651947 
3818.000000	99.651444 
3817.000000	99.650797 
3816.000000	99.650112 
3815.000000	99.649470 
3814.000000	99.648859 
3813.000000	99.648226 
3812.000000	99.647560 
3811.000000	99.646935 
3810.000000	99.646415 
3809.000000	99.645958 
3808.000000	99.645479 
3807.000000	99.644951 
3806.000000	99.644412 
3805.000000	99.643836 
3804.000000	99.643099 
3803.000000	99.642187 
3802.000000	99.641272 
3801.000000	99.640515 
3800.000000	99.639898 
3799.000000	99.639210 
3798.000000	99.638301 
3797.000000	99.637326 
3796.000000	99.636577 
3795.000000	99.636100 
3794.000000	99.635657 
3793.000000	99.635009 
3792.000000	99.634190 
3791.000000	99.633523 
3790.000000	99.633269 
3789.000000	99.633251 
3788.000000	99.632997 
3787.000000	99.632271 
3786.000000	99.631246 
3785.000000	99.630295 
3784.000000	99.629641 
3783.000000	99.629269 
3782.000000	99.628985 
3781.000000	99.628534 
3780.000000	99.627859 
3779.000000	99.627236 
3778.000000	99.626836 
3777.000000	99.626497 
3776.000000	99.626190 
3775.000000	99.626031 
3774.000000	99.626058 
3773.000000	99.626216 
3772.000000	99.626588 
3771.000000	99.627153 
3770.000000	99.627595 
3769.000000	99.627655 
3768.000000	99.627167 
3767.000000	99.626204 
3766.000000	99.625478 
3765.000000	99.625666 
3764.000000	99.626704 
3763.000000	99.627906 
3762.000000	99.628482 
3761.000000	99.628147 
3760.000000	99.627319 
3759.000000	99.626965 
3758.000000	99.627443 
3757.000000	99.627860 
3756.000000	99.627792 
3755.000000	99.627892 
3754.000000	99.628904 
3753.000000	99.630773 
3752.000000	99.632794 
3751.000000	99.634731 
3750.000000	99.636313 
3749.000000	99.636365 
3748.000000	99.634102 
3747.000000	99.630518 
3746.000000	99.627830 
3745.000000	99.626518 
3744.000000	99.625576 
3743.000000	99.624920 
3742.000000	99.624413 
3741.000000	99.623412 
3740.000000	99.622319 
3739.000000	99.622832 
3738.000000	99.625778 
3737.000000	99.628862 
3736.000000	99.629421 
3735.000000	99.627496 
3734.000000	99.624898 
3733.000000	99.622643 
3732.000000	99.621025 
3731.000000	99.620757 
3730.000000	99.621563 
3729.000000	99.621901 
3728.000000	99.620882 
3727.000000	99.619231 
3726.000000	99.618389 
3725.000000	99.618846 
3724.000000	99.619605 
3723.000000	99.619326 
3722.000000	99.617775 
3721.000000	99.615908 
3720.000000	99.614490 
3719.000000	99.614619 
3718.000000	99.617425 
3717.000000	99.622021 
3716.000000	99.626675 
3715.000000	99.630662 
3714.000000	99.634384 
3713.000000	99.637783 
3712.000000	99.639384 
3711.000000	99.638151 
3710.000000	99.634704 
3709.000000	99.630887 
3708.000000	99.628555 
3707.000000	99.628209 
3706.000000	99.629418 
3705.000000	99.631855 
3704.000000	99.635424 
3703.000000	99.639903 
3702.000000	99.644777 
3701.000000	99.649432 
3700.000000	99.653070 
3699.000000	99.655249 
3698.000000	99.657075 
3697.000000	99.660037 
3696.000000	99.664545 
3695.000000	99.669883 
3694.000000	99.674331 
3693.000000	99.676422 
3692.000000	99.676582 
3691.000000	99.676857 
3690.000000	99.678427 
3689.000000	99.680617 
3688.000000	99.682161 
3687.000000	99.682093 
3686.000000	99.680682 
3685.000000	99.679101 
3684.000000	99.678376 
3683.000000	99.678612 
3682.000000	99.679051 
3681.000000	99.678705 
3680.000000	99.678020 
3679.000000	99.679378 
3678.000000	99.685476 
3677.000000	99.695187 
3676.000000	99.701582 
3675.000000	99.701326 
3674.000000	99.697306 
3673.000000	99.691276 
3672.000000	99.683618 
3671.000000	99.675809 
3670.000000	99.669287 
3669.000000	99.664558 
3668.000000	99.660991 
3667.000000	99.657945 
3666.000000	99.657214 
3665.000000	99.660946 
3664.000000	99.667471 
3663.000000	99.672192 
3662.000000	99.671759 
3661.000000	99.666245 
3660.000000	99.658395 
3659.000000	99.650604 
3658.000000	99.643529 
3657.000000	99.637115 
3656.000000	99.631915 
3655.000000	99.628587 
3654.000000	99.625507 
3653.000000	99.620194 
3652.000000	99.612557 
3651.000000	99.604709 
3650.000000	99.597931 
3649.000000	99.591028 
3648.000000	99.582768 
3647.000000	99.574091 
3646.000000	99.566996 
3645.000000	99.562166 
3644.000000	99.558700 
3643.000000	99.555940 
3642.000000	99.553291 
3641.000000	99.549580 
3640.000000	99.544040 
3639.000000	99.537346 
3638.000000	99.531340 
3637.000000	99.527085 
3636.000000	99.524080 
3635.000000	99.521362 
3634.000000	99.518686 
3633.000000	99.516524 
3632.000000	99.514641 
3631.000000	99.511665 
3630.000000	99.505860 
3629.000000	99.497860 
3628.000000	99.491621 
3627.000000	99.489321 
3626.000000	99.488968 
3625.000000	99.488709 
3624.000000	99.488389 
3623.000000	99.487365 
3622.000000	99.484228 
3621.000000	99.478124 
3620.000000	99.470115 
3619.000000	99.463167 
3618.000000	99.459462 
3617.000000	99.458243 
3616.000000	99.458168 
3615.000000	99.459101 
3614.000000	99.461403 
3613.000000	99.465210 
3612.000000	99.470000 
3611.000000	99.474363 
3610.000000	99.476821 
3609.000000	99.476892 
3608.000000	99.475322 
3607.000000	99.473174 
3606.000000	99.470340 
3605.000000	99.466093 
3604.000000	99.460616 
3603.000000	99.454973 
3602.000000	99.450523 
3601.000000	99.448228 
3600.000000	99.448424 
3599.000000	99.450605 
3598.000000	99.453057 
3597.000000	99.453524 
3596.000000	99.451399 
3595.000000	99.448372 
3594.000000	99.446763 
3593.000000	99.447435 
3592.000000	99.449003 
3591.000000	99.449448 
3590.000000	99.448008 
3589.000000	99.445391 
3588.000000	99.442812 
3587.000000	99.441058 
3586.000000	99.439848 
3585.000000	99.438501 
3584.000000	99.437058 
3583.000000	99.436100 
3582.000000	99.435821 
3581.000000	99.435747 
3580.000000	99.435361 
3579.000000	99.434721 
3578.000000	99.434251 
3577.000000	99.434153 
3576.000000	99.434197 
3575.000000	99.434043 
3574.000000	99.433477 
3573.000000	99.432549 
3572.000000	99.431492 
3571.000000	99.430561 
3570.000000	99.429940 
3569.000000	99.429550 
3568.000000	99.428942 
3567.000000	99.427765 
3566.000000	99.426188 
3565.000000	99.424640 
3564.000000	99.423382 
3563.000000	99.422371 
3562.000000	99.421329 
3561.000000	99.420043 
3560.000000	99.418595 
3559.000000	99.417278 
3558.000000	99.416238 
3557.000000	99.415334 
3556.000000	99.414368 
3555.000000	99.413370 
3554.000000	99.412529 
3553.000000	99.411872 
3552.000000	99.411191 
3551.000000	99.410277 
3550.000000	99.409156 
3549.000000	99.408059 
3548.000000	99.407134 
3547.000000	99.406274 
3546.000000	99.405211 
3545.000000	99.403817 
3544.000000	99.402256 
3543.000000	99.400873 
3542.000000	99.399870 
3541.000000	99.399172 
3540.000000	99.398501 
3539.000000	99.397598 
3538.000000	99.396432 
3537.000000	99.395164 
3536.000000	99.394016 
3535.000000	99.393103 
3534.000000	99.392408 
3533.000000	99.391849 
3532.000000	99.391293 
3531.000000	99.390535 
3530.000000	99.389399 
3529.000000	99.387997 
3528.000000	99.386757 
3527.000000	99.385979 
3526.000000	99.385409 
3525.000000	99.384443 
3524.000000	99.382789 
3523.000000	99.380787 
3522.000000	99.378993 
3521.000000	99.377598 
3520.000000	99.376438 
3519.000000	99.375351 
3518.000000	99.374273 
3517.000000	99.373044 
3516.000000	99.371515 
3515.000000	99.369908 
3514.000000	99.368839 
3513.000000	99.368766 
3512.000000	99.369479 
3511.000000	99.370234 
3510.000000	99.370478 
3509.000000	99.370188 
3508.000000	99.369491 
3507.000000	99.368349 
3506.000000	99.366760 
3505.000000	99.365039 
3504.000000	99.363607 
3503.000000	99.362565 
3502.000000	99.361671 
3501.000000	99.360722 
3500.000000	99.359757 
3499.000000	99.358940 
3498.000000	99.358504 
3497.000000	99.358727 
3496.000000	99.359588 
3495.000000	99.360330 
3494.000000	99.359775 
3493.000000	99.357351 
3492.000000	99.353613 
3491.000000	99.349767 
3490.000000	99.346728 
3489.000000	99.344723 
3488.000000	99.343490 
3487.000000	99.342531 
3486.000000	99.341327 
3485.000000	99.339637 
3484.000000	99.337708 
3483.000000	99.336040 
3482.000000	99.334883 
3481.000000	99.334002 
3480.000000	99.332945 
3479.000000	99.331539 
3478.000000	99.330056 
3477.000000	99.328887 
3476.000000	99.328072 
3475.000000	99.327209 
3474.000000	99.325899 
3473.000000	99.324176 
3472.000000	99.322426 
3471.000000	99.320934 
3470.000000	99.319674 
3469.000000	99.318507 
3468.000000	99.317328 
3467.000000	99.315958 
3466.000000	99.314156 
3465.000000	99.311930 
3464.000000	99.309762 
3463.000000	99.308221 
3462.000000	99.307372 
3461.000000	99.306728 
3460.000000	99.305788 
3459.000000	99.304581 
3458.000000	99.303469 
3457.000000	99.302634 
3456.000000	99.301905 
3455.000000	99.301008 
3454.000000	99.299876 
3453.000000	99.298651 
3452.000000	99.297471 
3451.000000	99.296337 
3450.000000	99.295177 
3449.000000	99.293987 
3448.000000	99.292891 
3447.000000	99.292011 
3446.000000	99.291301 
3445.000000	99.290568 
3444.000000	99.289679 
3443.000000	99.288682 
3442.000000	99.287722 
3441.000000	99.286884 
3440.000000	99.286134 
3439.000000	99.285363 
3438.000000	99.284467 
3437.000000	99.283424 
3436.000000	99.282331 
3435.000000	99.281348 
3434.000000	99.280568 
3433.000000	99.279953 
3432.000000	99.279408 
3431.000000	99.278890 
3430.000000	99.278388 
3429.000000	99.277843 
3428.000000	99.277158 
3427.000000	99.276307 
3426.000000	99.275372 
3425.000000	99.274447 
3424.000000	99.273574 
3423.000000	99.272772 
3422.000000	99.272080 
3421.000000	99.271517 
3420.000000	99.271031 
3419.000000	99.270503 
3418.000000	99.269855 
3417.000000	99.269137 
3416.000000	99.268481 
3415.000000	99.267981 
3414.000000	99.267632 
3413.000000	99.267359 
3412.000000	99.267055 
3411.000000	99.266594 
3410.000000	99.265902 
3409.000000	99.265034 
3408.000000	99.264148 
3407.000000	99.263324 
3406.000000	99.262485 
3405.000000	99.261563 
3404.000000	99.260704 
3403.000000	99.260128 
3402.000000	99.259799 
3401.000000	99.259443 
3400.000000	99.258965 
3399.000000	99.258571 
3398.000000	99.258395 
3397.000000	99.258197 
3396.000000	99.257627 
3395.000000	99.256710 
3394.000000	99.255887 
3393.000000	99.255518 
3392.000000	99.255475 
3391.000000	99.255280 
3390.000000	99.254608 
3389.000000	99.253533 
3388.000000	99.252372 
3387.000000	99.251420 
3386.000000	99.250883 
3385.000000	99.250893 
3384.000000	99.251427 
3383.000000	99.252200 
3382.000000	99.252811 
3381.000000	99.253038 
3380.000000	99.252888 
3379.000000	99.252390 
3378.000000	99.251482 
3377.000000	99.250182 
3376.000000	99.248691 
3375.000000	99.247282 
3374.000000	99.246178 
3373.000000	99.245557 
3372.000000	99.245472 
3371.000000	99.245643 
3370.000000	99.245539 
3369.000000	99.244843 
3368.000000	99.243727 
3367.000000	99.242515 
3366.000000	99.241320 
3365.000000	99.240249 
3364.000000	99.239782 
3363.000000	99.240435 
3362.000000	99.241995 
3361.000000	99.243435 
3360.000000	99.243886 
3359.000000	99.243422 
3358.000000	99.242759 
3357.000000	99.242406 
3356.000000	99.242325 
3355.000000	99.242292 
3354.000000	99.242257 
3353.000000	99.242276 
3352.000000	99.242319 
3351.000000	99.242270 
3350.000000	99.242112 
3349.000000	99.242047 
3348.000000	99.242401 
3347.000000	99.243313 
3346.000000	99.244497 
3345.000000	99.245345 
3344.000000	99.245366 
3343.000000	99.244531 
3342.000000	99.243186 
3341.000000	99.241762 
3340.000000	99.240626 
3339.000000	99.240081 
3338.000000	99.240284 
3337.000000	99.241115 
3336.000000	99.242183 
3335.000000	99.243037 
3334.000000	99.243371 
3333.000000	99.243060 
3332.000000	99.242113 
3331.000000	99.240657 
3330.000000	99.238938 
3329.000000	99.237308 
3328.000000	99.236191 
3327.000000	99.235930 
3326.000000	99.236532 
3325.000000	99.237506 
3324.000000	99.238118 
3323.000000	99.238010 
3322.000000	99.237579 
3321.000000	99.237696 
3320.000000	99.238958 
3319.000000	99.241194 
3318.000000	99.243611 
3317.000000	99.245347 
3316.000000	99.246032 
3315.000000	99.245944 
3314.000000	99.245743 
3313.000000	99.245970 
3312.000000	99.246621 
3311.000000	99.247187 
3310.000000	99.247217 
3309.000000	99.246785 
3308.000000	99.246352 
3307.000000	99.246175 
3306.000000	99.245999 
3305.000000	99.245397 
3304.000000	99.244326 
3303.000000	99.243281 
3302.000000	99.242911 
3301.000000	99.243475 
3300.000000	99.244648 
3299.000000	99.245740 
3298.000000	99.246208 
3297.000000	99.246018 
3296.000000	99.245548 
3295.000000	99.245215 
3294.000000	99.245185 
3293.000000	99.245385 
3292.000000	99.245653 
3291.000000	99.245847 
3290.000000	99.245925 
3289.000000	99.245991 
3288.000000	99.246201 
3287.000000	99.246562 
3286.000000	99.246880 
3285.000000	99.246967 
3284.000000	99.246870 
3283.000000	99.246837 
3282.000000	99.247053 
3281.000000	99.247469 
3280.000000	99.247886 
3279.000000	99.248197 
3278.000000	99.248500 
3277.000000	99.248942 
3276.000000	99.249459 
3275.000000	99.249733 
3274.000000	99.249477 
3273.000000	99.248728 
3272.000000	99.247864 
3271.000000	99.247294 
3270.000000	99.247207 
3269.000000	99.247606 
3268.000000	99.248404 
3267.000000	99.249423 
3266.000000	99.250391 
3265.000000	99.251084 
3264.000000	99.251433 
3263.000000	99.251459 
3262.000000	99.251169 
3261.000000	99.250607 
3260.000000	99.249987 
3259.000000	99.249595 
3258.000000	99.249566 
3257.000000	99.249865 
3256.000000	99.250426 
3255.000000	99.251155 
3254.000000	99.251856 
3253.000000	99.252389 
3252.000000	99.252889 
3251.000000	99.253612 
3250.000000	99.254535 
3249.000000	99.255337 
3248.000000	99.255807 
3247.000000	99.256081 
3246.000000	99.256387 
3245.000000	99.256721 
3244.000000	99.256933 
3243.000000	99.256996 
3242.000000	99.257038 
3241.000000	99.257159 
3240.000000	99.257387 
3239.000000	99.257808 
3238.000000	99.258576 
3237.000000	99.259728 
3236.000000	99.261010 
3235.000000	99.261974 
3234.000000	99.262279 
3233.000000	99.261895 
3232.000000	99.261099 
3231.000000	99.260321 
3230.000000	99.259887 
3229.000000	99.259867 
3228.000000	99.260102 
3227.000000	99.260387 
3226.000000	99.260689 
3225.000000	99.261194 
3224.000000	99.262089 
3223.000000	99.263252 
3222.000000	99.264176 
3221.000000	99.264347 
3220.000000	99.263688 
3219.000000	99.262626 
3218.000000	99.261771 
3217.000000	99.261436 
3216.000000	99.261533 
3215.000000	99.261802 
3214.000000	99.262063 
3213.000000	99.262317 
3212.000000	99.262667 
3211.000000	99.263163 
3210.000000	99.263652 
3209.000000	99.263777 
3208.000000	99.263203 
3207.000000	99.261903 
3206.000000	99.260309 
3205.000000	99.259117 
3204.000000	99.258781 
3203.000000	99.259237 
3202.000000	99.260019 
3201.000000	99.260678 
3200.000000	99.261088 
3199.000000	99.261308 
3198.000000	99.261319 
3197.000000	99.261015 
3196.000000	99.260432 
3195.000000	99.259826 
3194.000000	99.259475 
3193.000000	99.259417 
3192.000000	99.259464 
3191.000000	99.259446 
3190.000000	99.259422 
3189.000000	99.259635 
3188.000000	99.260226 
3187.000000	99.260986 
3186.000000	99.261468 
3185.000000	99.261452 
3184.000000	99.261263 
3183.000000	99.261503 
3182.000000	99.262406 
3181.000000	99.263545 
3180.000000	99.264217 
3179.000000	99.264128 
3178.000000	99.263593 
3177.000000	99.263218 
3176.000000	99.263403 
3175.000000	99.264114 
3174.000000	99.264963 
3173.000000	99.265466 
3172.000000	99.265384 
3171.000000	99.264880 
3170.000000	99.264352 
3169.000000	99.264038 
3168.000000	99.263841 
3167.000000	99.263554 
3166.000000	99.263152 
3165.000000	99.262826 
3164.000000	99.262765 
3163.000000	99.262971 
3162.000000	99.263285 
3161.000000	99.263541 
3160.000000	99.263737 
3159.000000	99.264101 
3158.000000	99.264890 
3157.000000	99.266042 
3156.000000	99.267023 
3155.000000	99.267190 
3154.000000	99.266346 
3153.000000	99.264933 
3152.000000	99.263687 
3151.000000	99.262983 
3150.000000	99.262621 
3149.000000	99.262211 
3148.000000	99.261723 
3147.000000	99.261570 
3146.000000	99.262120 
3145.000000	99.263249 
3144.000000	99.264428 
3143.000000	99.265198 
3142.000000	99.265502 
3141.000000	99.265537 
3140.000000	99.265454 
3139.000000	99.265283 
3138.000000	99.265066 
3137.000000	99.264936 
3136.000000	99.265040 
3135.000000	99.265418 
3134.000000	99.265946 
3133.000000	99.266334 
3132.000000	99.266265 
3131.000000	99.265619 
3130.000000	99.264609 
3129.000000	99.263695 
3128.000000	99.263234 
3127.000000	99.263254 
3126.000000	99.263546 
3125.000000	99.263888 
3124.000000	99.264155 
3123.000000	99.264274 
3122.000000	99.264172 
3121.000000	99.263828 
3120.000000	99.263341 
3119.000000	99.262894 
3118.000000	99.262645 
3117.000000	99.262645 
3116.000000	99.262849 
3115.000000	99.263150 
3114.000000	99.263424 
3113.000000	99.263589 
3112.000000	99.263646 
3111.000000	99.263675 
3110.000000	99.263747 
3109.000000	99.263811 
3108.000000	99.263732 
3107.000000	99.263444 
3106.000000	99.263031 
3105.000000	99.262656 
3104.000000	99.262392 
3103.000000	99.262163 
3102.000000	99.261862 
3101.000000	99.261505 
3100.000000	99.261234 
3099.000000	99.261123 
3098.000000	99.261059 
3097.000000	99.260855 
3096.000000	99.260486 
3095.000000	99.260166 
3094.000000	99.260186 
3093.000000	99.260663 
3092.000000	99.261315 
3091.000000	99.261612 
3090.000000	99.261171 
3089.000000	99.259994 
3088.000000	99.258501 
3087.000000	99.257288 
3086.000000	99.256782 
3085.000000	99.256968 
3084.000000	99.257411 
3083.000000	99.257621 
3082.000000	99.257394 
3081.000000	99.256852 
3080.000000	99.256343 
3079.000000	99.256308 
3078.000000	99.256972 
3077.000000	99.257965 
3076.000000	99.258481 
3075.000000	99.258068 
3074.000000	99.257165 
3073.000000	99.256464 
3072.000000	99.255836 
3071.000000	99.254485 
3070.000000	99.252334 
3069.000000	99.250610 
3068.000000	99.250331 
3067.000000	99.250612 
3066.000000	99.249577 
3065.000000	99.247146 
3064.000000	99.245769 
3063.000000	99.247482 
3062.000000	99.251031 
3061.000000	99.253094 
3060.000000	99.252284 
3059.000000	99.250640 
3058.000000	99.250670 
3057.000000	99.251986 
3056.000000	99.251910 
3055.000000	99.248985 
3054.000000	99.244814 
3053.000000	99.242255 
3052.000000	99.242670 
3051.000000	99.245269 
3050.000000	99.248364 
3049.000000	99.250803 
3048.000000	99.252498 
3047.000000	99.254110 
3046.000000	99.256309 
3045.000000	99.259127 
3044.000000	99.262086 
3043.000000	99.265127 
3042.000000	99.268905 
3041.000000	99.273770 
3040.000000	99.278779 
3039.000000	99.282541 
3038.000000	99.284965 
3037.000000	99.287217 
3036.000000	99.289916 
3035.000000	99.292421 
3034.000000	99.294401 
3033.000000	99.297156 
3032.000000	99.302299 
3031.000000	99.309557 
3030.000000	99.316991 
3029.000000	99.323395 
3028.000000	99.329377 
3027.000000	99.335972 
3026.000000	99.343162 
3025.000000	99.350227 
3024.000000	99.356911 
3023.000000	99.363739 
3022.000000	99.371407 
3021.000000	99.380243 
3020.000000	99.390025 
3019.000000	99.400026 
3018.000000	99.409341 
3017.000000	99.417477 
3016.000000	99.424797 
3015.000000	99.432486 
3014.000000	99.442019 
3013.000000	99.454201 
3012.000000	99.468269 
3011.000000	99.482250 
3010.000000	99.494815 
3009.000000	99.506516 
3008.000000	99.518506 
3007.000000	99.530427 
3006.000000	99.540787 
3005.000000	99.549565 
3004.000000	99.558928 
3003.000000	99.570460 
3002.000000	99.582782 
3001.000000	99.593193 
3000.000000	99.601232 
2999.000000	99.609291 
2998.000000	99.619587 
2997.000000	99.631528 
2996.000000	99.642510 
2995.000000	99.650995 
2994.000000	99.658632 
2993.000000	99.669404 
2992.000000	99.686241 
2991.000000	99.707753 
2990.000000	99.728292 
2989.000000	99.741852 
2988.000000	99.746076 
2987.000000	99.742626 
2986.000000	99.734661 
2985.000000	99.724879 
2984.000000	99.715687 
2983.000000	99.709558 
2982.000000	99.707838 
2981.000000	99.709390 
2980.000000	99.711274 
2979.000000	99.711213 
2978.000000	99.709368 
2977.000000	99.707721 
2976.000000	99.707845 
2975.000000	99.709318 
2974.000000	99.710403 
2973.000000	99.710126 
2972.000000	99.709340 
2971.000000	99.709383 
2970.000000	99.709778 
2969.000000	99.707745 
2968.000000	99.700294 
2967.000000	99.686936 
2966.000000	99.670552 
2965.000000	99.655688 
2964.000000	99.645548 
2963.000000	99.640039 
2962.000000	99.636363 
2961.000000	99.631449 
2960.000000	99.624032 
2959.000000	99.614873 
2958.000000	99.605628 
2957.000000	99.597802 
2956.000000	99.592190 
2955.000000	99.588468 
2954.000000	99.585122 
2953.000000	99.580330 
2952.000000	99.573355 
2951.000000	99.565122 
2950.000000	99.557438 
2949.000000	99.551685 
2948.000000	99.548084 
2947.000000	99.545788 
2946.000000	99.543513 
2945.000000	99.540310 
2944.000000	99.535949 
2943.000000	99.530599 
2942.000000	99.524217 
2941.000000	99.516548 
2940.000000	99.507751 
2939.000000	99.498779 
2938.000000	99.490838 
2937.000000	99.484458 
2936.000000	99.479229 
2935.000000	99.474528 
2934.000000	99.470374 
2933.000000	99.467243 
2932.000000	99.464880 
2931.000000	99.461629 
2930.000000	99.455557 
2929.000000	99.446484 
2928.000000	99.436634 
2927.000000	99.429005 
2926.000000	99.425237 
2925.000000	99.424854 
2924.000000	99.426022 
2923.000000	99.426883 
2922.000000	99.426678 
2921.000000	99.426043 
2920.000000	99.426086 
2919.000000	99.427202 
2918.000000	99.429331 
2917.000000	99.433544 
2916.000000	99.442457 
2915.000000	99.458088 
2914.000000	99.479350 
2913.000000	99.502237 
2912.000000	99.522572 
2911.000000	99.538404 
2910.000000	99.550250 
2909.000000	99.559929 
2908.000000	99.569262 
2907.000000	99.579170 
2906.000000	99.589683 
2905.000000	99.600864 
2904.000000	99.613291 
2903.000000	99.626757 
2902.000000	99.638806 
2901.000000	99.645445 
2900.000000	99.644125 
2899.000000	99.635968 
2898.000000	99.624574 
2897.000000	99.613795 
2896.000000	99.606205 
2895.000000	99.602758 
2894.000000	99.602711 
2893.000000	99.603994 
2892.000000	99.604421 
2891.000000	99.603026 
2890.000000	99.600319 
2889.000000	99.597509 
2888.000000	99.595684 
2887.000000	99.595398 
2886.000000	99.596452 
2885.000000	99.597840 
2884.000000	99.598106 
2883.000000	99.595977 
2882.000000	99.590848 
2881.000000	99.583029 
2880.000000	99.573833 
2879.000000	99.565178 
2878.000000	99.558513 
2877.000000	99.553730 
2876.000000	99.549312 
2875.000000	99.543913 
2874.000000	99.537883 
2873.000000	99.532933 
2872.000000	99.529980 
2871.000000	99.527418 
2870.000000	99.522036 
2869.000000	99.511970 
2868.000000	99.498704 
2867.000000	99.485997 
2866.000000	99.476731 
2865.000000	99.470798 
2864.000000	99.465744 
2863.000000	99.459064 
2862.000000	99.449846 
2861.000000	99.438655 
2860.000000	99.426541 
2859.000000	99.414482 
2858.000000	99.403289 
2857.000000	99.393107 
2856.000000	99.382661 
2855.000000	99.369856 
2854.000000	99.354090 
2853.000000	99.337887 
2852.000000	99.325320 
2851.000000	99.318612 
2850.000000	99.316832 
2849.000000	99.317727 
2848.000000	99.320056 
2847.000000	99.323943 
2846.000000	99.329922 
2845.000000	99.338320 
2844.000000	99.348881 
2843.000000	99.360105 
2842.000000	99.369351 
2841.000000	99.374429 
2840.000000	99.375075 
2839.000000	99.372652 
2838.000000	99.368952 
2837.000000	99.365725 
2836.000000	99.364441 
2835.000000	99.365349 
2834.000000	99.367086 
2833.000000	99.368204 
2832.000000	99.368729 
2831.000000	99.369198 
2830.000000	99.368739 
2829.000000	99.365846 
2828.000000	99.361144 
2827.000000	99.357588 
2826.000000	99.357163 
2825.000000	99.358727 
2824.000000	99.360044 
2823.000000	99.360689 
2822.000000	99.361689 
2821.000000	99.363197 
2820.000000	99.364078 
2819.000000	99.363613 
2818.000000	99.362350 
2817.000000	99.361101 
2816.000000	99.360037 
2815.000000	99.359036 
2814.000000	99.358284 
2813.000000	99.358232 
2812.000000	99.359215 
2811.000000	99.361124 
2810.000000	99.363246 
2809.000000	99.364597 
2808.000000	99.364753 
2807.000000	99.364186 
2806.000000	99.363544 
2805.000000	99.363013 
2804.000000	99.362629 
2803.000000	99.362485 
2802.000000	99.362467 
2801.000000	99.362442 
2800.000000	99.362402 
2799.000000	99.362361 
2798.000000	99.362324 
2797.000000	99.362296 
2796.000000	99.362279 
2795.000000	99.362270 
2794.000000	99.362264 
2793.000000	99.362259 
2792.000000	99.362257 
2791.000000	99.362259 
2790.000000	99.362266 
2789.000000	99.362280 
2788.000000	99.362303 
2787.000000	99.362343 
2786.000000	99.362403 
2785.000000	99.362485 
2784.000000	99.362586 
2783.000000	99.362698 
2782.000000	99.362814 
2781.000000	99.362927 
2780.000000	99.363036 
2779.000000	99.363147 
2778.000000	99.363276 
2777.000000	99.363432 
2776.000000	99.363603 
2775.000000	99.363770 
2774.000000	99.363924 
2773.000000	99.364075 
2772.000000	99.364244 
2771.000000	99.364438 
2770.000000	99.364632 
2769.000000	99.364786 
2768.000000	99.364884 
2767.000000	99.364961 
2766.000000	99.365071 
2765.000000	99.365223 
2764.000000	99.365360 
2763.000000	99.365449 
2762.000000	99.365558 
2761.000000	99.365801 
2760.000000	99.366191 
2759.000000	99.366595 
2758.000000	99.366866 
2757.000000	99.367005 
2756.000000	99.367164 
2755.000000	99.367464 
2754.000000	99.367866 
2753.000000	99.368246 
2752.000000	99.368577 
2751.000000	99.368967 
2750.000000	99.369481 
2749.000000	99.370015 
2748.000000	99.370400 
2747.000000	99.370612 
2746.000000	99.370767 
2745.000000	99.370928 
2744.000000	99.371041 
2743.000000	99.371086 
2742.000000	99.371151 
2741.000000	99.371273 
2740.000000	99.371338 
2739.000000	99.371241 
2738.000000	99.371091 
2737.000000	99.371136 
2736.000000	99.371469 
2735.000000	99.371883 
2734.000000	99.372046 
2733.000000	99.371825 
2732.000000	99.371392 
2731.000000	99.371090 
2730.000000	99.371136 
2729.000000	99.371521 
2728.000000	99.372098 
2727.000000	99.372728 
2726.000000	99.373308 
2725.000000	99.373739 
2724.000000	99.373958 
2723.000000	99.374019 
2722.000000	99.374060 
2721.000000	99.374133 
2720.000000	99.374134 
2719.000000	99.373967 
2718.000000	99.373743 
2717.000000	99.373699 
2716.000000	99.373911 
2715.000000	99.374157 
2714.000000	99.374115 
2713.000000	99.373695 
2712.000000	99.373135 
2711.000000	99.372806 
2710.000000	99.372853 
2709.000000	99.373116 
2708.000000	99.373346 
2707.000000	99.373444 
2706.000000	99.373465 
2705.000000	99.373463 
2704.000000	99.373419 
2703.000000	99.373362 
2702.000000	99.373453 
2701.000000	99.373851 
2700.000000	99.374518 
2699.000000	99.375192 
2698.000000	99.375588 
2697.000000	99.375597 
2696.000000	99.375345 
2695.000000	99.375116 
2694.000000	99.375118 
2693.000000	99.375243 
2692.000000	99.375124 
2691.000000	99.374558 
2690.000000	99.373858 
2689.000000	99.373572 
2688.000000	99.373818 
2687.000000	99.374095 
2686.000000	99.373818 
2685.000000	99.372925 
2684.000000	99.371858 
2683.000000	99.371041 
2682.000000	99.370516 
2681.000000	99.370066 
2680.000000	99.369485 
2679.000000	99.368749 
2678.000000	99.368081 
2677.000000	99.367873 
2676.000000	99.368407 
2675.000000	99.369564 
2674.000000	99.370818 
2673.000000	99.371515 
2672.000000	99.371208 
2671.000000	99.369920 
2670.000000	99.368348 
2669.000000	99.367580 
2668.000000	99.368200 
2667.000000	99.369592 
2666.000000	99.370337 
2665.000000	99.369482 
2664.000000	99.367276 
2663.000000	99.364739 
2662.000000	99.362699 
2661.000000	99.361353 
2660.000000	99.360493 
2659.000000	99.359789 
2658.000000	99.358934 
2657.000000	99.357845 
2656.000000	99.356744 
2655.000000	99.355851 
2654.000000	99.354980 
2653.000000	99.353708 
2652.000000	99.352072 
2651.000000	99.350790 
2650.000000	99.350426 
2649.000000	99.350455 
2648.000000	99.349622 
2647.000000	99.347444 
2646.000000	99.345065 
2645.000000	99.344189 
2644.000000	99.345358 
2643.000000	99.347515 
2642.000000	99.349037 
2641.000000	99.349082 
2640.000000	99.347945 
2639.000000	99.346586 
2638.000000	99.345935 
2637.000000	99.346318 
2636.000000	99.347348 
2635.000000	99.348473 
2634.000000	99.349651 
2633.000000	99.351246 
2632.000000	99.353287 
2631.000000	99.355203 
2630.000000	99.356420 
2629.000000	99.356903 
2628.000000	99.356914 
2627.000000	99.356543 
2626.000000	99.355750 
2625.000000	99.354679 
2624.000000	99.353723 
2623.000000	99.353411 
2622.000000	99.354222 
2621.000000	99.356223 
2620.000000	99.358757 
2619.000000	99.360751 
2618.000000	99.361611 
2617.000000	99.361533 
2616.000000	99.360958 
2615.000000	99.360123 
2614.000000	99.359268 
2613.000000	99.358831 
2612.000000	99.359036 
2611.000000	99.359629 
2610.000000	99.360309 
2609.000000	99.361122 
2608.000000	99.362140 
2607.000000	99.363095 
2606.000000	99.363768 
2605.000000	99.364451 
2604.000000	99.365548 
2603.000000	99.366972 
2602.000000	99.368305 
2601.000000	99.369335 
2600.000000	99.370158 
2599.000000	99.370894 
2598.000000	99.371590 
2597.000000	99.372322 
2596.000000	99.373182 
2595.000000	99.374166 
2594.000000	99.375173 
2593.000000	99.376116 
2592.000000	99.376972 
2591.000000	99.377767 
2590.000000	99.378545 
2589.000000	99.379359 
2588.000000	99.380239 
2587.000000	99.381165 
2586.000000	99.382101 
2585.000000	99.383017 
2584.000000	99.383910 
2583.000000	99.384792 
2582.000000	99.385673 
2581.000000	99.386562 
2580.000000	99.387464 
2579.000000	99.388378 
2578.000000	99.389303 
2577.000000	99.390238 
2576.000000	99.391182 
2575.000000	99.392132 
2574.000000	99.393085 
2573.000000	99.394034 
2572.000000	99.394976 
2571.000000	99.395908 
2570.000000	99.396828 
2569.000000	99.397740 
2568.000000	99.398650 
2567.000000	99.399564 
2566.000000	99.400472 
2565.000000	99.401364 
2564.000000	99.402234 
2563.000000	99.403085 
2562.000000	99.403920 
2561.000000	99.404739 
2560.000000	99.405540 
2559.000000	99.406319 
2558.000000	99.407073 
2557.000000	99.407801 
2556.000000	99.408508 
2555.000000	99.409204 
2554.000000	99.409893 
2553.000000	99.410574 
2552.000000	99.411247 
2551.000000	99.411917 
2550.000000	99.412576 
2549.000000	99.413210 
2548.000000	99.413811 
2547.000000	99.414393 
2546.000000	99.414964 
2545.000000	99.415517 
2544.000000	99.416044 
2543.000000	99.416560 
2542.000000	99.417093 
2541.000000	99.417667 
2540.000000	99.418271 
2539.000000	99.418846 
2538.000000	99.419313 
2537.000000	99.419629 
2536.000000	99.419866 
2535.000000	99.420168 
2534.000000	99.420614 
2533.000000	99.421152 
2532.000000	99.421648 
2531.000000	99.421995 
2530.000000	99.422148 
2529.000000	99.422155 
2528.000000	99.422192 
2527.000000	99.422460 
2526.000000	99.422948 
2525.000000	99.423371 
2524.000000	99.423474 
2523.000000	99.423360 
2522.000000	99.423412 
2521.000000	99.423844 
2520.000000	99.424494 
2519.000000	99.425025 
2518.000000	99.425220 
2517.000000	99.425150 
2516.000000	99.425190 
2515.000000	99.425825 
2514.000000	99.427312 
2513.000000	99.429403 
2512.000000	99.431360 
2511.000000	99.432438 
2510.000000	99.432389 
2509.000000	99.431640 
2508.000000	99.430990 
2507.000000	99.430873 
2506.000000	99.431034 
2505.000000	99.430996 
2504.000000	99.430729 
2503.000000	99.430587 
2502.000000	99.430674 
2501.000000	99.430731 
2500.000000	99.430714 
2499.000000	99.431095 
2498.000000	99.432327 
2497.000000	99.434289 
2496.000000	99.436380 
2495.000000	99.437944 
2494.000000	99.438617 
2493.000000	99.438632 
2492.000000	99.438857 
2491.000000	99.440146 
2490.000000	99.442433 
2489.000000	99.444710 
2488.000000	99.446100 
2487.000000	99.446749 
2486.000000	99.447482 
2485.000000	99.448744 
2484.000000	99.450097 
2483.000000	99.450717 
2482.000000	99.450216 
2481.000000	99.449095 
2480.000000	99.448463 
2479.000000	99.449089 
2478.000000	99.450746 
2477.000000	99.452512 
2476.000000	99.453666 
2475.000000	99.454102 
2474.000000	99.453974 
2473.000000	99.453380 
2472.000000	99.452497 
2471.000000	99.451676 
2470.000000	99.451201 
2469.000000	99.451142 
2468.000000	99.451489 
2467.000000	99.452107 
2466.000000	99.452556 
2465.000000	99.452328 
2464.000000	99.451473 
2463.000000	99.450741 
2462.000000	99.450883 
2461.000000	99.451935 
2460.000000	99.453258 
2459.000000	99.454133 
2458.000000	99.454305 
2457.000000	99.454068 
2456.000000	99.453987 
2455.000000	99.454432 
2454.000000	99.455231 
2453.000000	99.455788 
2452.000000	99.455609 
2451.000000	99.454735 
2450.000000	99.453732 
2449.000000	99.453266 
2448.000000	99.453651 
2447.000000	99.454705 
2446.000000	99.455943 
2445.000000	99.457000 
2444.000000	99.457861 
2443.000000	99.458705 
2442.000000	99.459592 
2441.000000	99.460404 
2440.000000	99.461037 
2439.000000	99.461487 
2438.000000	99.461751 
2437.000000	99.461799 
2436.000000	99.461696 
2435.000000	99.461630 
2434.000000	99.461765 
2433.000000	99.462188 
2432.000000	99.462994 
2431.000000	99.464260 
2430.000000	99.465829 
2429.000000	99.467260 
2428.000000	99.468133 
2427.000000	99.468425 
2426.000000	99.468570 
2425.000000	99.469138 
2424.000000	99.470321 
2423.000000	99.471689 
2422.000000	99.472603 
2421.000000	99.473001 
2420.000000	99.473535 
2419.000000	99.474677 
2418.000000	99.475995 
2417.000000	99.476751 
2416.000000	99.476993 
2415.000000	99.477533 
2414.000000	99.478864 
2413.000000	99.480643 
2412.000000	99.482288 
2411.000000	99.483566 
2410.000000	99.484353 
2409.000000	99.484501 
2408.000000	99.484134 
2407.000000	99.483618 
2406.000000	99.483162 
2405.000000	99.482711 
2404.000000	99.482240 
2403.000000	99.481913 
2402.000000	99.481882 
2401.000000	99.482092 
2400.000000	99.482419 
2399.000000	99.482852 
2398.000000	99.483401 
2397.000000	99.483981 
2396.000000	99.484435 
2395.000000	99.484634 
2394.000000	99.484575 
2393.000000	99.484409 
2392.000000	99.484351 
2391.000000	99.484490 
2390.000000	99.484704 
2389.000000	99.484797 
2388.000000	99.484660 
2387.000000	99.484362 
2386.000000	99.484101 
2385.000000	99.484026 
2384.000000	99.484043 
2383.000000	99.483833 
2382.000000	99.483161 
2381.000000	99.482132 
2380.000000	99.481161 
2379.000000	99.480596 
2378.000000	99.480381 
2377.000000	99.480133 
2376.000000	99.479532 
2375.000000	99.478623 
2374.000000	99.477757 
2373.000000	99.477243 
2372.000000	99.477013 
2371.000000	99.476575 
2370.000000	99.475459 
2369.000000	99.473794 
2368.000000	99.472288 
2367.000000	99.471475 
2366.000000	99.471201 
2365.000000	99.470959 
2364.000000	99.470353 
2363.000000	99.469127 
2362.000000	99.467194 
2361.000000	99.464901 
2360.000000	99.463197 
2359.000000	99.462771 
2358.000000	99.463216 
2357.000000	99.463531 
2356.000000	99.463124 
2355.000000	99.462150 
2354.000000	99.460869 
2353.000000	99.459413 
2352.000000	99.457910 
2351.000000	99.456069 
2350.000000	99.453442 
2349.000000	99.449835 
2348.000000	99.445777 
2347.000000	99.442395 
2346.000000	99.440593 
2345.000000	99.440619 
2344.000000	99.441737 
2343.000000	99.443024 
2342.000000	99.443730 
2341.000000	99.443273 
2340.000000	99.441678 
2339.000000	99.439668 
2338.000000	99.438143 
2337.000000	99.437284 
2336.000000	99.436605 
2335.000000	99.435681 
2334.000000	99.434635 
2333.000000	99.433960 
2332.000000	99.434192 
2331.000000	99.435310 
2330.000000	99.436714 
2329.000000	99.437278 
2328.000000	99.436157 
2327.000000	99.433306 
2326.000000	99.429336 
2325.000000	99.425490 
2324.000000	99.422852 
2323.000000	99.421922 
2322.000000	99.422191 
2321.000000	99.422712 
2320.000000	99.423138 
2319.000000	99.423751 
2318.000000	99.424644 
2317.000000	99.425121 
2316.000000	99.424489 
2315.000000	99.422723 
2314.000000	99.420455 
2313.000000	99.418384 
2312.000000	99.416968 
2311.000000	99.416248 
2310.000000	99.415853 
2309.000000	99.415425 
2308.000000	99.415149 
2307.000000	99.415642 
2306.000000	99.416999 
2305.000000	99.418438 
2304.000000	99.419043 
2303.000000	99.418679 
2302.000000	99.417857 
2301.000000	99.417047 
2300.000000	99.416425 
2299.000000	99.416048 
2298.000000	99.415907 
2297.000000	99.415841 
2296.000000	99.415639 
2295.000000	99.415100 
2294.000000	99.413869 
2293.000000	99.411761 
2292.000000	99.409226 
2291.000000	99.407122 
2290.000000	99.405606 
2289.000000	99.404071 
2288.000000	99.402323 
2287.000000	99.401156 
2286.000000	99.401136 
2285.000000	99.401785 
2284.000000	99.402578 
2283.000000	99.403973 
2282.000000	99.406553 
2281.000000	99.409865 
2280.000000	99.412838 
2279.000000	99.414733 
2278.000000	99.415024 
2277.000000	99.413508 
2276.000000	99.411274 
2275.000000	99.410384 
2274.000000	99.411542 
2273.000000	99.413117 
2272.000000	99.413318 
2271.000000	99.412583 
2270.000000	99.412756 
2269.000000	99.414600 
2268.000000	99.417115 
2267.000000	99.418811 
2266.000000	99.418939 
2265.000000	99.417690 
2264.000000	99.416008 
2263.000000	99.415001 
2262.000000	99.415012 
2261.000000	99.415390 
2260.000000	99.415338 
2259.000000	99.414704 
2258.000000	99.413721 
2257.000000	99.412475 
2256.000000	99.411035 
2255.000000	99.409764 
2254.000000	99.409081 
2253.000000	99.408998 
2252.000000	99.409182 
2251.000000	99.409317 
2250.000000	99.409275 
2249.000000	99.409057 
2248.000000	99.408749 
2247.000000	99.408452 
2246.000000	99.408200 
2245.000000	99.407967 
2244.000000	99.407742 
2243.000000	99.407526 
2242.000000	99.407247 
2241.000000	99.406768 
2240.000000	99.406089 
2239.000000	99.405514 
2238.000000	99.405333 
2237.000000	99.405312 
2236.000000	99.404833 
2235.000000	99.403727 
2234.000000	99.402663 
2233.000000	99.402448 
2232.000000	99.403214 
2231.000000	99.404381 
2230.000000	99.405146 
2229.000000	99.404978 
2228.000000	99.403766 
2227.000000	99.401790 
2226.000000	99.399426 
2225.000000	99.396908 
2224.000000	99.394660 
2223.000000	99.393560 
2222.000000	99.394185 
2221.000000	99.395830 
2220.000000	99.396876 
2219.000000	99.396572 
2218.000000	99.395778 
2217.000000	99.395718 
2216.000000	99.396574 
2215.000000	99.397694 
2214.000000	99.398544 
2213.000000	99.398795 
2212.000000	99.397853 
2211.000000	99.395185 
2210.000000	99.391277 
2209.000000	99.387834 
2208.000000	99.386634 
2207.000000	99.388224 
2206.000000	99.391716 
2205.000000	99.395884 
2204.000000	99.400256 
2203.000000	99.404691 
2202.000000	99.408130 
2201.000000	99.408756 
2200.000000	99.405732 
2199.000000	99.400330 
2198.000000	99.394651 
2197.000000	99.389529 
2196.000000	99.385045 
2195.000000	99.382133 
2194.000000	99.381918 
2193.000000	99.383421 
2192.000000	99.383348 
2191.000000	99.379115 
2190.000000	99.371717 
2189.000000	99.364981 
2188.000000	99.361743 
2187.000000	99.361495 
2186.000000	99.362228 
2185.000000	99.363781 
2184.000000	99.367777 
2183.000000	99.373908 
2182.000000	99.378353 
2181.000000	99.377862 
2180.000000	99.374064 
2179.000000	99.371308 
2178.000000	99.371146 
2177.000000	99.371936 
2176.000000	99.373246 
2175.000000	99.376917 
2174.000000	99.382860 
2173.000000	99.387337 
2172.000000	99.387420 
2171.000000	99.384535 
2170.000000	99.381715 
2169.000000	99.379663 
2168.000000	99.377613 
2167.000000	99.375871 
2166.000000	99.374678 
2165.000000	99.371901 
2164.000000	99.365010 
2163.000000	99.355304 
2162.000000	99.348311 
2161.000000	99.350146 
2160.000000	99.364260 
2159.000000	99.389412 
2158.000000	99.418026 
2157.000000	99.439515 
2156.000000	99.448757 
2155.000000	99.448954 
2154.000000	99.446503 
2153.000000	99.445027 
2152.000000	99.444814 
2151.000000	99.445515 
2150.000000	99.446758 
2149.000000	99.447664 
2148.000000	99.448449 
2147.000000	99.451619 
2146.000000	99.459279 
2145.000000	99.470003 
2144.000000	99.480462 
2143.000000	99.489134 
2142.000000	99.495892 
2141.000000	99.499040 
2140.000000	99.496207 
2139.000000	99.488520 
2138.000000	99.481320 
2137.000000	99.479416 
2136.000000	99.482887 
2135.000000	99.488287 
2134.000000	99.492603 
2133.000000	99.495411 
2132.000000	99.498121 
2131.000000	99.501749 
2130.000000	99.505058 
2129.000000	99.505005 
2128.000000	99.499784 
2127.000000	99.491260 
2126.000000	99.483705 
2125.000000	99.479862 
2124.000000	99.478882 
2123.000000	99.478250 
2122.000000	99.476785 
2121.000000	99.475178 
2120.000000	99.474137 
2119.000000	99.472953 
2118.000000	99.470291 
2117.000000	99.466123 
2116.000000	99.462294 
2115.000000	99.460861 
2114.000000	99.462361 
2113.000000	99.465795 
2112.000000	99.469940 
2111.000000	99.473818 
2110.000000	99.475918 
2109.000000	99.474700 
2108.000000	99.470452 
2107.000000	99.465530 
2106.000000	99.462051 
2105.000000	99.459919 
2104.000000	99.457734 
2103.000000	99.454976 
2102.000000	99.452456 
2101.000000	99.450947 
2100.000000	99.450253 
2099.000000	99.449810 
2098.000000	99.449771 
2097.000000	99.451116 
2096.000000	99.454522 
2095.000000	99.458975 
2094.000000	99.461866 
2093.000000	99.461253 
2092.000000	99.457493 
2091.000000	99.452582 
2090.000000	99.448321 
2089.000000	99.445094 
2088.000000	99.442276 
2087.000000	99.439132 
2086.000000	99.435420 
2085.000000	99.431761 
2084.000000	99.429495 
2083.000000	99.429578 
2082.000000	99.431340 
2081.000000	99.432589 
2080.000000	99.431611 
2079.000000	99.428672 
2078.000000	99.425410 
2077.000000	99.423066 
2076.000000	99.421582 
2075.000000	99.420113 
2074.000000	99.417877 
2073.000000	99.414767 
2072.000000	99.411637 
2071.000000	99.409852 
2070.000000	99.410113 
2069.000000	99.411703 
2068.000000	99.413063 
2067.000000	99.413006 
2066.000000	99.411269 
2065.000000	99.408470 
2064.000000	99.405893 
2063.000000	99.404685 
2062.000000	99.404756 
2061.000000	99.404725 
2060.000000	99.403325 
2059.000000	99.400646 
2058.000000	99.397922 
2057.000000	99.396527 
2056.000000	99.397127 
2055.000000	99.398881 
2054.000000	99.399116 
2053.000000	99.394824 
2052.000000	99.385157 
2051.000000	99.372396 
2050.000000	99.360665 
2049.000000	99.353514 
2048.000000	99.352509 
2047.000000	99.356915 
2046.000000	99.363740 
2045.000000	99.369222 
2044.000000	99.371606 
2043.000000	99.371965 
2042.000000	99.371956 
2041.000000	99.371774 
2040.000000	99.370858 
2039.000000	99.369580 
2038.000000	99.369233 
2037.000000	99.370993 
2036.000000	99.375382 
2035.000000	99.381961 
2034.000000	99.389029 
2033.000000	99.394517 
2032.000000	99.397443 
2031.000000	99.397546 
2030.000000	99.393980 
2029.000000	99.386563 
2028.000000	99.378194 
2027.000000	99.373108 
2026.000000	99.372071 
2025.000000	99.371752 
2024.000000	99.369531 
2023.000000	99.366834 
2022.000000	99.366302 
2021.000000	99.367763 
2020.000000	99.368908 
2019.000000	99.368591 
2018.000000	99.367612 
2017.000000	99.367065 
2016.000000	99.367675 
2015.000000	99.370264 
2014.000000	99.375352 
2013.000000	99.382079 
2012.000000	99.387933 
2011.000000	99.389885 
2010.000000	99.386558 
2009.000000	99.380332 
2008.000000	99.376154 
2007.000000	99.376011 
2006.000000	99.376431 
2005.000000	99.373711 
2004.000000	99.369458 
2003.000000	99.367680 
2002.000000	99.367974 
2001.000000	99.366100 
2000.000000	99.361161 
1999.000000	99.357319 
1998.000000	99.357230 
1997.000000	99.358319 
1996.000000	99.357565 
1995.000000	99.355964 
1994.000000	99.355198 
1993.000000	99.353186 
1992.000000	99.347187 
1991.000000	99.339608 
1990.000000	99.336132 
1989.000000	99.338710 
1988.000000	99.343820 
1987.000000	99.346789 
1986.000000	99.346100 
1985.000000	99.343522 
1984.000000	99.341867 
1983.000000	99.342646 
1982.000000	99.344755 
1981.000000	99.345704 
1980.000000	99.344828 
1979.000000	99.344363 
1978.000000	99.346632 
1977.000000	99.351671 
1976.000000	99.358477 
1975.000000	99.366756 
1974.000000	99.375850 
1973.000000	99.383543 
1972.000000	99.387699 
1971.000000	99.388002 
1970.000000	99.385236 
1969.000000	99.380382 
1968.000000	99.375394 
1967.000000	99.373219 
1966.000000	99.375304 
1965.000000	99.380091 
1964.000000	99.384803 
1963.000000	99.388325 
1962.000000	99.391443 
1961.000000	99.395044 
1960.000000	99.399017 
1959.000000	99.402435 
1958.000000	99.404331 
1957.000000	99.404775 
1956.000000	99.405372 
1955.000000	99.407844 
1954.000000	99.411884 
1953.000000	99.415217 
1952.000000	99.416245 
1951.000000	99.415758 
1950.000000	99.415827 
1949.000000	99.417596 
1948.000000	99.420866 
1947.000000	99.425045 
1946.000000	99.429502 
1945.000000	99.433475 
1944.000000	99.436411 
1943.000000	99.438358 
1942.000000	99.439693 
1941.000000	99.440623 
1940.000000	99.441340 
1939.000000	99.442293 
1938.000000	99.443841 
1937.000000	99.445821 
1936.000000	99.447772 
1935.000000	99.449474 
1934.000000	99.450991 
1933.000000	99.452294 
1932.000000	99.453203 
1931.000000	99.453771 
1930.000000	99.454302 
1929.000000	99.454966 
1928.000000	99.455736 
1927.000000	99.456626 
1926.000000	99.457699 
1925.000000	99.458832 
1924.000000	99.459870 
1923.000000	99.461040 
1922.000000	99.462664 
1921.000000	99.464501 
1920.000000	99.465879 
1919.000000	99.466428 
1918.000000	99.466303 
1917.000000	99.465896 
1916.000000	99.465659 
1915.000000	99.466014 
1914.000000	99.467031 
1913.000000	99.468248 
1912.000000	99.469249 
1911.000000	99.470318 
1910.000000	99.471642 
1909.000000	99.472294 
1908.000000	99.471307 
1907.000000	99.469020 
1906.000000	99.466890 
1905.000000	99.465945 
1904.000000	99.466082 
1903.000000	99.466777 
1902.000000	99.467511 
1901.000000	99.467957 
1900.000000	99.468276 
1899.000000	99.468976 
1898.000000	99.470221 
1897.000000	99.471408 
1896.000000	99.471761 
1895.000000	99.471265 
1894.000000	99.470519 
1893.000000	99.470008 
1892.000000	99.469948 
1891.000000	99.470500 
1890.000000	99.471653 
1889.000000	99.473111 
1888.000000	99.474623 
1887.000000	99.476075 
1886.000000	99.477043 
1885.000000	99.476898 
1884.000000	99.475696 
1883.000000	99.474583 
1882.000000	99.474564 
1881.000000	99.475442 
1880.000000	99.476494 
1879.000000	99.477567 
1878.000000	99.478954 
1877.000000	99.480601 
1876.000000	99.482223 
1875.000000	99.483952 
1874.000000	99.485942 
1873.000000	99.487672 
1872.000000	99.488624 
1871.000000	99.489174 
1870.000000	99.489862 
1869.000000	99.490249 
1868.000000	99.490012 
1867.000000	99.490129 
1866.000000	99.491427 
1865.000000	99.493410 
1864.000000	99.495221 
1863.000000	99.496832 
1862.000000	99.498527 
1861.000000	99.499813 
1860.000000	99.500121 
1859.000000	99.499979 
1858.000000	99.500144 
1857.000000	99.500198 
1856.000000	99.499506 
1855.000000	99.498968 
1854.000000	99.500064 
1853.000000	99.502725 
1852.000000	99.505648 
1851.000000	99.508240 
1850.000000	99.511063 
1849.000000	99.514479 
1848.000000	99.517930 
1847.000000	99.520692 
1846.000000	99.522462 
1845.000000	99.523157 
1844.000000	99.523264 
1843.000000	99.523924 
1842.000000	99.525298 
1841.000000	99.526447 
1840.000000	99.526808 
1839.000000	99.526548 
1838.000000	99.526159 
1837.000000	99.525924 
1836.000000	99.526142 
1835.000000	99.527382 
1834.000000	99.529754 
1833.000000	99.532423 
1832.000000	99.534157 
1831.000000	99.534256 
1830.000000	99.533239 
1829.000000	99.532546 
1828.000000	99.532878 
1827.000000	99.533857 
1826.000000	99.534994 
1825.000000	99.535920 
1824.000000	99.536495 
1823.000000	99.537082 
1822.000000	99.538108 
1821.000000	99.539488 
1820.000000	99.540763 
1819.000000	99.541845 
1818.000000	99.543060 
1817.000000	99.544176 
1816.000000	99.544593 
1815.000000	99.544402 
1814.000000	99.544200 
1813.000000	99.544190 
1812.000000	99.544080 
1811.000000	99.543932 
1810.000000	99.544079 
1809.000000	99.544306 
1808.000000	99.544238 
1807.000000	99.544041 
1806.000000	99.544092 
1805.000000	99.544384 
1804.000000	99.544704 
1803.000000	99.545068 
1802.000000	99.545585 
1801.000000	99.546152 
1800.000000	99.546564 
1799.000000	99.546822 
1798.000000	99.547029 
1797.000000	99.547190 
1796.000000	99.547360 
1795.000000	99.547726 
1794.000000	99.548393 
1793.000000	99.549114 
1792.000000	99.549470 
1791.000000	99.549501 
1790.000000	99.549580 
1789.000000	99.549734 
1788.000000	99.549766 
1787.000000	99.549718 
1786.000000	99.549826 
1785.000000	99.550078 
1784.000000	99.550202 
1783.000000	99.550096 
1782.000000	99.549907 
1781.000000	99.549880 
1780.000000	99.550140 
1779.000000	99.550662 
1778.000000	99.551284 
1777.000000	99.551683 
1776.000000	99.551603 
1775.000000	99.551025 
1774.000000	99.550207 
1773.000000	99.549456 
1772.000000	99.548738 
1771.000000	99.548070 
1770.000000	99.548052 
1769.000000	99.549268 
1768.000000	99.551347 
1767.000000	99.553032 
1766.000000	99.553556 
1765.000000	99.553206 
1764.000000	99.552450 
1763.000000	99.551313 
1762.000000	99.550084 
1761.000000	99.549727 
1760.000000	99.550373 
1759.000000	99.551230 
1758.000000	99.551771 
1757.000000	99.551950 
1756.000000	99.551703 
1755.000000	99.550741 
1754.000000	99.549749 
1753.000000	99.550577 
1752.000000	99.553658 
1751.000000	99.556044 
1750.000000	99.554956 
1749.000000	99.550881 
1748.000000	99.545846 
1747.000000	99.541171 
1746.000000	99.537814 
1745.000000	99.536906 
1744.000000	99.537696 
1743.000000	99.537393 
1742.000000	99.534698 
1741.000000	99.531147 
1740.000000	99.528666 
1739.000000	99.527790 
1738.000000	99.527644 
1737.000000	99.527007 
1736.000000	99.526120 
1735.000000	99.526426 
1734.000000	99.528224 
1733.000000	99.530892 
1732.000000	99.532873 
1731.000000	99.533198 
1730.000000	99.533625 
1729.000000	99.535735 
1728.000000	99.538848 
1727.000000	99.541161 
1726.000000	99.542127 
1725.000000	99.542768 
1724.000000	99.543506 
1723.000000	99.544367 
1722.000000	99.545586 
1721.000000	99.546926 
1720.000000	99.547964 
1719.000000	99.549064 
1718.000000	99.550622 
1717.000000	99.550185 
1716.000000	99.545813 
1715.000000	99.540953 
1714.000000	99.539418 
1713.000000	99.540218 
1712.000000	99.540604 
1711.000000	99.540390 
1710.000000	99.541222 
1709.000000	99.543028 
1708.000000	99.543868 
1707.000000	99.543173 
1706.000000	99.542179 
1705.000000	99.540449 
1704.000000	99.536790 
1703.000000	99.532401 
1702.000000	99.530603 
1701.000000	99.531810 
1700.000000	99.531525 
1699.000000	99.529448 
1698.000000	99.528379 
1697.000000	99.527799 
1696.000000	99.527166 
1695.000000	99.526839 
1694.000000	99.525835 
1693.000000	99.522804 
1692.000000	99.518879 
1691.000000	99.516550 
1690.000000	99.516130 
1689.000000	99.515690 
1688.000000	99.513762 
1687.000000	99.510442 
1686.000000	99.506902 
1685.000000	99.503169 
1684.000000	99.499395 
1683.000000	99.497548 
1682.000000	99.496214 
1681.000000	99.493334 
1680.000000	99.490220 
1679.000000	99.487910 
1678.000000	99.486101 
1677.000000	99.484741 
1676.000000	99.484631 
1675.000000	99.485529 
1674.000000	99.485922 
1673.000000	99.484936 
1672.000000	99.482686 
1671.000000	99.479840 
1670.000000	99.476727 
1669.000000	99.474325 
1668.000000	99.473924 
1667.000000	99.474576 
1666.000000	99.474496 
1665.000000	99.473113 
1664.000000	99.470904 
1663.000000	99.468812 
1662.000000	99.467303 
1661.000000	99.466521 
1660.000000	99.466815 
1659.000000	99.467923 
1658.000000	99.468503 
1657.000000	99.467736 
1656.000000	99.466306 
1655.000000	99.465513 
1654.000000	99.465046 
1653.000000	99.464266 
1652.000000	99.465320 
1651.000000	99.467011 
1650.000000	99.466948 
1649.000000	99.466673 
1648.000000	99.466912 
1647.000000	99.466230 
1646.000000	99.464614 
1645.000000	99.463525 
1644.000000	99.463114 
1643.000000	99.463074 
1642.000000	99.463328 
1641.000000	99.463758 
1640.000000	99.464276 
1639.000000	99.464723 
1638.000000	99.465005 
1637.000000	99.465110 
1636.000000	99.464819 
1635.000000	99.463998 
1634.000000	99.462923 
1633.000000	99.461914 
1632.000000	99.461676 
1631.000000	99.462693 
1630.000000	99.463909 
1629.000000	99.463872 
1628.000000	99.462930 
1627.000000	99.462509 
1626.000000	99.462930 
1625.000000	99.463885 
1624.000000	99.465673 
1623.000000	99.468468 
1622.000000	99.471217 
1621.000000	99.472937 
1620.000000	99.473950 
1619.000000	99.475062 
1618.000000	99.476476 
1617.000000	99.477798 
1616.000000	99.479184 
1615.000000	99.480409 
1614.000000	99.480874 
1613.000000	99.481323 
1612.000000	99.483001 
1611.000000	99.485770 
1610.000000	99.488145 
1609.000000	99.489439 
1608.000000	99.490526 
1607.000000	99.492036 
1606.000000	99.493492 
1605.000000	99.494640 
1604.000000	99.495952 
1603.000000	99.497646 
1602.000000	99.499400 
1601.000000	99.501049 
1600.000000	99.502743 
1599.000000	99.504431 
1598.000000	99.505877 
1597.000000	99.507163 
1596.000000	99.508640 
1595.000000	99.510420 
1594.000000	99.512258 
1593.000000	99.513965 
1592.000000	99.515604 
1591.000000	99.517216 
1590.000000	99.518714 
1589.000000	99.520142 
1588.000000	99.521705 
1587.000000	99.523459 
1586.000000	99.525195 
1585.000000	99.526739 
1584.000000	99.528206 
1583.000000	99.529749 
1582.000000	99.531320 
1581.000000	99.532838 
1580.000000	99.534335 
1579.000000	99.535757 
1578.000000	99.536944 
1577.000000	99.537942 
1576.000000	99.539105 
1575.000000	99.540461 
1574.000000	99.541524 
1573.000000	99.542172 
1572.000000	99.542746 
1571.000000	99.543546 
1570.000000	99.544528 
1569.000000	99.545664 
1568.000000	99.547036 
1567.000000	99.548323 
1566.000000	99.549145 
1565.000000	99.549639 
1564.000000	99.550227 
1563.000000	99.550953 
1562.000000	99.551593 
1561.000000	99.552282 
1560.000000	99.553483 
1559.000000	99.554185 
1558.000000	99.553908 
1557.000000	99.553536 
1556.000000	99.553381 
1555.000000	99.553424 
1554.000000	99.553518 
1553.000000	99.553542 
1552.000000	99.553613 
1551.000000	99.553835 
1550.000000	99.554206 
1549.000000	99.554553 
1548.000000	99.554785 
1547.000000	99.554962 
1546.000000	99.555107 
1545.000000	99.555120 
1544.000000	99.555024 
1543.000000	99.555066 
1542.000000	99.555418 
1541.000000	99.555639 
1540.000000	99.555288 
1539.000000	99.554914 
1538.000000	99.554634 
1537.000000	99.553847 
1536.000000	99.552655 
1535.000000	99.551750 
1534.000000	99.551515 
1533.000000	99.551802 
1532.000000	99.552304 
1531.000000	99.552923 
1530.000000	99.553593 
1529.000000	99.553896 
1528.000000	99.553400 
1527.000000	99.552315 
1526.000000	99.551136 
1525.000000	99.549867 
1524.000000	99.548387 
1523.000000	99.547255 
1522.000000	99.546932 
1521.000000	99.546817 
1520.000000	99.546130 
1519.000000	99.544822 
1518.000000	99.543573 
1517.000000	99.542887 
1516.000000	99.542470 
1515.000000	99.542035 
1514.000000	99.541949 
1513.000000	99.542685 
1512.000000	99.543384 
1511.000000	99.542969 
1510.000000	99.541921 
1509.000000	99.541252 
1508.000000	99.540326 
1507.000000	99.538034 
1506.000000	99.536651 
1505.000000	99.536249 
1504.000000	99.534070 
1503.000000	99.530206 
1502.000000	99.526374 
1501.000000	99.523014 
1500.000000	99.518820 
1499.000000	99.513367 
1498.000000	99.509819 
1497.000000	99.511141 
1496.000000	99.515568 
1495.000000	99.520246 
1494.000000	99.524523 
1493.000000	99.528083 
1492.000000	99.529705 
1491.000000	99.528231 
1490.000000	99.524340 
1489.000000	99.519467 
1488.000000	99.514179 
1487.000000	99.510350 
1486.000000	99.509026 
1485.000000	99.508314 
1484.000000	99.506900 
1483.000000	99.505179 
1482.000000	99.504024 
1481.000000	99.502977 
1480.000000	99.501100 
1479.000000	99.499270 
1478.000000	99.499105 
1477.000000	99.499802 
1476.000000	99.498981 
1475.000000	99.496817 
1474.000000	99.494358 
1473.000000	99.489992 
1472.000000	99.482311 
1471.000000	99.473984 
1470.000000	99.467761 
1469.000000	99.463162 
1468.000000	99.458893 
1467.000000	99.455412 
1466.000000	99.453933 
1465.000000	99.453671 
1464.000000	99.452752 
1463.000000	99.450722 
1462.000000	99.448898 
1461.000000	99.448095 
1460.000000	99.448092 
1459.000000	99.449031 
1458.000000	99.453791 
1457.000000	99.465293 
1456.000000	99.478660 
1455.000000	99.484932 
1454.000000	99.483263 
1453.000000	99.479149 
1452.000000	99.476031 
1451.000000	99.473847 
1450.000000	99.472495 
1449.000000	99.472074 
1448.000000	99.470687 
1447.000000	99.467143 
1446.000000	99.463016 
1445.000000	99.460884 
1444.000000	99.461240 
1443.000000	99.462391 
1442.000000	99.463631 
1441.000000	99.465608 
1440.000000	99.467474 
1439.000000	99.467328 
1438.000000	99.467091 
1437.000000	99.471187 
1436.000000	99.479221 
1435.000000	99.485626 
1434.000000	99.488084 
1433.000000	99.488744 
1432.000000	99.489445 
1431.000000	99.489685 
1430.000000	99.490273 
1429.000000	99.493826 
1428.000000	99.499611 
1427.000000	99.504426 
1426.000000	99.507502 
1425.000000	99.512431 
1424.000000	99.520875 
1423.000000	99.528859 
1422.000000	99.534260 
1421.000000	99.541142 
1420.000000	99.553026 
1419.000000	99.565909 
1418.000000	99.575539 
1417.000000	99.582917 
1416.000000	99.589011 
1415.000000	99.593826 
1414.000000	99.598349 
1413.000000	99.604692 
1412.000000	99.613353 
1411.000000	99.621965 
1410.000000	99.629426 
1409.000000	99.636850 
1408.000000	99.644065 
1407.000000	99.649569 
1406.000000	99.653119 
1405.000000	99.656845 
1404.000000	99.661543 
1403.000000	99.664760 
1402.000000	99.665311 
1401.000000	99.664964 
1400.000000	99.665171 
1399.000000	99.665435 
1398.000000	99.667114 
1397.000000	99.674510 
1396.000000	99.689569 
1395.000000	99.706573 
1394.000000	99.715617 
1393.000000	99.713545 
1392.000000	99.705225 
1391.000000	99.697213 
1390.000000	99.693364 
1389.000000	99.694022 
1388.000000	99.697165 
1387.000000	99.700514 
1386.000000	99.703434 
1385.000000	99.706736 
1384.000000	99.710782 
1383.000000	99.714444 
1382.000000	99.716371 
1381.000000	99.716466 
1380.000000	99.715883 
1379.000000	99.715396 
1378.000000	99.714449 
1377.000000	99.712319 
1376.000000	99.709365 
1375.000000	99.706365 
1374.000000	99.703494 
1373.000000	99.700568 
1372.000000	99.697305 
1371.000000	99.693590 
1370.000000	99.689558 
1369.000000	99.686145 
1368.000000	99.684238 
1367.000000	99.683038 
1366.000000	99.680928 
1365.000000	99.677274 
1364.000000	99.672810 
1363.000000	99.668747 
1362.000000	99.665765 
1361.000000	99.663579 
1360.000000	99.661563 
1359.000000	99.659685 
1358.000000	99.658529 
1357.000000	99.658716 
1356.000000	99.659985 
1355.000000	99.660830 
1354.000000	99.659930 
1353.000000	99.657406 
1352.000000	99.654535 
1351.000000	99.652796 
1350.000000	99.652001 
1349.000000	99.651301 
1348.000000	99.650548 
1347.000000	99.649749 
1346.000000	99.649260 
1345.000000	99.650264 
1344.000000	99.653634 
1343.000000	99.658255 
1342.000000	99.661718 
1341.000000	99.662764 
1340.000000	99.662144 
1339.000000	99.661117 
1338.000000	99.660265 
1337.000000	99.659766 
1336.000000	99.659588 
1335.000000	99.659471 
1334.000000	99.659532 
1333.000000	99.660540 
1332.000000	99.662729 
1331.000000	99.664629 
1330.000000	99.664431 
1329.000000	99.662455 
1328.000000	99.660875 
1327.000000	99.660870 
1326.000000	99.661364 
1325.000000	99.661195 
1324.000000	99.660508 
1323.000000	99.659596 
1322.000000	99.658119 
1321.000000	99.656023 
1320.000000	99.654223 
1319.000000	99.653766 
1318.000000	99.654952 
1317.000000	99.657403 
1316.000000	99.660417 
1315.000000	99.663114 
1314.000000	99.664864 
1313.000000	99.665753 
1312.000000	99.666258 
1311.000000	99.666501 
1310.000000	99.666354 
1309.000000	99.666072 
1308.000000	99.666133 
1307.000000	99.666525 
1306.000000	99.666720 
1305.000000	99.666628 
1304.000000	99.666533 
1303.000000	99.666135 
1302.000000	99.664704 
1301.000000	99.662317 
1300.000000	99.660113 
1299.000000	99.659049 
1298.000000	99.659241 
1297.000000	99.660533 
1296.000000	99.662778 
1295.000000	99.665112 
1294.000000	99.666131 
1293.000000	99.665520 
1292.000000	99.664579 
1291.000000	99.664503 
1290.000000	99.664783 
1289.000000	99.664023 
1288.000000	99.661896 
1287.000000	99.659558 
1286.000000	99.658242 
1285.000000	99.658180 
1284.000000	99.659032 
1283.000000	99.660827 
1282.000000	99.663985 
1281.000000	99.668087 
1280.000000	99.671214 
1279.000000	99.671558 
1278.000000	99.669713 
1277.000000	99.668138 
1276.000000	99.668157 
1275.000000	99.668706 
1274.000000	99.668642 
1273.000000	99.668945 
1272.000000	99.671335 
1271.000000	99.675654 
1270.000000	99.680119 
1269.000000	99.683764 
1268.000000	99.687264 
1267.000000	99.691614 
1266.000000	99.697287 
1265.000000	99.704135 
1264.000000	99.710998 
1263.000000	99.716150 
1262.000000	99.719232 
1261.000000	99.721875 
1260.000000	99.725194 
1259.000000	99.727736 
1258.000000	99.727796 
1257.000000	99.726482 
1256.000000	99.726209 
1255.000000	99.727212 
1254.000000	99.728097 
1253.000000	99.729146 
1252.000000	99.731963 
1251.000000	99.735619 
1250.000000	99.736192 
1249.000000	99.731170 
1248.000000	99.722101 
1247.000000	99.712378 
1246.000000	99.704972 
1245.000000	99.702769 
1244.000000	99.707550 
1243.000000	99.716068 
1242.000000	99.719615 
1241.000000	99.711200 
1240.000000	99.692819 
1239.000000	99.673806 
1238.000000	99.662018 
1237.000000	99.658313 
1236.000000	99.659259 
1235.000000	99.661922 
1234.000000	99.664820 
1233.000000	99.666715 
1232.000000	99.666962 
1231.000000	99.666444 
1230.000000	99.666205 
1229.000000	99.664934 
1228.000000	99.659341 
1227.000000	99.647707 
1226.000000	99.632091 
1225.000000	99.616317 
1224.000000	99.602342 
1223.000000	99.589275 
1222.000000	99.575437 
1221.000000	99.560411 
1220.000000	99.545024 
1219.000000	99.529844 
1218.000000	99.514044 
1217.000000	99.495811 
1216.000000	99.474016 
1215.000000	99.449420 
1214.000000	99.423967 
1213.000000	99.399049 
1212.000000	99.375008 
1211.000000	99.352106 
1210.000000	99.330637 
1209.000000	99.309685 
1208.000000	99.287214 
1207.000000	99.262590 
1206.000000	99.238134 
1205.000000	99.216670 
1204.000000	99.197887 
1203.000000	99.178469 
1202.000000	99.155835 
1201.000000	99.130654 
1200.000000	99.105378 
1199.000000	99.081447 
1198.000000	99.058806 
1197.000000	99.037558 
1196.000000	99.018777 
1195.000000	99.003163 
1194.000000	98.989289 
1193.000000	98.974060 
1192.000000	98.955186 
1191.000000	98.932819 
1190.000000	98.908617 
1189.000000	98.883767 
1188.000000	98.858516 
1187.000000	98.833150 
1186.000000	98.808291 
1185.000000	98.784182 
1184.000000	98.760632 
1183.000000	98.737771 
1182.000000	98.715780 
1181.000000	98.693778 
1180.000000	98.670397 
1179.000000	98.646020 
1178.000000	98.623092 
1177.000000	98.603108 
1176.000000	98.584164 
1175.000000	98.562496 
1174.000000	98.535816 
1173.000000	98.504453 
1172.000000	98.470274 
1171.000000	98.435877 
1170.000000	98.403983 
1169.000000	98.375672 
1168.000000	98.349394 
1167.000000	98.323324 
1166.000000	98.298807 
1165.000000	98.279897 
1164.000000	98.269222 
1163.000000	98.265796 
1162.000000	98.267150 
1161.000000	98.271931 
1160.000000	98.279282 
1159.000000	98.287013 
1158.000000	98.292166 
1157.000000	98.292743 
1156.000000	98.287569 
1155.000000	98.275477 
1154.000000	98.256550 
1153.000000	98.233721 
1152.000000	98.211063 
1151.000000	98.190054 
1150.000000	98.168912 
1149.000000	98.146106 
1148.000000	98.123157 
1147.000000	98.103034 
1146.000000	98.086405 
1145.000000	98.070414 
1144.000000	98.051128 
1143.000000	98.026778 
1142.000000	97.998809 
1141.000000	97.970149 
1140.000000	97.942605 
1139.000000	97.916052 
1138.000000	97.889757 
1137.000000	97.863583 
1136.000000	97.837633 
1135.000000	97.811861 
1134.000000	97.786953 
1133.000000	97.764477 
1132.000000	97.744582 
1131.000000	97.724260 
1130.000000	97.700058 
1129.000000	97.672617 
1128.000000	97.646308 
1127.000000	97.623732 
1126.000000	97.602629 
1125.000000	97.579297 
1124.000000	97.553154 
1123.000000	97.526279 
1122.000000	97.499997 
1121.000000	97.474102 
1120.000000	97.448807 
1119.000000	97.425445 
1118.000000	97.405045 
1117.000000	97.387315 
1116.000000	97.371050 
1115.000000	97.354799 
1114.000000	97.337468 
1113.000000	97.318952 
1112.000000	97.299851 
1111.000000	97.280432 
1110.000000	97.260924 
1109.000000	97.242986 
1108.000000	97.228512 
1107.000000	97.216177 
1106.000000	97.201433 
1105.000000	97.181720 
1104.000000	97.160180 
1103.000000	97.142046 
1102.000000	97.128167 
1101.000000	97.114800 
1100.000000	97.098567 
1099.000000	97.080429 
1098.000000	97.063249 
1097.000000	97.047617 
1096.000000	97.031438 
1095.000000	97.013176 
1094.000000	96.995560 
1093.000000	96.985234 
1092.000000	96.987243 
1091.000000	96.999292 
1090.000000	97.013037 
1089.000000	97.022375 
1088.000000	97.028964 
1087.000000	97.038415 
1086.000000	97.053227 
1085.000000	97.071352 
1084.000000	97.089829 
1083.000000	97.107294 
1082.000000	97.123800 
1081.000000	97.140101 
1080.000000	97.156410 
1079.000000	97.170560 
1078.000000	97.178806 
1077.000000	97.179941 
1076.000000	97.176955 
1075.000000	97.172503 
1074.000000	97.164135 
1073.000000	97.146809 
1072.000000	97.119927 
1071.000000	97.090091 
1070.000000	97.066754 
1069.000000	97.055029 
1068.000000	97.050541 
1067.000000	97.039658 
1066.000000	97.007386 
1065.000000	96.948730 
1064.000000	96.872884 
1063.000000	96.795937 
1062.000000	96.730454 
1061.000000	96.682270 
1060.000000	96.652509 
1059.000000	96.636853 
1058.000000	96.624215 
1057.000000	96.602638 
1056.000000	96.568807 
1055.000000	96.529234 
1054.000000	96.491960 
1053.000000	96.459941 
1052.000000	96.432306 
1051.000000	96.407283 
1050.000000	96.381458 
1049.000000	96.349634 
1048.000000	96.308524 
1047.000000	96.259408 
1046.000000	96.206276 
1045.000000	96.152962 
1044.000000	96.101922 
1043.000000	96.053224 
1042.000000	96.004503 
1041.000000	95.954361 
1040.000000	95.905360 
1039.000000	95.860190 
1038.000000	95.815130 
1037.000000	95.762349 
1036.000000	95.700471 
1035.000000	95.638399 
1034.000000	95.586131 
1033.000000	95.546070 
1032.000000	95.516479 
1031.000000	95.498862 
1030.000000	95.496011 
1029.000000	95.503643 
1028.000000	95.508983 
1027.000000	95.499974 
1026.000000	95.474847 
1025.000000	95.442065 
1024.000000	95.412444 
1023.000000	95.391892 
1022.000000	95.379802 
1021.000000	95.372316 
1020.000000	95.366228 
1019.000000	95.359944 
1018.000000	95.352450 
1017.000000	95.343158 
1016.000000	95.332581 
1015.000000	95.321784 
1014.000000	95.311037 
1013.000000	95.299843 
1012.000000	95.288069 
1011.000000	95.275940 
1010.000000	95.263126 
1009.000000	95.249212 
1008.000000	95.235320 
1007.000000	95.224480 
1006.000000	95.220152 
1005.000000	95.224284 
1004.000000	95.235795 
1003.000000	95.250363 
1002.000000	95.262989 
1001.000000	95.271896 
1000.000000	95.278950 
999.000000	 95.285968 
998.000000	 95.292793 
997.000000	 95.299977 
996.000000	 95.310491 
995.000000	 95.326282 
994.000000	 95.345068 
993.000000	 95.363428 
992.000000	 95.381987 
991.000000	 95.404869 
990.000000	 95.434659 
989.000000	 95.469945 
988.000000	 95.506717 
987.000000	 95.540386 
986.000000	 95.568264 
985.000000	 95.592477 
984.000000	 95.619026 
983.000000	 95.651835 
982.000000	 95.689231 
981.000000	 95.728147 
980.000000	 95.769428 
979.000000	 95.816052 
978.000000	 95.867967 
977.000000	 95.922004 
976.000000	 95.975769 
975.000000	 96.028519 
974.000000	 96.079183 
973.000000	 96.126937 
972.000000	 96.173614 
971.000000	 96.222876 
970.000000	 96.276799 
969.000000	 96.334759 
968.000000	 96.394814 
967.000000	 96.454307 
966.000000	 96.510253 
965.000000	 96.561549 
964.000000	 96.610461 
963.000000	 96.660208 
962.000000	 96.711493 
961.000000	 96.762491 
960.000000	 96.811041 
959.000000	 96.855468 
958.000000	 96.895021 
957.000000	 96.931742 
956.000000	 96.970763 
955.000000	 97.016093 
954.000000	 97.065963 
953.000000	 97.113913 
952.000000	 97.154430 
951.000000	 97.186749 
950.000000	 97.214375 
949.000000	 97.242319 
948.000000	 97.273932 
947.000000	 97.308905 
946.000000	 97.344164 
945.000000	 97.376834 
944.000000	 97.405849 
943.000000	 97.431549 
942.000000	 97.455728 
941.000000	 97.481700 
940.000000	 97.511510 
939.000000	 97.542353 
938.000000	 97.568659 
937.000000	 97.589075 
936.000000	 97.608649 
935.000000	 97.632634 
934.000000	 97.661013 
933.000000	 97.691049 
932.000000	 97.721897 
931.000000	 97.753514 
930.000000	 97.783644 
929.000000	 97.809796 
928.000000	 97.833006 
927.000000	 97.856401 
926.000000	 97.880941 
925.000000	 97.905489 
924.000000	 97.930129 
923.000000	 97.955932 
922.000000	 97.981543 
921.000000	 98.003258 
920.000000	 98.019336 
919.000000	 98.032260 
918.000000	 98.046146 
917.000000	 98.063321 
916.000000	 98.083575 
915.000000	 98.105003 
914.000000	 98.125307 
913.000000	 98.144026 
912.000000	 98.164225 
911.000000	 98.190635 
910.000000	 98.225335 
909.000000	 98.265733 
908.000000	 98.306964 
907.000000	 98.345914 
906.000000	 98.382488 
905.000000	 98.417459 
904.000000	 98.450388 
903.000000	 98.481138 
902.000000	 98.513350 
901.000000	 98.553519 
900.000000	 98.603735 
899.000000	 98.656492 
898.000000	 98.700448 
897.000000	 98.732262 
896.000000	 98.759483 
895.000000	 98.791063 
894.000000	 98.827715 
893.000000	 98.863399 
892.000000	 98.893481 
891.000000	 98.918413 
890.000000	 98.941051 
889.000000	 98.963235 
888.000000	 98.984779 
887.000000	 99.004120 
886.000000	 99.019765 
885.000000	 99.031902 
884.000000	 99.042505 
883.000000	 99.053588 
882.000000	 99.065803 
881.000000	 99.078604 
880.000000	 99.090674 
879.000000	 99.100462 
878.000000	 99.108155 
877.000000	 99.117144 
876.000000	 99.131262 
875.000000	 99.150389 
874.000000	 99.171553 
873.000000	 99.194856 
872.000000	 99.224394 
871.000000	 99.261109 
870.000000	 99.298389 
869.000000	 99.328783 
868.000000	 99.353164 
867.000000	 99.379054 
866.000000	 99.410021 
865.000000	 99.440248 
864.000000	 99.461208 
863.000000	 99.471750 
862.000000	 99.479892 
861.000000	 99.495182 
860.000000	 99.520650 
859.000000	 99.552079 
858.000000	 99.582807 
857.000000	 99.607478 
856.000000	 99.622743 
855.000000	 99.628427 
854.000000	 99.629501 
853.000000	 99.633230 
852.000000	 99.641576 
851.000000	 99.649054 
850.000000	 99.651179 
849.000000	 99.652592 
848.000000	 99.662392 
847.000000	 99.682346 
846.000000	 99.704355 
845.000000	 99.719573 
844.000000	 99.725490 
843.000000	 99.723858 
842.000000	 99.716889 
841.000000	 99.707643 
840.000000	 99.700449 
839.000000	 99.698249 
838.000000	 99.701083 
837.000000	 99.707647 
836.000000	 99.715571 
835.000000	 99.720066 
834.000000	 99.716911 
833.000000	 99.708682 
832.000000	 99.703738 
831.000000	 99.706203 
830.000000	 99.710537 
829.000000	 99.709562 
828.000000	 99.704413 
827.000000	 99.702188 
826.000000	 99.706635 
825.000000	 99.716302 
824.000000	 99.729392 
823.000000	 99.743670 
822.000000	 99.752609 
821.000000	 99.748754 
820.000000	 99.732027 
819.000000	 99.710705 
818.000000	 99.693891 
817.000000	 99.685424 
816.000000	 99.683958 
815.000000	 99.684581 
814.000000	 99.679219 
813.000000	 99.658787 
812.000000	 99.617658 
811.000000	 99.556029 
810.000000	 99.477856 
809.000000	 99.387492 
808.000000	 99.288257 
807.000000	 99.182047 
806.000000	 99.068620 
805.000000	 98.946598 
804.000000	 98.817241 
803.000000	 98.687044 
802.000000	 98.565671 
801.000000	 98.461724 
800.000000	 98.380798 
799.000000	 98.325586 
798.000000	 98.295880 
797.000000	 98.288872 
796.000000	 98.300006 
795.000000	 98.323357 
794.000000	 98.352617 
793.000000	 98.383760 
792.000000	 98.416085 
791.000000	 98.448650 
790.000000	 98.476395 
789.000000	 98.492143 
788.000000	 98.492264 
787.000000	 98.478409 
786.000000	 98.453726 
785.000000	 98.419612 
784.000000	 98.377171 
783.000000	 98.329971 
782.000000	 98.283336 
781.000000	 98.241152 
780.000000	 98.204825 
779.000000	 98.175883 
778.000000	 98.158827 
777.000000	 98.160348 
776.000000	 98.184906 
775.000000	 98.230700 
774.000000	 98.289914 
773.000000	 98.352689 
772.000000	 98.410781 
771.000000	 98.459464 
770.000000	 98.498994 
769.000000	 98.533728 
768.000000	 98.566755 
767.000000	 98.595704 
766.000000	 98.616921 
765.000000	 98.633089 
764.000000	 98.652104 
763.000000	 98.677701 
762.000000	 98.705852 
761.000000	 98.732098 
760.000000	 98.757852 
759.000000	 98.786575 
758.000000	 98.817716 
757.000000	 98.847836 
756.000000	 98.874468 
755.000000	 98.895648 
754.000000	 98.909273 
753.000000	 98.917275 
752.000000	 98.927634 
751.000000	 98.947327 
750.000000	 98.974177 
749.000000	 98.999782 
748.000000	 99.020063 
747.000000	 99.039039 
746.000000	 99.061897 
745.000000	 99.087858 
744.000000	 99.111568 
743.000000	 99.129858 
742.000000	 99.145683 
741.000000	 99.165399 
740.000000	 99.192160 
739.000000	 99.222262 
738.000000	 99.249042 
737.000000	 99.270305 
736.000000	 99.290233 
735.000000	 99.313747 
734.000000	 99.340631 
733.000000	 99.365528 
732.000000	 99.381819 
731.000000	 99.385268 
730.000000	 99.376816 
729.000000	 99.363273 
728.000000	 99.353007 
727.000000	 99.349383 
726.000000	 99.350290 
725.000000	 99.354407 
724.000000	 99.364199 
723.000000	 99.381177 
722.000000	 99.402321 
721.000000	 99.423962 
720.000000	 99.445743 
719.000000	 99.467248 
718.000000	 99.484227 
717.000000	 99.492986 
716.000000	 99.496011 
715.000000	 99.498923 
714.000000	 99.503688 
713.000000	 99.509218 
712.000000	 99.517451 
711.000000	 99.533772 
710.000000	 99.560765 
709.000000	 99.594668 
708.000000	 99.627864 
707.000000	 99.651267 
706.000000	 99.656205 
705.000000	 99.639724 
704.000000	 99.608437 
703.000000	 99.572982 
702.000000	 99.537383 
701.000000	 99.497111 
700.000000	 99.448344 
699.000000	 99.395120 
698.000000	 99.345720 
697.000000	 99.306050 
696.000000	 99.278692 
695.000000	 99.264697 
694.000000	 99.263483 
693.000000	 99.272805 
692.000000	 99.291209 
691.000000	 99.319664 
690.000000	 99.358923 
689.000000	 99.406483 
688.000000	 99.457228 
687.000000	 99.505065 
686.000000	 99.542703 
685.000000	 99.563375 
684.000000	 99.567464 
683.000000	 99.565786 
682.000000	 99.570684 
681.000000	 99.583014 
680.000000	 99.592592 
679.000000	 99.593137 
678.000000	 99.590767 
677.000000	 99.593221 
676.000000	 99.597298 
675.000000	 99.593753 
674.000000	 99.580327 
673.000000	 99.564596 
672.000000	 99.555916 
671.000000	 99.560616 
670.000000	 99.583911 
669.000000	 99.629965 
668.000000	 99.689792 
667.000000	 99.726286 
666.000000	 99.715701 
665.000000	 99.685816 
664.000000	 99.670616 
663.000000	 99.678788 
662.000000	 99.699853 
661.000000	 99.723577 
660.000000	 99.749602 
659.000000	 99.776130 
658.000000	 99.792005 
657.000000	 99.787290 
656.000000	 99.762462 
655.000000	 99.721089 
654.000000	 99.660837 
653.000000	 99.579904 
652.000000	 99.488462 
651.000000	 99.407735 
650.000000	 99.357700 

