4000.000000	100.092102 
3999.000000	100.091434 
3998.000000	100.090922 
3997.000000	100.090596 
3996.000000	100.090355 
3995.000000	100.090053 
3994.000000	100.089699 
3993.000000	100.089410 
3992.000000	100.089229 
3991.000000	100.089035 
3990.000000	100.088690 
3989.000000	100.088204 
3988.000000	100.087716 
3987.000000	100.087275 
3986.000000	100.086758 
3985.000000	100.086054 
3984.000000	100.085216 
3983.000000	100.084420 
3982.000000	100.083805 
3981.000000	100.083370 
3980.000000	100.083020 
3979.000000	100.082670 
3978.000000	100.082297 
3977.000000	100.081905 
3976.000000	100.081479 
3975.000000	100.080996 
3974.000000	100.080456 
3973.000000	100.079888 
3972.000000	100.079336 
3971.000000	100.078821 
3970.000000	100.078341 
3969.000000	100.077886 
3968.000000	100.077456 
3967.000000	100.077076 
3966.000000	100.076755 
3965.000000	100.076464 
3964.000000	100.076146 
3963.000000	100.075748 
3962.000000	100.075263 
3961.000000	100.074730 
3960.000000	100.074201 
3959.000000	100.073711 
3958.000000	100.073258 
3957.000000	100.072824 
3956.000000	100.072387 
3955.000000	100.071928 
3954.000000	100.071442 
3953.000000	100.070936 
3952.000000	100.070425 
3951.000000	100.069927 
3950.000000	100.069452 
3949.000000	100.069002 
3948.000000	100.068570 
3947.000000	100.068139 
3946.000000	100.067695 
3945.000000	100.067238 
3944.000000	100.066779 
3943.000000	100.066339 
3942.000000	100.065931 
3941.000000	100.065541 
3940.000000	100.065137 
3939.000000	100.064696 
3938.000000	100.064219 
3937.000000	100.063727 
3936.000000	100.063252 
3935.000000	100.062805 
3934.000000	100.062390 
3933.000000	100.062005 
3932.000000	100.061656 
3931.000000	100.061338 
3930.000000	100.061015 
3929.000000	100.060630 
3928.000000	100.060141 
3927.000000	100.059557 
3926.000000	100.058931 
3925.000000	100.058332 
3924.000000	100.057806 
3923.000000	100.057357 
3922.000000	100.056951 
3921.000000	100.056529 
3920.000000	100.056059 
3919.000000	100.055544 
3918.000000	100.055012 
3917.000000	100.054470 
3916.000000	100.053920 
3915.000000	100.053380 
3914.000000	100.052886 
3913.000000	100.052461 
3912.000000	100.052103 
3911.000000	100.051792 
3910.000000	100.051478 
3909.000000	100.051081 
3908.000000	100.050546 
3907.000000	100.049876 
3906.000000	100.049124 
3905.000000	100.048352 
3904.000000	100.047610 
3903.000000	100.046967 
3902.000000	100.046490 
3901.000000	100.046188 
3900.000000	100.045953 
3899.000000	100.045612 
3898.000000	100.045068 
3897.000000	100.044339 
3896.000000	100.043530 
3895.000000	100.042769 
3894.000000	100.042164 
3893.000000	100.041748 
3892.000000	100.041417 
3891.000000	100.040920 
3890.000000	100.040116 
3889.000000	100.039221 
3888.000000	100.038686 
3887.000000	100.038581 
3886.000000	100.038335 
3885.000000	100.037457 
3884.000000	100.036307 
3883.000000	100.035556 
3882.000000	100.035322 
3881.000000	100.035171 
3880.000000	100.034688 
3879.000000	100.033844 
3878.000000	100.033070 
3877.000000	100.032921 
3876.000000	100.033261 
3875.000000	100.032940 
3874.000000	100.030815 
3873.000000	100.027117 
3872.000000	100.023402 
3871.000000	100.021059 
3870.000000	100.020258 
3869.000000	100.020505 
3868.000000	100.021648 
3867.000000	100.023810 
3866.000000	100.026566 
3865.000000	100.028860 
3864.000000	100.030237 
3863.000000	100.030779 
3862.000000	100.030118 
3861.000000	100.027723 
3860.000000	100.023850 
3859.000000	100.019066 
3858.000000	100.013913 
3857.000000	100.009256 
3856.000000	100.006665 
3855.000000	100.006246 
3854.000000	100.005167 
3853.000000	100.002779 
3852.000000	100.002138 
3851.000000	100.004345 
3850.000000	100.008195 
3849.000000	100.012244 
3848.000000	100.015831 
3847.000000	100.018744 
3846.000000	100.020409 
3845.000000	100.020347 
3844.000000	100.019136 
3843.000000	100.017837 
3842.000000	100.017222 
3841.000000	100.017399 
3840.000000	100.017569 
3839.000000	100.016633 
3838.000000	100.014783 
3837.000000	100.013529 
3836.000000	100.014075 
3835.000000	100.015831 
3834.000000	100.017305 
3833.000000	100.017678 
3832.000000	100.017327 
3831.000000	100.017367 
3830.000000	100.018536 
3829.000000	100.020498 
3828.000000	100.022406 
3827.000000	100.023593 
3826.000000	100.023973 
3825.000000	100.024163 
3824.000000	100.024840 
3823.000000	100.025267 
3822.000000	100.023535 
3821.000000	100.019401 
3820.000000	100.015187 
3819.000000	100.012435 
3818.000000	100.010881 
3817.000000	100.009627 
3816.000000	100.007864 
3815.000000	100.005884 
3814.000000	100.004784 
3813.000000	100.004933 
3812.000000	100.005720 
3811.000000	100.006628 
3810.000000	100.007619 
3809.000000	100.008599 
3808.000000	100.008994 
3807.000000	100.008305 
3806.000000	100.007030 
3805.000000	100.006009 
3804.000000	100.005352 
3803.000000	100.004350 
3802.000000	100.002230 
3801.000000	99.999592  
3800.000000	99.998168  
3799.000000	99.998679  
3798.000000	100.000444 
3797.000000	100.002303 
3796.000000	100.003299 
3795.000000	100.003140 
3794.000000	100.002191 
3793.000000	100.001019 
3792.000000	99.999952  
3791.000000	99.999116  
3790.000000	99.998565  
3789.000000	99.998312  
3788.000000	99.998201  
3787.000000	99.997873  
3786.000000	99.997069  
3785.000000	99.996085  
3784.000000	99.995689  
3783.000000	99.996445  
3782.000000	99.998033  
3781.000000	99.999324  
3780.000000	99.999502  
3779.000000	99.998944  
3778.000000	99.998550  
3777.000000	99.998515  
3776.000000	99.998466  
3775.000000	99.998068  
3774.000000	99.997406  
3773.000000	99.996736  
3772.000000	99.995965  
3771.000000	99.994484  
3770.000000	99.992393  
3769.000000	99.991232  
3768.000000	99.992098  
3767.000000	99.994268  
3766.000000	99.996124  
3765.000000	99.996580  
3764.000000	99.995874  
3763.000000	99.995063  
3762.000000	99.994652  
3761.000000	99.993867  
3760.000000	99.991793  
3759.000000	99.988669  
3758.000000	99.984749  
3757.000000	99.979250  
3756.000000	99.972293  
3755.000000	99.965695  
3754.000000	99.961313  
3753.000000	99.959136  
3752.000000	99.957771  
3751.000000	99.957524  
3750.000000	99.959958  
3749.000000	99.963948  
3748.000000	99.966902  
3747.000000	99.968596  
3746.000000	99.970346  
3745.000000	99.971383  
3744.000000	99.970155  
3743.000000	99.968663  
3742.000000	99.969697  
3741.000000	99.972242  
3740.000000	99.973663  
3739.000000	99.973906  
3738.000000	99.974845  
3737.000000	99.977203  
3736.000000	99.980878  
3735.000000	99.986052  
3734.000000	99.991353  
3733.000000	99.993149  
3732.000000	99.989565  
3731.000000	99.982736  
3730.000000	99.975436  
3729.000000	99.968621  
3728.000000	99.962280  
3727.000000	99.956906  
3726.000000	99.953409  
3725.000000	99.951777  
3724.000000	99.950386  
3723.000000	99.947807  
3722.000000	99.944964  
3721.000000	99.943753  
3720.000000	99.943995  
3719.000000	99.943855  
3718.000000	99.941925  
3717.000000	99.938116  
3716.000000	99.933736  
3715.000000	99.929652  
3714.000000	99.924443  
3713.000000	99.914972  
3712.000000	99.900150  
3711.000000	99.883791  
3710.000000	99.870703  
3709.000000	99.862399  
3708.000000	99.857369  
3707.000000	99.852657  
3706.000000	99.845363  
3705.000000	99.833811  
3704.000000	99.818074  
3703.000000	99.799569  
3702.000000	99.780425  
3701.000000	99.762264  
3700.000000	99.745056  
3699.000000	99.727999  
3698.000000	99.710690  
3697.000000	99.692875  
3696.000000	99.674893  
3695.000000	99.658118  
3694.000000	99.643688  
3693.000000	99.631303  
3692.000000	99.619600  
3691.000000	99.607703  
3690.000000	99.595890  
3689.000000	99.584972  
3688.000000	99.574965  
3687.000000	99.565414  
3686.000000	99.557319  
3685.000000	99.552653  
3684.000000	99.553114  
3683.000000	99.558974  
3682.000000	99.567483  
3681.000000	99.572245  
3680.000000	99.565986  
3679.000000	99.546117  
3678.000000	99.517756  
3677.000000	99.490531  
3676.000000	99.472325  
3675.000000	99.466237  
3674.000000	99.469110  
3673.000000	99.475551  
3672.000000	99.483216  
3671.000000	99.490625  
3670.000000	99.495490  
3669.000000	99.497451  
3668.000000	99.497440  
3667.000000	99.495247  
3666.000000	99.490424  
3665.000000	99.483546  
3664.000000	99.476500  
3663.000000	99.471928  
3662.000000	99.471258  
3661.000000	99.473775  
3660.000000	99.478220  
3659.000000	99.484712  
3658.000000	99.494311  
3657.000000	99.506833  
3656.000000	99.520085  
3655.000000	99.532002  
3654.000000	99.542248  
3653.000000	99.551663  
3652.000000	99.560759  
3651.000000	99.568916  
3650.000000	99.575753  
3649.000000	99.582744  
3648.000000	99.591032  
3647.000000	99.599704  
3646.000000	99.608013  
3645.000000	99.616261  
3644.000000	99.624644  
3643.000000	99.633096  
3642.000000	99.641775  
3641.000000	99.651338  
3640.000000	99.662143  
3639.000000	99.673414  
3638.000000	99.684011  
3637.000000	99.693660  
3636.000000	99.702618  
3635.000000	99.710226  
3634.000000	99.714997  
3633.000000	99.716861  
3632.000000	99.717963  
3631.000000	99.720270  
3630.000000	99.722632  
3629.000000	99.722916  
3628.000000	99.722493  
3627.000000	99.723747  
3626.000000	99.726955  
3625.000000	99.731379  
3624.000000	99.736646  
3623.000000	99.742810  
3622.000000	99.749474  
3621.000000	99.754547  
3620.000000	99.755323  
3619.000000	99.751693  
3618.000000	99.746888  
3617.000000	99.744391  
3616.000000	99.745859  
3615.000000	99.750557  
3614.000000	99.755864  
3613.000000	99.759251  
3612.000000	99.760137  
3611.000000	99.759911  
3610.000000	99.760503  
3609.000000	99.763104  
3608.000000	99.767790  
3607.000000	99.773824  
3606.000000	99.779955  
3605.000000	99.785032  
3604.000000	99.788522  
3603.000000	99.790420  
3602.000000	99.791290  
3601.000000	99.791989  
3600.000000	99.793057  
3599.000000	99.794347  
3598.000000	99.795169  
3597.000000	99.795311  
3596.000000	99.795684  
3595.000000	99.797435  
3594.000000	99.800440  
3593.000000	99.803185  
3592.000000	99.804195  
3591.000000	99.803625  
3590.000000	99.803167  
3589.000000	99.804527  
3588.000000	99.807862  
3587.000000	99.811649  
3586.000000	99.813872  
3585.000000	99.813681  
3584.000000	99.811956  
3583.000000	99.810364  
3582.000000	99.810149  
3581.000000	99.811464  
3580.000000	99.813383  
3579.000000	99.814620  
3578.000000	99.814447  
3577.000000	99.813173  
3576.000000	99.811711  
3575.000000	99.810698  
3574.000000	99.810005  
3573.000000	99.809142  
3572.000000	99.807820  
3571.000000	99.806303  
3570.000000	99.805342  
3569.000000	99.805639  
3568.000000	99.807287  
3567.000000	99.809822  
3566.000000	99.812458  
3565.000000	99.814615  
3564.000000	99.816656  
3563.000000	99.819425  
3562.000000	99.823020  
3561.000000	99.826487  
3560.000000	99.828659  
3559.000000	99.829250  
3558.000000	99.828930  
3557.000000	99.828369  
3556.000000	99.827409  
3555.000000	99.825336  
3554.000000	99.821904  
3553.000000	99.817946  
3552.000000	99.814747  
3551.000000	99.812865  
3550.000000	99.811953  
3549.000000	99.811588  
3548.000000	99.811894  
3547.000000	99.813301  
3546.000000	99.815836  
3545.000000	99.818717  
3544.000000	99.820872  
3543.000000	99.821783  
3542.000000	99.821831  
3541.000000	99.821907  
3540.000000	99.822707  
3539.000000	99.824280  
3538.000000	99.826078  
3537.000000	99.827392  
3536.000000	99.827786  
3535.000000	99.827179  
3534.000000	99.825720  
3533.000000	99.823685  
3532.000000	99.821437  
3531.000000	99.819499  
3530.000000	99.818543  
3529.000000	99.819164  
3528.000000	99.821421  
3527.000000	99.824585  
3526.000000	99.827493  
3525.000000	99.829383  
3524.000000	99.830378  
3523.000000	99.831097  
3522.000000	99.831846  
3521.000000	99.832265  
3520.000000	99.831879  
3519.000000	99.830812  
3518.000000	99.829858  
3517.000000	99.829835  
3516.000000	99.830932  
3515.000000	99.832644  
3514.000000	99.834234  
3513.000000	99.835244  
3512.000000	99.835637  
3511.000000	99.835653  
3510.000000	99.835604  
3509.000000	99.835644  
3508.000000	99.835636  
3507.000000	99.835319  
3506.000000	99.834632  
3505.000000	99.833806  
3504.000000	99.833165  
3503.000000	99.832876  
3502.000000	99.832848  
3501.000000	99.832824  
3500.000000	99.832514  
3499.000000	99.831687  
3498.000000	99.830395  
3497.000000	99.829183  
3496.000000	99.828878  
3495.000000	99.829958  
3494.000000	99.832170  
3493.000000	99.834770  
3492.000000	99.837101  
3491.000000	99.838863  
3490.000000	99.840010  
3489.000000	99.840592  
3488.000000	99.840746  
3487.000000	99.840657  
3486.000000	99.840310  
3485.000000	99.839348  
3484.000000	99.837429  
3483.000000	99.834872  
3482.000000	99.832798  
3481.000000	99.832227  
3480.000000	99.833014  
3479.000000	99.833904  
3478.000000	99.833716  
3477.000000	99.832374  
3476.000000	99.830769  
3475.000000	99.829838  
3474.000000	99.829865  
3473.000000	99.830547  
3472.000000	99.831476  
3471.000000	99.832433  
3470.000000	99.833307  
3469.000000	99.833881  
3468.000000	99.833767  
3467.000000	99.832633  
3466.000000	99.830494  
3465.000000	99.827745  
3464.000000	99.824957  
3463.000000	99.822691  
3462.000000	99.821395  
3461.000000	99.821187  
3460.000000	99.821672  
3459.000000	99.822229  
3458.000000	99.822609  
3457.000000	99.823097  
3456.000000	99.823948  
3455.000000	99.824894  
3454.000000	99.825425  
3453.000000	99.825273  
3452.000000	99.824481  
3451.000000	99.823239  
3450.000000	99.821918  
3449.000000	99.821093  
3448.000000	99.821154  
3447.000000	99.821899  
3446.000000	99.822711  
3445.000000	99.823176  
3444.000000	99.823350  
3443.000000	99.823449  
3442.000000	99.823558  
3441.000000	99.823633  
3440.000000	99.823563  
3439.000000	99.823155  
3438.000000	99.822245  
3437.000000	99.820915  
3436.000000	99.819456  
3435.000000	99.818108  
3434.000000	99.816948  
3433.000000	99.815961  
3432.000000	99.815139  
3431.000000	99.814506  
3430.000000	99.814132  
3429.000000	99.814095  
3428.000000	99.814317  
3427.000000	99.814461  
3426.000000	99.814127  
3425.000000	99.813194  
3424.000000	99.811926  
3423.000000	99.810770  
3422.000000	99.810003  
3421.000000	99.809551  
3420.000000	99.809124  
3419.000000	99.808520  
3418.000000	99.807837  
3417.000000	99.807333  
3416.000000	99.807093  
3415.000000	99.806943  
3414.000000	99.806642  
3413.000000	99.806148  
3412.000000	99.805601  
3411.000000	99.805141  
3410.000000	99.804787  
3409.000000	99.804469  
3408.000000	99.804114  
3407.000000	99.803697  
3406.000000	99.803243  
3405.000000	99.802790  
3404.000000	99.802359  
3403.000000	99.801944  
3402.000000	99.801535  
3401.000000	99.801133  
3400.000000	99.800740  
3399.000000	99.800359  
3398.000000	99.799994  
3397.000000	99.799648  
3396.000000	99.799318  
3395.000000	99.799002  
3394.000000	99.798694  
3393.000000	99.798390  
3392.000000	99.798089  
3391.000000	99.797791  
3390.000000	99.797493  
3389.000000	99.797199  
3388.000000	99.796908  
3387.000000	99.796624  
3386.000000	99.796349  
3385.000000	99.796085  
3384.000000	99.795833  
3383.000000	99.795592  
3382.000000	99.795358  
3381.000000	99.795132  
3380.000000	99.794913  
3379.000000	99.794703  
3378.000000	99.794502  
3377.000000	99.794311  
3376.000000	99.794129  
3375.000000	99.793950  
3374.000000	99.793769  
3373.000000	99.793571  
3372.000000	99.793345  
3371.000000	99.793099  
3370.000000	99.792858  
3369.000000	99.792627  
3368.000000	99.792382  
3367.000000	99.792097  
3366.000000	99.791785  
3365.000000	99.791497  
3364.000000	99.791275  
3363.000000	99.791117  
3362.000000	99.790988  
3361.000000	99.790858  
3360.000000	99.790705  
3359.000000	99.790520  
3358.000000	99.790305  
3357.000000	99.790074  
3356.000000	99.789839  
3355.000000	99.789597  
3354.000000	99.789345  
3353.000000	99.789090  
3352.000000	99.788843  
3351.000000	99.788610  
3350.000000	99.788388  
3349.000000	99.788177  
3348.000000	99.787974  
3347.000000	99.787773  
3346.000000	99.787568  
3345.000000	99.787352  
3344.000000	99.787119  
3343.000000	99.786868  
3342.000000	99.786599  
3341.000000	99.786315  
3340.000000	99.786023  
3339.000000	99.785731  
3338.000000	99.785432  
3337.000000	99.785107  
3336.000000	99.784736  
3335.000000	99.784333  
3334.000000	99.783935  
3333.000000	99.783558  
3332.000000	99.783170  
3331.000000	99.782734  
3330.000000	99.782266  
3329.000000	99.781831  
3328.000000	99.781479  
3327.000000	99.781180  
3326.000000	99.780845  
3325.000000	99.780415  
3324.000000	99.779905  
3323.000000	99.779359  
3322.000000	99.778792  
3321.000000	99.778217  
3320.000000	99.777692  
3319.000000	99.777305  
3318.000000	99.777068  
3317.000000	99.776839  
3316.000000	99.776403  
3315.000000	99.775667  
3314.000000	99.774808  
3313.000000	99.774167  
3312.000000	99.773927  
3311.000000	99.773967  
3310.000000	99.774001  
3309.000000	99.773842  
3308.000000	99.773471  
3307.000000	99.772885  
3306.000000	99.772023  
3305.000000	99.770869  
3304.000000	99.769532  
3303.000000	99.768183  
3302.000000	99.766975  
3301.000000	99.766036  
3300.000000	99.765422  
3299.000000	99.765020  
3298.000000	99.764602  
3297.000000	99.764059  
3296.000000	99.763539  
3295.000000	99.763272  
3294.000000	99.763273  
3293.000000	99.763268  
3292.000000	99.762952  
3291.000000	99.762324  
3290.000000	99.761766  
3289.000000	99.761704  
3288.000000	99.762117  
3287.000000	99.762412  
3286.000000	99.761910  
3285.000000	99.760447  
3284.000000	99.758466  
3283.000000	99.756617  
3282.000000	99.755281  
3281.000000	99.754493  
3280.000000	99.754161  
3279.000000	99.754209  
3278.000000	99.754526  
3277.000000	99.754844  
3276.000000	99.754743  
3275.000000	99.753911  
3274.000000	99.752441  
3273.000000	99.750863  
3272.000000	99.749741  
3271.000000	99.749231  
3270.000000	99.749119  
3269.000000	99.749147  
3268.000000	99.749129  
3267.000000	99.748778  
3266.000000	99.747718  
3265.000000	99.745823  
3264.000000	99.743414  
3263.000000	99.741023  
3262.000000	99.738990  
3261.000000	99.737428  
3260.000000	99.736417  
3259.000000	99.735971  
3258.000000	99.735846  
3257.000000	99.735596  
3256.000000	99.734974  
3255.000000	99.734178  
3254.000000	99.733595  
3253.000000	99.733302  
3252.000000	99.732909  
3251.000000	99.731892  
3250.000000	99.730081  
3249.000000	99.727866  
3248.000000	99.725938  
3247.000000	99.724784  
3246.000000	99.724349  
3245.000000	99.724124  
3244.000000	99.723692  
3243.000000	99.723147  
3242.000000	99.722855  
3241.000000	99.722825  
3240.000000	99.722518  
3239.000000	99.721502  
3238.000000	99.720087  
3237.000000	99.718995  
3236.000000	99.718436  
3235.000000	99.717874  
3234.000000	99.716802  
3233.000000	99.715357  
3232.000000	99.713999  
3231.000000	99.712819  
3230.000000	99.711493  
3229.000000	99.709802  
3228.000000	99.707920  
3227.000000	99.706236  
3226.000000	99.705073  
3225.000000	99.704515  
3224.000000	99.704315  
3223.000000	99.704034  
3222.000000	99.703479  
3221.000000	99.702914  
3220.000000	99.702678  
3219.000000	99.702693  
3218.000000	99.702537  
3217.000000	99.701976  
3216.000000	99.701200  
3215.000000	99.700544  
3214.000000	99.700157  
3213.000000	99.699988  
3212.000000	99.699971  
3211.000000	99.700078  
3210.000000	99.700219  
3209.000000	99.700175  
3208.000000	99.699702  
3207.000000	99.698741  
3206.000000	99.697542  
3205.000000	99.696579  
3204.000000	99.696178  
3203.000000	99.696298  
3202.000000	99.696653  
3201.000000	99.697001  
3200.000000	99.697260  
3199.000000	99.697388  
3198.000000	99.697288  
3197.000000	99.696916  
3196.000000	99.696385  
3195.000000	99.695918  
3194.000000	99.695675  
3193.000000	99.695641  
3192.000000	99.695665  
3191.000000	99.695580  
3190.000000	99.695337  
3189.000000	99.695014  
3188.000000	99.694726  
3187.000000	99.694539  
3186.000000	99.694452  
3185.000000	99.694448  
3184.000000	99.694498  
3183.000000	99.694541  
3182.000000	99.694505  
3181.000000	99.694367  
3180.000000	99.694183  
3179.000000	99.694047  
3178.000000	99.694008  
3177.000000	99.694035  
3176.000000	99.694031  
3175.000000	99.693916  
3174.000000	99.693702  
3173.000000	99.693514  
3172.000000	99.693500  
3171.000000	99.693711  
3170.000000	99.694027  
3169.000000	99.694224  
3168.000000	99.694146  
3167.000000	99.693775  
3166.000000	99.693189  
3165.000000	99.692517  
3164.000000	99.691915  
3163.000000	99.691506  
3162.000000	99.691308  
3161.000000	99.691228  
3160.000000	99.691135  
3159.000000	99.690980  
3158.000000	99.690843  
3157.000000	99.690845  
3156.000000	99.691025  
3155.000000	99.691292  
3154.000000	99.691497  
3153.000000	99.691528  
3152.000000	99.691320  
3151.000000	99.690853  
3150.000000	99.690242  
3149.000000	99.689744  
3148.000000	99.689558  
3147.000000	99.689660  
3146.000000	99.689912  
3145.000000	99.690313  
3144.000000	99.690937  
3143.000000	99.691624  
3142.000000	99.691946  
3141.000000	99.691590  
3140.000000	99.690640  
3139.000000	99.689469  
3138.000000	99.688469  
3137.000000	99.687907  
3136.000000	99.687890  
3135.000000	99.688274  
3134.000000	99.688681  
3133.000000	99.688803  
3132.000000	99.688631  
3131.000000	99.688340  
3130.000000	99.688114  
3129.000000	99.688163  
3128.000000	99.688695  
3127.000000	99.689709  
3126.000000	99.690855  
3125.000000	99.691630  
3124.000000	99.691780  
3123.000000	99.691420  
3122.000000	99.690876  
3121.000000	99.690469  
3120.000000	99.690349  
3119.000000	99.690456  
3118.000000	99.690598  
3117.000000	99.690602  
3116.000000	99.690408  
3115.000000	99.690076  
3114.000000	99.689743  
3113.000000	99.689574  
3112.000000	99.689643  
3111.000000	99.689824  
3110.000000	99.689900  
3109.000000	99.689821  
3108.000000	99.689768  
3107.000000	99.689875  
3106.000000	99.690027  
3105.000000	99.690015  
3104.000000	99.689766  
3103.000000	99.689318  
3102.000000	99.688733  
3101.000000	99.688186  
3100.000000	99.687878  
3099.000000	99.687594  
3098.000000	99.686689  
3097.000000	99.684995  
3096.000000	99.683480  
3095.000000	99.683378  
3094.000000	99.684788  
3093.000000	99.686714  
3092.000000	99.688205  
3091.000000	99.688649  
3090.000000	99.687354  
3089.000000	99.684197  
3088.000000	99.680694  
3087.000000	99.679143  
3086.000000	99.680270  
3085.000000	99.682552  
3084.000000	99.684008  
3083.000000	99.683881  
3082.000000	99.682499  
3081.000000	99.680600  
3080.000000	99.679227  
3079.000000	99.679445  
3078.000000	99.681473  
3077.000000	99.684301  
3076.000000	99.686383  
3075.000000	99.686570  
3074.000000	99.684620  
3073.000000	99.681235  
3072.000000	99.677562  
3071.000000	99.674290  
3070.000000	99.671435  
3069.000000	99.669217  
3068.000000	99.668371  
3067.000000	99.668892  
3066.000000	99.669186  
3065.000000	99.667687  
3064.000000	99.665004  
3063.000000	99.663213  
3062.000000	99.663082  
3061.000000	99.663213  
3060.000000	99.661990  
3059.000000	99.659294  
3058.000000	99.656165  
3057.000000	99.653817  
3056.000000	99.653158  
3055.000000	99.654105  
3054.000000	99.654920  
3053.000000	99.653241  
3052.000000	99.648447  
3051.000000	99.642344  
3050.000000	99.636871  
3049.000000	99.631843  
3048.000000	99.625761  
3047.000000	99.618328  
3046.000000	99.611034  
3045.000000	99.605144  
3044.000000	99.599823  
3043.000000	99.592770  
3042.000000	99.582538  
3041.000000	99.569904  
3040.000000	99.556729  
3039.000000	99.543784  
3038.000000	99.530385  
3037.000000	99.516164  
3036.000000	99.502037  
3035.000000	99.488613  
3034.000000	99.474453  
3033.000000	99.457009  
3032.000000	99.435439  
3031.000000	99.411703  
3030.000000	99.388163  
3029.000000	99.365094  
3028.000000	99.341638  
3027.000000	99.317924  
3026.000000	99.294960  
3025.000000	99.272760  
3024.000000	99.249510  
3023.000000	99.222809  
3022.000000	99.191629  
3021.000000	99.157392  
3020.000000	99.123394  
3019.000000	99.092485  
3018.000000	99.064466  
3017.000000	99.035757  
3016.000000	99.002238  
3015.000000	98.962731  
3014.000000	98.919814  
3013.000000	98.877598  
3012.000000	98.838645  
3011.000000	98.802350  
3010.000000	98.765607  
3009.000000	98.725395  
3008.000000	98.681539  
3007.000000	98.637250  
3006.000000	98.596502  
3005.000000	98.560507  
3004.000000	98.526542  
3003.000000	98.490230  
3002.000000	98.449147  
3001.000000	98.404824  
3000.000000	98.361599  
2999.000000	98.323342  
2998.000000	98.291149  
2997.000000	98.264247  
2996.000000	98.241956  
2995.000000	98.222266  
2994.000000	98.197652  
2993.000000	98.155810  
2992.000000	98.089707  
2991.000000	98.008378  
2990.000000	97.934677  
2989.000000	97.889330  
2988.000000	97.877551  
2987.000000	97.890245  
2986.000000	97.914226  
2985.000000	97.939527  
2984.000000	97.959689  
2983.000000	97.971040  
2982.000000	97.973944  
2981.000000	97.972213  
2980.000000	97.969169  
2979.000000	97.965277  
2978.000000	97.960198  
2977.000000	97.954911  
2976.000000	97.950131  
2975.000000	97.944470  
2974.000000	97.936778  
2973.000000	97.929715  
2972.000000	97.928683  
2971.000000	97.937092  
2970.000000	97.954361  
2969.000000	97.978473  
2968.000000	98.008358  
2967.000000	98.042974  
2966.000000	98.079705  
2965.000000	98.115290  
2964.000000	98.147890  
2963.000000	98.177316  
2962.000000	98.203677  
2961.000000	98.226803  
2960.000000	98.246981  
2959.000000	98.265581  
2958.000000	98.284640  
2957.000000	98.305741  
2956.000000	98.328920  
2955.000000	98.352488  
2954.000000	98.374381  
2953.000000	98.394215  
2952.000000	98.413853  
2951.000000	98.435508  
2950.000000	98.459116  
2949.000000	98.481631  
2948.000000	98.498883  
2947.000000	98.508258  
2946.000000	98.510573  
2945.000000	98.509966  
2944.000000	98.511324  
2943.000000	98.517376  
2942.000000	98.527905  
2941.000000	98.540985  
2940.000000	98.554387  
2939.000000	98.566128  
2938.000000	98.574712  
2937.000000	98.579847  
2936.000000	98.582902  
2935.000000	98.585942  
2934.000000	98.589968  
2933.000000	98.594242  
2932.000000	98.597240  
2931.000000	98.598097  
2930.000000	98.597190  
2929.000000	98.595656  
2928.000000	98.594387  
2927.000000	98.593182  
2926.000000	98.590639  
2925.000000	98.585090  
2924.000000	98.576105  
2923.000000	98.565323  
2922.000000	98.555528  
2921.000000	98.548385  
2920.000000	98.543047  
2919.000000	98.537210  
2918.000000	98.529289  
2917.000000	98.518818  
2916.000000	98.504793  
2915.000000	98.485062  
2914.000000	98.458870  
2913.000000	98.429695  
2912.000000	98.404102  
2911.000000	98.386859  
2910.000000	98.377558  
2909.000000	98.372094  
2908.000000	98.366622  
2907.000000	98.359042  
2906.000000	98.346975  
2905.000000	98.326424  
2904.000000	98.295154  
2903.000000	98.258785  
2902.000000	98.231946  
2901.000000	98.229724  
2900.000000	98.256080  
2899.000000	98.299679  
2898.000000	98.341724  
2897.000000	98.369378  
2896.000000	98.382069  
2895.000000	98.386876  
2894.000000	98.390904  
2893.000000	98.397656  
2892.000000	98.407527  
2891.000000	98.418874  
2890.000000	98.429034  
2889.000000	98.436058  
2888.000000	98.440165  
2887.000000	98.443264  
2886.000000	98.447436  
2885.000000	98.454401  
2884.000000	98.465930  
2883.000000	98.483424  
2882.000000	98.506639  
2881.000000	98.533527  
2880.000000	98.561839  
2879.000000	98.590695  
2878.000000	98.620115  
2877.000000	98.649254  
2876.000000	98.675737  
2875.000000	98.697234  
2874.000000	98.713693  
2873.000000	98.727640  
2872.000000	98.741971  
2871.000000	98.757531  
2870.000000	98.773262  
2869.000000	98.788552  
2868.000000	98.804827  
2867.000000	98.824555  
2866.000000	98.849043  
2865.000000	98.877531  
2864.000000	98.908076  
2863.000000	98.938930  
2862.000000	98.969183  
2861.000000	98.998670  
2860.000000	99.027795  
2859.000000	99.057459  
2858.000000	99.088637  
2857.000000	99.121379  
2856.000000	99.153813  
2855.000000	99.182599  
2854.000000	99.205420  
2853.000000	99.223071  
2852.000000	99.238168  
2851.000000	99.252239  
2850.000000	99.265015  
2849.000000	99.276114  
2848.000000	99.286120  
2847.000000	99.295721  
2846.000000	99.304806  
2845.000000	99.312876  
2844.000000	99.319626  
2843.000000	99.324862  
2842.000000	99.328729  
2841.000000	99.332379  
2840.000000	99.337466  
2839.000000	99.344311  
2838.000000	99.351379  
2837.000000	99.357392  
2836.000000	99.363242  
2835.000000	99.370794  
2834.000000	99.380138  
2833.000000	99.389027  
2832.000000	99.395157  
2831.000000	99.398379  
2830.000000	99.400663  
2829.000000	99.404264  
2828.000000	99.409869  
2827.000000	99.416182  
2826.000000	99.421271  
2825.000000	99.424360  
2824.000000	99.426139  
2823.000000	99.427591  
2822.000000	99.429185  
2821.000000	99.431273  
2820.000000	99.434271  
2819.000000	99.437933  
2818.000000	99.441194  
2817.000000	99.443350  
2816.000000	99.444821  
2815.000000	99.446240  
2814.000000	99.447542  
2813.000000	99.448643  
2812.000000	99.450187  
2811.000000	99.452608  
2810.000000	99.455059  
2809.000000	99.456532  
2808.000000	99.457725  
2807.000000	99.460513  
2806.000000	99.465388  
2805.000000	99.470452  
2804.000000	99.473333  
2803.000000	99.473405  
2802.000000	99.471934  
2801.000000	99.470675  
2800.000000	99.470650  
2799.000000	99.471824  
2798.000000	99.473499  
2797.000000	99.475093  
2796.000000	99.476683  
2795.000000	99.478742  
2794.000000	99.481358  
2793.000000	99.483837  
2792.000000	99.485128  
2791.000000	99.484679  
2790.000000	99.483009  
2789.000000	99.481532  
2788.000000	99.481589  
2787.000000	99.483447  
2786.000000	99.486289  
2785.000000	99.489074  
2784.000000	99.491271  
2783.000000	99.492781  
2782.000000	99.493611  
2781.000000	99.493877  
2780.000000	99.493870  
2779.000000	99.493837  
2778.000000	99.493808  
2777.000000	99.493790  
2776.000000	99.493949  
2775.000000	99.494396  
2774.000000	99.494991  
2773.000000	99.495568  
2772.000000	99.496222  
2771.000000	99.497182  
2770.000000	99.498493  
2769.000000	99.500033  
2768.000000	99.501678  
2767.000000	99.503248  
2766.000000	99.504413  
2765.000000	99.504920  
2764.000000	99.504877  
2763.000000	99.504639  
2762.000000	99.504473  
2761.000000	99.504512  
2760.000000	99.504883  
2759.000000	99.505583  
2758.000000	99.506360  
2757.000000	99.507033  
2756.000000	99.507865  
2755.000000	99.509241  
2754.000000	99.510983  
2753.000000	99.512378  
2752.000000	99.513021  
2751.000000	99.513266  
2750.000000	99.513722  
2749.000000	99.514599  
2748.000000	99.515687  
2747.000000	99.516737  
2746.000000	99.517668  
2745.000000	99.518589  
2744.000000	99.519731  
2743.000000	99.521205  
2742.000000	99.522761  
2741.000000	99.523986  
2740.000000	99.524833  
2739.000000	99.525713  
2738.000000	99.526901  
2737.000000	99.528118  
2736.000000	99.528894  
2735.000000	99.529167  
2734.000000	99.529312  
2733.000000	99.529759  
2732.000000	99.530755  
2731.000000	99.532308  
2730.000000	99.534062  
2729.000000	99.535448  
2728.000000	99.536315  
2727.000000	99.537267  
2726.000000	99.538991  
2725.000000	99.541306  
2724.000000	99.543260  
2723.000000	99.544191  
2722.000000	99.544260  
2721.000000	99.543936  
2720.000000	99.543396  
2719.000000	99.542684  
2718.000000	99.542130  
2717.000000	99.542122  
2716.000000	99.542595  
2715.000000	99.543056  
2714.000000	99.543140  
2713.000000	99.543002  
2712.000000	99.543174  
2711.000000	99.544120  
2710.000000	99.545841  
2709.000000	99.547756  
2708.000000	99.549100  
2707.000000	99.549604  
2706.000000	99.549712  
2705.000000	99.550042  
2704.000000	99.550702  
2703.000000	99.551391  
2702.000000	99.551976  
2701.000000	99.552578  
2700.000000	99.553082  
2699.000000	99.553046  
2698.000000	99.552288  
2697.000000	99.551205  
2696.000000	99.550247  
2695.000000	99.549356  
2694.000000	99.548276  
2693.000000	99.547205  
2692.000000	99.546748  
2691.000000	99.547250  
2690.000000	99.548472  
2689.000000	99.549880  
2688.000000	99.551041  
2687.000000	99.551694  
2686.000000	99.551691  
2685.000000	99.551042  
2684.000000	99.549912  
2683.000000	99.548525  
2682.000000	99.547110  
2681.000000	99.545987  
2680.000000	99.545544  
2679.000000	99.545971  
2678.000000	99.547051  
2677.000000	99.548224  
2676.000000	99.548892  
2675.000000	99.548776  
2674.000000	99.548072  
2673.000000	99.547323  
2672.000000	99.547015  
2671.000000	99.547262  
2670.000000	99.547835  
2669.000000	99.548344  
2668.000000	99.548321  
2667.000000	99.547334  
2666.000000	99.545312  
2665.000000	99.542819  
2664.000000	99.540735  
2663.000000	99.539559  
2662.000000	99.539140  
2661.000000	99.539022  
2660.000000	99.538886  
2659.000000	99.538663  
2658.000000	99.538447  
2657.000000	99.538410  
2656.000000	99.538722  
2655.000000	99.539447  
2654.000000	99.540509  
2653.000000	99.541644  
2652.000000	99.542353  
2651.000000	99.542096  
2650.000000	99.540778  
2649.000000	99.538931  
2648.000000	99.537188  
2647.000000	99.535702  
2646.000000	99.534397  
2645.000000	99.533562  
2644.000000	99.533598  
2643.000000	99.534162  
2642.000000	99.534101  
2641.000000	99.532522  
2640.000000	99.529605  
2639.000000	99.526374  
2638.000000	99.523924  
2637.000000	99.522858  
2636.000000	99.523042  
2635.000000	99.523644  
2634.000000	99.523903  
2633.000000	99.524057  
2632.000000	99.525014  
2631.000000	99.527038  
2630.000000	99.529297  
2629.000000	99.530800  
2628.000000	99.531242  
2627.000000	99.530677  
2626.000000	99.529104  
2625.000000	99.526920  
2624.000000	99.525183  
2623.000000	99.524657  
2622.000000	99.524896  
2621.000000	99.524833  
2620.000000	99.524143  
2619.000000	99.523485  
2618.000000	99.523479  
2617.000000	99.524024  
2616.000000	99.524603  
2615.000000	99.524819  
2614.000000	99.524491  
2613.000000	99.523641  
2612.000000	99.522537  
2611.000000	99.521566  
2610.000000	99.520939  
2609.000000	99.520632  
2608.000000	99.520567  
2607.000000	99.520688  
2606.000000	99.520909  
2605.000000	99.521119  
2604.000000	99.521237  
2603.000000	99.521199  
2602.000000	99.520964  
2601.000000	99.520603  
2600.000000	99.520285  
2599.000000	99.520098  
2598.000000	99.519968  
2597.000000	99.519826  
2596.000000	99.519725  
2595.000000	99.519706  
2594.000000	99.519705  
2593.000000	99.519651  
2592.000000	99.519549  
2591.000000	99.519398  
2590.000000	99.519119  
2589.000000	99.518640  
2588.000000	99.518048  
2587.000000	99.517572  
2586.000000	99.517359  
2585.000000	99.517348  
2584.000000	99.517406  
2583.000000	99.517486  
2582.000000	99.517614  
2581.000000	99.517817  
2580.000000	99.518099  
2579.000000	99.518354  
2578.000000	99.518345  
2577.000000	99.517944  
2576.000000	99.517399  
2575.000000	99.517173  
2574.000000	99.517415  
2573.000000	99.517774  
2572.000000	99.517771  
2571.000000	99.517248  
2570.000000	99.516427  
2569.000000	99.515674  
2568.000000	99.515225  
2567.000000	99.515000  
2566.000000	99.514612  
2565.000000	99.513757  
2564.000000	99.512714  
2563.000000	99.512196  
2562.000000	99.512550  
2561.000000	99.513321  
2560.000000	99.513722  
2559.000000	99.513463  
2558.000000	99.512886  
2557.000000	99.512531  
2556.000000	99.512744  
2555.000000	99.513477  
2554.000000	99.514222  
2553.000000	99.514408  
2552.000000	99.514107  
2551.000000	99.514098  
2550.000000	99.514959  
2549.000000	99.516267  
2548.000000	99.517034  
2547.000000	99.516772  
2546.000000	99.515764  
2545.000000	99.514528  
2544.000000	99.513446  
2543.000000	99.512800  
2542.000000	99.512650  
2541.000000	99.512573  
2540.000000	99.511943  
2539.000000	99.510672  
2538.000000	99.509387  
2537.000000	99.508704  
2536.000000	99.508475  
2535.000000	99.507977  
2534.000000	99.506716  
2533.000000	99.504882  
2532.000000	99.503056  
2531.000000	99.501696  
2530.000000	99.501007  
2529.000000	99.501160  
2528.000000	99.502242  
2527.000000	99.503910  
2526.000000	99.505305  
2525.000000	99.505699  
2524.000000	99.505271  
2523.000000	99.504978  
2522.000000	99.505468  
2521.000000	99.506222  
2520.000000	99.506051  
2519.000000	99.504384  
2518.000000	99.501788  
2517.000000	99.499447  
2516.000000	99.498163  
2515.000000	99.497875  
2514.000000	99.497926  
2513.000000	99.497595  
2512.000000	99.496574  
2511.000000	99.495091  
2510.000000	99.493696  
2509.000000	99.492835  
2508.000000	99.492542  
2507.000000	99.492441  
2506.000000	99.492057  
2505.000000	99.491183  
2504.000000	99.489966  
2503.000000	99.488730  
2502.000000	99.487750  
2501.000000	99.487166  
2500.000000	99.487011  
2499.000000	99.487198  
2498.000000	99.487477  
2497.000000	99.487544  
2496.000000	99.487273  
2495.000000	99.486853  
2494.000000	99.486639  
2493.000000	99.486801  
2492.000000	99.487119  
2491.000000	99.487150  
2490.000000	99.486665  
2489.000000	99.485867  
2488.000000	99.485213  
2487.000000	99.485007  
2486.000000	99.485184  
2485.000000	99.485400  
2484.000000	99.485325  
2483.000000	99.484910  
2482.000000	99.484402  
2481.000000	99.484097  
2480.000000	99.484025  
2479.000000	99.483923  
2478.000000	99.483513  
2477.000000	99.482748  
2476.000000	99.481806  
2475.000000	99.480911  
2474.000000	99.480196  
2473.000000	99.479721  
2472.000000	99.479425  
2471.000000	99.479139  
2470.000000	99.478800  
2469.000000	99.478629  
2468.000000	99.478891  
2467.000000	99.479499  
2466.000000	99.480007  
2465.000000	99.480060  
2464.000000	99.479670  
2463.000000	99.479034  
2462.000000	99.478319  
2461.000000	99.477693  
2460.000000	99.477367  
2459.000000	99.477394  
2458.000000	99.477542  
2457.000000	99.477478  
2456.000000	99.477057  
2455.000000	99.476358  
2454.000000	99.475591  
2453.000000	99.475077  
2452.000000	99.475111  
2451.000000	99.475601  
2450.000000	99.475908  
2449.000000	99.475447  
2448.000000	99.474355  
2447.000000	99.473331  
2446.000000	99.472751  
2445.000000	99.472342  
2444.000000	99.471767  
2443.000000	99.471046  
2442.000000	99.470269  
2441.000000	99.469385  
2440.000000	99.468472  
2439.000000	99.467809  
2438.000000	99.467511  
2437.000000	99.467473  
2436.000000	99.467744  
2435.000000	99.468507  
2434.000000	99.469535  
2433.000000	99.470157  
2432.000000	99.470076  
2431.000000	99.469766  
2430.000000	99.469817  
2429.000000	99.470219  
2428.000000	99.470533  
2427.000000	99.470534  
2426.000000	99.470424  
2425.000000	99.470504  
2424.000000	99.470846  
2423.000000	99.471235  
2422.000000	99.471344  
2421.000000	99.471016  
2420.000000	99.470454  
2419.000000	99.470133  
2418.000000	99.470436  
2417.000000	99.471349  
2416.000000	99.472421  
2415.000000	99.473035  
2414.000000	99.472816  
2413.000000	99.471876  
2412.000000	99.470713  
2411.000000	99.469769  
2410.000000	99.469114  
2409.000000	99.468549  
2408.000000	99.467916  
2407.000000	99.467294  
2406.000000	99.466991  
2405.000000	99.467292  
2404.000000	99.468092  
2403.000000	99.468808  
2402.000000	99.468811  
2401.000000	99.468089  
2400.000000	99.467313  
2399.000000	99.467219  
2398.000000	99.468069  
2397.000000	99.469652  
2396.000000	99.471406  
2395.000000	99.472470  
2394.000000	99.472072  
2393.000000	99.470345  
2392.000000	99.468496  
2391.000000	99.467679  
2390.000000	99.467860  
2389.000000	99.468073  
2388.000000	99.467624  
2387.000000	99.466550  
2386.000000	99.465133  
2385.000000	99.463569  
2384.000000	99.462205  
2383.000000	99.461576  
2382.000000	99.461929  
2381.000000	99.462932  
2380.000000	99.463988  
2379.000000	99.464770  
2378.000000	99.465368  
2377.000000	99.465981  
2376.000000	99.466522  
2375.000000	99.466545  
2374.000000	99.465673  
2373.000000	99.463980  
2372.000000	99.461858  
2371.000000	99.459615  
2370.000000	99.457458  
2369.000000	99.455716  
2368.000000	99.454688  
2367.000000	99.454324  
2366.000000	99.454270  
2365.000000	99.454092  
2364.000000	99.453327  
2363.000000	99.451609  
2362.000000	99.448990  
2361.000000	99.446206  
2360.000000	99.444068  
2359.000000	99.442664  
2358.000000	99.441665  
2357.000000	99.440901  
2356.000000	99.440415  
2355.000000	99.440094  
2354.000000	99.439970  
2353.000000	99.439790  
2352.000000	99.438822  
2351.000000	99.436599  
2350.000000	99.433405  
2349.000000	99.430142  
2348.000000	99.427694  
2347.000000	99.426549  
2346.000000	99.426362  
2345.000000	99.425887  
2344.000000	99.424427  
2343.000000	99.422488  
2342.000000	99.421031  
2341.000000	99.420108  
2340.000000	99.419193  
2339.000000	99.418058  
2338.000000	99.417085  
2337.000000	99.416572  
2336.000000	99.415899  
2335.000000	99.414447  
2334.000000	99.412419  
2333.000000	99.410690  
2332.000000	99.409287  
2331.000000	99.408185  
2330.000000	99.407350  
2329.000000	99.406976  
2328.000000	99.405921  
2327.000000	99.403470  
2326.000000	99.399781  
2325.000000	99.395905  
2324.000000	99.392500  
2323.000000	99.390053  
2322.000000	99.389086  
2321.000000	99.389711  
2320.000000	99.391117  
2319.000000	99.392650  
2318.000000	99.393812  
2317.000000	99.394911  
2316.000000	99.396118  
2315.000000	99.398174  
2314.000000	99.400568  
2313.000000	99.402088  
2312.000000	99.401175  
2311.000000	99.398537  
2310.000000	99.396001  
2309.000000	99.395056  
2308.000000	99.395204  
2307.000000	99.395772  
2306.000000	99.396499  
2305.000000	99.397435  
2304.000000	99.397939  
2303.000000	99.397686  
2302.000000	99.396755  
2301.000000	99.395611  
2300.000000	99.394372  
2299.000000	99.393478  
2298.000000	99.393392  
2297.000000	99.394265  
2296.000000	99.395138  
2295.000000	99.395011  
2294.000000	99.393772  
2293.000000	99.392340  
2292.000000	99.391550  
2291.000000	99.391426  
2290.000000	99.391412  
2289.000000	99.391098  
2288.000000	99.390575  
2287.000000	99.390242  
2286.000000	99.390355  
2285.000000	99.390763  
2284.000000	99.391120  
2283.000000	99.391238  
2282.000000	99.391223  
2281.000000	99.391203  
2280.000000	99.391184  
2279.000000	99.391156  
2278.000000	99.391124  
2277.000000	99.391095  
2276.000000	99.391077  
2275.000000	99.391075  
2274.000000	99.391092  
2273.000000	99.391127  
2272.000000	99.391174  
2271.000000	99.391228  
2270.000000	99.391287  
2269.000000	99.391360  
2268.000000	99.391456  
2267.000000	99.391587  
2266.000000	99.391750  
2265.000000	99.391940  
2264.000000	99.392147  
2263.000000	99.392369  
2262.000000	99.392610  
2261.000000	99.392873  
2260.000000	99.393160  
2259.000000	99.393471  
2258.000000	99.393800  
2257.000000	99.394141  
2256.000000	99.394485  
2255.000000	99.394819  
2254.000000	99.395134  
2253.000000	99.395434  
2252.000000	99.395734  
2251.000000	99.396048  
2250.000000	99.396383  
2249.000000	99.396729  
2248.000000	99.397073  
2247.000000	99.397401  
2246.000000	99.397702  
2245.000000	99.397971  
2244.000000	99.398202  
2243.000000	99.398392  
2242.000000	99.398547  
2241.000000	99.398689  
2240.000000	99.398843  
2239.000000	99.399023  
2238.000000	99.399222  
2237.000000	99.399421  
2236.000000	99.399605  
2235.000000	99.399769  
2234.000000	99.399911  
2233.000000	99.400031  
2232.000000	99.400111  
2231.000000	99.400129  
2230.000000	99.400069  
2229.000000	99.399951  
2228.000000	99.399838  
2227.000000	99.399802  
2226.000000	99.399871  
2225.000000	99.399960  
2224.000000	99.399932  
2223.000000	99.399698  
2222.000000	99.399283  
2221.000000	99.398813  
2220.000000	99.398432  
2219.000000	99.398170  
2218.000000	99.397911  
2217.000000	99.397512  
2216.000000	99.396950  
2215.000000	99.396349  
2214.000000	99.395880  
2213.000000	99.395675  
2212.000000	99.395769  
2211.000000	99.396029  
2210.000000	99.396162  
2209.000000	99.395948  
2208.000000	99.395422  
2207.000000	99.394721  
2206.000000	99.393824  
2205.000000	99.392688  
2204.000000	99.391548  
2203.000000	99.390731  
2202.000000	99.390324  
2201.000000	99.390412  
2200.000000	99.391439  
2199.000000	99.393667  
2198.000000	99.396188  
2197.000000	99.397284  
2196.000000	99.396131  
2195.000000	99.393677  
2194.000000	99.391755  
2193.000000	99.390976  
2192.000000	99.390567  
2191.000000	99.389882  
2190.000000	99.389149  
2189.000000	99.388686  
2188.000000	99.388385  
2187.000000	99.388264  
2186.000000	99.388764  
2185.000000	99.390231  
2184.000000	99.392498  
2183.000000	99.395045  
2182.000000	99.397218  
2181.000000	99.398391  
2180.000000	99.398537  
2179.000000	99.398700  
2178.000000	99.400294  
2177.000000	99.403638  
2176.000000	99.407277  
2175.000000	99.408916  
2174.000000	99.407041  
2173.000000	99.401849  
2172.000000	99.395179  
2171.000000	99.389539  
2170.000000	99.386851  
2169.000000	99.387605  
2168.000000	99.390732  
2167.000000	99.394429  
2166.000000	99.397559  
2165.000000	99.400416  
2164.000000	99.403822  
2163.000000	99.407508  
2162.000000	99.410183  
2161.000000	99.411554  
2160.000000	99.413393  
2159.000000	99.417562  
2158.000000	99.423450  
2157.000000	99.428551  
2156.000000	99.431260  
2155.000000	99.431785  
2154.000000	99.431015  
2153.000000	99.429718  
2152.000000	99.427912  
2151.000000	99.424477  
2150.000000	99.418592  
2149.000000	99.412083  
2148.000000	99.408947  
2147.000000	99.411231  
2146.000000	99.416736  
2145.000000	99.421740  
2144.000000	99.425246  
2143.000000	99.428443  
2142.000000	99.430831  
2141.000000	99.429949  
2140.000000	99.425268  
2139.000000	99.419770  
2138.000000	99.416679  
2137.000000	99.416093  
2136.000000	99.416058  
2135.000000	99.415288  
2134.000000	99.413620  
2133.000000	99.411007  
2132.000000	99.407716  
2131.000000	99.405026  
2130.000000	99.404282  
2129.000000	99.405206  
2128.000000	99.405968  
2127.000000	99.405138  
2126.000000	99.403131  
2125.000000	99.401537  
2124.000000	99.401347  
2123.000000	99.402112  
2122.000000	99.402628  
2121.000000	99.402227  
2120.000000	99.401208  
2119.000000	99.400055  
2118.000000	99.398654  
2117.000000	99.396606  
2116.000000	99.394132  
2115.000000	99.392136  
2114.000000	99.391210  
2113.000000	99.390981  
2112.000000	99.390621  
2111.000000	99.389820  
2110.000000	99.389047  
2109.000000	99.388915  
2108.000000	99.389505  
2107.000000	99.390294  
2106.000000	99.390588  
2105.000000	99.390092  
2104.000000	99.389101  
2103.000000	99.388233  
2102.000000	99.387866  
2101.000000	99.387919  
2100.000000	99.388090  
2099.000000	99.388163  
2098.000000	99.388072  
2097.000000	99.387824  
2096.000000	99.387527  
2095.000000	99.387433  
2094.000000	99.387753  
2093.000000	99.388363  
2092.000000	99.388860  
2091.000000	99.388977  
2090.000000	99.388811  
2089.000000	99.388645  
2088.000000	99.388565  
2087.000000	99.388383  
2086.000000	99.387967  
2085.000000	99.387507  
2084.000000	99.387372  
2083.000000	99.387765  
2082.000000	99.388589  
2081.000000	99.389464  
2080.000000	99.389971  
2079.000000	99.389916  
2078.000000	99.389367  
2077.000000	99.388596  
2076.000000	99.387861  
2075.000000	99.387256  
2074.000000	99.386788  
2073.000000	99.386514  
2072.000000	99.386560  
2071.000000	99.386920  
2070.000000	99.387312  
2069.000000	99.387371  
2068.000000	99.387028  
2067.000000	99.386604  
2066.000000	99.386467  
2065.000000	99.386634  
2064.000000	99.386777  
2063.000000	99.386554  
2062.000000	99.385898  
2061.000000	99.385043  
2060.000000	99.384271  
2059.000000	99.383575  
2058.000000	99.382688  
2057.000000	99.381543  
2056.000000	99.380614  
2055.000000	99.380596  
2054.000000	99.381714  
2053.000000	99.383376  
2052.000000	99.384467  
2051.000000	99.384033  
2050.000000	99.381815  
2049.000000	99.378595  
2048.000000	99.376027  
2047.000000	99.375580  
2046.000000	99.377609  
2045.000000	99.381206  
2044.000000	99.384815  
2043.000000	99.387187  
2042.000000	99.387959  
2041.000000	99.387553  
2040.000000	99.386327  
2039.000000	99.383752  
2038.000000	99.379008  
2037.000000	99.372820  
2036.000000	99.368031  
2035.000000	99.367170  
2034.000000	99.369812  
2033.000000	99.372937  
2032.000000	99.374249  
2031.000000	99.374259  
2030.000000	99.374554  
2029.000000	99.375229  
2028.000000	99.374977  
2027.000000	99.373382  
2026.000000	99.372302  
2025.000000	99.374554  
2024.000000	99.381213  
2023.000000	99.390105  
2022.000000	99.397147  
2021.000000	99.399415  
2020.000000	99.396636  
2019.000000	99.390277  
2018.000000	99.382118  
2017.000000	99.373887  
2016.000000	99.366938  
2015.000000	99.361254  
2014.000000	99.355718  
2013.000000	99.350154  
2012.000000	99.346285  
2011.000000	99.345753  
2010.000000	99.347940  
2009.000000	99.350697  
2008.000000	99.352695  
2007.000000	99.353998  
2006.000000	99.354694  
2005.000000	99.354317  
2004.000000	99.352634  
2003.000000	99.350012  
2002.000000	99.347232  
2001.000000	99.345580  
2000.000000	99.346458  
1999.000000	99.349939  
1998.000000	99.354031  
1997.000000	99.356305  
1996.000000	99.356100  
1995.000000	99.354333  
1994.000000	99.351815  
1993.000000	99.348831  
1992.000000	99.346022  
1991.000000	99.344199  
1990.000000	99.343310  
1989.000000	99.342802  
1988.000000	99.342747  
1987.000000	99.343524  
1986.000000	99.344485  
1985.000000	99.344055  
1984.000000	99.341486  
1983.000000	99.337819  
1982.000000	99.335010  
1981.000000	99.334435  
1980.000000	99.336222  
1979.000000	99.339353  
1978.000000	99.342015  
1977.000000	99.342821  
1976.000000	99.342042  
1975.000000	99.341200  
1974.000000	99.341303  
1973.000000	99.341796  
1972.000000	99.341402  
1971.000000	99.339514  
1970.000000	99.336560  
1969.000000	99.333484  
1968.000000	99.331004  
1967.000000	99.329116  
1966.000000	99.327418  
1965.000000	99.326190  
1964.000000	99.326692  
1963.000000	99.329740  
1962.000000	99.334203  
1961.000000	99.337603  
1960.000000	99.338743  
1959.000000	99.338784  
1958.000000	99.339330  
1957.000000	99.340046  
1956.000000	99.339125  
1955.000000	99.335781  
1954.000000	99.331356  
1953.000000	99.328143  
1952.000000	99.327242  
1951.000000	99.327867  
1950.000000	99.328254  
1949.000000	99.327055  
1948.000000	99.324190  
1947.000000	99.320677  
1946.000000	99.317763  
1945.000000	99.315955  
1944.000000	99.314728  
1943.000000	99.313184  
1942.000000	99.311119  
1941.000000	99.309328  
1940.000000	99.308684  
1939.000000	99.309226  
1938.000000	99.310239  
1937.000000	99.310888  
1936.000000	99.310636  
1935.000000	99.309192  
1934.000000	99.306578  
1933.000000	99.303433  
1932.000000	99.300805  
1931.000000	99.299295  
1930.000000	99.298607  
1929.000000	99.297936  
1928.000000	99.296723  
1927.000000	99.294969  
1926.000000	99.292937  
1925.000000	99.290792  
1924.000000	99.288511  
1923.000000	99.286072  
1922.000000	99.283619  
1921.000000	99.281459  
1920.000000	99.279863  
1919.000000	99.278855  
1918.000000	99.278210  
1917.000000	99.277573  
1916.000000	99.276624  
1915.000000	99.275157  
1914.000000	99.273117  
1913.000000	99.270703  
1912.000000	99.268413  
1911.000000	99.266675  
1910.000000	99.265492  
1909.000000	99.264436  
1908.000000	99.263133  
1907.000000	99.261631  
1906.000000	99.260200  
1905.000000	99.259015  
1904.000000	99.258046  
1903.000000	99.257134  
1902.000000	99.256067  
1901.000000	99.254757  
1900.000000	99.253394  
1899.000000	99.252296  
1898.000000	99.251605  
1897.000000	99.251208  
1896.000000	99.250834  
1895.000000	99.250206  
1894.000000	99.249168  
1893.000000	99.247897  
1892.000000	99.246843  
1891.000000	99.246217  
1890.000000	99.245656  
1889.000000	99.244656  
1888.000000	99.243332  
1887.000000	99.242286  
1886.000000	99.241809  
1885.000000	99.241705  
1884.000000	99.241850  
1883.000000	99.242452  
1882.000000	99.243623  
1881.000000	99.245021  
1880.000000	99.246103  
1879.000000	99.246551  
1878.000000	99.246374  
1877.000000	99.245792  
1876.000000	99.245048  
1875.000000	99.244263  
1874.000000	99.243512  
1873.000000	99.242998  
1872.000000	99.242926  
1871.000000	99.243190  
1870.000000	99.243513  
1869.000000	99.244105  
1868.000000	99.245573  
1867.000000	99.247878  
1866.000000	99.250149  
1865.000000	99.251544  
1864.000000	99.251752  
1863.000000	99.250772  
1862.000000	99.248843  
1861.000000	99.246901  
1860.000000	99.246386  
1859.000000	99.247986  
1858.000000	99.250915  
1857.000000	99.253594  
1856.000000	99.255358  
1855.000000	99.256677  
1854.000000	99.258015  
1853.000000	99.259346  
1852.000000	99.260707  
1851.000000	99.262343  
1850.000000	99.264056  
1849.000000	99.265215  
1848.000000	99.265605  
1847.000000	99.265773  
1846.000000	99.266281  
1845.000000	99.267072  
1844.000000	99.267740  
1843.000000	99.268036  
1842.000000	99.267950  
1841.000000	99.267724  
1840.000000	99.267642  
1839.000000	99.267591  
1838.000000	99.267146  
1837.000000	99.266690  
1836.000000	99.267818  
1835.000000	99.271350  
1834.000000	99.275353  
1833.000000	99.277100  
1832.000000	99.276427  
1831.000000	99.275698  
1830.000000	99.276958  
1829.000000	99.279671  
1828.000000	99.282028  
1827.000000	99.283224  
1826.000000	99.282624  
1825.000000	99.280066  
1824.000000	99.277376  
1823.000000	99.276494  
1822.000000	99.276748  
1821.000000	99.276295  
1820.000000	99.275847  
1819.000000	99.278141  
1818.000000	99.283089  
1817.000000	99.286885  
1816.000000	99.287454  
1815.000000	99.287225  
1814.000000	99.288086  
1813.000000	99.288156  
1812.000000	99.286112  
1811.000000	99.284887  
1810.000000	99.287346  
1809.000000	99.291261  
1808.000000	99.293214  
1807.000000	99.293641  
1806.000000	99.294587  
1805.000000	99.295804  
1804.000000	99.295991  
1803.000000	99.296152  
1802.000000	99.299130  
1801.000000	99.306157  
1800.000000	99.315319  
1799.000000	99.323684  
1798.000000	99.329919  
1797.000000	99.334748  
1796.000000	99.340861  
1795.000000	99.351120  
1794.000000	99.364990  
1793.000000	99.377273  
1792.000000	99.383873  
1791.000000	99.387294  
1790.000000	99.392120  
1789.000000	99.399882  
1788.000000	99.409873  
1787.000000	99.420619  
1786.000000	99.430439  
1785.000000	99.438861  
1784.000000	99.448212  
1783.000000	99.461588  
1782.000000	99.478719  
1781.000000	99.495966  
1780.000000	99.510757  
1779.000000	99.523969  
1778.000000	99.538099  
1777.000000	99.553856  
1776.000000	99.570515  
1775.000000	99.588312  
1774.000000	99.607853  
1773.000000	99.628347  
1772.000000	99.648003  
1771.000000	99.667073  
1770.000000	99.688210  
1769.000000	99.712895  
1768.000000	99.740058  
1767.000000	99.768352  
1766.000000	99.797605  
1765.000000	99.827736  
1764.000000	99.857654  
1763.000000	99.886132  
1762.000000	99.913368  
1761.000000	99.940074  
1760.000000	99.966502  
1759.000000	99.992780  
1758.000000	100.017791 
1757.000000	100.038805 
1756.000000	100.055269 
1755.000000	100.071246 
1754.000000	100.090412 
1753.000000	100.109341 
1752.000000	100.118924 
1751.000000	100.114865 
1750.000000	100.104457 
1749.000000	100.096349 
1748.000000	100.089792 
1747.000000	100.080163 
1746.000000	100.066293 
1745.000000	100.048726 
1744.000000	100.026368 
1743.000000	99.998603  
1742.000000	99.966919  
1741.000000	99.931100  
1740.000000	99.888980  
1739.000000	99.844000  
1738.000000	99.805390  
1737.000000	99.776094  
1736.000000	99.748583  
1735.000000	99.712015  
1734.000000	99.666237  
1733.000000	99.626112  
1732.000000	99.601158  
1731.000000	99.586478  
1730.000000	99.573638  
1729.000000	99.559149  
1728.000000	99.544772  
1727.000000	99.534009  
1726.000000	99.528383  
1725.000000	99.525684  
1724.000000	99.521454  
1723.000000	99.513513  
1722.000000	99.504499  
1721.000000	99.497866  
1720.000000	99.493440  
1719.000000	99.487351  
1718.000000	99.476165  
1717.000000	99.460364  
1716.000000	99.446487  
1715.000000	99.441478  
1714.000000	99.443838  
1713.000000	99.446898  
1712.000000	99.447476  
1711.000000	99.447216  
1710.000000	99.447971  
1709.000000	99.448854  
1708.000000	99.448437  
1707.000000	99.447311  
1706.000000	99.446472  
1705.000000	99.444720  
1704.000000	99.440967  
1703.000000	99.437466  
1702.000000	99.436103  
1701.000000	99.434735  
1700.000000	99.429822  
1699.000000	99.426308  
1698.000000	99.429011  
1697.000000	99.433444  
1696.000000	99.433182  
1695.000000	99.427930  
1694.000000	99.423135  
1693.000000	99.421548  
1692.000000	99.421205  
1691.000000	99.420848  
1690.000000	99.421327  
1689.000000	99.423014  
1688.000000	99.425233  
1687.000000	99.428470  
1686.000000	99.433433  
1685.000000	99.438579  
1684.000000	99.441673  
1683.000000	99.443037  
1682.000000	99.443531  
1681.000000	99.444464  
1680.000000	99.445189  
1679.000000	99.446037  
1678.000000	99.448438  
1677.000000	99.452954  
1676.000000	99.457910  
1675.000000	99.460795  
1674.000000	99.462086  
1673.000000	99.464481  
1672.000000	99.468172  
1671.000000	99.470952  
1670.000000	99.471836  
1669.000000	99.472414  
1668.000000	99.474427  
1667.000000	99.477580  
1666.000000	99.480840  
1665.000000	99.483632  
1664.000000	99.486296  
1663.000000	99.489339  
1662.000000	99.491991  
1661.000000	99.493110  
1660.000000	99.493158  
1659.000000	99.493214  
1658.000000	99.494229  
1657.000000	99.496344  
1656.000000	99.499047  
1655.000000	99.501354  
1654.000000	99.503489  
1653.000000	99.506140  
1652.000000	99.507754  
1651.000000	99.509265  
1650.000000	99.511740  
1649.000000	99.513524  
1648.000000	99.514500  
1647.000000	99.515841  
1646.000000	99.518016  
1645.000000	99.520471  
1644.000000	99.523224  
1643.000000	99.526337  
1642.000000	99.529414  
1641.000000	99.532165  
1640.000000	99.534702  
1639.000000	99.537199  
1638.000000	99.539683  
1637.000000	99.542188  
1636.000000	99.544870  
1635.000000	99.547402  
1634.000000	99.549424  
1633.000000	99.551295  
1632.000000	99.553449  
1631.000000	99.555978  
1630.000000	99.558723  
1629.000000	99.561413  
1628.000000	99.563946  
1627.000000	99.566394  
1626.000000	99.568826  
1625.000000	99.571305  
1624.000000	99.573920  
1623.000000	99.576606  
1622.000000	99.579085  
1621.000000	99.581308  
1620.000000	99.583479  
1619.000000	99.585627  
1618.000000	99.587654  
1617.000000	99.589837  
1616.000000	99.592738  
1615.000000	99.596293  
1614.000000	99.599789  
1613.000000	99.602770  
1612.000000	99.605342  
1611.000000	99.607779  
1610.000000	99.610077  
1609.000000	99.612289  
1608.000000	99.614753  
1607.000000	99.617498  
1606.000000	99.620037  
1605.000000	99.622190  
1604.000000	99.624496  
1603.000000	99.627389  
1602.000000	99.630655  
1601.000000	99.633976  
1600.000000	99.637425  
1599.000000	99.640981  
1598.000000	99.644202  
1597.000000	99.646901  
1596.000000	99.649458  
1595.000000	99.652044  
1594.000000	99.654147  
1593.000000	99.655601  
1592.000000	99.657315  
1591.000000	99.660125  
1590.000000	99.663611  
1589.000000	99.666916  
1588.000000	99.670040  
1587.000000	99.673338  
1586.000000	99.676428  
1585.000000	99.678720  
1584.000000	99.680372  
1583.000000	99.681642  
1582.000000	99.682450  
1581.000000	99.683401  
1580.000000	99.684990  
1579.000000	99.685986  
1578.000000	99.684720  
1577.000000	99.682842  
1576.000000	99.684345  
1575.000000	99.688701  
1574.000000	99.692496  
1573.000000	99.694935  
1572.000000	99.696693  
1571.000000	99.698552  
1570.000000	99.700806  
1569.000000	99.704045  
1568.000000	99.708447  
1567.000000	99.712690  
1566.000000	99.715320  
1565.000000	99.716070  
1564.000000	99.716004  
1563.000000	99.715860  
1562.000000	99.715805  
1561.000000	99.717143  
1560.000000	99.718991  
1559.000000	99.719322  
1558.000000	99.714722  
1557.000000	99.708103  
1556.000000	99.707300  
1555.000000	99.710778  
1554.000000	99.713866  
1553.000000	99.715243  
1552.000000	99.716326  
1551.000000	99.717204  
1550.000000	99.716896  
1549.000000	99.716480  
1548.000000	99.718460  
1547.000000	99.723091  
1546.000000	99.726011  
1545.000000	99.722686  
1544.000000	99.714812  
1543.000000	99.708599  
1542.000000	99.706612  
1541.000000	99.705264  
1540.000000	99.700637  
1539.000000	99.691712  
1538.000000	99.681666  
1537.000000	99.675825  
1536.000000	99.673539  
1535.000000	99.671026  
1534.000000	99.665070  
1533.000000	99.654855  
1532.000000	99.643041  
1531.000000	99.633116  
1530.000000	99.626293  
1529.000000	99.621026  
1528.000000	99.615410  
1527.000000	99.608647  
1526.000000	99.600305  
1525.000000	99.590310  
1524.000000	99.580227  
1523.000000	99.571887  
1522.000000	99.565508  
1521.000000	99.559197  
1520.000000	99.552318  
1519.000000	99.546953  
1518.000000	99.542962  
1517.000000	99.537313  
1516.000000	99.528437  
1515.000000	99.518305  
1514.000000	99.509511  
1513.000000	99.501225  
1512.000000	99.490966  
1511.000000	99.479308  
1510.000000	99.468897  
1509.000000	99.460216  
1508.000000	99.451865  
1507.000000	99.446539  
1506.000000	99.442530  
1505.000000	99.432993  
1504.000000	99.422705  
1503.000000	99.416169  
1502.000000	99.411974  
1501.000000	99.407448  
1500.000000	99.400919  
1499.000000	99.392994  
1498.000000	99.384756  
1497.000000	99.374597  
1496.000000	99.360470  
1495.000000	99.345950  
1494.000000	99.336429  
1493.000000	99.332225  
1492.000000	99.329796  
1491.000000	99.325866  
1490.000000	99.319694  
1489.000000	99.311541  
1488.000000	99.301588  
1487.000000	99.291473  
1486.000000	99.282022  
1485.000000	99.272142  
1484.000000	99.261477  
1483.000000	99.250841  
1482.000000	99.240780  
1481.000000	99.231610  
1480.000000	99.224179  
1479.000000	99.219309  
1478.000000	99.215495  
1477.000000	99.209696  
1476.000000	99.201939  
1475.000000	99.196484  
1474.000000	99.196170  
1473.000000	99.199018  
1472.000000	99.200858  
1471.000000	99.200744  
1470.000000	99.200873  
1469.000000	99.202049  
1468.000000	99.202946  
1467.000000	99.202808  
1466.000000	99.202303  
1465.000000	99.202268  
1464.000000	99.203072  
1463.000000	99.204869  
1462.000000	99.207884  
1461.000000	99.211340  
1460.000000	99.213742  
1459.000000	99.213818  
1458.000000	99.209713  
1457.000000	99.197323  
1456.000000	99.175075  
1455.000000	99.152629  
1454.000000	99.139681  
1453.000000	99.135394  
1452.000000	99.134840  
1451.000000	99.135419  
1450.000000	99.138584  
1449.000000	99.145607  
1448.000000	99.153657  
1447.000000	99.158661  
1446.000000	99.160254  
1445.000000	99.160945  
1444.000000	99.162324  
1443.000000	99.163254  
1442.000000	99.162532  
1441.000000	99.161421  
1440.000000	99.163102  
1439.000000	99.170187  
1438.000000	99.182257  
1437.000000	99.194018  
1436.000000	99.198762  
1435.000000	99.197880  
1434.000000	99.198635  
1433.000000	99.204193  
1432.000000	99.212844  
1431.000000	99.221820  
1430.000000	99.229287  
1429.000000	99.233617  
1428.000000	99.233242  
1427.000000	99.229162  
1426.000000	99.224143  
1425.000000	99.219464  
1424.000000	99.214192  
1423.000000	99.206626  
1422.000000	99.196162  
1421.000000	99.182145  
1420.000000	99.162501  
1419.000000	99.137157  
1418.000000	99.110729  
1417.000000	99.085918  
1416.000000	99.061659  
1415.000000	99.037501  
1414.000000	99.014069  
1413.000000	98.991712  
1412.000000	98.970968  
1411.000000	98.953420  
1410.000000	98.940389  
1409.000000	98.931855  
1408.000000	98.928303  
1407.000000	98.932112  
1406.000000	98.945131  
1405.000000	98.966425  
1404.000000	98.993203  
1403.000000	99.023144  
1402.000000	99.055523  
1401.000000	99.089568  
1400.000000	99.122305  
1399.000000	99.147331  
1398.000000	99.155844  
1397.000000	99.140862  
1396.000000	99.104841  
1395.000000	99.068424  
1394.000000	99.061973  
1393.000000	99.097295  
1392.000000	99.158528  
1391.000000	99.220073  
1390.000000	99.265706  
1389.000000	99.292807  
1388.000000	99.305932  
1387.000000	99.310611  
1386.000000	99.311805  
1385.000000	99.314076  
1384.000000	99.320068  
1383.000000	99.329429  
1382.000000	99.340517  
1381.000000	99.352902  
1380.000000	99.367397  
1379.000000	99.384411  
1378.000000	99.403456  
1377.000000	99.424217  
1376.000000	99.446858  
1375.000000	99.471055  
1374.000000	99.495558  
1373.000000	99.519242  
1372.000000	99.542289  
1371.000000	99.565756  
1370.000000	99.589934  
1369.000000	99.613931  
1368.000000	99.636953  
1367.000000	99.659116  
1366.000000	99.681145  
1365.000000	99.703191  
1364.000000	99.724005  
1363.000000	99.741884  
1362.000000	99.756199  
1361.000000	99.767574  
1360.000000	99.777121  
1359.000000	99.786256  
1358.000000	99.796882  
1357.000000	99.810788  
1356.000000	99.827984  
1355.000000	99.846058  
1354.000000	99.862072  
1353.000000	99.875038  
1352.000000	99.885687  
1351.000000	99.894635  
1350.000000	99.902445  
1349.000000	99.909929  
1348.000000	99.917072  
1347.000000	99.923301  
1346.000000	99.928771  
1345.000000	99.933913  
1344.000000	99.938850  
1343.000000	99.943954  
1342.000000	99.949920  
1341.000000	99.956212  
1340.000000	99.960628  
1339.000000	99.962086  
1338.000000	99.963022  
1337.000000	99.966842  
1336.000000	99.973368  
1335.000000	99.979150  
1334.000000	99.982099  
1333.000000	99.983618  
1332.000000	99.985842  
1331.000000	99.989114  
1330.000000	99.993092  
1329.000000	99.998286  
1328.000000	100.004928 
1327.000000	100.011514 
1326.000000	100.016223 
1325.000000	100.019277 
1324.000000	100.022851 
1323.000000	100.028361 
1322.000000	100.034848 
1321.000000	100.040090 
1320.000000	100.042927 
1319.000000	100.044299 
1318.000000	100.046155 
1317.000000	100.049615 
1316.000000	100.054539 
1315.000000	100.060469 
1314.000000	100.066848 
1313.000000	100.072175 
1312.000000	100.074396 
1311.000000	100.073390 
1310.000000	100.072186 
1309.000000	100.074223 
1308.000000	100.079772 
1307.000000	100.086092 
1306.000000	100.090617 
1305.000000	100.092700 
1304.000000	100.092901 
1303.000000	100.092248 
1302.000000	100.092300 
1301.000000	100.093958 
1300.000000	100.095960 
1299.000000	100.096115 
1298.000000	100.094251 
1297.000000	100.092394 
1296.000000	100.091889 
1295.000000	100.092274 
1294.000000	100.093257 
1293.000000	100.095515 
1292.000000	100.098407 
1291.000000	100.099051 
1290.000000	100.095570 
1289.000000	100.089927 
1288.000000	100.085797 
1287.000000	100.084373 
1286.000000	100.084096 
1285.000000	100.083836 
1284.000000	100.084263 
1283.000000	100.086210 
1282.000000	100.088896 
1281.000000	100.090334 
1280.000000	100.089291 
1279.000000	100.086055 
1278.000000	100.081666 
1277.000000	100.077161 
1276.000000	100.072996 
1275.000000	100.068470 
1274.000000	100.061856 
1273.000000	100.051775 
1272.000000	100.038630 
1271.000000	100.024365 
1270.000000	100.010599 
1269.000000	99.997252  
1268.000000	99.983087  
1267.000000	99.967064  
1266.000000	99.948884  
1265.000000	99.928868  
1264.000000	99.907945  
1263.000000	99.887434  
1262.000000	99.868315  
1261.000000	99.850981  
1260.000000	99.835932  
1259.000000	99.823662  
1258.000000	99.813136  
1257.000000	99.801619  
1256.000000	99.787397  
1255.000000	99.771833  
1254.000000	99.757218  
1253.000000	99.743515  
1252.000000	99.729651  
1251.000000	99.717675  
1250.000000	99.712719  
1249.000000	99.718116  
1248.000000	99.732582  
1247.000000	99.751723  
1246.000000	99.768733  
1245.000000	99.773625  
1244.000000	99.758315  
1243.000000	99.727937  
1242.000000	99.703652  
1241.000000	99.706067  
1240.000000	99.734631  
1239.000000	99.767424  
1238.000000	99.782467  
1237.000000	99.775315  
1236.000000	99.755080  
1235.000000	99.730348  
1234.000000	99.703774  
1233.000000	99.676920  
1232.000000	99.653451  
1231.000000	99.636135  
1230.000000	99.624143  
1229.000000	99.614888  
1228.000000	99.606608  
1227.000000	99.598052  
1226.000000	99.587343  
1225.000000	99.572717  
1224.000000	99.554045  
1223.000000	99.532801  
1222.000000	99.510520  
1221.000000	99.487230  
1220.000000	99.461135  
1219.000000	99.429944  
1218.000000	99.393052  
1217.000000	99.352380  
1216.000000	99.310497  
1215.000000	99.267842  
1214.000000	99.222368  
1213.000000	99.172166  
1212.000000	99.117732  
1211.000000	99.061084  
1210.000000	99.003229  
1209.000000	98.943604  
1208.000000	98.882036  
1207.000000	98.819951  
1206.000000	98.758819  
1205.000000	98.698118  
1204.000000	98.635993  
1203.000000	98.572070  
1202.000000	98.508956  
1201.000000	98.450347  
1200.000000	98.397321  
1199.000000	98.346599  
1198.000000	98.293080  
1197.000000	98.234471  
1196.000000	98.172856  
1195.000000	98.111888  
1194.000000	98.053497  
1193.000000	97.997423  
1192.000000	97.942515  
1191.000000	97.887226  
1190.000000	97.829953  
1189.000000	97.770423  
1188.000000	97.709890  
1187.000000	97.648526  
1186.000000	97.583896  
1185.000000	97.514144  
1184.000000	97.441527  
1183.000000	97.370079  
1182.000000	97.300215  
1181.000000	97.228469  
1180.000000	97.152403  
1179.000000	97.072855  
1178.000000	96.991196  
1177.000000	96.907385  
1176.000000	96.821236  
1175.000000	96.732657  
1174.000000	96.639975  
1173.000000	96.541160  
1172.000000	96.437924  
1171.000000	96.335884  
1170.000000	96.239402  
1169.000000	96.148566  
1168.000000	96.061879  
1167.000000	95.979165  
1166.000000	95.901740  
1165.000000	95.833759  
1164.000000	95.784337  
1163.000000	95.763693  
1162.000000	95.774059  
1161.000000	95.805975  
1160.000000	95.844059  
1159.000000	95.873942  
1158.000000	95.884072  
1157.000000	95.866409  
1156.000000	95.819127  
1155.000000	95.747135  
1154.000000	95.658145  
1153.000000	95.559190  
1152.000000	95.456987  
1151.000000	95.357844  
1150.000000	95.264521  
1149.000000	95.175453  
1148.000000	95.088777  
1147.000000	95.004621  
1146.000000	94.922374  
1145.000000	94.839429  
1144.000000	94.755081  
1143.000000	94.672889  
1142.000000	94.596826  
1141.000000	94.527135  
1140.000000	94.461342  
1139.000000	94.396592  
1138.000000	94.329732  
1137.000000	94.258205  
1136.000000	94.182540  
1135.000000	94.105424  
1134.000000	94.027360  
1133.000000	93.946187  
1132.000000	93.861519  
1131.000000	93.775880  
1130.000000	93.690335  
1129.000000	93.602858  
1128.000000	93.512241  
1127.000000	93.419657  
1126.000000	93.325358  
1125.000000	93.228437  
1124.000000	93.131212  
1123.000000	93.038745  
1122.000000	92.951829  
1121.000000	92.865162  
1120.000000	92.774635  
1119.000000	92.681705  
1118.000000	92.588548  
1117.000000	92.494239  
1116.000000	92.398286  
1115.000000	92.302876  
1114.000000	92.209001  
1113.000000	92.115287  
1112.000000	92.022812  
1111.000000	91.935254  
1110.000000	91.853108  
1109.000000	91.773870  
1108.000000	91.697327  
1107.000000	91.625637  
1106.000000	91.558022  
1105.000000	91.490347  
1104.000000	91.421524  
1103.000000	91.355332  
1102.000000	91.294175  
1101.000000	91.236246  
1100.000000	91.179920  
1099.000000	91.125938  
1098.000000	91.073830  
1097.000000	91.021071  
1096.000000	90.967005  
1095.000000	90.912923  
1094.000000	90.856455  
1093.000000	90.790623  
1092.000000	90.711346  
1091.000000	90.623033  
1090.000000	90.534954  
1089.000000	90.454440  
1088.000000	90.384052  
1087.000000	90.321143  
1086.000000	90.258782  
1085.000000	90.191151  
1084.000000	90.119361  
1083.000000	90.048705  
1082.000000	89.980865  
1081.000000	89.914102  
1080.000000	89.850567  
1079.000000	89.796449  
1078.000000	89.754068  
1077.000000	89.720685  
1076.000000	89.695706  
1075.000000	89.681278  
1074.000000	89.674688  
1073.000000	89.667903  
1072.000000	89.654252  
1071.000000	89.625192  
1070.000000	89.560925  
1069.000000	89.440646  
1068.000000	89.271051  
1067.000000	89.096042  
1066.000000	88.965335  
1065.000000	88.894682  
1064.000000	88.862133  
1063.000000	88.832498  
1062.000000	88.777319  
1061.000000	88.681086  
1060.000000	88.546004  
1059.000000	88.395553  
1058.000000	88.263305  
1057.000000	88.170007  
1056.000000	88.111055  
1055.000000	88.064565  
1054.000000	88.010415  
1053.000000	87.944867  
1052.000000	87.880076  
1051.000000	87.829474  
1050.000000	87.794047  
1049.000000	87.764836  
1048.000000	87.735646  
1047.000000	87.706954  
1046.000000	87.679636  
1045.000000	87.653181  
1044.000000	87.630263  
1043.000000	87.615490  
1042.000000	87.607341  
1041.000000	87.596884  
1040.000000	87.577923  
1039.000000	87.556000  
1038.000000	87.545617  
1037.000000	87.559219  
1036.000000	87.597519  
1035.000000	87.648431  
1034.000000	87.697234  
1033.000000	87.738299  
1032.000000	87.771520  
1031.000000	87.787901  
1030.000000	87.772378  
1029.000000	87.730278  
1028.000000	87.699573  
1027.000000	87.719953  
1026.000000	87.792059  
1025.000000	87.879244  
1024.000000	87.947413  
1023.000000	87.990013  
1022.000000	88.016308  
1021.000000	88.033523  
1020.000000	88.045773  
1019.000000	88.057619  
1018.000000	88.070869  
1017.000000	88.084338  
1016.000000	88.100024  
1015.000000	88.122772  
1014.000000	88.152230  
1013.000000	88.182678  
1012.000000	88.212025  
1011.000000	88.243136  
1010.000000	88.275871  
1009.000000	88.306718  
1008.000000	88.337400  
1007.000000	88.375083  
1006.000000	88.422461  
1005.000000	88.475569  
1004.000000	88.532175  
1003.000000	88.593752  
1002.000000	88.658212  
1001.000000	88.719885  
1000.000000	88.778587  
999.000000	 88.840165  
998.000000	 88.906140  
997.000000	 88.971153  
996.000000	 89.032634  
995.000000	 89.094758  
994.000000	 89.160622  
993.000000	 89.228655  
992.000000	 89.299020  
991.000000	 89.375143  
990.000000	 89.456001  
989.000000	 89.534903  
988.000000	 89.609262  
987.000000	 89.684540  
986.000000	 89.765777  
985.000000	 89.852448  
984.000000	 89.943401  
983.000000	 90.039038  
982.000000	 90.137706  
981.000000	 90.236119  
980.000000	 90.334557  
979.000000	 90.436598  
978.000000	 90.542512  
977.000000	 90.649234  
976.000000	 90.757688  
975.000000	 90.872921  
974.000000	 90.995780  
973.000000	 91.121493  
972.000000	 91.247618  
971.000000	 91.376255  
970.000000	 91.507007  
969.000000	 91.634994  
968.000000	 91.757977  
967.000000	 91.879239  
966.000000	 92.001699  
965.000000	 92.124859  
964.000000	 92.248417  
963.000000	 92.372553  
962.000000	 92.493561  
961.000000	 92.605850  
960.000000	 92.709860  
959.000000	 92.811892  
958.000000	 92.914738  
957.000000	 93.014969  
956.000000	 93.111470  
955.000000	 93.209725  
954.000000	 93.314091  
953.000000	 93.421014  
952.000000	 93.523441  
951.000000	 93.617884  
950.000000	 93.705059  
949.000000	 93.787870  
948.000000	 93.870831  
947.000000	 93.957180  
946.000000	 94.044005  
945.000000	 94.123962  
944.000000	 94.193858  
943.000000	 94.258305  
942.000000	 94.323706  
941.000000	 94.392162  
940.000000	 94.462844  
939.000000	 94.535301  
938.000000	 94.608968  
937.000000	 94.682359  
936.000000	 94.754739  
935.000000	 94.826583  
934.000000	 94.897707  
933.000000	 94.967471  
932.000000	 95.036734  
931.000000	 95.106464  
930.000000	 95.174481  
929.000000	 95.237433  
928.000000	 95.296605  
927.000000	 95.357713  
926.000000	 95.423542  
925.000000	 95.490325  
924.000000	 95.553030  
923.000000	 95.610837  
922.000000	 95.665583  
921.000000	 95.717690  
920.000000	 95.765997  
919.000000	 95.810057  
918.000000	 95.850939  
917.000000	 95.890617  
916.000000	 95.931545  
915.000000	 95.976043  
914.000000	 96.025234  
913.000000	 96.078492  
912.000000	 96.133499  
911.000000	 96.186837  
910.000000	 96.236398  
909.000000	 96.284372  
908.000000	 96.335853  
907.000000	 96.392805  
906.000000	 96.451446  
905.000000	 96.507892  
904.000000	 96.564595  
903.000000	 96.628500  
902.000000	 96.704007  
901.000000	 96.789530  
900.000000	 96.879028  
899.000000	 96.965007  
898.000000	 97.042182  
897.000000	 97.110800  
896.000000	 97.174387  
895.000000	 97.233406  
894.000000	 97.285239  
893.000000	 97.332569  
892.000000	 97.386056  
891.000000	 97.453100  
890.000000	 97.527254  
889.000000	 97.594524  
888.000000	 97.647266  
887.000000	 97.686428  
886.000000	 97.714011  
885.000000	 97.730789  
884.000000	 97.739886  
883.000000	 97.745056  
882.000000	 97.745687  
881.000000	 97.741077  
880.000000	 97.739773  
879.000000	 97.755780  
878.000000	 97.793182  
877.000000	 97.842282  
876.000000	 97.893673  
875.000000	 97.948680  
874.000000	 98.012463  
873.000000	 98.084730  
872.000000	 98.162445  
871.000000	 98.245644  
870.000000	 98.334864  
869.000000	 98.426552  
868.000000	 98.515805  
867.000000	 98.601767  
866.000000	 98.687208  
865.000000	 98.773776  
864.000000	 98.859225  
863.000000	 98.938484  
862.000000	 99.007542  
861.000000	 99.068051  
860.000000	 99.127472  
859.000000	 99.191998  
858.000000	 99.259862  
857.000000	 99.324883  
856.000000	 99.385667  
855.000000	 99.446670  
854.000000	 99.510119  
853.000000	 99.571960  
852.000000	 99.627161  
851.000000	 99.674394  
850.000000	 99.714097  
849.000000	 99.746962  
848.000000	 99.776953  
847.000000	 99.811152  
846.000000	 99.852267  
845.000000	 99.893798  
844.000000	 99.926254  
843.000000	 99.946818  
842.000000	 99.960800  
841.000000	 99.975451  
840.000000	 99.994538  
839.000000	 100.016892 
838.000000	 100.037432 
837.000000	 100.050728 
836.000000	 100.055680 
835.000000	 100.056083 
834.000000	 100.055959 
833.000000	 100.056486 
832.000000	 100.058633 
831.000000	 100.065198 
830.000000	 100.076739 
829.000000	 100.087944 
828.000000	 100.092580 
827.000000	 100.091592 
826.000000	 100.092507 
825.000000	 100.100354 
824.000000	 100.111840 
823.000000	 100.118430 
822.000000	 100.112795 
821.000000	 100.093211 
820.000000	 100.064807 
819.000000	 100.035861 
818.000000	 100.009409 
817.000000	 99.977880  
816.000000	 99.928252  
815.000000	 99.852726  
814.000000	 99.752126  
813.000000	 99.627934  
812.000000	 99.473175  
811.000000	 99.273007  
810.000000	 99.014010  
809.000000	 98.693015  
808.000000	 98.318514  
807.000000	 97.904276  
806.000000	 97.461341  
805.000000	 96.997863  
804.000000	 96.527748  
803.000000	 96.074770  
802.000000	 95.663923  
801.000000	 95.312418  
800.000000	 95.032257  
799.000000	 94.834231  
798.000000	 94.722449  
797.000000	 94.689315  
796.000000	 94.720445  
795.000000	 94.800012  
794.000000	 94.909208  
793.000000	 95.026981  
792.000000	 95.137181  
791.000000	 95.230859  
790.000000	 95.299502  
789.000000	 95.331775  
788.000000	 95.320324  
787.000000	 95.266700  
786.000000	 95.175123  
785.000000	 95.045438  
784.000000	 94.877837  
783.000000	 94.682856  
782.000000	 94.482687  
781.000000	 94.304109  
780.000000	 94.171833  
779.000000	 94.103084  
778.000000	 94.102835  
777.000000	 94.166278  
776.000000	 94.286951  
775.000000	 94.456847  
774.000000	 94.657832  
773.000000	 94.862665  
772.000000	 95.051434  
771.000000	 95.223152  
770.000000	 95.387142  
769.000000	 95.547132  
768.000000	 95.698664  
767.000000	 95.838226  
766.000000	 95.967673  
765.000000	 96.089440  
764.000000	 96.202980  
763.000000	 96.308200  
762.000000	 96.409185  
761.000000	 96.512114  
760.000000	 96.620794  
759.000000	 96.735307  
758.000000	 96.853306  
757.000000	 96.971053  
756.000000	 97.084314  
755.000000	 97.190555  
754.000000	 97.290336  
753.000000	 97.384689  
752.000000	 97.471184  
751.000000	 97.545034  
750.000000	 97.605175  
749.000000	 97.657455  
748.000000	 97.710106  
747.000000	 97.767082  
746.000000	 97.827147  
745.000000	 97.887787  
744.000000	 97.947753  
743.000000	 98.007159  
742.000000	 98.067722  
741.000000	 98.132229  
740.000000	 98.201458  
739.000000	 98.272237  
738.000000	 98.340653  
737.000000	 98.406001  
736.000000	 98.468563  
735.000000	 98.525144  
734.000000	 98.571029  
733.000000	 98.605671  
732.000000	 98.632854  
731.000000	 98.655634  
730.000000	 98.674497  
729.000000	 98.689970  
728.000000	 98.706086  
727.000000	 98.729604  
726.000000	 98.764521  
725.000000	 98.809380  
724.000000	 98.859232  
723.000000	 98.909268  
722.000000	 98.957577  
721.000000	 99.004941  
720.000000	 99.051207  
719.000000	 99.092136  
718.000000	 99.122236  
717.000000	 99.141907  
716.000000	 99.158743  
715.000000	 99.180892  
714.000000	 99.211400  
713.000000	 99.249420  
712.000000	 99.294474  
711.000000	 99.346238  
710.000000	 99.401672  
709.000000	 99.454702  
708.000000	 99.498407  
707.000000	 99.528526  
706.000000	 99.542567  
705.000000	 99.538209  
704.000000	 99.513750  
703.000000	 99.466118  
702.000000	 99.388641  
701.000000	 99.270874  
700.000000	 99.100647  
699.000000	 98.874260  
698.000000	 98.608319  
697.000000	 98.344092  
696.000000	 98.135594  
695.000000	 98.022422  
694.000000	 98.013679  
693.000000	 98.092898  
692.000000	 98.232315  
691.000000	 98.406727  
690.000000	 98.596696  
689.000000	 98.785048  
688.000000	 98.953150  
687.000000	 99.083757  
686.000000	 99.174414  
685.000000	 99.240581  
684.000000	 99.298622  
683.000000	 99.352031  
682.000000	 99.396683  
681.000000	 99.432811  
680.000000	 99.465159  
679.000000	 99.498011  
678.000000	 99.536255  
677.000000	 99.581741  
676.000000	 99.631671  
675.000000	 99.681885  
674.000000	 99.730121  
673.000000	 99.778817  
672.000000	 99.838261  
671.000000	 99.922825  
670.000000	 100.042181 
669.000000	 100.175770 
668.000000	 100.237492 
667.000000	 100.177918 
666.000000	 100.084576 
665.000000	 100.021797 
664.000000	 100.001477 
663.000000	 100.020357 
662.000000	 100.060223 
661.000000	 100.096250 
660.000000	 100.120495 
659.000000	 100.139405 
658.000000	 100.150805 
657.000000	 100.139426 
656.000000	 100.105679 
655.000000	 100.074312 
654.000000	 100.060516 
653.000000	 100.055607 
652.000000	 100.055015 
651.000000	 100.064929 
650.000000	 100.076883 

