4000.000000	98.873169 
3999.000000	98.872428 
3998.000000	98.872130 
3997.000000	98.872430 
3996.000000	98.872985 
3995.000000	98.873160 
3994.000000	98.872801 
3993.000000	98.872307 
3992.000000	98.872145 
3991.000000	98.872358 
3990.000000	98.872728 
3989.000000	98.873190 
3988.000000	98.873837 
3987.000000	98.874512 
3986.000000	98.874721 
3985.000000	98.874121 
3984.000000	98.872919 
3983.000000	98.871733 
3982.000000	98.870990 
3981.000000	98.870609 
3980.000000	98.870256 
3979.000000	98.869801 
3978.000000	98.869454 
3977.000000	98.869489 
3976.000000	98.869888 
3975.000000	98.870285 
3974.000000	98.870280 
3973.000000	98.869804 
3972.000000	98.869113 
3971.000000	98.868482 
3970.000000	98.867975 
3969.000000	98.867537 
3968.000000	98.867176 
3967.000000	98.867002 
3966.000000	98.867087 
3965.000000	98.867348 
3964.000000	98.867556 
3963.000000	98.867478 
3962.000000	98.867070 
3961.000000	98.866520 
3960.000000	98.866068 
3959.000000	98.865767 
3958.000000	98.865478 
3957.000000	98.865128 
3956.000000	98.864757 
3955.000000	98.864337 
3954.000000	98.863657 
3953.000000	98.862547 
3952.000000	98.861113 
3951.000000	98.859737 
3950.000000	98.858839 
3949.000000	98.858562 
3948.000000	98.858642 
3947.000000	98.858608 
3946.000000	98.858192 
3945.000000	98.857479 
3944.000000	98.856776 
3943.000000	98.856385 
3942.000000	98.856507 
3941.000000	98.857138 
3940.000000	98.857922 
3939.000000	98.858203 
3938.000000	98.857547 
3937.000000	98.856183 
3936.000000	98.854739 
3935.000000	98.853665 
3934.000000	98.853031 
3933.000000	98.852937 
3932.000000	98.853603 
3931.000000	98.854967 
3930.000000	98.856429 
3929.000000	98.857217 
3928.000000	98.857004 
3927.000000	98.856029 
3926.000000	98.854640 
3925.000000	98.853060 
3924.000000	98.851620 
3923.000000	98.850793 
3922.000000	98.850635 
3921.000000	98.850606 
3920.000000	98.850283 
3919.000000	98.849846 
3918.000000	98.849628 
3917.000000	98.849618 
3916.000000	98.849608 
3915.000000	98.849579 
3914.000000	98.849596 
3913.000000	98.849566 
3912.000000	98.849336 
3911.000000	98.848897 
3910.000000	98.848284 
3909.000000	98.847553 
3908.000000	98.846773 
3907.000000	98.846059 
3906.000000	98.845483 
3905.000000	98.845029 
3904.000000	98.844654 
3903.000000	98.844378 
3902.000000	98.844225 
3901.000000	98.844107 
3900.000000	98.843919 
3899.000000	98.843645 
3898.000000	98.843313 
3897.000000	98.842940 
3896.000000	98.842542 
3895.000000	98.842132 
3894.000000	98.841716 
3893.000000	98.841294 
3892.000000	98.840867 
3891.000000	98.840431 
3890.000000	98.839987 
3889.000000	98.839545 
3888.000000	98.839120 
3887.000000	98.838718 
3886.000000	98.838338 
3885.000000	98.837974 
3884.000000	98.837631 
3883.000000	98.837310 
3882.000000	98.837009 
3881.000000	98.836714 
3880.000000	98.836413 
3879.000000	98.836105 
3878.000000	98.835798 
3877.000000	98.835502 
3876.000000	98.835220 
3875.000000	98.834949 
3874.000000	98.834686 
3873.000000	98.834437 
3872.000000	98.834213 
3871.000000	98.834031 
3870.000000	98.833885 
3869.000000	98.833751 
3868.000000	98.833648 
3867.000000	98.833644 
3866.000000	98.833755 
3865.000000	98.833892 
3864.000000	98.833995 
3863.000000	98.834064 
3862.000000	98.834094 
3861.000000	98.834024 
3860.000000	98.833827 
3859.000000	98.833526 
3858.000000	98.833130 
3857.000000	98.832706 
3856.000000	98.832494 
3855.000000	98.832756 
3854.000000	98.833398 
3853.000000	98.833869 
3852.000000	98.834044 
3851.000000	98.834369 
3850.000000	98.834902 
3849.000000	98.835369 
3848.000000	98.835703 
3847.000000	98.835981 
3846.000000	98.836251 
3845.000000	98.836514 
3844.000000	98.836771 
3843.000000	98.837028 
3842.000000	98.837294 
3841.000000	98.837572 
3840.000000	98.837857 
3839.000000	98.838147 
3838.000000	98.838447 
3837.000000	98.838758 
3836.000000	98.839077 
3835.000000	98.839398 
3834.000000	98.839714 
3833.000000	98.840017 
3832.000000	98.840304 
3831.000000	98.840569 
3830.000000	98.840812 
3829.000000	98.841027 
3828.000000	98.841214 
3827.000000	98.841369 
3826.000000	98.841489 
3825.000000	98.841576 
3824.000000	98.841642 
3823.000000	98.841703 
3822.000000	98.841763 
3821.000000	98.841815 
3820.000000	98.841858 
3819.000000	98.841906 
3818.000000	98.841974 
3817.000000	98.842053 
3816.000000	98.842124 
3815.000000	98.842170 
3814.000000	98.842190 
3813.000000	98.842183 
3812.000000	98.842144 
3811.000000	98.842075 
3810.000000	98.841991 
3809.000000	98.841903 
3808.000000	98.841809 
3807.000000	98.841701 
3806.000000	98.841580 
3805.000000	98.841464 
3804.000000	98.841370 
3803.000000	98.841301 
3802.000000	98.841246 
3801.000000	98.841190 
3800.000000	98.841133 
3799.000000	98.841080 
3798.000000	98.841025 
3797.000000	98.840945 
3796.000000	98.840823 
3795.000000	98.840653 
3794.000000	98.840441 
3793.000000	98.840195 
3792.000000	98.839923 
3791.000000	98.839626 
3790.000000	98.839307 
3789.000000	98.838968 
3788.000000	98.838617 
3787.000000	98.838263 
3786.000000	98.837913 
3785.000000	98.837567 
3784.000000	98.837226 
3783.000000	98.836896 
3782.000000	98.836578 
3781.000000	98.836253 
3780.000000	98.835903 
3779.000000	98.835519 
3778.000000	98.835106 
3777.000000	98.834680 
3776.000000	98.834250 
3775.000000	98.833824 
3774.000000	98.833378 
3773.000000	98.832884 
3772.000000	98.832442 
3771.000000	98.832105 
3770.000000	98.831502 
3769.000000	98.830418 
3768.000000	98.829875 
3767.000000	98.831120 
3766.000000	98.833281 
3765.000000	98.834026 
3764.000000	98.832723 
3763.000000	98.831517 
3762.000000	98.832063 
3761.000000	98.833121 
3760.000000	98.832989 
3759.000000	98.831459 
3758.000000	98.828276 
3757.000000	98.822571 
3756.000000	98.814462 
3755.000000	98.806146 
3754.000000	98.799538 
3753.000000	98.795991 
3752.000000	98.797701 
3751.000000	98.804356 
3750.000000	98.809235 
3749.000000	98.806323 
3748.000000	98.799355 
3747.000000	98.797137 
3746.000000	98.804077 
3745.000000	98.815890 
3744.000000	98.819288 
3743.000000	98.812031 
3742.000000	98.811222 
3741.000000	98.817509 
3740.000000	98.815459 
3739.000000	98.804163 
3738.000000	98.793649 
3737.000000	98.789601 
3736.000000	98.789797 
3735.000000	98.793013 
3734.000000	98.802262 
3733.000000	98.815880 
3732.000000	98.824326 
3731.000000	98.821768 
3730.000000	98.812885 
3729.000000	98.803802 
3728.000000	98.795289 
3727.000000	98.786510 
3726.000000	98.778838 
3725.000000	98.774698 
3724.000000	98.773970 
3723.000000	98.772445 
3722.000000	98.767350 
3721.000000	98.760390 
3720.000000	98.754370 
3719.000000	98.749251 
3718.000000	98.741874 
3717.000000	98.729666 
3716.000000	98.713756 
3715.000000	98.697563 
3714.000000	98.682312 
3713.000000	98.666637 
3712.000000	98.648230 
3711.000000	98.625701 
3710.000000	98.601712 
3709.000000	98.580806 
3708.000000	98.562638 
3707.000000	98.542303 
3706.000000	98.516072 
3705.000000	98.484449 
3704.000000	98.450172 
3703.000000	98.415253 
3702.000000	98.379325 
3701.000000	98.341344 
3700.000000	98.303436 
3699.000000	98.269938 
3698.000000	98.241668 
3697.000000	98.215452 
3696.000000	98.189717 
3695.000000	98.167039 
3694.000000	98.150252 
3693.000000	98.138773 
3692.000000	98.131097 
3691.000000	98.126912 
3690.000000	98.124057 
3689.000000	98.116570 
3688.000000	98.100980 
3687.000000	98.083258 
3686.000000	98.071712 
3685.000000	98.066294 
3684.000000	98.061734 
3683.000000	98.055774 
3682.000000	98.048150 
3681.000000	98.035114 
3680.000000	98.009860 
3679.000000	97.971171 
3678.000000	97.928181 
3677.000000	97.892606 
3676.000000	97.866529 
3675.000000	97.841061 
3674.000000	97.815078 
3673.000000	97.798088 
3672.000000	97.788876 
3671.000000	97.777902 
3670.000000	97.759699 
3669.000000	97.733976 
3668.000000	97.707408 
3667.000000	97.684954 
3666.000000	97.662869 
3665.000000	97.637245 
3664.000000	97.608941 
3663.000000	97.580739 
3662.000000	97.553955 
3661.000000	97.528314 
3660.000000	97.504180 
3659.000000	97.483835 
3658.000000	97.468642 
3657.000000	97.454979 
3656.000000	97.435817 
3655.000000	97.409855 
3654.000000	97.384744 
3653.000000	97.365208 
3652.000000	97.348918 
3651.000000	97.333519 
3650.000000	97.317455 
3649.000000	97.297483 
3648.000000	97.274508 
3647.000000	97.254621 
3646.000000	97.241964 
3645.000000	97.235597 
3644.000000	97.231061 
3643.000000	97.223778 
3642.000000	97.212039 
3641.000000	97.197852 
3640.000000	97.183906 
3639.000000	97.170221 
3638.000000	97.154625 
3637.000000	97.137249 
3636.000000	97.120275 
3635.000000	97.102773 
3634.000000	97.080703 
3633.000000	97.053758 
3632.000000	97.028042 
3631.000000	97.008156 
3630.000000	96.991082 
3629.000000	96.967535 
3628.000000	96.934789 
3627.000000	96.908896 
3626.000000	96.901182 
3625.000000	96.899616 
3624.000000	96.891372 
3623.000000	96.878141 
3622.000000	96.868410 
3621.000000	96.867578 
3620.000000	96.874907 
3619.000000	96.886753 
3618.000000	96.902272 
3617.000000	96.925259 
3616.000000	96.957456 
3615.000000	96.993698 
3614.000000	97.025497 
3613.000000	97.047443 
3612.000000	97.061800 
3611.000000	97.076075 
3610.000000	97.095504 
3609.000000	97.119464 
3608.000000	97.144129 
3607.000000	97.166854 
3606.000000	97.187468 
3605.000000	97.205737 
3604.000000	97.220850 
3603.000000	97.233954 
3602.000000	97.247556 
3601.000000	97.262696 
3600.000000	97.278508 
3599.000000	97.293979 
3598.000000	97.308180 
3597.000000	97.320397 
3596.000000	97.331787 
3595.000000	97.344171 
3594.000000	97.357453 
3593.000000	97.369233 
3592.000000	97.377493 
3591.000000	97.382243 
3590.000000	97.386561 
3589.000000	97.394384 
3588.000000	97.405898 
3587.000000	97.416802 
3586.000000	97.425139 
3585.000000	97.433402 
3584.000000	97.442502 
3583.000000	97.450985 
3582.000000	97.458578 
3581.000000	97.465857 
3580.000000	97.472462 
3579.000000	97.477124 
3578.000000	97.479050 
3577.000000	97.478718 
3576.000000	97.477775 
3575.000000	97.477484 
3574.000000	97.477519 
3573.000000	97.476162 
3572.000000	97.471955 
3571.000000	97.465309 
3570.000000	97.458922 
3569.000000	97.456119 
3568.000000	97.457789 
3567.000000	97.461593 
3566.000000	97.465641 
3565.000000	97.471459 
3564.000000	97.479946 
3563.000000	97.488764 
3562.000000	97.495428 
3561.000000	97.499205 
3560.000000	97.500525 
3559.000000	97.500596 
3558.000000	97.501086 
3557.000000	97.502832 
3556.000000	97.504883 
3555.000000	97.505418 
3554.000000	97.503529 
3553.000000	97.500147 
3552.000000	97.497196 
3551.000000	97.496002 
3550.000000	97.496204 
3549.000000	97.496261 
3548.000000	97.495393 
3547.000000	97.494805 
3546.000000	97.496269 
3545.000000	97.500093 
3544.000000	97.505161 
3543.000000	97.510206 
3542.000000	97.514540 
3541.000000	97.517901 
3540.000000	97.520216 
3539.000000	97.521782 
3538.000000	97.523228 
3537.000000	97.525049 
3536.000000	97.527074 
3535.000000	97.528697 
3534.000000	97.529545 
3533.000000	97.529785 
3532.000000	97.529921 
3531.000000	97.530364 
3530.000000	97.531154 
3529.000000	97.531947 
3528.000000	97.532438 
3527.000000	97.532843 
3526.000000	97.533961 
3525.000000	97.536482 
3524.000000	97.540292 
3523.000000	97.544416 
3522.000000	97.547673 
3521.000000	97.549466 
3520.000000	97.549989 
3519.000000	97.549981 
3518.000000	97.550388 
3517.000000	97.551961 
3516.000000	97.554819 
3515.000000	97.558244 
3514.000000	97.561111 
3513.000000	97.562713 
3512.000000	97.563069 
3511.000000	97.562575 
3510.000000	97.561675 
3509.000000	97.560800 
3508.000000	97.560395 
3507.000000	97.560703 
3506.000000	97.561510 
3505.000000	97.562279 
3504.000000	97.562677 
3503.000000	97.562933 
3502.000000	97.563713 
3501.000000	97.565435 
3500.000000	97.567589 
3499.000000	97.568885 
3498.000000	97.568293 
3497.000000	97.565958 
3496.000000	97.563217 
3495.000000	97.561708 
3494.000000	97.562345 
3493.000000	97.564963 
3492.000000	97.568511 
3491.000000	97.571550 
3490.000000	97.573024 
3489.000000	97.572900 
3488.000000	97.572079 
3487.000000	97.571608 
3486.000000	97.571751 
3485.000000	97.571757 
3484.000000	97.570579 
3483.000000	97.567958 
3482.000000	97.564882 
3481.000000	97.562813 
3480.000000	97.562295 
3479.000000	97.562445 
3478.000000	97.561970 
3477.000000	97.560465 
3476.000000	97.558531 
3475.000000	97.556872 
3474.000000	97.555623 
3473.000000	97.554529 
3472.000000	97.553340 
3471.000000	97.551869 
3470.000000	97.550002 
3469.000000	97.547852 
3468.000000	97.545695 
3467.000000	97.543629 
3466.000000	97.541391 
3465.000000	97.538523 
3464.000000	97.534713 
3463.000000	97.530155 
3462.000000	97.525684 
3461.000000	97.522354 
3460.000000	97.520656 
3459.000000	97.520178 
3458.000000	97.520063 
3457.000000	97.519717 
3456.000000	97.518943 
3455.000000	97.517672 
3454.000000	97.515832 
3453.000000	97.513287 
3452.000000	97.509850 
3451.000000	97.505580 
3450.000000	97.501172 
3449.000000	97.497683 
3448.000000	97.495691 
3447.000000	97.494820 
3446.000000	97.494236 
3445.000000	97.493378 
3444.000000	97.492004 
3443.000000	97.490030 
3442.000000	97.487739 
3441.000000	97.485792 
3440.000000	97.484492 
3439.000000	97.483097 
3438.000000	97.480331 
3437.000000	97.475657 
3436.000000	97.469785 
3435.000000	97.464085 
3434.000000	97.459723 
3433.000000	97.457177 
3432.000000	97.456070 
3431.000000	97.455273 
3430.000000	97.453718 
3429.000000	97.451400 
3428.000000	97.449319 
3427.000000	97.448173 
3426.000000	97.447451 
3425.000000	97.446101 
3424.000000	97.443850 
3423.000000	97.441396 
3422.000000	97.439321 
3421.000000	97.437279 
3420.000000	97.434479 
3419.000000	97.430886 
3418.000000	97.427707 
3417.000000	97.426462 
3416.000000	97.427425 
3415.000000	97.428987 
3414.000000	97.428888 
3413.000000	97.426392 
3412.000000	97.422976 
3411.000000	97.420728 
3410.000000	97.420419 
3409.000000	97.421297 
3408.000000	97.422136 
3407.000000	97.422076 
3406.000000	97.420887 
3405.000000	97.419161 
3404.000000	97.418088 
3403.000000	97.418327 
3402.000000	97.419133 
3401.000000	97.419217 
3400.000000	97.418420 
3399.000000	97.417826 
3398.000000	97.418217 
3397.000000	97.419110 
3396.000000	97.419502 
3395.000000	97.419072 
3394.000000	97.418411 
3393.000000	97.418448 
3392.000000	97.419808 
3391.000000	97.422338 
3390.000000	97.425106 
3389.000000	97.427154 
3388.000000	97.428358 
3387.000000	97.429378 
3386.000000	97.430809 
3385.000000	97.432653 
3384.000000	97.434530 
3383.000000	97.436037 
3382.000000	97.436971 
3381.000000	97.437544 
3380.000000	97.438418 
3379.000000	97.440189 
3378.000000	97.442825 
3377.000000	97.445776 
3376.000000	97.448535 
3375.000000	97.450888 
3374.000000	97.452761 
3373.000000	97.454233 
3372.000000	97.455592 
3371.000000	97.457023 
3370.000000	97.458252 
3369.000000	97.458815 
3368.000000	97.458730 
3367.000000	97.458694 
3366.000000	97.459458 
3365.000000	97.461188 
3364.000000	97.463505 
3363.000000	97.465983 
3362.000000	97.468500 
3361.000000	97.471128 
3360.000000	97.473828 
3359.000000	97.476365 
3358.000000	97.478524 
3357.000000	97.480345 
3356.000000	97.482036 
3355.000000	97.483728 
3354.000000	97.485414 
3353.000000	97.487082 
3352.000000	97.488805 
3351.000000	97.490649 
3350.000000	97.492590 
3349.000000	97.494560 
3348.000000	97.496517 
3347.000000	97.498449 
3346.000000	97.500364 
3345.000000	97.502273 
3344.000000	97.504175 
3343.000000	97.506067 
3342.000000	97.507953 
3341.000000	97.509842 
3340.000000	97.511735 
3339.000000	97.513632 
3338.000000	97.515525 
3337.000000	97.517411 
3336.000000	97.519290 
3335.000000	97.521165 
3334.000000	97.523041 
3333.000000	97.524916 
3332.000000	97.526789 
3331.000000	97.528660 
3330.000000	97.530535 
3329.000000	97.532421 
3328.000000	97.534321 
3327.000000	97.536232 
3326.000000	97.538146 
3325.000000	97.540056 
3324.000000	97.541960 
3323.000000	97.543855 
3322.000000	97.545743 
3321.000000	97.547629 
3320.000000	97.549529 
3319.000000	97.551461 
3318.000000	97.553434 
3317.000000	97.555421 
3316.000000	97.557366 
3315.000000	97.559220 
3314.000000	97.561000 
3313.000000	97.562821 
3312.000000	97.564815 
3311.000000	97.567023 
3310.000000	97.569326 
3309.000000	97.571536 
3308.000000	97.573571 
3307.000000	97.575487 
3306.000000	97.577357 
3305.000000	97.579147 
3304.000000	97.580765 
3303.000000	97.582196 
3302.000000	97.583576 
3301.000000	97.585125 
3300.000000	97.586983 
3299.000000	97.589104 
3298.000000	97.591301 
3297.000000	97.593437 
3296.000000	97.595561 
3295.000000	97.597819 
3294.000000	97.600258 
3293.000000	97.602758 
3292.000000	97.605158 
3291.000000	97.607436 
3290.000000	97.609755 
3289.000000	97.612261 
3288.000000	97.614845 
3287.000000	97.617174 
3286.000000	97.619017 
3285.000000	97.620514 
3284.000000	97.622075 
3283.000000	97.624018 
3282.000000	97.626377 
3281.000000	97.629014 
3280.000000	97.631782 
3279.000000	97.634556 
3278.000000	97.637222 
3277.000000	97.639688 
3276.000000	97.641874 
3275.000000	97.643692 
3274.000000	97.645163 
3273.000000	97.646580 
3272.000000	97.648429 
3271.000000	97.651004 
3270.000000	97.654202 
3269.000000	97.657611 
3268.000000	97.660798 
3267.000000	97.663496 
3266.000000	97.665617 
3265.000000	97.667281 
3264.000000	97.668773 
3263.000000	97.670311 
3262.000000	97.671900 
3261.000000	97.673523 
3260.000000	97.675406 
3259.000000	97.677856 
3258.000000	97.680815 
3257.000000	97.683758 
3256.000000	97.686181 
3255.000000	97.688129 
3254.000000	97.690132 
3253.000000	97.692615 
3252.000000	97.695438 
3251.000000	97.697974 
3250.000000	97.699675 
3249.000000	97.700640 
3248.000000	97.701681 
3247.000000	97.703736 
3246.000000	97.707134 
3245.000000	97.711404 
3244.000000	97.715768 
3243.000000	97.719761 
3242.000000	97.723345 
3241.000000	97.726581 
3240.000000	97.729419 
3239.000000	97.731880 
3238.000000	97.734254 
3237.000000	97.736863 
3236.000000	97.739598 
3235.000000	97.741973 
3234.000000	97.743801 
3233.000000	97.745586 
3232.000000	97.747985 
3231.000000	97.750944 
3230.000000	97.753651 
3229.000000	97.755342 
3228.000000	97.755961 
3227.000000	97.756132 
3226.000000	97.756775 
3225.000000	97.758654 
3224.000000	97.761901 
3223.000000	97.765840 
3222.000000	97.769580 
3221.000000	97.772910 
3220.000000	97.776353 
3219.000000	97.780320 
3218.000000	97.784594 
3217.000000	97.788702 
3216.000000	97.792447 
3215.000000	97.795945 
3214.000000	97.799449 
3213.000000	97.803277 
3212.000000	97.807684 
3211.000000	97.812566 
3210.000000	97.817346 
3209.000000	97.821285 
3208.000000	97.823948 
3207.000000	97.825463 
3206.000000	97.826565 
3205.000000	97.828320 
3204.000000	97.831491 
3203.000000	97.836068 
3202.000000	97.841426 
3201.000000	97.846911 
3200.000000	97.852151 
3199.000000	97.856846 
3198.000000	97.860644 
3197.000000	97.863468 
3196.000000	97.865781 
3195.000000	97.868334 
3194.000000	97.871612 
3193.000000	97.875595 
3192.000000	97.879866 
3191.000000	97.883852 
3190.000000	97.887137 
3189.000000	97.889754 
3188.000000	97.892180 
3187.000000	97.894937 
3186.000000	97.898223 
3185.000000	97.901934 
3184.000000	97.905904 
3183.000000	97.909966 
3182.000000	97.913905 
3181.000000	97.917537 
3180.000000	97.920854 
3179.000000	97.924026 
3178.000000	97.927226 
3177.000000	97.930500 
3176.000000	97.933826 
3175.000000	97.937215 
3174.000000	97.940741 
3173.000000	97.944496 
3172.000000	97.948534 
3171.000000	97.952804 
3170.000000	97.957135 
3169.000000	97.961267 
3168.000000	97.964913 
3167.000000	97.967822 
3166.000000	97.969936 
3165.000000	97.971580 
3164.000000	97.973401 
3163.000000	97.975935 
3162.000000	97.979245 
3161.000000	97.982904 
3160.000000	97.986327 
3159.000000	97.989241 
3158.000000	97.991848 
3157.000000	97.994570 
3156.000000	97.997613 
3155.000000	98.000825 
3154.000000	98.003948 
3153.000000	98.006883 
3152.000000	98.009641 
3151.000000	98.012214 
3150.000000	98.014688 
3149.000000	98.017353 
3148.000000	98.020462 
3147.000000	98.023918 
3146.000000	98.027449 
3145.000000	98.031077 
3144.000000	98.035052 
3143.000000	98.039260 
3142.000000	98.043050 
3141.000000	98.045903 
3140.000000	98.048012 
3139.000000	98.050024 
3138.000000	98.052358 
3137.000000	98.054978 
3136.000000	98.057730 
3135.000000	98.060576 
3134.000000	98.063475 
3133.000000	98.066236 
3132.000000	98.068605 
3131.000000	98.070533 
3130.000000	98.072370 
3129.000000	98.074748 
3128.000000	98.078140 
3127.000000	98.082545 
3126.000000	98.087526 
3125.000000	98.092463 
3124.000000	98.096786 
3123.000000	98.100138 
3122.000000	98.102568 
3121.000000	98.104570 
3120.000000	98.106712 
3119.000000	98.109098 
3118.000000	98.111391 
3117.000000	98.113374 
3116.000000	98.115270 
3115.000000	98.117473 
3114.000000	98.120175 
3113.000000	98.123351 
3112.000000	98.126868 
3111.000000	98.130461 
3110.000000	98.133773 
3109.000000	98.136572 
3108.000000	98.138875 
3107.000000	98.140827 
3106.000000	98.142604 
3105.000000	98.144499 
3104.000000	98.146877 
3103.000000	98.149825 
3102.000000	98.152898 
3101.000000	98.155403 
3100.000000	98.156892 
3099.000000	98.157366 
3098.000000	98.157282 
3097.000000	98.157595 
3096.000000	98.159508 
3095.000000	98.163630 
3094.000000	98.169176 
3093.000000	98.174308 
3092.000000	98.177488 
3091.000000	98.178363 
3090.000000	98.177693 
3089.000000	98.176963 
3088.000000	98.177738 
3087.000000	98.180624 
3086.000000	98.184700 
3085.000000	98.188470 
3084.000000	98.191462 
3083.000000	98.194360 
3082.000000	98.197599 
3081.000000	98.200564 
3080.000000	98.202423 
3079.000000	98.203288 
3078.000000	98.204253 
3077.000000	98.206370 
3076.000000	98.209467 
3075.000000	98.211897 
3074.000000	98.211877 
3073.000000	98.209465 
3072.000000	98.206881 
3071.000000	98.206328 
3070.000000	98.207845 
3069.000000	98.209864 
3068.000000	98.211319 
3067.000000	98.212172 
3066.000000	98.212253 
3065.000000	98.211074 
3064.000000	98.209163 
3063.000000	98.208330 
3062.000000	98.209817 
3061.000000	98.212780 
3060.000000	98.215165 
3059.000000	98.215756 
3058.000000	98.215150 
3057.000000	98.215105 
3056.000000	98.216964 
3055.000000	98.220108 
3054.000000	98.221947 
3053.000000	98.220179 
3052.000000	98.215430 
3051.000000	98.210919 
3050.000000	98.208904 
3049.000000	98.208067 
3048.000000	98.205273 
3047.000000	98.199488 
3046.000000	98.192875 
3045.000000	98.187874 
3044.000000	98.184049 
3043.000000	98.178599 
3042.000000	98.169777 
3041.000000	98.158976 
3040.000000	98.148942 
3039.000000	98.140404 
3038.000000	98.131386 
3037.000000	98.119857 
3036.000000	98.105968 
3035.000000	98.091247 
3034.000000	98.076458 
3033.000000	98.060872 
3032.000000	98.043367 
3031.000000	98.023625 
3030.000000	98.002003 
3029.000000	97.979094 
3028.000000	97.956054 
3027.000000	97.934386 
3026.000000	97.914481 
3025.000000	97.894707 
3024.000000	97.872498 
3023.000000	97.846368 
3022.000000	97.816879 
3021.000000	97.786145 
3020.000000	97.756559 
3019.000000	97.729256 
3018.000000	97.702878 
3017.000000	97.673901 
3016.000000	97.639034 
3015.000000	97.598005 
3014.000000	97.554256 
3013.000000	97.512778 
3012.000000	97.476730 
3011.000000	97.445428 
3010.000000	97.415195 
3009.000000	97.382355 
3008.000000	97.345863 
3007.000000	97.307501 
3006.000000	97.269871 
3005.000000	97.234182 
3004.000000	97.199471 
3003.000000	97.163439 
3002.000000	97.124316 
3001.000000	97.082716 
3000.000000	97.041846 
2999.000000	97.005286 
2998.000000	96.974521 
2997.000000	96.949156 
2996.000000	96.928665 
2995.000000	96.911256 
2994.000000	96.889845 
2993.000000	96.852442 
2992.000000	96.791702 
2991.000000	96.715739 
2990.000000	96.646524 
2989.000000	96.604487 
2988.000000	96.595001 
2987.000000	96.609109 
2986.000000	96.633722 
2985.000000	96.659185 
2984.000000	96.679350 
2983.000000	96.690239 
2982.000000	96.691661 
2981.000000	96.687837 
2980.000000	96.683718 
2979.000000	96.680927 
2978.000000	96.678290 
2977.000000	96.674893 
2976.000000	96.670814 
2975.000000	96.665784 
2974.000000	96.659547 
2973.000000	96.653879 
2972.000000	96.652492 
2971.000000	96.658270 
2970.000000	96.671612 
2969.000000	96.691669 
2968.000000	96.717811 
2967.000000	96.749033 
2966.000000	96.782860 
2965.000000	96.815981 
2964.000000	96.845924 
2963.000000	96.871787 
2962.000000	96.893883 
2961.000000	96.913283 
2960.000000	96.931440 
2959.000000	96.949752 
2958.000000	96.969401 
2957.000000	96.991318 
2956.000000	97.015424 
2955.000000	97.039726 
2954.000000	97.061335 
2953.000000	97.079511 
2952.000000	97.097183 
2951.000000	97.118204 
2950.000000	97.142753 
2949.000000	97.166213 
2948.000000	97.182997 
2947.000000	97.191039 
2946.000000	97.192960 
2945.000000	97.193644 
2944.000000	97.196487 
2943.000000	97.201818 
2942.000000	97.208415 
2941.000000	97.215529 
2940.000000	97.223135 
2939.000000	97.230657 
2938.000000	97.236227 
2937.000000	97.238014 
2936.000000	97.236267 
2935.000000	97.233337 
2934.000000	97.231316 
2933.000000	97.229953 
2932.000000	97.227124 
2931.000000	97.221120 
2930.000000	97.212255 
2929.000000	97.202428 
2928.000000	97.193470 
2927.000000	97.185839 
2926.000000	97.178573 
2925.000000	97.170290 
2924.000000	97.160544 
2923.000000	97.150621 
2922.000000	97.142884 
2921.000000	97.138822 
2920.000000	97.137554 
2919.000000	97.136566 
2918.000000	97.133975 
2917.000000	97.129570 
2916.000000	97.123513 
2915.000000	97.114991 
2914.000000	97.103318 
2913.000000	97.090268 
2912.000000	97.079997 
2911.000000	97.075736 
2910.000000	97.076868 
2909.000000	97.079805 
2908.000000	97.081391 
2907.000000	97.080301 
2906.000000	97.074899 
2905.000000	97.061522 
2904.000000	97.037589 
2903.000000	97.007889 
2902.000000	96.986086 
2901.000000	96.986604 
2900.000000	97.013637 
2899.000000	97.057493 
2898.000000	97.101478 
2897.000000	97.133650 
2896.000000	97.152449 
2895.000000	97.163132 
2894.000000	97.171626 
2893.000000	97.181323 
2892.000000	97.193001 
2891.000000	97.205647 
2890.000000	97.217545 
2889.000000	97.227658 
2888.000000	97.236231 
2887.000000	97.244149 
2886.000000	97.252318 
2885.000000	97.262052 
2884.000000	97.275331 
2883.000000	97.293615 
2882.000000	97.316381 
2881.000000	97.341501 
2880.000000	97.367284 
2879.000000	97.393707 
2878.000000	97.421302 
2877.000000	97.449257 
2876.000000	97.475215 
2875.000000	97.497145 
2874.000000	97.515138 
2873.000000	97.531061 
2872.000000	97.546532 
2871.000000	97.561666 
2870.000000	97.576093 
2869.000000	97.590716 
2868.000000	97.607722 
2867.000000	97.628627 
2866.000000	97.652782 
2865.000000	97.678155 
2864.000000	97.703414 
2863.000000	97.728880 
2862.000000	97.755379 
2861.000000	97.782559 
2860.000000	97.808906 
2859.000000	97.833489 
2858.000000	97.857132 
2857.000000	97.881190 
2856.000000	97.905007 
2855.000000	97.925577 
2854.000000	97.940651 
2853.000000	97.951632 
2852.000000	97.962340 
2851.000000	97.975559 
2850.000000	97.991756 
2849.000000	98.010393 
2848.000000	98.030998 
2847.000000	98.052828 
2846.000000	98.074617 
2845.000000	98.095115 
2844.000000	98.113432 
2843.000000	98.129011 
2842.000000	98.142103 
2841.000000	98.154093 
2840.000000	98.166305 
2839.000000	98.178408 
2838.000000	98.189080 
2837.000000	98.198392 
2836.000000	98.208168 
2835.000000	98.219474 
2834.000000	98.230990 
2833.000000	98.240722 
2832.000000	98.248397 
2831.000000	98.255343 
2830.000000	98.262713 
2829.000000	98.270663 
2828.000000	98.278662 
2827.000000	98.285834 
2826.000000	98.291423 
2825.000000	98.295605 
2824.000000	98.299379 
2823.000000	98.303212 
2822.000000	98.306450 
2821.000000	98.308668 
2820.000000	98.310781 
2819.000000	98.314040 
2818.000000	98.318615 
2817.000000	98.323971 
2816.000000	98.329812 
2815.000000	98.335591 
2814.000000	98.339820 
2813.000000	98.341320 
2812.000000	98.341020 
2811.000000	98.341301 
2810.000000	98.343552 
2809.000000	98.347401 
2808.000000	98.352192 
2807.000000	98.357845 
2806.000000	98.363855 
2805.000000	98.368668 
2804.000000	98.370949 
2803.000000	98.371050 
2802.000000	98.370750 
2801.000000	98.371777 
2800.000000	98.374752 
2799.000000	98.379122 
2798.000000	98.383711 
2797.000000	98.387604 
2796.000000	98.390833 
2795.000000	98.394078 
2794.000000	98.397505 
2793.000000	98.400084 
2792.000000	98.400487 
2791.000000	98.398734 
2790.000000	98.396703 
2789.000000	98.396706 
2788.000000	98.399457 
2787.000000	98.403674 
2786.000000	98.407628 
2785.000000	98.410772 
2784.000000	98.413643 
2783.000000	98.416565 
2782.000000	98.419097 
2781.000000	98.420702 
2780.000000	98.421413 
2779.000000	98.421720 
2778.000000	98.422197 
2777.000000	98.423357 
2776.000000	98.425449 
2775.000000	98.428146 
2774.000000	98.430705 
2773.000000	98.432748 
2772.000000	98.434661 
2771.000000	98.436992 
2770.000000	98.439688 
2769.000000	98.442172 
2768.000000	98.444013 
2767.000000	98.445191 
2766.000000	98.445838 
2765.000000	98.446080 
2764.000000	98.446133 
2763.000000	98.446275 
2762.000000	98.446696 
2761.000000	98.447560 
2760.000000	98.449096 
2759.000000	98.451355 
2758.000000	98.453947 
2757.000000	98.456325 
2756.000000	98.458400 
2755.000000	98.460562 
2754.000000	98.463042 
2753.000000	98.465536 
2752.000000	98.467571 
2751.000000	98.469007 
2750.000000	98.470055 
2749.000000	98.470969 
2748.000000	98.471845 
2747.000000	98.472651 
2746.000000	98.473404 
2745.000000	98.474302 
2744.000000	98.475618 
2743.000000	98.477414 
2742.000000	98.479424 
2741.000000	98.481334 
2740.000000	98.483118 
2739.000000	98.484946 
2738.000000	98.486831 
2737.000000	98.488573 
2736.000000	98.490018 
2735.000000	98.491186 
2734.000000	98.492176 
2733.000000	98.493186 
2732.000000	98.494580 
2731.000000	98.496608 
2730.000000	98.498971 
2729.000000	98.500961 
2728.000000	98.502248 
2727.000000	98.503327 
2726.000000	98.505009 
2725.000000	98.507609 
2724.000000	98.510766 
2723.000000	98.513868 
2722.000000	98.516355 
2721.000000	98.517788 
2720.000000	98.518099 
2719.000000	98.517864 
2718.000000	98.517972 
2717.000000	98.518767 
2716.000000	98.519690 
2715.000000	98.520011 
2714.000000	98.519734 
2713.000000	98.519572 
2712.000000	98.520154 
2711.000000	98.521571 
2710.000000	98.523619 
2709.000000	98.526022 
2708.000000	98.528355 
2707.000000	98.530137 
2706.000000	98.531302 
2705.000000	98.532321 
2704.000000	98.533614 
2703.000000	98.535047 
2702.000000	98.536290 
2701.000000	98.537348 
2700.000000	98.538343 
2699.000000	98.539048 
2698.000000	98.539163 
2697.000000	98.538913 
2696.000000	98.538763 
2695.000000	98.538590 
2694.000000	98.537794 
2693.000000	98.536435 
2692.000000	98.535627 
2691.000000	98.536377 
2690.000000	98.538442 
2689.000000	98.540673 
2688.000000	98.542284 
2687.000000	98.543365 
2686.000000	98.544259 
2685.000000	98.544932 
2684.000000	98.545009 
2683.000000	98.544164 
2682.000000	98.542359 
2681.000000	98.540004 
2680.000000	98.538000 
2679.000000	98.537340 
2678.000000	98.538401 
2677.000000	98.540541 
2676.000000	98.542418 
2675.000000	98.542986 
2674.000000	98.542240 
2673.000000	98.541080 
2672.000000	98.540445 
2671.000000	98.540604 
2670.000000	98.541218 
2669.000000	98.541772 
2668.000000	98.541768 
2667.000000	98.540733 
2666.000000	98.538486 
2665.000000	98.535505 
2664.000000	98.532733 
2663.000000	98.530823 
2662.000000	98.529633 
2661.000000	98.528476 
2660.000000	98.526782 
2659.000000	98.524598 
2658.000000	98.522614 
2657.000000	98.521639 
2656.000000	98.521911 
2655.000000	98.522907 
2654.000000	98.523911 
2653.000000	98.524606 
2652.000000	98.524921 
2651.000000	98.524642 
2650.000000	98.523605 
2649.000000	98.522119 
2648.000000	98.520693 
2647.000000	98.519451 
2646.000000	98.518325 
2645.000000	98.517698 
2644.000000	98.518087 
2643.000000	98.519043 
2642.000000	98.519071 
2641.000000	98.517109 
2640.000000	98.513678 
2639.000000	98.510363 
2638.000000	98.508319 
2637.000000	98.507527 
2636.000000	98.507164 
2635.000000	98.506459 
2634.000000	98.505509 
2633.000000	98.505300 
2632.000000	98.506626 
2631.000000	98.509103 
2630.000000	98.511621 
2629.000000	98.513582 
2628.000000	98.515041 
2627.000000	98.515820 
2626.000000	98.515448 
2625.000000	98.514174 
2624.000000	98.513143 
2623.000000	98.513075 
2622.000000	98.513457 
2621.000000	98.513555 
2620.000000	98.513599 
2619.000000	98.514319 
2618.000000	98.515790 
2617.000000	98.517404 
2616.000000	98.518677 
2615.000000	98.519487 
2614.000000	98.519686 
2613.000000	98.519144 
2612.000000	98.518124 
2611.000000	98.517220 
2610.000000	98.516887 
2609.000000	98.517227 
2608.000000	98.518121 
2607.000000	98.519297 
2606.000000	98.520349 
2605.000000	98.520948 
2604.000000	98.521058 
2603.000000	98.520883 
2602.000000	98.520725 
2601.000000	98.520908 
2600.000000	98.521617 
2599.000000	98.522714 
2598.000000	98.523803 
2597.000000	98.524626 
2596.000000	98.525271 
2595.000000	98.525914 
2594.000000	98.526580 
2593.000000	98.527221 
2592.000000	98.527842 
2591.000000	98.528464 
2590.000000	98.529053 
2589.000000	98.529556 
2588.000000	98.530004 
2587.000000	98.530533 
2586.000000	98.531252 
2585.000000	98.532121 
2584.000000	98.532996 
2583.000000	98.533782 
2582.000000	98.534480 
2581.000000	98.535154 
2580.000000	98.535877 
2579.000000	98.536626 
2578.000000	98.537220 
2577.000000	98.537525 
2576.000000	98.537751 
2575.000000	98.538349 
2574.000000	98.539526 
2573.000000	98.541025 
2572.000000	98.542385 
2571.000000	98.543396 
2570.000000	98.544141 
2569.000000	98.544743 
2568.000000	98.545188 
2567.000000	98.545353 
2566.000000	98.545148 
2565.000000	98.544728 
2564.000000	98.544568 
2563.000000	98.545061 
2562.000000	98.545991 
2561.000000	98.546675 
2560.000000	98.546862 
2559.000000	98.547042 
2558.000000	98.547669 
2557.000000	98.548586 
2556.000000	98.549499 
2555.000000	98.550442 
2554.000000	98.551439 
2553.000000	98.552250 
2552.000000	98.552922 
2551.000000	98.554072 
2550.000000	98.556054 
2549.000000	98.558180 
2548.000000	98.559352 
2547.000000	98.559237 
2546.000000	98.558385 
2545.000000	98.557475 
2544.000000	98.556815 
2543.000000	98.556467 
2542.000000	98.556291 
2541.000000	98.555947 
2540.000000	98.555261 
2539.000000	98.554573 
2538.000000	98.554455 
2537.000000	98.555091 
2536.000000	98.556088 
2535.000000	98.556783 
2534.000000	98.556680 
2533.000000	98.555725 
2532.000000	98.554319 
2531.000000	98.553004 
2530.000000	98.552107 
2529.000000	98.551840 
2528.000000	98.552520 
2527.000000	98.554302 
2526.000000	98.556706 
2525.000000	98.558793 
2524.000000	98.560091 
2523.000000	98.560972 
2522.000000	98.561911 
2521.000000	98.562635 
2520.000000	98.562411 
2519.000000	98.560998 
2518.000000	98.558958 
2517.000000	98.557208 
2516.000000	98.556372 
2515.000000	98.556491 
2514.000000	98.557117 
2513.000000	98.557683 
2512.000000	98.557904 
2511.000000	98.557852 
2510.000000	98.557693 
2509.000000	98.557527 
2508.000000	98.557481 
2507.000000	98.557711 
2506.000000	98.558184 
2505.000000	98.558591 
2504.000000	98.558624 
2503.000000	98.558307 
2502.000000	98.557982 
2501.000000	98.557988 
2500.000000	98.558409 
2499.000000	98.559106 
2498.000000	98.559841 
2497.000000	98.560392 
2496.000000	98.560672 
2495.000000	98.560789 
2494.000000	98.560976 
2493.000000	98.561375 
2492.000000	98.561921 
2491.000000	98.562417 
2490.000000	98.562738 
2489.000000	98.562913 
2488.000000	98.563034 
2487.000000	98.563167 
2486.000000	98.563327 
2485.000000	98.563502 
2484.000000	98.563687 
2483.000000	98.563886 
2482.000000	98.564103 
2481.000000	98.564334 
2480.000000	98.564567 
2479.000000	98.564789 
2478.000000	98.564988 
2477.000000	98.565156 
2476.000000	98.565291 
2475.000000	98.565404 
2474.000000	98.565521 
2473.000000	98.565672 
2472.000000	98.565871 
2471.000000	98.566098 
2470.000000	98.566312 
2469.000000	98.566495 
2468.000000	98.566657 
2467.000000	98.566810 
2466.000000	98.566949 
2465.000000	98.567085 
2464.000000	98.567232 
2463.000000	98.567360 
2462.000000	98.567421 
2461.000000	98.567433 
2460.000000	98.567497 
2459.000000	98.567662 
2458.000000	98.567851 
2457.000000	98.567936 
2456.000000	98.567867 
2455.000000	98.567696 
2454.000000	98.567541 
2453.000000	98.567531 
2452.000000	98.567760 
2451.000000	98.568209 
2450.000000	98.568660 
2449.000000	98.568870 
2448.000000	98.568839 
2447.000000	98.568814 
2446.000000	98.568999 
2445.000000	98.569324 
2444.000000	98.569579 
2443.000000	98.569672 
2442.000000	98.569636 
2441.000000	98.569537 
2440.000000	98.569495 
2439.000000	98.569668 
2438.000000	98.570096 
2437.000000	98.570655 
2436.000000	98.571277 
2435.000000	98.572069 
2434.000000	98.573053 
2433.000000	98.574000 
2432.000000	98.574690 
2431.000000	98.575182 
2430.000000	98.575716 
2429.000000	98.576436 
2428.000000	98.577290 
2427.000000	98.578153 
2426.000000	98.578936 
2425.000000	98.579612 
2424.000000	98.580211 
2423.000000	98.580799 
2422.000000	98.581459 
2421.000000	98.582250 
2420.000000	98.583197 
2419.000000	98.584289 
2418.000000	98.585489 
2417.000000	98.586721 
2416.000000	98.587887 
2415.000000	98.588898 
2414.000000	98.589715 
2413.000000	98.590414 
2412.000000	98.591186 
2411.000000	98.592210 
2410.000000	98.593497 
2409.000000	98.594842 
2408.000000	98.595987 
2407.000000	98.596873 
2406.000000	98.597778 
2405.000000	98.599119 
2404.000000	98.600980 
2403.000000	98.602831 
2402.000000	98.603954 
2401.000000	98.604254 
2400.000000	98.604503 
2399.000000	98.605665 
2398.000000	98.608112 
2397.000000	98.611456 
2396.000000	98.614761 
2395.000000	98.616878 
2394.000000	98.617033 
2393.000000	98.615650 
2392.000000	98.614604 
2391.000000	98.615735 
2390.000000	98.619047 
2389.000000	98.622622 
2388.000000	98.624481 
2387.000000	98.624159 
2386.000000	98.622533 
2385.000000	98.621009 
2384.000000	98.620979 
2383.000000	98.623284 
2382.000000	98.627716 
2381.000000	98.633168 
2380.000000	98.638493 
2379.000000	98.643129 
2378.000000	98.647080 
2377.000000	98.650780 
2376.000000	98.654810 
2375.000000	98.659284 
2374.000000	98.663557 
2373.000000	98.666672 
2372.000000	98.667983 
2371.000000	98.667135 
2370.000000	98.664218 
2369.000000	98.660555 
2368.000000	98.658421 
2367.000000	98.658953 
2366.000000	98.660986 
2365.000000	98.662524 
2364.000000	98.662372 
2363.000000	98.659644 
2362.000000	98.654657 
2361.000000	98.649932 
2360.000000	98.647614 
2359.000000	98.648182 
2358.000000	98.650568 
2357.000000	98.654234 
2356.000000	98.659132 
2355.000000	98.663617 
2354.000000	98.667315 
2353.000000	98.670098 
2352.000000	98.672346 
2351.000000	98.673058 
2350.000000	98.669258 
2349.000000	98.660473 
2348.000000	98.649441 
2347.000000	98.641934 
2346.000000	98.639441 
2345.000000	98.637499 
2344.000000	98.632978 
2343.000000	98.626626 
2342.000000	98.622985 
2341.000000	98.622724 
2340.000000	98.623487 
2339.000000	98.622807 
2338.000000	98.620623 
2337.000000	98.618078 
2336.000000	98.614976 
2335.000000	98.610859 
2334.000000	98.606335 
2333.000000	98.602723 
2332.000000	98.599948 
2331.000000	98.598232 
2330.000000	98.596600 
2329.000000	98.595061 
2328.000000	98.589933 
2327.000000	98.579424 
2326.000000	98.563636 
2325.000000	98.547009 
2324.000000	98.535310 
2323.000000	98.531257 
2322.000000	98.533759 
2321.000000	98.538274 
2320.000000	98.541650 
2319.000000	98.543785 
2318.000000	98.545733 
2317.000000	98.548489 
2316.000000	98.551723 
2315.000000	98.555364 
2314.000000	98.557292 
2313.000000	98.556061 
2312.000000	98.551221 
2311.000000	98.545852 
2310.000000	98.542115 
2309.000000	98.540463 
2308.000000	98.539172 
2307.000000	98.538071 
2306.000000	98.537525 
2305.000000	98.537694 
2304.000000	98.537422 
2303.000000	98.536222 
2302.000000	98.534016 
2301.000000	98.531208 
2300.000000	98.527877 
2299.000000	98.525221 
2298.000000	98.524280 
2297.000000	98.525224 
2296.000000	98.526016 
2295.000000	98.524797 
2294.000000	98.521168 
2293.000000	98.516725 
2292.000000	98.512962 
2291.000000	98.510118 
2290.000000	98.507199 
2289.000000	98.503382 
2288.000000	98.499137 
2287.000000	98.496157 
2286.000000	98.496225 
2285.000000	98.499693 
2284.000000	98.504962 
2283.000000	98.509215 
2282.000000	98.510704 
2281.000000	98.509980 
2280.000000	98.509101 
2279.000000	98.509525 
2278.000000	98.511135 
2277.000000	98.512908 
2276.000000	98.513949 
2275.000000	98.513926 
2274.000000	98.512989 
2273.000000	98.511884 
2272.000000	98.511650 
2271.000000	98.512712 
2270.000000	98.514315 
2269.000000	98.515363 
2268.000000	98.515744 
2267.000000	98.516351 
2266.000000	98.517814 
2265.000000	98.519758 
2264.000000	98.521325 
2263.000000	98.522069 
2262.000000	98.522159 
2261.000000	98.521980 
2260.000000	98.521832 
2259.000000	98.521884 
2258.000000	98.522312 
2257.000000	98.523320 
2256.000000	98.524927 
2255.000000	98.526752 
2254.000000	98.528162 
2253.000000	98.528865 
2252.000000	98.529147 
2251.000000	98.529531 
2250.000000	98.530229 
2249.000000	98.531058 
2248.000000	98.531813 
2247.000000	98.532489 
2246.000000	98.533167 
2245.000000	98.533874 
2244.000000	98.534581 
2243.000000	98.535266 
2242.000000	98.535928 
2241.000000	98.536574 
2240.000000	98.537214 
2239.000000	98.537849 
2238.000000	98.538465 
2237.000000	98.539044 
2236.000000	98.539576 
2235.000000	98.540060 
2234.000000	98.540505 
2233.000000	98.540916 
2232.000000	98.541293 
2231.000000	98.541635 
2230.000000	98.541943 
2229.000000	98.542222 
2228.000000	98.542484 
2227.000000	98.542741 
2226.000000	98.543006 
2225.000000	98.543282 
2224.000000	98.543564 
2223.000000	98.543841 
2222.000000	98.544120 
2221.000000	98.544442 
2220.000000	98.544859 
2219.000000	98.545337 
2218.000000	98.545756 
2217.000000	98.546029 
2216.000000	98.546228 
2215.000000	98.546545 
2214.000000	98.547061 
2213.000000	98.547726 
2212.000000	98.548452 
2211.000000	98.549167 
2210.000000	98.549731 
2209.000000	98.549943 
2208.000000	98.549839 
2207.000000	98.549753 
2206.000000	98.549748 
2205.000000	98.549522 
2204.000000	98.549268 
2203.000000	98.549680 
2202.000000	98.550722 
2201.000000	98.551802 
2200.000000	98.553361 
2199.000000	98.556276 
2198.000000	98.559333 
2197.000000	98.559375 
2196.000000	98.555111 
2195.000000	98.549466 
2194.000000	98.546557 
2193.000000	98.547191 
2192.000000	98.549007 
2191.000000	98.550156 
2190.000000	98.551107 
2189.000000	98.553234 
2188.000000	98.557200 
2187.000000	98.562641 
2186.000000	98.568651 
2185.000000	98.574716 
2184.000000	98.581190 
2183.000000	98.588045 
2182.000000	98.593168 
2181.000000	98.593475 
2180.000000	98.588586 
2179.000000	98.582452 
2178.000000	98.580458 
2177.000000	98.584975 
2176.000000	98.593404 
2175.000000	98.599920 
2174.000000	98.599786 
2173.000000	98.592975 
2172.000000	98.583591 
2171.000000	98.575347 
2170.000000	98.568658 
2169.000000	98.562996 
2168.000000	98.560109 
2167.000000	98.562372 
2166.000000	98.568652 
2165.000000	98.574465 
2164.000000	98.576720 
2163.000000	98.576860 
2162.000000	98.579755 
2161.000000	98.591163 
2160.000000	98.614477 
2159.000000	98.646181 
2158.000000	98.675085 
2157.000000	98.691249 
2156.000000	98.694918 
2155.000000	98.693709 
2154.000000	98.693194 
2153.000000	98.692577 
2152.000000	98.688012 
2151.000000	98.677136 
2150.000000	98.661654 
2149.000000	98.648092 
2148.000000	98.644186 
2147.000000	98.651448 
2146.000000	98.662603 
2145.000000	98.669507 
2144.000000	98.672448 
2143.000000	98.677264 
2142.000000	98.684841 
2141.000000	98.689408 
2140.000000	98.687792 
2139.000000	98.684352 
2138.000000	98.684356 
2137.000000	98.686864 
2136.000000	98.687376 
2135.000000	98.684204 
2134.000000	98.678785 
2133.000000	98.672096 
2132.000000	98.664272 
2131.000000	98.656715 
2130.000000	98.651410 
2129.000000	98.648007 
2128.000000	98.643648 
2127.000000	98.636453 
2126.000000	98.628421 
2125.000000	98.624159 
2124.000000	98.626314 
2123.000000	98.632314 
2122.000000	98.636083 
2121.000000	98.633564 
2120.000000	98.625928 
2119.000000	98.616839 
2118.000000	98.607972 
2117.000000	98.598922 
2116.000000	98.590624 
2115.000000	98.586051 
2114.000000	98.586552 
2113.000000	98.589232 
2112.000000	98.589571 
2111.000000	98.585768 
2110.000000	98.579922 
2109.000000	98.576081 
2108.000000	98.577205 
2107.000000	98.582800 
2106.000000	98.588800 
2105.000000	98.590703 
2104.000000	98.587560 
2103.000000	98.582228 
2102.000000	98.578095 
2101.000000	98.576691 
2100.000000	98.578089 
2099.000000	98.581665 
2098.000000	98.585957 
2097.000000	98.589360 
2096.000000	98.591884 
2095.000000	98.595119 
2094.000000	98.599690 
2093.000000	98.603691 
2092.000000	98.604402 
2091.000000	98.601018 
2090.000000	98.595294 
2089.000000	98.590078 
2088.000000	98.587146 
2087.000000	98.586079 
2086.000000	98.585229 
2085.000000	98.584055 
2084.000000	98.584168 
2083.000000	98.587301 
2082.000000	98.592575 
2081.000000	98.596720 
2080.000000	98.597205 
2079.000000	98.594093 
2078.000000	98.589112 
2077.000000	98.584148 
2076.000000	98.580357 
2075.000000	98.577913 
2074.000000	98.576313 
2073.000000	98.575634 
2072.000000	98.577215 
2071.000000	98.581979 
2070.000000	98.588529 
2069.000000	98.594181 
2068.000000	98.597887 
2067.000000	98.600643 
2066.000000	98.602952 
2065.000000	98.603647 
2064.000000	98.601743 
2063.000000	98.597862 
2062.000000	98.593421 
2061.000000	98.589517 
2060.000000	98.586848 
2059.000000	98.585591 
2058.000000	98.585018 
2057.000000	98.584391 
2056.000000	98.584539 
2055.000000	98.586986 
2054.000000	98.591103 
2053.000000	98.593726 
2052.000000	98.592693 
2051.000000	98.589308 
2050.000000	98.586547 
2049.000000	98.585950 
2048.000000	98.587301 
2047.000000	98.590282 
2046.000000	98.594747 
2045.000000	98.599732 
2044.000000	98.603724 
2043.000000	98.605987 
2042.000000	98.606762 
2041.000000	98.606480 
2040.000000	98.605299 
2039.000000	98.602962 
2038.000000	98.599042 
2037.000000	98.594260 
2036.000000	98.591406 
2035.000000	98.593205 
2034.000000	98.599076 
2033.000000	98.605239 
2032.000000	98.608992 
2031.000000	98.611128 
2030.000000	98.612994 
2029.000000	98.613660 
2028.000000	98.611776 
2027.000000	98.608710 
2026.000000	98.607764 
2025.000000	98.610857 
2024.000000	98.617505 
2023.000000	98.626061 
2022.000000	98.634336 
2021.000000	98.639644 
2020.000000	98.640089 
2019.000000	98.636027 
2018.000000	98.629833 
2017.000000	98.624085 
2016.000000	98.620109 
2015.000000	98.617644 
2014.000000	98.615291 
2013.000000	98.611944 
2012.000000	98.608323 
2011.000000	98.606515 
2010.000000	98.607696 
2009.000000	98.611125 
2008.000000	98.615388 
2007.000000	98.619430 
2006.000000	98.621788 
2005.000000	98.620634 
2004.000000	98.615834 
2003.000000	98.609865 
2002.000000	98.605848 
2001.000000	98.604922 
2000.000000	98.606174 
1999.000000	98.608083 
1998.000000	98.609301 
1997.000000	98.608993 
1996.000000	98.607367 
1995.000000	98.605615 
1994.000000	98.604686 
1993.000000	98.604376 
1992.000000	98.603797 
1991.000000	98.602217 
1990.000000	98.599191 
1989.000000	98.594885 
1988.000000	98.590889 
1987.000000	98.589504 
1986.000000	98.591278 
1985.000000	98.593829 
1984.000000	98.593970 
1983.000000	98.590706 
1982.000000	98.585842 
1981.000000	98.582609 
1980.000000	98.583982 
1979.000000	98.590934 
1978.000000	98.600833 
1977.000000	98.608628 
1976.000000	98.611616 
1975.000000	98.611557 
1974.000000	98.611511 
1973.000000	98.612097 
1972.000000	98.611841 
1971.000000	98.609840 
1970.000000	98.606536 
1969.000000	98.602939 
1968.000000	98.600299 
1967.000000	98.599576 
1966.000000	98.600218 
1965.000000	98.600718 
1964.000000	98.601449 
1963.000000	98.605197 
1962.000000	98.613269 
1961.000000	98.622319 
1960.000000	98.627403 
1959.000000	98.627352 
1958.000000	98.625040 
1957.000000	98.623224 
1956.000000	98.621911 
1955.000000	98.619953 
1954.000000	98.617130 
1953.000000	98.614289 
1952.000000	98.612286 
1951.000000	98.611145 
1950.000000	98.609755 
1949.000000	98.606320 
1948.000000	98.600256 
1947.000000	98.593389 
1946.000000	98.588412 
1945.000000	98.586197 
1944.000000	98.585217 
1943.000000	98.583429 
1942.000000	98.580399 
1941.000000	98.577679 
1940.000000	98.577312 
1939.000000	98.580094 
1938.000000	98.584896 
1937.000000	98.589146 
1936.000000	98.590614 
1935.000000	98.588791 
1934.000000	98.584499 
1933.000000	98.579341 
1932.000000	98.575179 
1931.000000	98.573304 
1930.000000	98.573464 
1929.000000	98.573540 
1928.000000	98.571573 
1927.000000	98.567599 
1926.000000	98.563313 
1925.000000	98.559933 
1924.000000	98.556707 
1923.000000	98.552296 
1922.000000	98.546678 
1921.000000	98.541416 
1920.000000	98.538091 
1919.000000	98.536980 
1918.000000	98.537062 
1917.000000	98.537006 
1916.000000	98.536092 
1915.000000	98.534065 
1914.000000	98.530682 
1913.000000	98.526200 
1912.000000	98.521742 
1911.000000	98.518567 
1910.000000	98.516803 
1909.000000	98.515291 
1908.000000	98.513049 
1907.000000	98.510149 
1906.000000	98.507137 
1905.000000	98.504178 
1904.000000	98.501092 
1903.000000	98.498236 
1902.000000	98.496124 
1901.000000	98.494588 
1900.000000	98.493072 
1899.000000	98.491319 
1898.000000	98.489498 
1897.000000	98.487876 
1896.000000	98.486363 
1895.000000	98.484639 
1894.000000	98.482470 
1893.000000	98.480225 
1892.000000	98.478897 
1891.000000	98.479068 
1890.000000	98.479698 
1889.000000	98.478766 
1888.000000	98.475753 
1887.000000	98.472399 
1886.000000	98.470588 
1885.000000	98.470549 
1884.000000	98.471246 
1883.000000	98.471912 
1882.000000	98.472478 
1881.000000	98.472867 
1880.000000	98.473009 
1879.000000	98.473069 
1878.000000	98.473153 
1877.000000	98.472972 
1876.000000	98.471918 
1875.000000	98.469778 
1874.000000	98.467159 
1873.000000	98.464945 
1872.000000	98.463578 
1871.000000	98.463048 
1870.000000	98.463376 
1869.000000	98.464832 
1868.000000	98.467576 
1867.000000	98.471046 
1866.000000	98.473886 
1865.000000	98.475004 
1864.000000	98.474324 
1863.000000	98.472317 
1862.000000	98.469501 
1861.000000	98.466892 
1860.000000	98.466265 
1859.000000	98.468830 
1858.000000	98.473690 
1857.000000	98.478219 
1856.000000	98.480676 
1855.000000	98.481545 
1854.000000	98.482145 
1853.000000	98.482959 
1852.000000	98.484138 
1851.000000	98.485982 
1850.000000	98.488061 
1849.000000	98.489361 
1848.000000	98.489401 
1847.000000	98.488934 
1846.000000	98.488871 
1845.000000	98.489335 
1844.000000	98.489959 
1843.000000	98.490883 
1842.000000	98.492252 
1841.000000	98.493237 
1840.000000	98.493208 
1839.000000	98.492271 
1838.000000	98.490878 
1837.000000	98.489639 
1836.000000	98.489383 
1835.000000	98.490876 
1834.000000	98.493450 
1833.000000	98.495177 
1832.000000	98.495163 
1831.000000	98.494155 
1830.000000	98.492995 
1829.000000	98.492048 
1828.000000	98.491341 
1827.000000	98.490541 
1826.000000	98.489288 
1825.000000	98.487578 
1824.000000	98.485627 
1823.000000	98.483811 
1822.000000	98.482141 
1821.000000	98.480812 
1820.000000	98.481254 
1819.000000	98.484950 
1818.000000	98.491386 
1817.000000	98.497120 
1816.000000	98.498719 
1815.000000	98.496894 
1814.000000	98.494290 
1813.000000	98.492048 
1812.000000	98.489672 
1811.000000	98.487309 
1810.000000	98.486629 
1809.000000	98.487477 
1808.000000	98.488201 
1807.000000	98.488917 
1806.000000	98.490550 
1805.000000	98.491837 
1804.000000	98.490668 
1803.000000	98.488412 
1802.000000	98.488584 
1801.000000	98.492366 
1800.000000	98.496975 
1799.000000	98.498943 
1798.000000	98.498147 
1797.000000	98.496031 
1796.000000	98.494678 
1795.000000	98.496689 
1794.000000	98.503243 
1793.000000	98.511744 
1792.000000	98.517243 
1791.000000	98.518782 
1790.000000	98.519648 
1789.000000	98.520854 
1788.000000	98.522347 
1787.000000	98.525507 
1786.000000	98.531679 
1785.000000	98.539303 
1784.000000	98.545748 
1783.000000	98.551810 
1782.000000	98.558922 
1781.000000	98.566976 
1780.000000	98.575012 
1779.000000	98.581768 
1778.000000	98.588020 
1777.000000	98.594906 
1776.000000	98.604202 
1775.000000	98.616372 
1774.000000	98.629309 
1773.000000	98.639703 
1772.000000	98.645833 
1771.000000	98.650471 
1770.000000	98.657387 
1769.000000	98.667486 
1768.000000	98.681608 
1767.000000	98.699795 
1766.000000	98.718983 
1765.000000	98.735743 
1764.000000	98.749515 
1763.000000	98.762743 
1762.000000	98.777320 
1761.000000	98.792929 
1760.000000	98.808613 
1759.000000	98.824254 
1758.000000	98.840376 
1757.000000	98.854786 
1756.000000	98.865280 
1755.000000	98.871993 
1754.000000	98.876957 
1753.000000	98.881732 
1752.000000	98.885961 
1751.000000	98.886679 
1750.000000	98.882781 
1749.000000	98.876254 
1748.000000	98.868313 
1747.000000	98.859607 
1746.000000	98.850042 
1745.000000	98.841325 
1744.000000	98.834657 
1743.000000	98.827674 
1742.000000	98.816786 
1741.000000	98.799765 
1740.000000	98.776978 
1739.000000	98.752607 
1738.000000	98.731492 
1737.000000	98.712268 
1736.000000	98.692064 
1735.000000	98.672707 
1734.000000	98.655082 
1733.000000	98.638765 
1732.000000	98.626318 
1731.000000	98.616336 
1730.000000	98.607446 
1729.000000	98.598793 
1728.000000	98.590418 
1727.000000	98.583899 
1726.000000	98.580447 
1725.000000	98.579919 
1724.000000	98.578866 
1723.000000	98.573892 
1722.000000	98.566140 
1721.000000	98.557346 
1720.000000	98.547930 
1719.000000	98.538257 
1718.000000	98.529072 
1717.000000	98.520065 
1716.000000	98.512029 
1715.000000	98.507616 
1714.000000	98.507643 
1713.000000	98.508595 
1712.000000	98.506607 
1711.000000	98.503590 
1710.000000	98.503341 
1709.000000	98.504957 
1708.000000	98.504531 
1707.000000	98.500720 
1706.000000	98.496360 
1705.000000	98.493641 
1704.000000	98.491073 
1703.000000	98.486307 
1702.000000	98.480131 
1701.000000	98.475551 
1700.000000	98.469572 
1699.000000	98.461698 
1698.000000	98.455788 
1697.000000	98.448678 
1696.000000	98.439298 
1695.000000	98.430563 
1694.000000	98.425199 
1693.000000	98.420468 
1692.000000	98.412881 
1691.000000	98.403966 
1690.000000	98.397234 
1689.000000	98.393417 
1688.000000	98.391264 
1687.000000	98.388341 
1686.000000	98.384365 
1685.000000	98.380394 
1684.000000	98.375261 
1683.000000	98.372437 
1682.000000	98.372144 
1681.000000	98.367012 
1680.000000	98.358220 
1679.000000	98.350670 
1678.000000	98.345394 
1677.000000	98.340151 
1676.000000	98.334302 
1675.000000	98.328781 
1674.000000	98.323928 
1673.000000	98.319680 
1672.000000	98.314630 
1671.000000	98.307823 
1670.000000	98.299232 
1669.000000	98.289435 
1668.000000	98.282487 
1667.000000	98.279039 
1666.000000	98.274754 
1665.000000	98.266717 
1664.000000	98.256163 
1663.000000	98.247253 
1662.000000	98.241099 
1661.000000	98.234345 
1660.000000	98.225206 
1659.000000	98.214729 
1658.000000	98.204931 
1657.000000	98.196787 
1656.000000	98.190032 
1655.000000	98.185420 
1654.000000	98.185231 
1653.000000	98.180903 
1652.000000	98.169275 
1651.000000	98.163399 
1650.000000	98.157628 
1649.000000	98.146965 
1648.000000	98.133692 
1647.000000	98.122724 
1646.000000	98.116385 
1645.000000	98.115151 
1644.000000	98.116261 
1643.000000	98.118851 
1642.000000	98.122247 
1641.000000	98.124769 
1640.000000	98.126172 
1639.000000	98.126476 
1638.000000	98.126627 
1637.000000	98.128675 
1636.000000	98.133773 
1635.000000	98.139606 
1634.000000	98.144582 
1633.000000	98.148264 
1632.000000	98.150672 
1631.000000	98.155528 
1630.000000	98.164527 
1629.000000	98.175581 
1628.000000	98.186549 
1627.000000	98.198272 
1626.000000	98.210631 
1625.000000	98.222149 
1624.000000	98.233445 
1623.000000	98.246282 
1622.000000	98.260353 
1621.000000	98.273370 
1620.000000	98.284722 
1619.000000	98.295974 
1618.000000	98.309540 
1617.000000	98.324889 
1616.000000	98.341241 
1615.000000	98.360151 
1614.000000	98.378239 
1613.000000	98.390787 
1612.000000	98.399445 
1611.000000	98.409060 
1610.000000	98.420492 
1609.000000	98.431888 
1608.000000	98.444022 
1607.000000	98.458275 
1606.000000	98.471693 
1605.000000	98.481281 
1604.000000	98.489852 
1603.000000	98.500803 
1602.000000	98.513290 
1601.000000	98.524332 
1600.000000	98.533639 
1599.000000	98.542771 
1598.000000	98.551665 
1597.000000	98.559531 
1596.000000	98.567060 
1595.000000	98.575396 
1594.000000	98.583606 
1593.000000	98.590012 
1592.000000	98.595569 
1591.000000	98.602684 
1590.000000	98.611118 
1589.000000	98.618265 
1588.000000	98.623360 
1587.000000	98.628170 
1586.000000	98.633413 
1585.000000	98.637148 
1584.000000	98.639223 
1583.000000	98.641437 
1582.000000	98.643997 
1581.000000	98.646682 
1580.000000	98.649954 
1579.000000	98.653077 
1578.000000	98.654176 
1577.000000	98.653586 
1576.000000	98.653258 
1575.000000	98.656235 
1574.000000	98.662227 
1573.000000	98.667075 
1572.000000	98.670112 
1571.000000	98.673390 
1570.000000	98.676033 
1569.000000	98.676191 
1568.000000	98.677646 
1567.000000	98.681816 
1566.000000	98.685126 
1565.000000	98.685312 
1564.000000	98.683339 
1563.000000	98.680388 
1562.000000	98.675389 
1561.000000	98.670795 
1560.000000	98.674324 
1559.000000	98.678830 
1558.000000	98.674368 
1557.000000	98.669844 
1556.000000	98.665739 
1555.000000	98.664165 
1554.000000	98.664243 
1553.000000	98.662963 
1552.000000	98.659291 
1551.000000	98.654393 
1550.000000	98.650547 
1549.000000	98.648166 
1548.000000	98.646567 
1547.000000	98.645865 
1546.000000	98.645251 
1545.000000	98.643003 
1544.000000	98.638277 
1543.000000	98.632291 
1542.000000	98.626845 
1541.000000	98.620972 
1540.000000	98.611459 
1539.000000	98.602230 
1538.000000	98.598579 
1537.000000	98.596797 
1536.000000	98.592464 
1535.000000	98.585966 
1534.000000	98.578792 
1533.000000	98.571472 
1532.000000	98.564647 
1531.000000	98.557277 
1530.000000	98.548715 
1529.000000	98.539813 
1528.000000	98.532024 
1527.000000	98.526981 
1526.000000	98.523760 
1525.000000	98.519133 
1524.000000	98.511358 
1523.000000	98.501751 
1522.000000	98.493032 
1521.000000	98.486121 
1520.000000	98.480551 
1519.000000	98.474823 
1518.000000	98.467373 
1517.000000	98.458800 
1516.000000	98.450064 
1515.000000	98.440994 
1514.000000	98.430228 
1513.000000	98.417734 
1512.000000	98.404502 
1511.000000	98.391363 
1510.000000	98.379248 
1509.000000	98.369015 
1508.000000	98.362472 
1507.000000	98.358778 
1506.000000	98.353360 
1505.000000	98.343501 
1504.000000	98.331022 
1503.000000	98.318781 
1502.000000	98.307508 
1501.000000	98.296882 
1500.000000	98.286015 
1499.000000	98.274281 
1498.000000	98.261876 
1497.000000	98.249018 
1496.000000	98.235055 
1495.000000	98.221739 
1494.000000	98.211398 
1493.000000	98.203071 
1492.000000	98.194932 
1491.000000	98.186784 
1490.000000	98.179334 
1489.000000	98.171621 
1488.000000	98.160775 
1487.000000	98.146370 
1486.000000	98.130922 
1485.000000	98.114373 
1484.000000	98.096223 
1483.000000	98.077255 
1482.000000	98.059017 
1481.000000	98.043031 
1480.000000	98.029034 
1479.000000	98.016075 
1478.000000	98.003284 
1477.000000	97.990513 
1476.000000	97.977964 
1475.000000	97.967056 
1474.000000	97.958165 
1473.000000	97.949799 
1472.000000	97.941330 
1471.000000	97.933730 
1470.000000	97.927266 
1469.000000	97.920440 
1468.000000	97.912072 
1467.000000	97.902294 
1466.000000	97.892098 
1465.000000	97.882914 
1464.000000	97.876921 
1463.000000	97.873922 
1462.000000	97.871437 
1461.000000	97.867188 
1460.000000	97.860283 
1459.000000	97.850456 
1458.000000	97.836270 
1457.000000	97.815688 
1456.000000	97.791251 
1455.000000	97.769244 
1454.000000	97.751788 
1453.000000	97.738952 
1452.000000	97.729992 
1451.000000	97.723378 
1450.000000	97.719128 
1449.000000	97.719273 
1448.000000	97.723749 
1447.000000	97.728705 
1446.000000	97.729529 
1445.000000	97.726102 
1444.000000	97.721433 
1443.000000	97.715516 
1442.000000	97.707377 
1441.000000	97.698164 
1440.000000	97.690930 
1439.000000	97.686991 
1438.000000	97.686749 
1437.000000	97.689778 
1436.000000	97.692565 
1435.000000	97.691781 
1434.000000	97.687984 
1433.000000	97.684477 
1432.000000	97.683878 
1431.000000	97.685587 
1430.000000	97.686680 
1429.000000	97.685583 
1428.000000	97.682251 
1427.000000	97.677457 
1426.000000	97.671405 
1425.000000	97.665075 
1424.000000	97.660066 
1423.000000	97.654940 
1422.000000	97.646681 
1421.000000	97.634191 
1420.000000	97.619216 
1419.000000	97.602882 
1418.000000	97.585278 
1417.000000	97.566591 
1416.000000	97.546516 
1415.000000	97.525622 
1414.000000	97.504936 
1413.000000	97.485839 
1412.000000	97.470152 
1411.000000	97.458590 
1410.000000	97.450297 
1409.000000	97.444791 
1408.000000	97.443479 
1407.000000	97.449279 
1406.000000	97.463710 
1405.000000	97.486399 
1404.000000	97.516127 
1403.000000	97.549602 
1402.000000	97.583423 
1401.000000	97.616971 
1400.000000	97.650977 
1399.000000	97.681166 
1398.000000	97.696164 
1397.000000	97.685832 
1396.000000	97.653104 
1395.000000	97.621214 
1394.000000	97.620634 
1393.000000	97.661551 
1392.000000	97.727305 
1391.000000	97.792386 
1390.000000	97.841074 
1389.000000	97.871538 
1388.000000	97.889179 
1387.000000	97.899199 
1386.000000	97.905043 
1385.000000	97.910466 
1384.000000	97.919337 
1383.000000	97.932776 
1382.000000	97.949107 
1381.000000	97.966769 
1380.000000	97.986265 
1379.000000	98.008604 
1378.000000	98.033097 
1377.000000	98.058524 
1376.000000	98.085281 
1375.000000	98.114678 
1374.000000	98.146167 
1373.000000	98.177288 
1372.000000	98.206220 
1371.000000	98.233254 
1370.000000	98.259482 
1369.000000	98.285441 
1368.000000	98.311230 
1367.000000	98.336507 
1366.000000	98.361026 
1365.000000	98.385032 
1364.000000	98.408904 
1363.000000	98.432277 
1362.000000	98.453968 
1361.000000	98.472852 
1360.000000	98.488861 
1359.000000	98.503183 
1358.000000	98.517571 
1357.000000	98.533511 
1356.000000	98.551378 
1355.000000	98.569906 
1354.000000	98.587356 
1353.000000	98.603363 
1352.000000	98.618436 
1351.000000	98.632584 
1350.000000	98.645469 
1349.000000	98.657435 
1348.000000	98.668827 
1347.000000	98.679375 
1346.000000	98.689091 
1345.000000	98.697976 
1344.000000	98.705421 
1343.000000	98.710560 
1342.000000	98.713706 
1341.000000	98.716714 
1340.000000	98.721642 
1339.000000	98.729096 
1338.000000	98.738389 
1337.000000	98.748657 
1336.000000	98.758659 
1335.000000	98.766392 
1334.000000	98.770761 
1333.000000	98.773264 
1332.000000	98.776624 
1331.000000	98.781917 
1330.000000	98.788158 
1329.000000	98.794331 
1328.000000	98.800227 
1327.000000	98.805437 
1326.000000	98.809152 
1325.000000	98.811736 
1324.000000	98.815111 
1323.000000	98.820323 
1322.000000	98.825952 
1321.000000	98.829878 
1320.000000	98.832171 
1319.000000	98.835071 
1318.000000	98.840111 
1317.000000	98.846190 
1316.000000	98.851203 
1315.000000	98.854732 
1314.000000	98.858043 
1313.000000	98.861648 
1312.000000	98.864102 
1311.000000	98.864217 
1310.000000	98.863565 
1309.000000	98.865285 
1308.000000	98.870331 
1307.000000	98.876213 
1306.000000	98.879635 
1305.000000	98.879511 
1304.000000	98.877184 
1303.000000	98.874791 
1302.000000	98.874132 
1301.000000	98.875756 
1300.000000	98.878233 
1299.000000	98.879055 
1298.000000	98.877235 
1297.000000	98.874356 
1296.000000	98.872499 
1295.000000	98.872116 
1294.000000	98.872802 
1293.000000	98.874843 
1292.000000	98.878302 
1291.000000	98.881388 
1290.000000	98.881710 
1289.000000	98.879076 
1288.000000	98.875516 
1287.000000	98.872687 
1286.000000	98.870869 
1285.000000	98.870308 
1284.000000	98.871601 
1283.000000	98.874352 
1282.000000	98.876692 
1281.000000	98.877157 
1280.000000	98.876659 
1279.000000	98.877141 
1278.000000	98.878817 
1277.000000	98.880305 
1276.000000	98.880804 
1275.000000	98.880747 
1274.000000	98.880415 
1273.000000	98.879224 
1272.000000	98.876732 
1271.000000	98.873464 
1270.000000	98.870163 
1269.000000	98.866709 
1268.000000	98.862228 
1267.000000	98.855834 
1266.000000	98.847111 
1265.000000	98.836476 
1264.000000	98.825382 
1263.000000	98.815630 
1262.000000	98.808121 
1261.000000	98.802632 
1260.000000	98.798840 
1259.000000	98.796510 
1258.000000	98.794481 
1257.000000	98.790977 
1256.000000	98.785680 
1255.000000	98.780223 
1254.000000	98.775517 
1253.000000	98.770073 
1252.000000	98.762881 
1251.000000	98.757097 
1250.000000	98.758561 
1249.000000	98.770746 
1248.000000	98.792652 
1247.000000	98.820107 
1246.000000	98.845701 
1245.000000	98.858363 
1244.000000	98.849588 
1243.000000	98.825072 
1242.000000	98.806802 
1241.000000	98.815908 
1240.000000	98.851718 
1239.000000	98.891426 
1238.000000	98.912126 
1237.000000	98.909844 
1236.000000	98.895792 
1235.000000	98.879858 
1234.000000	98.863113 
1233.000000	98.844126 
1232.000000	98.825464 
1231.000000	98.811307 
1230.000000	98.802378 
1229.000000	98.796190 
1228.000000	98.790477 
1227.000000	98.784017 
1226.000000	98.775429 
1225.000000	98.763640 
1224.000000	98.749222 
1223.000000	98.733495 
1222.000000	98.716397 
1221.000000	98.696319 
1220.000000	98.671665 
1219.000000	98.641468 
1218.000000	98.605204 
1217.000000	98.563547 
1216.000000	98.518814 
1215.000000	98.472886 
1214.000000	98.424724 
1213.000000	98.371678 
1212.000000	98.313226 
1211.000000	98.251468 
1210.000000	98.187773 
1209.000000	98.121290 
1208.000000	98.051529 
1207.000000	97.979915 
1206.000000	97.907244 
1205.000000	97.831684 
1204.000000	97.751330 
1203.000000	97.667605 
1202.000000	97.584546 
1201.000000	97.505120 
1200.000000	97.428911 
1199.000000	97.352640 
1198.000000	97.272637 
1197.000000	97.187846 
1196.000000	97.100644 
1195.000000	97.014066 
1194.000000	96.928510 
1193.000000	96.842187 
1192.000000	96.754081 
1191.000000	96.664452 
1190.000000	96.573103 
1189.000000	96.479710 
1188.000000	96.385413 
1187.000000	96.291238 
1186.000000	96.195406 
1185.000000	96.095552 
1184.000000	95.993269 
1183.000000	95.892473 
1182.000000	95.793060 
1181.000000	95.690481 
1180.000000	95.582415 
1179.000000	95.471440 
1178.000000	95.359638 
1177.000000	95.244823 
1176.000000	95.124072 
1175.000000	94.997203 
1174.000000	94.864871 
1173.000000	94.726954 
1172.000000	94.585089 
1171.000000	94.443464 
1170.000000	94.304885 
1169.000000	94.168900 
1168.000000	94.035364 
1167.000000	93.907156 
1166.000000	93.789211 
1165.000000	93.689270 
1164.000000	93.619931 
1163.000000	93.593675 
1162.000000	93.612209 
1161.000000	93.662874 
1160.000000	93.725588 
1159.000000	93.779973 
1158.000000	93.808005 
1157.000000	93.798017 
1156.000000	93.749503 
1155.000000	93.670772 
1154.000000	93.570688 
1153.000000	93.455551 
1152.000000	93.333034 
1151.000000	93.212167 
1150.000000	93.096755 
1149.000000	92.983891 
1148.000000	92.870958 
1147.000000	92.758997 
1146.000000	92.647785 
1145.000000	92.533925 
1144.000000	92.416541 
1143.000000	92.299530 
1142.000000	92.185612 
1141.000000	92.073026 
1140.000000	91.959876 
1139.000000	91.846230 
1138.000000	91.730238 
1137.000000	91.608168 
1136.000000	91.480312 
1135.000000	91.351040 
1134.000000	91.221200 
1133.000000	91.086522 
1132.000000	90.945382 
1131.000000	90.801755 
1130.000000	90.658557 
1129.000000	90.514344 
1128.000000	90.368053 
1127.000000	90.220084 
1126.000000	90.067488 
1125.000000	89.905921 
1124.000000	89.738068 
1123.000000	89.572104 
1122.000000	89.409936 
1121.000000	89.245442 
1120.000000	89.076212 
1119.000000	88.907549 
1118.000000	88.742547 
1117.000000	88.578511 
1116.000000	88.416091 
1115.000000	88.261380 
1114.000000	88.115414 
1113.000000	87.972001 
1112.000000	87.829247 
1111.000000	87.691925 
1110.000000	87.559585 
1109.000000	87.424311 
1108.000000	87.283466 
1107.000000	87.143625 
1106.000000	87.008007 
1105.000000	86.871190 
1104.000000	86.730304 
1103.000000	86.590216 
1102.000000	86.453530 
1101.000000	86.316529 
1100.000000	86.179020 
1099.000000	86.046810 
1098.000000	85.920118 
1097.000000	85.790742 
1096.000000	85.654816 
1095.000000	85.516763 
1094.000000	85.376024 
1093.000000	85.222146 
1092.000000	85.049458 
1091.000000	84.866547 
1090.000000	84.685640 
1089.000000	84.511536 
1088.000000	84.344917 
1087.000000	84.185852 
1086.000000	84.029266 
1085.000000	83.866914 
1084.000000	83.697765 
1083.000000	83.527468 
1082.000000	83.356527 
1081.000000	83.180577 
1080.000000	83.003357 
1079.000000	82.835907 
1078.000000	82.680686 
1077.000000	82.529990 
1076.000000	82.381415 
1075.000000	82.239529 
1074.000000	82.100796 
1073.000000	81.953174 
1072.000000	81.790990 
1071.000000	81.610575 
1070.000000	81.390432 
1069.000000	81.102345 
1068.000000	80.753384 
1067.000000	80.398251 
1066.000000	80.094341 
1065.000000	79.854372 
1064.000000	79.651670 
1063.000000	79.451694 
1062.000000	79.225220 
1061.000000	78.951320 
1060.000000	78.630387 
1059.000000	78.289891 
1058.000000	77.963324 
1057.000000	77.664266 
1056.000000	77.384443 
1055.000000	77.106575 
1054.000000	76.813577 
1053.000000	76.497766 
1052.000000	76.169269 
1051.000000	75.845680 
1050.000000	75.529136 
1049.000000	75.207208 
1048.000000	74.877857 
1047.000000	74.553976 
1046.000000	74.240820 
1045.000000	73.929526 
1044.000000	73.616137 
1043.000000	73.307244 
1042.000000	73.002245 
1041.000000	72.688972 
1040.000000	72.364177 
1039.000000	72.042810 
1038.000000	71.740902 
1037.000000	71.463170 
1036.000000	71.209823 
1035.000000	70.979175 
1034.000000	70.761107 
1033.000000	70.543672 
1032.000000	70.326071 
1031.000000	70.109936 
1030.000000	69.885274 
1029.000000	69.649311 
1028.000000	69.433589 
1027.000000	69.280697 
1026.000000	69.191245 
1025.000000	69.121008 
1024.000000	69.033964 
1023.000000	68.930605 
1022.000000	68.820914 
1021.000000	68.702875 
1020.000000	68.577389 
1019.000000	68.455832 
1018.000000	68.340774 
1017.000000	68.221728 
1016.000000	68.098040 
1015.000000	67.983348 
1014.000000	67.880797 
1013.000000	67.777171 
1012.000000	67.667661 
1011.000000	67.563072 
1010.000000	67.467233 
1009.000000	67.371683 
1008.000000	67.278361 
1007.000000	67.203031 
1006.000000	67.150162 
1005.000000	67.107952 
1004.000000	67.072903 
1003.000000	67.054870 
1002.000000	67.053377 
1001.000000	67.054708 
1000.000000	67.057747 
999.000000	 67.076883 
998.000000	 67.113605 
997.000000	 67.151056 
996.000000	 67.182921 
995.000000	 67.222116 
994.000000	 67.274230 
993.000000	 67.328173 
992.000000	 67.380239 
991.000000	 67.442213 
990.000000	 67.517812 
989.000000	 67.595386 
988.000000	 67.671560 
987.000000	 67.758602 
986.000000	 67.861252 
985.000000	 67.969824 
984.000000	 68.082726 
983.000000	 68.212198 
982.000000	 68.361617 
981.000000	 68.520074 
980.000000	 68.685203 
979.000000	 68.868539 
978.000000	 69.072178 
977.000000	 69.283554 
976.000000	 69.499617 
975.000000	 69.733131 
974.000000	 69.988507 
973.000000	 70.253943 
972.000000	 70.523674 
971.000000	 70.805719 
970.000000	 71.101059 
969.000000	 71.396912 
968.000000	 71.687438 
967.000000	 71.981050 
966.000000	 72.281551 
965.000000	 72.581878 
964.000000	 72.880897 
963.000000	 73.185901 
962.000000	 73.493951 
961.000000	 73.791435 
960.000000	 74.076859 
959.000000	 74.363593 
958.000000	 74.655259 
957.000000	 74.939058 
956.000000	 75.209159 
955.000000	 75.476286 
954.000000	 75.747288 
953.000000	 76.013706 
952.000000	 76.267225 
951.000000	 76.509194 
950.000000	 76.739599 
949.000000	 76.953627 
948.000000	 77.154057 
947.000000	 77.350315 
946.000000	 77.540488 
945.000000	 77.710736 
944.000000	 77.856984 
943.000000	 77.991146 
942.000000	 78.122368 
941.000000	 78.248427 
940.000000	 78.369440 
939.000000	 78.492723 
938.000000	 78.619070 
937.000000	 78.740457 
936.000000	 78.856022 
935.000000	 78.975069 
934.000000	 79.101012 
933.000000	 79.228232 
932.000000	 79.357048 
931.000000	 79.494370 
930.000000	 79.636760 
929.000000	 79.771086 
928.000000	 79.895697 
927.000000	 80.022754 
926.000000	 80.155120 
925.000000	 80.279016 
924.000000	 80.385045 
923.000000	 80.479224 
922.000000	 80.567382 
921.000000	 80.645110 
920.000000	 80.709655 
919.000000	 80.766732 
918.000000	 80.819420 
917.000000	 80.864400 
916.000000	 80.904610 
915.000000	 80.952470 
914.000000	 81.016424 
913.000000	 81.097242 
912.000000	 81.199675 
911.000000	 81.333071 
910.000000	 81.498442 
909.000000	 81.690000 
908.000000	 81.910127 
907.000000	 82.165944 
906.000000	 82.450803 
905.000000	 82.748136 
904.000000	 83.055737 
903.000000	 83.387533 
902.000000	 83.748407 
901.000000	 84.124546 
900.000000	 84.501073 
899.000000	 84.873031 
898.000000	 85.237157 
897.000000	 85.588910 
896.000000	 85.929358 
895.000000	 86.261005 
894.000000	 86.577856 
893.000000	 86.874557 
892.000000	 87.162544 
891.000000	 87.459060 
890.000000	 87.760539 
889.000000	 88.044950 
888.000000	 88.300741 
887.000000	 88.535423 
886.000000	 88.755506 
885.000000	 88.957327 
884.000000	 89.140579 
883.000000	 89.312340 
882.000000	 89.473666 
881.000000	 89.620187 
880.000000	 89.760222 
879.000000	 89.913584 
878.000000	 90.086524 
877.000000	 90.266439 
876.000000	 90.447578 
875.000000	 90.642555 
874.000000	 90.860790 
873.000000	 91.094317 
872.000000	 91.334161 
871.000000	 91.584410 
870.000000	 91.850505 
869.000000	 92.126582 
868.000000	 92.402595 
867.000000	 92.674218 
866.000000	 92.940786 
865.000000	 93.202323 
864.000000	 93.461416 
863.000000	 93.719610 
862.000000	 93.971141 
861.000000	 94.209279 
860.000000	 94.437862 
859.000000	 94.665662 
858.000000	 94.890309 
857.000000	 95.100437 
856.000000	 95.293819 
855.000000	 95.479845 
854.000000	 95.662315 
853.000000	 95.832862 
852.000000	 95.984526 
851.000000	 96.119698 
850.000000	 96.241472 
849.000000	 96.348841 
848.000000	 96.444093 
847.000000	 96.533413 
846.000000	 96.615497 
845.000000	 96.679976 
844.000000	 96.721506 
843.000000	 96.745866 
842.000000	 96.758722 
841.000000	 96.758035 
840.000000	 96.741064 
839.000000	 96.709027 
838.000000	 96.661495 
837.000000	 96.596404 
836.000000	 96.519805 
835.000000	 96.445844 
834.000000	 96.382776 
833.000000	 96.328754 
832.000000	 96.285226 
831.000000	 96.262452 
830.000000	 96.265203 
829.000000	 96.284256 
828.000000	 96.310326 
827.000000	 96.347018 
826.000000	 96.402259 
825.000000	 96.475917 
824.000000	 96.562630 
823.000000	 96.656757 
822.000000	 96.748320 
821.000000	 96.825362 
820.000000	 96.886341 
819.000000	 96.940572 
818.000000	 96.992357 
817.000000	 97.032817 
816.000000	 97.049703 
815.000000	 97.036524 
814.000000	 96.988539 
813.000000	 96.897364 
812.000000	 96.753288 
811.000000	 96.546848 
810.000000	 96.266304 
809.000000	 95.901760 
808.000000	 95.455405 
807.000000	 94.940928 
806.000000	 94.371149 
805.000000	 93.756758 
804.000000	 93.121240 
803.000000	 92.503649 
802.000000	 91.938039 
801.000000	 91.441418 
800.000000	 91.028182 
799.000000	 90.720267 
798.000000	 90.532285 
797.000000	 90.458945 
796.000000	 90.483944 
795.000000	 90.587341 
794.000000	 90.739592 
793.000000	 90.906106 
792.000000	 91.066632 
791.000000	 91.217841 
790.000000	 91.352501 
789.000000	 91.450703 
788.000000	 91.496891 
787.000000	 91.490817 
786.000000	 91.434627 
785.000000	 91.322440 
784.000000	 91.151658 
783.000000	 90.935121 
782.000000	 90.696009 
781.000000	 90.460999 
780.000000	 90.262958 
779.000000	 90.135729 
778.000000	 90.096228 
777.000000	 90.140052 
776.000000	 90.257243 
775.000000	 90.438515 
774.000000	 90.663291 
773.000000	 90.899621 
772.000000	 91.124721 
771.000000	 91.334129 
770.000000	 91.526831 
769.000000	 91.695580 
768.000000	 91.837431 
767.000000	 91.959860 
766.000000	 92.068187 
765.000000	 92.157242 
764.000000	 92.222447 
763.000000	 92.270057 
762.000000	 92.310858 
761.000000	 92.352571 
760.000000	 92.402685 
759.000000	 92.468305 
758.000000	 92.547901 
757.000000	 92.632691 
756.000000	 92.720153 
755.000000	 92.816424 
754.000000	 92.922449 
753.000000	 93.028913 
752.000000	 93.128832 
751.000000	 93.224595 
750.000000	 93.319199 
749.000000	 93.411526 
748.000000	 93.504218 
747.000000	 93.605419 
746.000000	 93.718244 
745.000000	 93.838295 
744.000000	 93.965233 
743.000000	 94.106425 
742.000000	 94.265077 
741.000000	 94.434869 
740.000000	 94.610229 
739.000000	 94.792333 
738.000000	 94.981490 
737.000000	 95.172028 
736.000000	 95.356804 
735.000000	 95.528567 
734.000000	 95.676981 
733.000000	 95.794871 
732.000000	 95.888281 
731.000000	 95.970426 
730.000000	 96.044938 
729.000000	 96.105613 
728.000000	 96.154178 
727.000000	 96.204500 
726.000000	 96.264893 
725.000000	 96.330603 
724.000000	 96.398963 
723.000000	 96.478555 
722.000000	 96.576502 
721.000000	 96.686987 
720.000000	 96.798832 
719.000000	 96.905265 
718.000000	 97.000893 
717.000000	 97.079491 
716.000000	 97.141451 
715.000000	 97.195914 
714.000000	 97.250121 
713.000000	 97.302681 
712.000000	 97.351028 
711.000000	 97.397268 
710.000000	 97.442781 
709.000000	 97.483640 
708.000000	 97.515204 
707.000000	 97.534956 
706.000000	 97.536861 
705.000000	 97.512355 
704.000000	 97.459915 
703.000000	 97.382171 
702.000000	 97.271141 
701.000000	 97.106176 
700.000000	 96.870719 
699.000000	 96.567550 
698.000000	 96.219050 
697.000000	 95.866567 
696.000000	 95.570270 
695.000000	 95.387875 
694.000000	 95.342845 
693.000000	 95.416419 
692.000000	 95.569662 
691.000000	 95.767268 
690.000000	 95.981119 
689.000000	 96.188512 
688.000000	 96.376535 
687.000000	 96.541148 
686.000000	 96.680853 
685.000000	 96.796015 
684.000000	 96.892284 
683.000000	 96.976921 
682.000000	 97.051241 
681.000000	 97.115375 
680.000000	 97.178159 
679.000000	 97.253170 
678.000000	 97.342571 
677.000000	 97.432158 
676.000000	 97.510319 
675.000000	 97.580912 
674.000000	 97.655973 
673.000000	 97.745913 
672.000000	 97.859753 
671.000000	 98.002995 
670.000000	 98.168210 
669.000000	 98.320442 
668.000000	 98.390989 
667.000000	 98.385525 
666.000000	 98.386834 
665.000000	 98.420372 
664.000000	 98.476709 
663.000000	 98.553707 
662.000000	 98.640439 
661.000000	 98.717862 
660.000000	 98.775763 
659.000000	 98.817052 
658.000000	 98.837487 
657.000000	 98.826308 
656.000000	 98.794902 
655.000000	 98.777087 
654.000000	 98.788014 
653.000000	 98.811656 
652.000000	 98.835529 
651.000000	 98.860648 
650.000000	 98.874529 

