4000.000000	96.203935 
3999.000000	96.203671 
3998.000000	96.203853 
3997.000000	96.204295 
3996.000000	96.204673 
3995.000000	96.204835 
3994.000000	96.204844 
3993.000000	96.204803 
3992.000000	96.204603 
3991.000000	96.204108 
3990.000000	96.203604 
3989.000000	96.203626 
3988.000000	96.204257 
3987.000000	96.204983 
3986.000000	96.205262 
3985.000000	96.205179 
3984.000000	96.204939 
3983.000000	96.204673 
3982.000000	96.204457 
3981.000000	96.204344 
3980.000000	96.204351 
3979.000000	96.204412 
3978.000000	96.204457 
3977.000000	96.204472 
3976.000000	96.204467 
3975.000000	96.204449 
3974.000000	96.204425 
3973.000000	96.204410 
3972.000000	96.204405 
3971.000000	96.204397 
3970.000000	96.204375 
3969.000000	96.204338 
3968.000000	96.204292 
3967.000000	96.204232 
3966.000000	96.204150 
3965.000000	96.204043 
3964.000000	96.203910 
3963.000000	96.203752 
3962.000000	96.203571 
3961.000000	96.203368 
3960.000000	96.203149 
3959.000000	96.202913 
3958.000000	96.202657 
3957.000000	96.202383 
3956.000000	96.202098 
3955.000000	96.201805 
3954.000000	96.201505 
3953.000000	96.201197 
3952.000000	96.200880 
3951.000000	96.200556 
3950.000000	96.200231 
3949.000000	96.199911 
3948.000000	96.199602 
3947.000000	96.199300 
3946.000000	96.198988 
3945.000000	96.198652 
3944.000000	96.198287 
3943.000000	96.197909 
3942.000000	96.197534 
3941.000000	96.197172 
3940.000000	96.196820 
3939.000000	96.196476 
3938.000000	96.196143 
3937.000000	96.195826 
3936.000000	96.195530 
3935.000000	96.195246 
3934.000000	96.194963 
3933.000000	96.194663 
3932.000000	96.194338 
3931.000000	96.193994 
3930.000000	96.193645 
3929.000000	96.193300 
3928.000000	96.192957 
3927.000000	96.192610 
3926.000000	96.192265 
3925.000000	96.191941 
3924.000000	96.191653 
3923.000000	96.191397 
3922.000000	96.191147 
3921.000000	96.190889 
3920.000000	96.190636 
3919.000000	96.190413 
3918.000000	96.190223 
3917.000000	96.190052 
3916.000000	96.189887 
3915.000000	96.189731 
3914.000000	96.189589 
3913.000000	96.189453 
3912.000000	96.189302 
3911.000000	96.189120 
3910.000000	96.188917 
3909.000000	96.188714 
3908.000000	96.188509 
3907.000000	96.188285 
3906.000000	96.188028 
3905.000000	96.187747 
3904.000000	96.187468 
3903.000000	96.187213 
3902.000000	96.186992 
3901.000000	96.186796 
3900.000000	96.186609 
3899.000000	96.186423 
3898.000000	96.186240 
3897.000000	96.186061 
3896.000000	96.185874 
3895.000000	96.185647 
3894.000000	96.185352 
3893.000000	96.184996 
3892.000000	96.184600 
3891.000000	96.184189 
3890.000000	96.183798 
3889.000000	96.183450 
3888.000000	96.183134 
3887.000000	96.182826 
3886.000000	96.182526 
3885.000000	96.182250 
3884.000000	96.182008 
3883.000000	96.181767 
3882.000000	96.181485 
3881.000000	96.181158 
3880.000000	96.180826 
3879.000000	96.180533 
3878.000000	96.180282 
3877.000000	96.180035 
3876.000000	96.179754 
3875.000000	96.179436 
3874.000000	96.179107 
3873.000000	96.178791 
3872.000000	96.178491 
3871.000000	96.178196 
3870.000000	96.177921 
3869.000000	96.177707 
3868.000000	96.177571 
3867.000000	96.177470 
3866.000000	96.177365 
3865.000000	96.177273 
3864.000000	96.177236 
3863.000000	96.177250 
3862.000000	96.177277 
3861.000000	96.177306 
3860.000000	96.177356 
3859.000000	96.177428 
3858.000000	96.177507 
3857.000000	96.177589 
3856.000000	96.177705 
3855.000000	96.177888 
3854.000000	96.178124 
3853.000000	96.178398 
3852.000000	96.178759 
3851.000000	96.179255 
3850.000000	96.179860 
3849.000000	96.180526 
3848.000000	96.181226 
3847.000000	96.181950 
3846.000000	96.182689 
3845.000000	96.183431 
3844.000000	96.184156 
3843.000000	96.184843 
3842.000000	96.185494 
3841.000000	96.186130 
3840.000000	96.186780 
3839.000000	96.187448 
3838.000000	96.188117 
3837.000000	96.188767 
3836.000000	96.189398 
3835.000000	96.190019 
3834.000000	96.190643 
3833.000000	96.191277 
3832.000000	96.191926 
3831.000000	96.192590 
3830.000000	96.193260 
3829.000000	96.193925 
3828.000000	96.194568 
3827.000000	96.195171 
3826.000000	96.195730 
3825.000000	96.196266 
3824.000000	96.196805 
3823.000000	96.197340 
3822.000000	96.197842 
3821.000000	96.198299 
3820.000000	96.198749 
3819.000000	96.199221 
3818.000000	96.199681 
3817.000000	96.200087 
3816.000000	96.200456 
3815.000000	96.200842 
3814.000000	96.201258 
3813.000000	96.201657 
3812.000000	96.202000 
3811.000000	96.202309 
3810.000000	96.202619 
3809.000000	96.202910 
3808.000000	96.203134 
3807.000000	96.203282 
3806.000000	96.203387 
3805.000000	96.203480 
3804.000000	96.203551 
3803.000000	96.203581 
3802.000000	96.203584 
3801.000000	96.203608 
3800.000000	96.203686 
3799.000000	96.203797 
3798.000000	96.203888 
3797.000000	96.203950 
3796.000000	96.204012 
3795.000000	96.204097 
3794.000000	96.204197 
3793.000000	96.204292 
3792.000000	96.204374 
3791.000000	96.204444 
3790.000000	96.204505 
3789.000000	96.204555 
3788.000000	96.204588 
3787.000000	96.204591 
3786.000000	96.204543 
3785.000000	96.204443 
3784.000000	96.204322 
3783.000000	96.204196 
3782.000000	96.204045 
3781.000000	96.203845 
3780.000000	96.203607 
3779.000000	96.203360 
3778.000000	96.203113 
3777.000000	96.202844 
3776.000000	96.202540 
3775.000000	96.202209 
3774.000000	96.201857 
3773.000000	96.201464 
3772.000000	96.201007 
3771.000000	96.200486 
3770.000000	96.199925 
3769.000000	96.199336 
3768.000000	96.198705 
3767.000000	96.198011 
3766.000000	96.197257 
3765.000000	96.196477 
3764.000000	96.195697 
3763.000000	96.194904 
3762.000000	96.194071 
3761.000000	96.193193 
3760.000000	96.192283 
3759.000000	96.191340 
3758.000000	96.190338 
3757.000000	96.189270 
3756.000000	96.188165 
3755.000000	96.187057 
3754.000000	96.185957 
3753.000000	96.184856 
3752.000000	96.183741 
3751.000000	96.182588 
3750.000000	96.181372 
3749.000000	96.180094 
3748.000000	96.178779 
3747.000000	96.177428 
3746.000000	96.176026 
3745.000000	96.174577 
3744.000000	96.173114 
3743.000000	96.171686 
3742.000000	96.170277 
3741.000000	96.168808 
3740.000000	96.167248 
3739.000000	96.165633 
3738.000000	96.163990 
3737.000000	96.162303 
3736.000000	96.160545 
3735.000000	96.158716 
3734.000000	96.156833 
3733.000000	96.154905 
3732.000000	96.152951 
3731.000000	96.150994 
3730.000000	96.149038 
3729.000000	96.147057 
3728.000000	96.145035 
3727.000000	96.142979 
3726.000000	96.140908 
3725.000000	96.138832 
3724.000000	96.136746 
3723.000000	96.134643 
3722.000000	96.132508 
3721.000000	96.130331 
3720.000000	96.128113 
3719.000000	96.125865 
3718.000000	96.123587 
3717.000000	96.121261 
3716.000000	96.118874 
3715.000000	96.116456 
3714.000000	96.114161 
3713.000000	96.112089 
3712.000000	96.110250 
3711.000000	96.108084 
3710.000000	96.104899 
3709.000000	96.100689 
3708.000000	96.095983 
3707.000000	96.091413 
3706.000000	96.087516 
3705.000000	96.084356 
3704.000000	96.081364 
3703.000000	96.077672 
3702.000000	96.072288 
3701.000000	96.065138 
3700.000000	96.058691 
3699.000000	96.054277 
3698.000000	96.049521 
3697.000000	96.043601 
3696.000000	96.039808 
3695.000000	96.040201 
3694.000000	96.041147 
3693.000000	96.038630 
3692.000000	96.034240 
3691.000000	96.031658 
3690.000000	96.029498 
3689.000000	96.022362 
3688.000000	96.012241 
3687.000000	96.008321 
3686.000000	96.010881 
3685.000000	96.010401 
3684.000000	96.004098 
3683.000000	95.998019 
3682.000000	95.995058 
3681.000000	95.989479 
3680.000000	95.977009 
3679.000000	95.964384 
3678.000000	95.958816 
3677.000000	95.956725 
3676.000000	95.946112 
3675.000000	95.925230 
3674.000000	95.911658 
3673.000000	95.909330 
3672.000000	95.901212 
3671.000000	95.883607 
3670.000000	95.865984 
3669.000000	95.853891 
3668.000000	95.846752 
3667.000000	95.838733 
3666.000000	95.827125 
3665.000000	95.815939 
3664.000000	95.808164 
3663.000000	95.800589 
3662.000000	95.788249 
3661.000000	95.770599 
3660.000000	95.752054 
3659.000000	95.736886 
3658.000000	95.723106 
3657.000000	95.704920 
3656.000000	95.680603 
3655.000000	95.660245 
3654.000000	95.648037 
3653.000000	95.631409 
3652.000000	95.604527 
3651.000000	95.582285 
3650.000000	95.575068 
3649.000000	95.568020 
3648.000000	95.545317 
3647.000000	95.514942 
3646.000000	95.493887 
3645.000000	95.484912 
3644.000000	95.479413 
3643.000000	95.470999 
3642.000000	95.461604 
3641.000000	95.453263 
3640.000000	95.442095 
3639.000000	95.423040 
3638.000000	95.399764 
3637.000000	95.381934 
3636.000000	95.368987 
3635.000000	95.349312 
3634.000000	95.318294 
3633.000000	95.287821 
3632.000000	95.268282 
3631.000000	95.257745 
3630.000000	95.250756 
3629.000000	95.236822 
3628.000000	95.217995 
3627.000000	95.215321 
3626.000000	95.217448 
3625.000000	95.200692 
3624.000000	95.174845 
3623.000000	95.159312 
3622.000000	95.154631 
3621.000000	95.150452 
3620.000000	95.144436 
3619.000000	95.141023 
3618.000000	95.145568 
3617.000000	95.160042 
3616.000000	95.176820 
3615.000000	95.187451 
3614.000000	95.193245 
3613.000000	95.202132 
3612.000000	95.219565 
3611.000000	95.241848 
3610.000000	95.259114 
3609.000000	95.267201 
3608.000000	95.270250 
3607.000000	95.273632 
3606.000000	95.277751 
3605.000000	95.279425 
3604.000000	95.280005 
3603.000000	95.284319 
3602.000000	95.291674 
3601.000000	95.297910 
3600.000000	95.304205 
3599.000000	95.314321 
3598.000000	95.325338 
3597.000000	95.333149 
3596.000000	95.336014 
3595.000000	95.335670 
3594.000000	95.334390 
3593.000000	95.335721 
3592.000000	95.340199 
3591.000000	95.345037 
3590.000000	95.347852 
3589.000000	95.349706 
3588.000000	95.349891 
3587.000000	95.346937 
3586.000000	95.345612 
3585.000000	95.349123 
3584.000000	95.354030 
3583.000000	95.359097 
3582.000000	95.366283 
3581.000000	95.375389 
3580.000000	95.383132 
3579.000000	95.387927 
3578.000000	95.390234 
3577.000000	95.392076 
3576.000000	95.394583 
3575.000000	95.396712 
3574.000000	95.396303 
3573.000000	95.392107 
3572.000000	95.385579 
3571.000000	95.379964 
3570.000000	95.377781 
3569.000000	95.378788 
3568.000000	95.379822 
3567.000000	95.377122 
3566.000000	95.372384 
3565.000000	95.371028 
3564.000000	95.373310 
3563.000000	95.376269 
3562.000000	95.378547 
3561.000000	95.379789 
3560.000000	95.379703 
3559.000000	95.378872 
3558.000000	95.378162 
3557.000000	95.377554 
3556.000000	95.377372 
3555.000000	95.378327 
3554.000000	95.380297 
3553.000000	95.381548 
3552.000000	95.380790 
3551.000000	95.378733 
3550.000000	95.376507 
3549.000000	95.374360 
3548.000000	95.373079 
3547.000000	95.373590 
3546.000000	95.374928 
3545.000000	95.375217 
3544.000000	95.374379 
3543.000000	95.373934 
3542.000000	95.374926 
3541.000000	95.376855 
3540.000000	95.378679 
3539.000000	95.379598 
3538.000000	95.379516 
3537.000000	95.379033 
3536.000000	95.378924 
3535.000000	95.379522 
3534.000000	95.380441 
3533.000000	95.381287 
3532.000000	95.382011 
3531.000000	95.382758 
3530.000000	95.383332 
3529.000000	95.383395 
3528.000000	95.383045 
3527.000000	95.382927 
3526.000000	95.383316 
3525.000000	95.383650 
3524.000000	95.383361 
3523.000000	95.382679 
3522.000000	95.382308 
3521.000000	95.382514 
3520.000000	95.383045 
3519.000000	95.383679 
3518.000000	95.384444 
3517.000000	95.385283 
3516.000000	95.385813 
3515.000000	95.385840 
3514.000000	95.385869 
3513.000000	95.386748 
3512.000000	95.388640 
3511.000000	95.390766 
3510.000000	95.392080 
3509.000000	95.392226 
3508.000000	95.391630 
3507.000000	95.390876 
3506.000000	95.390154 
3505.000000	95.389619 
3504.000000	95.389572 
3503.000000	95.390018 
3502.000000	95.390460 
3501.000000	95.390346 
3500.000000	95.389578 
3499.000000	95.388524 
3498.000000	95.387784 
3497.000000	95.387946 
3496.000000	95.389245 
3495.000000	95.391128 
3494.000000	95.392389 
3493.000000	95.392163 
3492.000000	95.390599 
3491.000000	95.388656 
3490.000000	95.387216 
3489.000000	95.386486 
3488.000000	95.386190 
3487.000000	95.385939 
3486.000000	95.385399 
3485.000000	95.384384 
3484.000000	95.382905 
3483.000000	95.381132 
3482.000000	95.379212 
3481.000000	95.377336 
3480.000000	95.375794 
3479.000000	95.374802 
3478.000000	95.374340 
3477.000000	95.374176 
3476.000000	95.373955 
3475.000000	95.373169 
3474.000000	95.371412 
3473.000000	95.368784 
3472.000000	95.365897 
3471.000000	95.363393 
3470.000000	95.361545 
3469.000000	95.360246 
3468.000000	95.359151 
3467.000000	95.357804 
3466.000000	95.355887 
3465.000000	95.353476 
3464.000000	95.351020 
3463.000000	95.348984 
3462.000000	95.347395 
3461.000000	95.345862 
3460.000000	95.344005 
3459.000000	95.341817 
3458.000000	95.339596 
3457.000000	95.337594 
3456.000000	95.335809 
3455.000000	95.334122 
3454.000000	95.332414 
3453.000000	95.330616 
3452.000000	95.328715 
3451.000000	95.326736 
3450.000000	95.324688 
3449.000000	95.322577 
3448.000000	95.320465 
3447.000000	95.318459 
3446.000000	95.316599 
3445.000000	95.314778 
3444.000000	95.312833 
3443.000000	95.310756 
3442.000000	95.308721 
3441.000000	95.306879 
3440.000000	95.305165 
3439.000000	95.303331 
3438.000000	95.301224 
3437.000000	95.298976 
3436.000000	95.296893 
3435.000000	95.295234 
3434.000000	95.293974 
3433.000000	95.292805 
3432.000000	95.291418 
3431.000000	95.289797 
3430.000000	95.288019 
3429.000000	95.285963 
3428.000000	95.283532 
3427.000000	95.281017 
3426.000000	95.278942 
3425.000000	95.277506 
3424.000000	95.276436 
3423.000000	95.275273 
3422.000000	95.273757 
3421.000000	95.271926 
3420.000000	95.269915 
3419.000000	95.267717 
3418.000000	95.265221 
3417.000000	95.262653 
3416.000000	95.260699 
3415.000000	95.259879 
3414.000000	95.259919 
3413.000000	95.260001 
3412.000000	95.259597 
3411.000000	95.258660 
3410.000000	95.257211 
3409.000000	95.255297 
3408.000000	95.253272 
3407.000000	95.251562 
3406.000000	95.250343 
3405.000000	95.249734 
3404.000000	95.249900 
3403.000000	95.250496 
3402.000000	95.250449 
3401.000000	95.249073 
3400.000000	95.247025 
3399.000000	95.245686 
3398.000000	95.245686 
3397.000000	95.246460 
3396.000000	95.246983 
3395.000000	95.246770 
3394.000000	95.246288 
3393.000000	95.246516 
3392.000000	95.247870 
3391.000000	95.249516 
3390.000000	95.250122 
3389.000000	95.249362 
3388.000000	95.248219 
3387.000000	95.247759 
3386.000000	95.248114 
3385.000000	95.248909 
3384.000000	95.249967 
3383.000000	95.251159 
3382.000000	95.252044 
3381.000000	95.252300 
3380.000000	95.252152 
3379.000000	95.252068 
3378.000000	95.252213 
3377.000000	95.252471 
3376.000000	95.252662 
3375.000000	95.252527 
3374.000000	95.251895 
3373.000000	95.251119 
3372.000000	95.251002 
3371.000000	95.251975 
3370.000000	95.253691 
3369.000000	95.255474 
3368.000000	95.256903 
3367.000000	95.257729 
3366.000000	95.257717 
3365.000000	95.257047 
3364.000000	95.256641 
3363.000000	95.257487 
3362.000000	95.259684 
3361.000000	95.262445 
3360.000000	95.264921 
3359.000000	95.266801 
3358.000000	95.268171 
3357.000000	95.269187 
3356.000000	95.269943 
3355.000000	95.270428 
3354.000000	95.270583 
3353.000000	95.270547 
3352.000000	95.270785 
3351.000000	95.271746 
3350.000000	95.273474 
3349.000000	95.275660 
3348.000000	95.277989 
3347.000000	95.280243 
3346.000000	95.282168 
3345.000000	95.283588 
3344.000000	95.284607 
3343.000000	95.285481 
3342.000000	95.286275 
3341.000000	95.286828 
3340.000000	95.287016 
3339.000000	95.286924 
3338.000000	95.286813 
3337.000000	95.287040 
3336.000000	95.287938 
3335.000000	95.289549 
3334.000000	95.291480 
3333.000000	95.293122 
3332.000000	95.294079 
3331.000000	95.294321 
3330.000000	95.294076 
3329.000000	95.293770 
3328.000000	95.293972 
3327.000000	95.295090 
3326.000000	95.296996 
3325.000000	95.299052 
3324.000000	95.300588 
3323.000000	95.301478 
3322.000000	95.302255 
3321.000000	95.303697 
3320.000000	95.306165 
3319.000000	95.309266 
3318.000000	95.312103 
3317.000000	95.313977 
3316.000000	95.314798 
3315.000000	95.315000 
3314.000000	95.315256 
3313.000000	95.316128 
3312.000000	95.317729 
3311.000000	95.319605 
3310.000000	95.321110 
3309.000000	95.322030 
3308.000000	95.322661 
3307.000000	95.323298 
3306.000000	95.323903 
3305.000000	95.324393 
3304.000000	95.324916 
3303.000000	95.325642 
3302.000000	95.326550 
3301.000000	95.327592 
3300.000000	95.328805 
3299.000000	95.330106 
3298.000000	95.331178 
3297.000000	95.331850 
3296.000000	95.332411 
3295.000000	95.333352 
3294.000000	95.334927 
3293.000000	95.337080 
3292.000000	95.339516 
3291.000000	95.341764 
3290.000000	95.343442 
3289.000000	95.344659 
3288.000000	95.345900 
3287.000000	95.347380 
3286.000000	95.348782 
3285.000000	95.349888 
3284.000000	95.351053 
3283.000000	95.352739 
3282.000000	95.354908 
3281.000000	95.357152 
3280.000000	95.359178 
3279.000000	95.360877 
3278.000000	95.362154 
3277.000000	95.363023 
3276.000000	95.363759 
3275.000000	95.364640 
3274.000000	95.365636 
3273.000000	95.366530 
3272.000000	95.367250 
3271.000000	95.367982 
3270.000000	95.369125 
3269.000000	95.371180 
3268.000000	95.374395 
3267.000000	95.378331 
3266.000000	95.381950 
3265.000000	95.384565 
3264.000000	95.386370 
3263.000000	95.387908 
3262.000000	95.389420 
3261.000000	95.390853 
3260.000000	95.392250 
3259.000000	95.393791 
3258.000000	95.395583 
3257.000000	95.397658 
3256.000000	95.400098 
3255.000000	95.402887 
3254.000000	95.405678 
3253.000000	95.408009 
3252.000000	95.409724 
3251.000000	95.411069 
3250.000000	95.412462 
3249.000000	95.414247 
3248.000000	95.416571 
3247.000000	95.419305 
3246.000000	95.422077 
3245.000000	95.424562 
3244.000000	95.426743 
3243.000000	95.428802 
3242.000000	95.430893 
3241.000000	95.433076 
3240.000000	95.435367 
3239.000000	95.437731 
3238.000000	95.440094 
3237.000000	95.442448 
3236.000000	95.444913 
3235.000000	95.447594 
3234.000000	95.450368 
3233.000000	95.452940 
3232.000000	95.455107 
3231.000000	95.456927 
3230.000000	95.458655 
3229.000000	95.460564 
3228.000000	95.462749 
3227.000000	95.465081 
3226.000000	95.467349 
3225.000000	95.469539 
3224.000000	95.471882 
3223.000000	95.474491 
3222.000000	95.477092 
3221.000000	95.479308 
3220.000000	95.481068 
3219.000000	95.482620 
3218.000000	95.484304 
3217.000000	95.486273 
3216.000000	95.488439 
3215.000000	95.490634 
3214.000000	95.492801 
3213.000000	95.495037 
3212.000000	95.497440 
3211.000000	95.499954 
3210.000000	95.502396 
3209.000000	95.504604 
3208.000000	95.506522 
3207.000000	95.508180 
3206.000000	95.509732 
3205.000000	95.511462 
3204.000000	95.513596 
3203.000000	95.516064 
3202.000000	95.518567 
3201.000000	95.520888 
3200.000000	95.523053 
3199.000000	95.525142 
3198.000000	95.527135 
3197.000000	95.529035 
3196.000000	95.530996 
3195.000000	95.533193 
3194.000000	95.535635 
3193.000000	95.538206 
3192.000000	95.540846 
3191.000000	95.543566 
3190.000000	95.546344 
3189.000000	95.549096 
3188.000000	95.551705 
3187.000000	95.554044 
3186.000000	95.556049 
3185.000000	95.557809 
3184.000000	95.559598 
3183.000000	95.561705 
3182.000000	95.564222 
3181.000000	95.566991 
3180.000000	95.569694 
3179.000000	95.572104 
3178.000000	95.574235 
3177.000000	95.576297 
3176.000000	95.578504 
3175.000000	95.580877 
3174.000000	95.583259 
3173.000000	95.585488 
3172.000000	95.587550 
3171.000000	95.589590 
3170.000000	95.591768 
3169.000000	95.594111 
3168.000000	95.596494 
3167.000000	95.598772 
3166.000000	95.600944 
3165.000000	95.603184 
3164.000000	95.605673 
3163.000000	95.608414 
3162.000000	95.611205 
3161.000000	95.613808 
3160.000000	95.616175 
3159.000000	95.618482 
3158.000000	95.620925 
3157.000000	95.623472 
3156.000000	95.625862 
3155.000000	95.627869 
3154.000000	95.629556 
3153.000000	95.631251 
3152.000000	95.633235 
3151.000000	95.635458 
3150.000000	95.637577 
3149.000000	95.639310 
3148.000000	95.640758 
3147.000000	95.642347 
3146.000000	95.644434 
3145.000000	95.647056 
3144.000000	95.650051 
3143.000000	95.653281 
3142.000000	95.656659 
3141.000000	95.660007 
3140.000000	95.662974 
3139.000000	95.665259 
3138.000000	95.666945 
3137.000000	95.668489 
3136.000000	95.670361 
3135.000000	95.672718 
3134.000000	95.675429 
3133.000000	95.678210 
3132.000000	95.680684 
3131.000000	95.682537 
3130.000000	95.683793 
3129.000000	95.684927 
3128.000000	95.686507 
3127.000000	95.688762 
3126.000000	95.691519 
3125.000000	95.694409 
3124.000000	95.697128 
3123.000000	95.699530 
3122.000000	95.701598 
3121.000000	95.703413 
3120.000000	95.705071 
3119.000000	95.706601 
3118.000000	95.708047 
3117.000000	95.709605 
3116.000000	95.711527 
3115.000000	95.713892 
3114.000000	95.716529 
3113.000000	95.719214 
3112.000000	95.721853 
3111.000000	95.724461 
3110.000000	95.726988 
3109.000000	95.729249 
3108.000000	95.731070 
3107.000000	95.732497 
3106.000000	95.733789 
3105.000000	95.735185 
3104.000000	95.736712 
3103.000000	95.738183 
3102.000000	95.739440 
3101.000000	95.740637 
3100.000000	95.742177 
3099.000000	95.744244 
3098.000000	95.746541 
3097.000000	95.748583 
3096.000000	95.750247 
3095.000000	95.751830 
3094.000000	95.753658 
3093.000000	95.755743 
3092.000000	95.757782 
3091.000000	95.759413 
3090.000000	95.760475 
3089.000000	95.761155 
3088.000000	95.761950 
3087.000000	95.763331 
3086.000000	95.765412 
3085.000000	95.767939 
3084.000000	95.770516 
3083.000000	95.772801 
3082.000000	95.774579 
3081.000000	95.775912 
3080.000000	95.777225 
3079.000000	95.778941 
3078.000000	95.780952 
3077.000000	95.782636 
3076.000000	95.783520 
3075.000000	95.783789 
3074.000000	95.784052 
3073.000000	95.784682 
3072.000000	95.785538 
3071.000000	95.786307 
3070.000000	95.787079 
3069.000000	95.788520 
3068.000000	95.791218 
3067.000000	95.794760 
3066.000000	95.797780 
3065.000000	95.799412 
3064.000000	95.800338 
3063.000000	95.801756 
3062.000000	95.803629 
3061.000000	95.804912 
3060.000000	95.805490 
3059.000000	95.806736 
3058.000000	95.809621 
3057.000000	95.813105 
3056.000000	95.815075 
3055.000000	95.814670 
3054.000000	95.813073 
3053.000000	95.812253 
3052.000000	95.813346 
3051.000000	95.816138 
3050.000000	95.819663 
3049.000000	95.823175 
3048.000000	95.826543 
3047.000000	95.829875 
3046.000000	95.833180 
3045.000000	95.836548 
3044.000000	95.840273 
3043.000000	95.844418 
3042.000000	95.848573 
3041.000000	95.852230 
3040.000000	95.855250 
3039.000000	95.857858 
3038.000000	95.860375 
3037.000000	95.863047 
3036.000000	95.865778 
3035.000000	95.868015 
3034.000000	95.869613 
3033.000000	95.871731 
3032.000000	95.875880 
3031.000000	95.881773 
3030.000000	95.887047 
3029.000000	95.889957 
3028.000000	95.891623 
3027.000000	95.894671 
3026.000000	95.900137 
3025.000000	95.906605 
3024.000000	95.912125 
3023.000000	95.916044 
3022.000000	95.919037 
3021.000000	95.922484 
3020.000000	95.927969 
3019.000000	95.936208 
3018.000000	95.946005 
3017.000000	95.954911 
3016.000000	95.961353 
3015.000000	95.965720 
3014.000000	95.969482 
3013.000000	95.973846 
3012.000000	95.979199 
3011.000000	95.985231 
3010.000000	95.991473 
3009.000000	95.997952 
3008.000000	96.005084 
3007.000000	96.012751 
3006.000000	96.020078 
3005.000000	96.026728 
3004.000000	96.033758 
3003.000000	96.042131 
3002.000000	96.050757 
3001.000000	96.057348 
3000.000000	96.061274 
2999.000000	96.064437 
2998.000000	96.069126 
2997.000000	96.075667 
2996.000000	96.082379 
2995.000000	96.087354 
2994.000000	96.090343 
2993.000000	96.093483 
2992.000000	96.100001 
2991.000000	96.111235 
2990.000000	96.124676 
2989.000000	96.135568 
2988.000000	96.140575 
2987.000000	96.139440 
2986.000000	96.133801 
2985.000000	96.125621 
2984.000000	96.116962 
2983.000000	96.110130 
2982.000000	96.106831 
2981.000000	96.107045 
2980.000000	96.109020 
2979.000000	96.110450 
2978.000000	96.109822 
2977.000000	96.107098 
2976.000000	96.103366 
2975.000000	96.099746 
2974.000000	96.096657 
2973.000000	96.094207 
2972.000000	96.092869 
2971.000000	96.093040 
2970.000000	96.093794 
2969.000000	96.092607 
2968.000000	96.086841 
2967.000000	96.075808 
2966.000000	96.061723 
2965.000000	96.048605 
2964.000000	96.039540 
2963.000000	96.034475 
2962.000000	96.030662 
2961.000000	96.025470 
2960.000000	96.018669 
2959.000000	96.012093 
2958.000000	96.007624 
2957.000000	96.005827 
2956.000000	96.005886 
2955.000000	96.006101 
2954.000000	96.004686 
2953.000000	96.000871 
2952.000000	95.995430 
2951.000000	95.989913 
2950.000000	95.985341 
2949.000000	95.981727 
2948.000000	95.978482 
2947.000000	95.974836 
2946.000000	95.970063 
2945.000000	95.963762 
2944.000000	95.955871 
2943.000000	95.946234 
2942.000000	95.934503 
2941.000000	95.920770 
2940.000000	95.905958 
2939.000000	95.891198 
2938.000000	95.877044 
2937.000000	95.863529 
2936.000000	95.850566 
2935.000000	95.837940 
2934.000000	95.825296 
2933.000000	95.812480 
2932.000000	95.799438 
2931.000000	95.785467 
2930.000000	95.769346 
2929.000000	95.751110 
2928.000000	95.733432 
2927.000000	95.720376 
2926.000000	95.714644 
2925.000000	95.715939 
2924.000000	95.721422 
2923.000000	95.727493 
2922.000000	95.731983 
2921.000000	95.735437 
2920.000000	95.740111 
2919.000000	95.747611 
2918.000000	95.758105 
2917.000000	95.771926 
2916.000000	95.790560 
2915.000000	95.814935 
2914.000000	95.843444 
2913.000000	95.872790 
2912.000000	95.900486 
2911.000000	95.925581 
2910.000000	95.947569 
2909.000000	95.966157 
2908.000000	95.981932 
2907.000000	95.996039 
2906.000000	96.009097 
2905.000000	96.021177 
2904.000000	96.032896 
2903.000000	96.045288 
2902.000000	96.058361 
2901.000000	96.070112 
2900.000000	96.077774 
2899.000000	96.080146 
2898.000000	96.078078 
2897.000000	96.074311 
2896.000000	96.072147 
2895.000000	96.073568 
2894.000000	96.077855 
2893.000000	96.082296 
2892.000000	96.084571 
2891.000000	96.084649 
2890.000000	96.084637 
2889.000000	96.086938 
2888.000000	96.092146 
2887.000000	96.098304 
2886.000000	96.102425 
2885.000000	96.103087 
2884.000000	96.101297 
2883.000000	96.098689 
2882.000000	96.095572 
2881.000000	96.091428 
2880.000000	96.086708 
2879.000000	96.082894 
2878.000000	96.080647 
2877.000000	96.078780 
2876.000000	96.075534 
2875.000000	96.070564 
2874.000000	96.065447 
2873.000000	96.062239 
2872.000000	96.061254 
2871.000000	96.060075 
2870.000000	96.055297 
2869.000000	96.045805 
2868.000000	96.034122 
2867.000000	96.024046 
2866.000000	96.017138 
2865.000000	96.011923 
2864.000000	96.005999 
2863.000000	95.998113 
2862.000000	95.988423 
2861.000000	95.977700 
2860.000000	95.966552 
2859.000000	95.954954 
2858.000000	95.942256 
2857.000000	95.927772 
2856.000000	95.911426 
2855.000000	95.894075 
2854.000000	95.877730 
2853.000000	95.865383 
2852.000000	95.859752 
2851.000000	95.861672 
2850.000000	95.870079 
2849.000000	95.883579 
2848.000000	95.901261 
2847.000000	95.921829 
2846.000000	95.943236 
2845.000000	95.964001 
2844.000000	95.983926 
2843.000000	96.002537 
2842.000000	96.017854 
2841.000000	96.027998 
2840.000000	96.033411 
2839.000000	96.036361 
2838.000000	96.038791 
2837.000000	96.041663 
2836.000000	96.045531 
2835.000000	96.050247 
2834.000000	96.054589 
2833.000000	96.057700 
2832.000000	96.060474 
2831.000000	96.063999 
2830.000000	96.067134 
2829.000000	96.067655 
2828.000000	96.065727 
2827.000000	96.064162 
2826.000000	96.064872 
2825.000000	96.067043 
2824.000000	96.069562 
2823.000000	96.073162 
2822.000000	96.078746 
2821.000000	96.084973 
2820.000000	96.089209 
2819.000000	96.090284 
2818.000000	96.089122 
2817.000000	96.087184 
2816.000000	96.085358 
2815.000000	96.084056 
2814.000000	96.083413 
2813.000000	96.083408 
2812.000000	96.084305 
2811.000000	96.086729 
2810.000000	96.090769 
2809.000000	96.095283 
2808.000000	96.098739 
2807.000000	96.100665 
2806.000000	96.101813 
2805.000000	96.103020 
2804.000000	96.104277 
2803.000000	96.104951 
2802.000000	96.104617 
2801.000000	96.103565 
2800.000000	96.102547 
2799.000000	96.102101 
2798.000000	96.102242 
2797.000000	96.102775 
2796.000000	96.103633 
2795.000000	96.104797 
2794.000000	96.106182 
2793.000000	96.107795 
2792.000000	96.109681 
2791.000000	96.111480 
2790.000000	96.112460 
2789.000000	96.112349 
2788.000000	96.111803 
2787.000000	96.111712 
2786.000000	96.112293 
2785.000000	96.113212 
2784.000000	96.114232 
2783.000000	96.115303 
2782.000000	96.116255 
2781.000000	96.116905 
2780.000000	96.117402 
2779.000000	96.118099 
2778.000000	96.119072 
2777.000000	96.120099 
2776.000000	96.121007 
2775.000000	96.121799 
2774.000000	96.122545 
2773.000000	96.123282 
2772.000000	96.124013 
2771.000000	96.124732 
2770.000000	96.125436 
2769.000000	96.126121 
2768.000000	96.126793 
2767.000000	96.127454 
2766.000000	96.128110 
2765.000000	96.128759 
2764.000000	96.129402 
2763.000000	96.130043 
2762.000000	96.130687 
2761.000000	96.131341 
2760.000000	96.132004 
2759.000000	96.132673 
2758.000000	96.133339 
2757.000000	96.133998 
2756.000000	96.134648 
2755.000000	96.135287 
2754.000000	96.135913 
2753.000000	96.136525 
2752.000000	96.137123 
2751.000000	96.137709 
2750.000000	96.138287 
2749.000000	96.138857 
2748.000000	96.139419 
2747.000000	96.139978 
2746.000000	96.140536 
2745.000000	96.141094 
2744.000000	96.141646 
2743.000000	96.142189 
2742.000000	96.142730 
2741.000000	96.143281 
2740.000000	96.143815 
2739.000000	96.144273 
2738.000000	96.144673 
2737.000000	96.145158 
2736.000000	96.145852 
2735.000000	96.146700 
2734.000000	96.147472 
2733.000000	96.147961 
2732.000000	96.148104 
2731.000000	96.148027 
2730.000000	96.147984 
2729.000000	96.148226 
2728.000000	96.148870 
2727.000000	96.149829 
2726.000000	96.150866 
2725.000000	96.151782 
2724.000000	96.152593 
2723.000000	96.153457 
2722.000000	96.154418 
2721.000000	96.155277 
2720.000000	96.155804 
2719.000000	96.156030 
2718.000000	96.156202 
2717.000000	96.156437 
2716.000000	96.156496 
2715.000000	96.156023 
2714.000000	96.154993 
2713.000000	96.153897 
2712.000000	96.153410 
2711.000000	96.153827 
2710.000000	96.154867 
2709.000000	96.156055 
2708.000000	96.157244 
2707.000000	96.158626 
2706.000000	96.160213 
2705.000000	96.161543 
2704.000000	96.162156 
2703.000000	96.162264 
2702.000000	96.162684 
2701.000000	96.163980 
2700.000000	96.165781 
2699.000000	96.167060 
2698.000000	96.167051 
2697.000000	96.165795 
2696.000000	96.164003 
2695.000000	96.162539 
2694.000000	96.161926 
2693.000000	96.162120 
2692.000000	96.162600 
2691.000000	96.162818 
2690.000000	96.162691 
2689.000000	96.162546 
2688.000000	96.162495 
2687.000000	96.162110 
2686.000000	96.160993 
2685.000000	96.159552 
2684.000000	96.158833 
2683.000000	96.159421 
2682.000000	96.160712 
2681.000000	96.161378 
2680.000000	96.160475 
2679.000000	96.158055 
2678.000000	96.155050 
2677.000000	96.152723 
2676.000000	96.151898 
2675.000000	96.152429 
2674.000000	96.153384 
2673.000000	96.153893 
2672.000000	96.153866 
2671.000000	96.153829 
2670.000000	96.154257 
2669.000000	96.155150 
2668.000000	96.155970 
2667.000000	96.155812 
2666.000000	96.153970 
2665.000000	96.150680 
2664.000000	96.147132 
2663.000000	96.144323 
2662.000000	96.142075 
2661.000000	96.139640 
2660.000000	96.137042 
2659.000000	96.135211 
2658.000000	96.134700 
2657.000000	96.134809 
2656.000000	96.134271 
2655.000000	96.132480 
2654.000000	96.129831 
2653.000000	96.127109 
2652.000000	96.124863 
2651.000000	96.123215 
2650.000000	96.121908 
2649.000000	96.120530 
2648.000000	96.118859 
2647.000000	96.117113 
2646.000000	96.115822 
2645.000000	96.115421 
2644.000000	96.115864 
2643.000000	96.116473 
2642.000000	96.116243 
2641.000000	96.114601 
2640.000000	96.112100 
2639.000000	96.110256 
2638.000000	96.110407 
2637.000000	96.112591 
2636.000000	96.115459 
2635.000000	96.117375 
2634.000000	96.117694 
2633.000000	96.116933 
2632.000000	96.115988 
2631.000000	96.115389 
2630.000000	96.115251 
2629.000000	96.115498 
2628.000000	96.115807 
2627.000000	96.115592 
2626.000000	96.114512 
2625.000000	96.112957 
2624.000000	96.111758 
2623.000000	96.111420 
2622.000000	96.111815 
2621.000000	96.112566 
2620.000000	96.113390 
2619.000000	96.114047 
2618.000000	96.114287 
2617.000000	96.114016 
2616.000000	96.113373 
2615.000000	96.112625 
2614.000000	96.112100 
2613.000000	96.112120 
2612.000000	96.112740 
2611.000000	96.113582 
2610.000000	96.114180 
2609.000000	96.114474 
2608.000000	96.114747 
2607.000000	96.115165 
2606.000000	96.115692 
2605.000000	96.116391 
2604.000000	96.117411 
2603.000000	96.118664 
2602.000000	96.119822 
2601.000000	96.120667 
2600.000000	96.121262 
2599.000000	96.121738 
2598.000000	96.122145 
2597.000000	96.122532 
2596.000000	96.122990 
2595.000000	96.123512 
2594.000000	96.123969 
2593.000000	96.124291 
2592.000000	96.124561 
2591.000000	96.124899 
2590.000000	96.125373 
2589.000000	96.126075 
2588.000000	96.127105 
2587.000000	96.128398 
2586.000000	96.129655 
2585.000000	96.130566 
2584.000000	96.131081 
2583.000000	96.131364 
2582.000000	96.131644 
2581.000000	96.132058 
2580.000000	96.132641 
2579.000000	96.133363 
2578.000000	96.134166 
2577.000000	96.135015 
2576.000000	96.135886 
2575.000000	96.136727 
2574.000000	96.137474 
2573.000000	96.138115 
2572.000000	96.138684 
2571.000000	96.139177 
2570.000000	96.139572 
2569.000000	96.139953 
2568.000000	96.140481 
2567.000000	96.141206 
2566.000000	96.142001 
2565.000000	96.142686 
2564.000000	96.143249 
2563.000000	96.143794 
2562.000000	96.144381 
2561.000000	96.144975 
2560.000000	96.145541 
2559.000000	96.146102 
2558.000000	96.146667 
2557.000000	96.147181 
2556.000000	96.147605 
2555.000000	96.147965 
2554.000000	96.148309 
2553.000000	96.148683 
2552.000000	96.149169 
2551.000000	96.149824 
2550.000000	96.150539 
2549.000000	96.151088 
2548.000000	96.151377 
2547.000000	96.151525 
2546.000000	96.151686 
2545.000000	96.151876 
2544.000000	96.152053 
2543.000000	96.152242 
2542.000000	96.152504 
2541.000000	96.152871 
2540.000000	96.153334 
2539.000000	96.153808 
2538.000000	96.154104 
2537.000000	96.154103 
2536.000000	96.153979 
2535.000000	96.154090 
2534.000000	96.154618 
2533.000000	96.155417 
2532.000000	96.156165 
2531.000000	96.156514 
2530.000000	96.156184 
2529.000000	96.155218 
2528.000000	96.154193 
2527.000000	96.153789 
2526.000000	96.154037 
2525.000000	96.154270 
2524.000000	96.153912 
2523.000000	96.153097 
2522.000000	96.152393 
2521.000000	96.152224 
2520.000000	96.152675 
2519.000000	96.153533 
2518.000000	96.154318 
2517.000000	96.154656 
2516.000000	96.154732 
2515.000000	96.155144 
2514.000000	96.156234 
2513.000000	96.157768 
2512.000000	96.159173 
2511.000000	96.159816 
2510.000000	96.159229 
2509.000000	96.157627 
2508.000000	96.156202 
2507.000000	96.156099 
2506.000000	96.157084 
2505.000000	96.157804 
2504.000000	96.157481 
2503.000000	96.156627 
2502.000000	96.155915 
2501.000000	96.155344 
2500.000000	96.154935 
2499.000000	96.155304 
2498.000000	96.156838 
2497.000000	96.158940 
2496.000000	96.160675 
2495.000000	96.161691 
2494.000000	96.162173 
2493.000000	96.162532 
2492.000000	96.163463 
2491.000000	96.165586 
2490.000000	96.168575 
2489.000000	96.171128 
2488.000000	96.172285 
2487.000000	96.172314 
2486.000000	96.172071 
2485.000000	96.171949 
2484.000000	96.171781 
2483.000000	96.171291 
2482.000000	96.170324 
2481.000000	96.169174 
2480.000000	96.168815 
2479.000000	96.170196 
2478.000000	96.173064 
2477.000000	96.175925 
2476.000000	96.177485 
2475.000000	96.177633 
2474.000000	96.176934 
2473.000000	96.175887 
2472.000000	96.174877 
2471.000000	96.174207 
2470.000000	96.173809 
2469.000000	96.173371 
2468.000000	96.172907 
2467.000000	96.172658 
2466.000000	96.172356 
2465.000000	96.171351 
2464.000000	96.169693 
2463.000000	96.168405 
2462.000000	96.168337 
2461.000000	96.169272 
2460.000000	96.170321 
2459.000000	96.170775 
2458.000000	96.170476 
2457.000000	96.169845 
2456.000000	96.169706 
2455.000000	96.170556 
2454.000000	96.171853 
2453.000000	96.172399 
2452.000000	96.171681 
2451.000000	96.170450 
2450.000000	96.169852 
2449.000000	96.170285 
2448.000000	96.171380 
2447.000000	96.172590 
2446.000000	96.173481 
2445.000000	96.173776 
2444.000000	96.173618 
2443.000000	96.173569 
2442.000000	96.173915 
2441.000000	96.174287 
2440.000000	96.174370 
2439.000000	96.174573 
2438.000000	96.175404 
2437.000000	96.176506 
2436.000000	96.176985 
2435.000000	96.176539 
2434.000000	96.175637 
2433.000000	96.174871 
2432.000000	96.174892 
2431.000000	96.176556 
2430.000000	96.179937 
2429.000000	96.183383 
2428.000000	96.184834 
2427.000000	96.184153 
2426.000000	96.183124 
2425.000000	96.183280 
2424.000000	96.184707 
2423.000000	96.186818 
2422.000000	96.189132 
2421.000000	96.191306 
2420.000000	96.193284 
2419.000000	96.195378 
2418.000000	96.197532 
2417.000000	96.198874 
2416.000000	96.198777 
2415.000000	96.198060 
2414.000000	96.198344 
2413.000000	96.200324 
2412.000000	96.203254 
2411.000000	96.205889 
2410.000000	96.207447 
2409.000000	96.207883 
2408.000000	96.207656 
2407.000000	96.206949 
2406.000000	96.205026 
2405.000000	96.200954 
2404.000000	96.195337 
2403.000000	96.190615 
2402.000000	96.188953 
2401.000000	96.190238 
2400.000000	96.192769 
2399.000000	96.195482 
2398.000000	96.198643 
2397.000000	96.202463 
2396.000000	96.205860 
2395.000000	96.206984 
2394.000000	96.204955 
2393.000000	96.201236 
2392.000000	96.198401 
2391.000000	96.197572 
2390.000000	96.197569 
2389.000000	96.196298 
2388.000000	96.192658 
2387.000000	96.187081 
2386.000000	96.180793 
2385.000000	96.174549 
2384.000000	96.167689 
2383.000000	96.158231 
2382.000000	96.144467 
2381.000000	96.126698 
2380.000000	96.107398 
2379.000000	96.089591 
2378.000000	96.075173 
2377.000000	96.064805 
2376.000000	96.058485 
2375.000000	96.055931 
2374.000000	96.056568 
2373.000000	96.059667 
2372.000000	96.064435 
2371.000000	96.069403 
2370.000000	96.072681 
2369.000000	96.073188 
2368.000000	96.070782 
2367.000000	96.065515 
2366.000000	96.057861 
2365.000000	96.049045 
2364.000000	96.039302 
2363.000000	96.027356 
2362.000000	96.014099 
2361.000000	96.002695 
2360.000000	95.996729 
2359.000000	95.998831 
2358.000000	96.007228 
2357.000000	96.020254 
2356.000000	96.036425 
2355.000000	96.053034 
2354.000000	96.069579 
2353.000000	96.082051 
2352.000000	96.081671 
2351.000000	96.059388 
2350.000000	96.017722 
2349.000000	95.971358 
2348.000000	95.932448 
2347.000000	95.910560 
2346.000000	95.905870 
2345.000000	95.909631 
2344.000000	95.916467 
2343.000000	95.930504 
2342.000000	95.956773 
2341.000000	95.983909 
2340.000000	96.002378 
2339.000000	96.013486 
2338.000000	96.021936 
2337.000000	96.030020 
2336.000000	96.035680 
2335.000000	96.038856 
2334.000000	96.042299 
2333.000000	96.049598 
2332.000000	96.062481 
2331.000000	96.079041 
2330.000000	96.094406 
2329.000000	96.104785 
2328.000000	96.104922 
2327.000000	96.096372 
2326.000000	96.082352 
2325.000000	96.069545 
2324.000000	96.064973 
2323.000000	96.069583 
2322.000000	96.082137 
2321.000000	96.095979 
2320.000000	96.109738 
2319.000000	96.123025 
2318.000000	96.134888 
2317.000000	96.142733 
2316.000000	96.144637 
2315.000000	96.142375 
2314.000000	96.136537 
2313.000000	96.128106 
2312.000000	96.118160 
2311.000000	96.110190 
2310.000000	96.105464 
2309.000000	96.103168 
2308.000000	96.102222 
2307.000000	96.103325 
2306.000000	96.106943 
2305.000000	96.111207 
2304.000000	96.114084 
2303.000000	96.114269 
2302.000000	96.111730 
2301.000000	96.106653 
2300.000000	96.100669 
2299.000000	96.096186 
2298.000000	96.093927 
2297.000000	96.092764 
2296.000000	96.091300 
2295.000000	96.089055 
2294.000000	96.085289 
2293.000000	96.079894 
2292.000000	96.074927 
2291.000000	96.072616 
2290.000000	96.071918 
2289.000000	96.068725 
2288.000000	96.061615 
2287.000000	96.053621 
2286.000000	96.048853 
2285.000000	96.048540 
2284.000000	96.052016 
2283.000000	96.057751 
2282.000000	96.062893 
2281.000000	96.064339 
2280.000000	96.062503 
2279.000000	96.060944 
2278.000000	96.061301 
2277.000000	96.061686 
2276.000000	96.060860 
2275.000000	96.060361 
2274.000000	96.061034 
2273.000000	96.061280 
2272.000000	96.059899 
2271.000000	96.058321 
2270.000000	96.058298 
2269.000000	96.059484 
2268.000000	96.060490 
2267.000000	96.060709 
2266.000000	96.060095 
2265.000000	96.058604 
2264.000000	96.056888 
2263.000000	96.056057 
2262.000000	96.055802 
2261.000000	96.054289 
2260.000000	96.050632 
2259.000000	96.046087 
2258.000000	96.042503 
2257.000000	96.040401 
2256.000000	96.039406 
2255.000000	96.039141 
2254.000000	96.039047 
2253.000000	96.038355 
2252.000000	96.037025 
2251.000000	96.035982 
2250.000000	96.035801 
2249.000000	96.035904 
2248.000000	96.035421 
2247.000000	96.034221 
2246.000000	96.032630 
2245.000000	96.030821 
2244.000000	96.028888 
2243.000000	96.027047 
2242.000000	96.025431 
2241.000000	96.023952 
2240.000000	96.022575 
2239.000000	96.021454 
2238.000000	96.020478 
2237.000000	96.018961 
2236.000000	96.016354 
2235.000000	96.013113 
2234.000000	96.010471 
2233.000000	96.009165 
2232.000000	96.009009 
2231.000000	96.009338 
2230.000000	96.009406 
2229.000000	96.008540 
2228.000000	96.006424 
2227.000000	96.003273 
2226.000000	95.999402 
2225.000000	95.994989 
2224.000000	95.990846 
2223.000000	95.988555 
2222.000000	95.988749 
2221.000000	95.989872 
2220.000000	95.989732 
2219.000000	95.988100 
2218.000000	95.986450 
2217.000000	95.985696 
2216.000000	95.985541 
2215.000000	95.985645 
2214.000000	95.985816 
2213.000000	95.985164 
2212.000000	95.982569 
2211.000000	95.978147 
2210.000000	95.973346 
2209.000000	95.969707 
2208.000000	95.968087 
2207.000000	95.968497 
2206.000000	95.969796 
2205.000000	95.970316 
2204.000000	95.969944 
2203.000000	95.970766 
2202.000000	95.974027 
2201.000000	95.977670 
2200.000000	95.978498 
2199.000000	95.975237 
2198.000000	95.968570 
2197.000000	95.959634 
2196.000000	95.950788 
2195.000000	95.945373 
2194.000000	95.943892 
2193.000000	95.942286 
2192.000000	95.936220 
2191.000000	95.925773 
2190.000000	95.914600 
2189.000000	95.906004 
2188.000000	95.901048 
2187.000000	95.899098 
2186.000000	95.899008 
2185.000000	95.900682 
2184.000000	95.905435 
2183.000000	95.913098 
2182.000000	95.919471 
2181.000000	95.919848 
2180.000000	95.914781 
2179.000000	95.908762 
2178.000000	95.903873 
2177.000000	95.899422 
2176.000000	95.897340 
2175.000000	95.901742 
2174.000000	95.911577 
2173.000000	95.919257 
2172.000000	95.919099 
2171.000000	95.912308 
2170.000000	95.901798 
2169.000000	95.887881 
2168.000000	95.872214 
2167.000000	95.860564 
2166.000000	95.856638 
2165.000000	95.856336 
2164.000000	95.852569 
2163.000000	95.844172 
2162.000000	95.837573 
2161.000000	95.842676 
2160.000000	95.868354 
2159.000000	95.915756 
2158.000000	95.971021 
2157.000000	96.011619 
2156.000000	96.026417 
2155.000000	96.022186 
2154.000000	96.012184 
2153.000000	96.004402 
2152.000000	96.001055 
2151.000000	96.002883 
2150.000000	96.009035 
2149.000000	96.016569 
2148.000000	96.024471 
2147.000000	96.035595 
2146.000000	96.051569 
2145.000000	96.069032 
2144.000000	96.084016 
2143.000000	96.096383 
2142.000000	96.106544 
2141.000000	96.111570 
2140.000000	96.108832 
2139.000000	96.101141 
2138.000000	96.094859 
2137.000000	96.094507 
2136.000000	96.101320 
2135.000000	96.114350 
2134.000000	96.130060 
2133.000000	96.143353 
2132.000000	96.152029 
2131.000000	96.158308 
2130.000000	96.163995 
2129.000000	96.166791 
2128.000000	96.163873 
2127.000000	96.156787 
2126.000000	96.150191 
2125.000000	96.146972 
2124.000000	96.146369 
2123.000000	96.145770 
2122.000000	96.142933 
2121.000000	96.137752 
2120.000000	96.132918 
2119.000000	96.131401 
2118.000000	96.132719 
2117.000000	96.133517 
2116.000000	96.132496 
2115.000000	96.131991 
2114.000000	96.133464 
2113.000000	96.135147 
2112.000000	96.136124 
2111.000000	96.138207 
2110.000000	96.141081 
2109.000000	96.140260 
2108.000000	96.133119 
2107.000000	96.123352 
2106.000000	96.116294 
2105.000000	96.112815 
2104.000000	96.110845 
2103.000000	96.109888 
2102.000000	96.110430 
2101.000000	96.111165 
2100.000000	96.110305 
2099.000000	96.108563 
2098.000000	96.108655 
2097.000000	96.112532 
2096.000000	96.120210 
2095.000000	96.129483 
2094.000000	96.135998 
2093.000000	96.136124 
2092.000000	96.130453 
2091.000000	96.123252 
2090.000000	96.117846 
2089.000000	96.113928 
2088.000000	96.109756 
2087.000000	96.104777 
2086.000000	96.099671 
2085.000000	96.095414 
2084.000000	96.093079 
2083.000000	96.093338 
2082.000000	96.095178 
2081.000000	96.096053 
2080.000000	96.094421 
2079.000000	96.091117 
2078.000000	96.087643 
2077.000000	96.084383 
2076.000000	96.081436 
2075.000000	96.079424 
2074.000000	96.077955 
2073.000000	96.075154 
2072.000000	96.070353 
2071.000000	96.065720 
2070.000000	96.063502 
2069.000000	96.063061 
2068.000000	96.062369 
2067.000000	96.060913 
2066.000000	96.059313 
2065.000000	96.057662 
2064.000000	96.056257 
2063.000000	96.056277 
2062.000000	96.057506 
2061.000000	96.056962 
2060.000000	96.052198 
2059.000000	96.044734 
2058.000000	96.038476 
2057.000000	96.035690 
2056.000000	96.036038 
2055.000000	96.037695 
2054.000000	96.037269 
2053.000000	96.030751 
2052.000000	96.017038 
2051.000000	96.000143 
2050.000000	95.986393 
2049.000000	95.979069 
2048.000000	95.977693 
2047.000000	95.980804 
2046.000000	95.986580 
2045.000000	95.991668 
2044.000000	95.992947 
2043.000000	95.990498 
2042.000000	95.986716 
2041.000000	95.983450 
2040.000000	95.981677 
2039.000000	95.982365 
2038.000000	95.985368 
2037.000000	95.988644 
2036.000000	95.990591 
2035.000000	95.991858 
2034.000000	95.993327 
2033.000000	95.994511 
2032.000000	95.995435 
2031.000000	95.997162 
2030.000000	95.998819 
2029.000000	95.997519 
2028.000000	95.993137 
2027.000000	95.989800 
2026.000000	95.990112 
2025.000000	95.991300 
2024.000000	95.989757 
2023.000000	95.986609 
2022.000000	95.985575 
2021.000000	95.987288 
2020.000000	95.989047 
2019.000000	95.989118 
2018.000000	95.988073 
2017.000000	95.986579 
2016.000000	95.985202 
2015.000000	95.985913 
2014.000000	95.990572 
2013.000000	95.997872 
2012.000000	96.003830 
2011.000000	96.005367 
2010.000000	96.002343 
2009.000000	95.997551 
2008.000000	95.995316 
2007.000000	95.997774 
2006.000000	96.001694 
2005.000000	96.002145 
2004.000000	95.999698 
2003.000000	95.999858 
2002.000000	96.004382 
2001.000000	96.007793 
2000.000000	96.005745 
1999.000000	96.000711 
1998.000000	95.996505 
1997.000000	95.992911 
1996.000000	95.989286 
1995.000000	95.988224 
1994.000000	95.990807 
1993.000000	95.992291 
1992.000000	95.988040 
1991.000000	95.981048 
1990.000000	95.977529 
1989.000000	95.977783 
1988.000000	95.977168 
1987.000000	95.973508 
1986.000000	95.968823 
1985.000000	95.965452 
1984.000000	95.964072 
1983.000000	95.963641 
1982.000000	95.960586 
1981.000000	95.951506 
1980.000000	95.940559 
1979.000000	95.938577 
1978.000000	95.950973 
1977.000000	95.971291 
1976.000000	95.989198 
1975.000000	96.002122 
1974.000000	96.012630 
1973.000000	96.020686 
1972.000000	96.024795 
1971.000000	96.026125 
1970.000000	96.026216 
1969.000000	96.023919 
1968.000000	96.018803 
1967.000000	96.014593 
1966.000000	96.015094 
1965.000000	96.019306 
1964.000000	96.023993 
1963.000000	96.028400 
1962.000000	96.033487 
1961.000000	96.039105 
1960.000000	96.044463 
1959.000000	96.049148 
1958.000000	96.052200 
1957.000000	96.052823 
1956.000000	96.053229 
1955.000000	96.057408 
1954.000000	96.065519 
1953.000000	96.072539 
1952.000000	96.074194 
1951.000000	96.071918 
1950.000000	96.070260 
1949.000000	96.071495 
1948.000000	96.075282 
1947.000000	96.080991 
1946.000000	96.087581 
1945.000000	96.093018 
1944.000000	96.096084 
1943.000000	96.097596 
1942.000000	96.098607 
1941.000000	96.099056 
1940.000000	96.099098 
1939.000000	96.099845 
1938.000000	96.101927 
1937.000000	96.104593 
1936.000000	96.106902 
1935.000000	96.108727 
1934.000000	96.110320 
1933.000000	96.111561 
1932.000000	96.112166 
1931.000000	96.112617 
1930.000000	96.113620 
1929.000000	96.114923 
1928.000000	96.116183 
1927.000000	96.117990 
1926.000000	96.121156 
1925.000000	96.124797 
1924.000000	96.126996 
1923.000000	96.127669 
1922.000000	96.128427 
1921.000000	96.129793 
1920.000000	96.130566 
1919.000000	96.130046 
1918.000000	96.128720 
1917.000000	96.127075 
1916.000000	96.125803 
1915.000000	96.125947 
1914.000000	96.127421 
1913.000000	96.128535 
1912.000000	96.128011 
1911.000000	96.127258 
1910.000000	96.127873 
1909.000000	96.128466 
1908.000000	96.127397 
1907.000000	96.125492 
1906.000000	96.124618 
1905.000000	96.124233 
1904.000000	96.122606 
1903.000000	96.120427 
1902.000000	96.118963 
1901.000000	96.117536 
1900.000000	96.115648 
1899.000000	96.114756 
1898.000000	96.116128 
1897.000000	96.118031 
1896.000000	96.117489 
1895.000000	96.114455 
1894.000000	96.111243 
1893.000000	96.109086 
1892.000000	96.107742 
1891.000000	96.107482 
1890.000000	96.108532 
1889.000000	96.109599 
1888.000000	96.109783 
1887.000000	96.110152 
1886.000000	96.111279 
1885.000000	96.111529 
1884.000000	96.109487 
1883.000000	96.106892 
1882.000000	96.106285 
1881.000000	96.107331 
1880.000000	96.108267 
1879.000000	96.108844 
1878.000000	96.109967 
1877.000000	96.111588 
1876.000000	96.112823 
1875.000000	96.114044 
1874.000000	96.116203 
1873.000000	96.118420 
1872.000000	96.119317 
1871.000000	96.119788 
1870.000000	96.121372 
1869.000000	96.122367 
1868.000000	96.120468 
1867.000000	96.118051 
1866.000000	96.118507 
1865.000000	96.121220 
1864.000000	96.124066 
1863.000000	96.127439 
1862.000000	96.132601 
1861.000000	96.137565 
1860.000000	96.139023 
1859.000000	96.137547 
1858.000000	96.136745 
1857.000000	96.137946 
1856.000000	96.139694 
1855.000000	96.141946 
1854.000000	96.146034 
1853.000000	96.150712 
1852.000000	96.154156 
1851.000000	96.156775 
1850.000000	96.160156 
1849.000000	96.164648 
1848.000000	96.169333 
1847.000000	96.174308 
1846.000000	96.179841 
1845.000000	96.184183 
1844.000000	96.184739 
1843.000000	96.183194 
1842.000000	96.182951 
1841.000000	96.183271 
1840.000000	96.182901 
1839.000000	96.182892 
1838.000000	96.184602 
1837.000000	96.186756 
1836.000000	96.187492 
1835.000000	96.188117 
1834.000000	96.190615 
1833.000000	96.194244 
1832.000000	96.196796 
1831.000000	96.196684 
1830.000000	96.193940 
1829.000000	96.190636 
1828.000000	96.189018 
1827.000000	96.189356 
1826.000000	96.190971 
1825.000000	96.192764 
1824.000000	96.193374 
1823.000000	96.193399 
1822.000000	96.194409 
1821.000000	96.196580 
1820.000000	96.198849 
1819.000000	96.200876 
1818.000000	96.203965 
1817.000000	96.207331 
1816.000000	96.208120 
1815.000000	96.206241 
1814.000000	96.204290 
1813.000000	96.203985 
1812.000000	96.203843 
1811.000000	96.202613 
1810.000000	96.201624 
1809.000000	96.201150 
1808.000000	96.199950 
1807.000000	96.198353 
1806.000000	96.197867 
1805.000000	96.198338 
1804.000000	96.198410 
1803.000000	96.198190 
1802.000000	96.198507 
1801.000000	96.199060 
1800.000000	96.198587 
1799.000000	96.197346 
1798.000000	96.196973 
1797.000000	96.197509 
1796.000000	96.197830 
1795.000000	96.197928 
1794.000000	96.198695 
1793.000000	96.199832 
1792.000000	96.199385 
1791.000000	96.197596 
1790.000000	96.197006 
1789.000000	96.197860 
1788.000000	96.198618 
1787.000000	96.198994 
1786.000000	96.200094 
1785.000000	96.201742 
1784.000000	96.202577 
1783.000000	96.202686 
1782.000000	96.202698 
1781.000000	96.203082 
1780.000000	96.203585 
1779.000000	96.204039 
1778.000000	96.204983 
1777.000000	96.206058 
1776.000000	96.206548 
1775.000000	96.205909 
1774.000000	96.204340 
1773.000000	96.202849 
1772.000000	96.201355 
1771.000000	96.199520 
1770.000000	96.198852 
1769.000000	96.200500 
1768.000000	96.203513 
1767.000000	96.205755 
1766.000000	96.206224 
1765.000000	96.205906 
1764.000000	96.205618 
1763.000000	96.205254 
1762.000000	96.204205 
1761.000000	96.203533 
1760.000000	96.204160 
1759.000000	96.205103 
1758.000000	96.205118 
1757.000000	96.204166 
1756.000000	96.203300 
1755.000000	96.202199 
1754.000000	96.200317 
1753.000000	96.199354 
1752.000000	96.201536 
1751.000000	96.204338 
1750.000000	96.203937 
1749.000000	96.200405 
1748.000000	96.196414 
1747.000000	96.193388 
1746.000000	96.190516 
1745.000000	96.188557 
1744.000000	96.188080 
1743.000000	96.187241 
1742.000000	96.184651 
1741.000000	96.181481 
1740.000000	96.179248 
1739.000000	96.178366 
1738.000000	96.177972 
1737.000000	96.176636 
1736.000000	96.174991 
1735.000000	96.177020 
1734.000000	96.181244 
1733.000000	96.183026 
1732.000000	96.183031 
1731.000000	96.182250 
1730.000000	96.181483 
1729.000000	96.181363 
1728.000000	96.181487 
1727.000000	96.181364 
1726.000000	96.180672 
1725.000000	96.179894 
1724.000000	96.178531 
1723.000000	96.176577 
1722.000000	96.175202 
1721.000000	96.174269 
1720.000000	96.172778 
1719.000000	96.171274 
1718.000000	96.170988 
1717.000000	96.169719 
1716.000000	96.165220 
1715.000000	96.159923 
1714.000000	96.157202 
1713.000000	96.156537 
1712.000000	96.155280 
1711.000000	96.152994 
1710.000000	96.151153 
1709.000000	96.149822 
1708.000000	96.147589 
1707.000000	96.144096 
1706.000000	96.140907 
1705.000000	96.137972 
1704.000000	96.133852 
1703.000000	96.128519 
1702.000000	96.123877 
1701.000000	96.121639 
1700.000000	96.119068 
1699.000000	96.114873 
1698.000000	96.111003 
1697.000000	96.107203 
1696.000000	96.102737 
1695.000000	96.097828 
1694.000000	96.093243 
1693.000000	96.088804 
1692.000000	96.083886 
1691.000000	96.079284 
1690.000000	96.075339 
1689.000000	96.070988 
1688.000000	96.065638 
1687.000000	96.059218 
1686.000000	96.052761 
1685.000000	96.047463 
1684.000000	96.040839 
1683.000000	96.033231 
1682.000000	96.027423 
1681.000000	96.021827 
1680.000000	96.016540 
1679.000000	96.012121 
1678.000000	96.006021 
1677.000000	95.997559 
1676.000000	95.990737 
1675.000000	95.988082 
1674.000000	95.985670 
1673.000000	95.980572 
1672.000000	95.972810 
1671.000000	95.965552 
1670.000000	95.959350 
1669.000000	95.950945 
1668.000000	95.944126 
1667.000000	95.941639 
1666.000000	95.938715 
1665.000000	95.931854 
1664.000000	95.923091 
1663.000000	95.916757 
1662.000000	95.910519 
1661.000000	95.901742 
1660.000000	95.894727 
1659.000000	95.891866 
1658.000000	95.888691 
1657.000000	95.879061 
1656.000000	95.864865 
1655.000000	95.851864 
1654.000000	95.851567 
1653.000000	95.845654 
1652.000000	95.832282 
1651.000000	95.835301 
1650.000000	95.837384 
1649.000000	95.830807 
1648.000000	95.828635 
1647.000000	95.828623 
1646.000000	95.824561 
1645.000000	95.821450 
1644.000000	95.822459 
1643.000000	95.824946 
1642.000000	95.827858 
1641.000000	95.831396 
1640.000000	95.835007 
1639.000000	95.836120 
1638.000000	95.834606 
1637.000000	95.834528 
1636.000000	95.836089 
1635.000000	95.831937 
1634.000000	95.828013 
1633.000000	95.830167 
1632.000000	95.833974 
1631.000000	95.840240 
1630.000000	95.848032 
1629.000000	95.852664 
1628.000000	95.853616 
1627.000000	95.855337 
1626.000000	95.858026 
1625.000000	95.860168 
1624.000000	95.865630 
1623.000000	95.877540 
1622.000000	95.890305 
1621.000000	95.897670 
1620.000000	95.901341 
1619.000000	95.906671 
1618.000000	95.917996 
1617.000000	95.929689 
1616.000000	95.936762 
1615.000000	95.943423 
1614.000000	95.949317 
1613.000000	95.952812 
1612.000000	95.960739 
1611.000000	95.977216 
1610.000000	95.993150 
1609.000000	96.000085 
1608.000000	96.003233 
1607.000000	96.010532 
1606.000000	96.017969 
1605.000000	96.021413 
1604.000000	96.026565 
1603.000000	96.036774 
1602.000000	96.047085 
1601.000000	96.053409 
1600.000000	96.059020 
1599.000000	96.065981 
1598.000000	96.070612 
1597.000000	96.071497 
1596.000000	96.073169 
1595.000000	96.079311 
1594.000000	96.086962 
1593.000000	96.092067 
1592.000000	96.095738 
1591.000000	96.100613 
1590.000000	96.105477 
1589.000000	96.108530 
1588.000000	96.111783 
1587.000000	96.117608 
1586.000000	96.123824 
1585.000000	96.126770 
1584.000000	96.129064 
1583.000000	96.134034 
1582.000000	96.139232 
1581.000000	96.141963 
1580.000000	96.144232 
1579.000000	96.147353 
1578.000000	96.149476 
1577.000000	96.150172 
1576.000000	96.150492 
1575.000000	96.152030 
1574.000000	96.152844 
1573.000000	96.150381 
1572.000000	96.147114 
1571.000000	96.147620 
1570.000000	96.150352 
1569.000000	96.150941 
1568.000000	96.152017 
1567.000000	96.154352 
1566.000000	96.154425 
1565.000000	96.151769 
1564.000000	96.150119 
1563.000000	96.148719 
1562.000000	96.144900 
1561.000000	96.138585 
1560.000000	96.140936 
1559.000000	96.145286 
1558.000000	96.137914 
1557.000000	96.129279 
1556.000000	96.124934 
1555.000000	96.122088 
1554.000000	96.119451 
1553.000000	96.115863 
1552.000000	96.112301 
1551.000000	96.108779 
1550.000000	96.105296 
1549.000000	96.100737 
1548.000000	96.095413 
1547.000000	96.090804 
1546.000000	96.087109 
1545.000000	96.083131 
1544.000000	96.077365 
1543.000000	96.070022 
1542.000000	96.063533 
1541.000000	96.058486 
1540.000000	96.050404 
1539.000000	96.040913 
1538.000000	96.035809 
1537.000000	96.030977 
1536.000000	96.021767 
1535.000000	96.012516 
1534.000000	96.006465 
1533.000000	96.001031 
1532.000000	95.994091 
1531.000000	95.987447 
1530.000000	95.982513 
1529.000000	95.977331 
1528.000000	95.969360 
1527.000000	95.959623 
1526.000000	95.950386 
1525.000000	95.941444 
1524.000000	95.930965 
1523.000000	95.920245 
1522.000000	95.912699 
1521.000000	95.904954 
1520.000000	95.893527 
1519.000000	95.879774 
1518.000000	95.866194 
1517.000000	95.855611 
1516.000000	95.846374 
1515.000000	95.836381 
1514.000000	95.826769 
1513.000000	95.819850 
1512.000000	95.813799 
1511.000000	95.803622 
1510.000000	95.789597 
1509.000000	95.775865 
1508.000000	95.766559 
1507.000000	95.754774 
1506.000000	95.735267 
1505.000000	95.718907 
1504.000000	95.706855 
1503.000000	95.689848 
1502.000000	95.669255 
1501.000000	95.649504 
1500.000000	95.630470 
1499.000000	95.610299 
1498.000000	95.594513 
1497.000000	95.590854 
1496.000000	95.593580 
1495.000000	95.594530 
1494.000000	95.593010 
1493.000000	95.589508 
1492.000000	95.583570 
1491.000000	95.575774 
1490.000000	95.566027 
1489.000000	95.551426 
1488.000000	95.528915 
1487.000000	95.505403 
1486.000000	95.489619 
1485.000000	95.477132 
1484.000000	95.463785 
1483.000000	95.450457 
1482.000000	95.439468 
1481.000000	95.428244 
1480.000000	95.411885 
1479.000000	95.392697 
1478.000000	95.377582 
1477.000000	95.367031 
1476.000000	95.352923 
1475.000000	95.334611 
1474.000000	95.317728 
1473.000000	95.301104 
1472.000000	95.276585 
1471.000000	95.247293 
1470.000000	95.223194 
1469.000000	95.203678 
1468.000000	95.183802 
1467.000000	95.165357 
1466.000000	95.153791 
1465.000000	95.148907 
1464.000000	95.145080 
1463.000000	95.137110 
1462.000000	95.125246 
1461.000000	95.109899 
1460.000000	95.093105 
1459.000000	95.079244 
1458.000000	95.078106 
1457.000000	95.089696 
1456.000000	95.101865 
1455.000000	95.105732 
1454.000000	95.098086 
1453.000000	95.088537 
1452.000000	95.086466 
1451.000000	95.087949 
1450.000000	95.088366 
1449.000000	95.089577 
1448.000000	95.089581 
1447.000000	95.084013 
1446.000000	95.072077 
1445.000000	95.061843 
1444.000000	95.058900 
1443.000000	95.057872 
1442.000000	95.054577 
1441.000000	95.050849 
1440.000000	95.047496 
1439.000000	95.040042 
1438.000000	95.034875 
1437.000000	95.044838 
1436.000000	95.065948 
1435.000000	95.080267 
1434.000000	95.081956 
1433.000000	95.079814 
1432.000000	95.083002 
1431.000000	95.089473 
1430.000000	95.094423 
1429.000000	95.101364 
1428.000000	95.111638 
1427.000000	95.121191 
1426.000000	95.126364 
1425.000000	95.134856 
1424.000000	95.152347 
1423.000000	95.166738 
1422.000000	95.169147 
1421.000000	95.171341 
1420.000000	95.191393 
1419.000000	95.221810 
1418.000000	95.243129 
1417.000000	95.256546 
1416.000000	95.269673 
1415.000000	95.282136 
1414.000000	95.292153 
1413.000000	95.303627 
1412.000000	95.320927 
1411.000000	95.339673 
1410.000000	95.355269 
1409.000000	95.370947 
1408.000000	95.389038 
1407.000000	95.407940 
1406.000000	95.425376 
1405.000000	95.444477 
1404.000000	95.467690 
1403.000000	95.487988 
1402.000000	95.500203 
1401.000000	95.510179 
1400.000000	95.526675 
1399.000000	95.547034 
1398.000000	95.563964 
1397.000000	95.580098 
1396.000000	95.603090 
1395.000000	95.631365 
1394.000000	95.652729 
1393.000000	95.664218 
1392.000000	95.673233 
1391.000000	95.683663 
1390.000000	95.695558 
1389.000000	95.710114 
1388.000000	95.728488 
1387.000000	95.748285 
1386.000000	95.765866 
1385.000000	95.781778 
1384.000000	95.798911 
1383.000000	95.816365 
1382.000000	95.831266 
1381.000000	95.842727 
1380.000000	95.853104 
1379.000000	95.864179 
1378.000000	95.874477 
1377.000000	95.882917 
1376.000000	95.892260 
1375.000000	95.905171 
1374.000000	95.918572 
1373.000000	95.928780 
1372.000000	95.935853 
1371.000000	95.941429 
1370.000000	95.945312 
1369.000000	95.949099 
1368.000000	95.956292 
1367.000000	95.966041 
1366.000000	95.974146 
1365.000000	95.979533 
1364.000000	95.985940 
1363.000000	95.995701 
1362.000000	96.006055 
1361.000000	96.013913 
1360.000000	96.019908 
1359.000000	96.026225 
1358.000000	96.033534 
1357.000000	96.041626 
1356.000000	96.050317 
1355.000000	96.058318 
1354.000000	96.063882 
1353.000000	96.067194 
1352.000000	96.069816 
1351.000000	96.074742 
1350.000000	96.081787 
1349.000000	96.088877 
1348.000000	96.094837 
1347.000000	96.098938 
1346.000000	96.101801 
1345.000000	96.106037 
1344.000000	96.113932 
1343.000000	96.124172 
1342.000000	96.133619 
1341.000000	96.141553 
1340.000000	96.149201 
1339.000000	96.155476 
1338.000000	96.157941 
1337.000000	96.157498 
1336.000000	96.157619 
1335.000000	96.159842 
1334.000000	96.163230 
1333.000000	96.167461 
1332.000000	96.172999 
1331.000000	96.178280 
1330.000000	96.180242 
1329.000000	96.179038 
1328.000000	96.178258 
1327.000000	96.179906 
1326.000000	96.181650 
1325.000000	96.181856 
1324.000000	96.182329 
1323.000000	96.184040 
1322.000000	96.185249 
1321.000000	96.184971 
1320.000000	96.184775 
1319.000000	96.185877 
1318.000000	96.187984 
1317.000000	96.191281 
1316.000000	96.196189 
1315.000000	96.200820 
1314.000000	96.202372 
1313.000000	96.201403 
1312.000000	96.201347 
1311.000000	96.203484 
1310.000000	96.205681 
1309.000000	96.206690 
1308.000000	96.207558 
1307.000000	96.208870 
1306.000000	96.208972 
1305.000000	96.207252 
1304.000000	96.205524 
1303.000000	96.204850 
1302.000000	96.204150 
1301.000000	96.202673 
1300.000000	96.201415 
1299.000000	96.201179 
1298.000000	96.201877 
1297.000000	96.203684 
1296.000000	96.206722 
1295.000000	96.209359 
1294.000000	96.209559 
1293.000000	96.208023 
1292.000000	96.207130 
1291.000000	96.206963 
1290.000000	96.205242 
1289.000000	96.201207 
1288.000000	96.196627 
1287.000000	96.192752 
1286.000000	96.189123 
1285.000000	96.185722 
1284.000000	96.183541 
1283.000000	96.182662 
1282.000000	96.182156 
1281.000000	96.181665 
1280.000000	96.181354 
1279.000000	96.180415 
1278.000000	96.178174 
1277.000000	96.176088 
1276.000000	96.176106 
1275.000000	96.177577 
1274.000000	96.178392 
1273.000000	96.178737 
1272.000000	96.180601 
1271.000000	96.184024 
1270.000000	96.186979 
1269.000000	96.188863 
1268.000000	96.191091 
1267.000000	96.194174 
1266.000000	96.197389 
1265.000000	96.200846 
1264.000000	96.204844 
1263.000000	96.208162 
1262.000000	96.209992 
1261.000000	96.212030 
1260.000000	96.215585 
1259.000000	96.217832 
1258.000000	96.215374 
1257.000000	96.210063 
1256.000000	96.206735 
1255.000000	96.206503 
1254.000000	96.206980 
1253.000000	96.207993 
1252.000000	96.211630 
1251.000000	96.216561 
1250.000000	96.217746 
1249.000000	96.212764 
1248.000000	96.204075 
1247.000000	96.194513 
1246.000000	96.185564 
1245.000000	96.180316 
1244.000000	96.182150 
1243.000000	96.188540 
1242.000000	96.190903 
1241.000000	96.183388 
1240.000000	96.168734 
1239.000000	96.153957 
1238.000000	96.143513 
1237.000000	96.138113 
1236.000000	96.136606 
1235.000000	96.136297 
1234.000000	96.133586 
1233.000000	96.126780 
1232.000000	96.117363 
1231.000000	96.107646 
1230.000000	96.098418 
1229.000000	96.088628 
1228.000000	96.075373 
1227.000000	96.054607 
1226.000000	96.024432 
1225.000000	95.987730 
1224.000000	95.949239 
1223.000000	95.910183 
1222.000000	95.868264 
1221.000000	95.822352 
1220.000000	95.773698 
1219.000000	95.722165 
1218.000000	95.664986 
1217.000000	95.600503 
1216.000000	95.530240 
1215.000000	95.456178 
1214.000000	95.378703 
1213.000000	95.298630 
1212.000000	95.218488 
1211.000000	95.139855 
1210.000000	95.061185 
1209.000000	94.979945 
1208.000000	94.895598 
1207.000000	94.809402 
1206.000000	94.722821 
1205.000000	94.636921 
1204.000000	94.551678 
1203.000000	94.465143 
1202.000000	94.375088 
1201.000000	94.282130 
1200.000000	94.189308 
1199.000000	94.098061 
1198.000000	94.007322 
1197.000000	93.917318 
1196.000000	93.830542 
1195.000000	93.746965 
1194.000000	93.661486 
1193.000000	93.569182 
1192.000000	93.470861 
1191.000000	93.370756 
1190.000000	93.270982 
1189.000000	93.171268 
1188.000000	93.072021 
1187.000000	92.973838 
1186.000000	92.875066 
1185.000000	92.773243 
1184.000000	92.668480 
1183.000000	92.562695 
1182.000000	92.456221 
1181.000000	92.347888 
1180.000000	92.237717 
1179.000000	92.126563 
1178.000000	92.013582 
1177.000000	91.896841 
1176.000000	91.775856 
1175.000000	91.650966 
1174.000000	91.520984 
1173.000000	91.384560 
1172.000000	91.243388 
1171.000000	91.101104 
1170.000000	90.959570 
1169.000000	90.819096 
1168.000000	90.681861 
1167.000000	90.552524 
1166.000000	90.436726 
1165.000000	90.342319 
1164.000000	90.280417 
1163.000000	90.260277 
1162.000000	90.281937 
1161.000000	90.335088 
1160.000000	90.402916 
1159.000000	90.464846 
1158.000000	90.500649 
1157.000000	90.498538 
1156.000000	90.458999 
1155.000000	90.388839 
1154.000000	90.294345 
1153.000000	90.182622 
1152.000000	90.064551 
1151.000000	89.949535 
1150.000000	89.838545 
1149.000000	89.727706 
1148.000000	89.617118 
1147.000000	89.510418 
1146.000000	89.407208 
1145.000000	89.302486 
1144.000000	89.193469 
1143.000000	89.081418 
1142.000000	88.967221 
1141.000000	88.850707 
1140.000000	88.734054 
1139.000000	88.620369 
1138.000000	88.508788 
1137.000000	88.395539 
1136.000000	88.279265 
1135.000000	88.160980 
1134.000000	88.040465 
1133.000000	87.917597 
1132.000000	87.795065 
1131.000000	87.674271 
1130.000000	87.551108 
1129.000000	87.422104 
1128.000000	87.291755 
1127.000000	87.166162 
1126.000000	87.042029 
1125.000000	86.910687 
1124.000000	86.771310 
1123.000000	86.631091 
1122.000000	86.493460 
1121.000000	86.355811 
1120.000000	86.218658 
1119.000000	86.086922 
1118.000000	85.961124 
1117.000000	85.836649 
1116.000000	85.712668 
1115.000000	85.593036 
1114.000000	85.478016 
1113.000000	85.364235 
1112.000000	85.252618 
1111.000000	85.146833 
1110.000000	85.044483 
1109.000000	84.939929 
1108.000000	84.834190 
1107.000000	84.731929 
1106.000000	84.630502 
1105.000000	84.523415 
1104.000000	84.413388 
1103.000000	84.309508 
1102.000000	84.211640 
1101.000000	84.110631 
1100.000000	84.003699 
1099.000000	83.898091 
1098.000000	83.797473 
1097.000000	83.697285 
1096.000000	83.595503 
1095.000000	83.496554 
1094.000000	83.403500 
1093.000000	83.316648 
1092.000000	83.239678 
1091.000000	83.175502 
1090.000000	83.116428 
1089.000000	83.050888 
1088.000000	82.980079 
1087.000000	82.915889 
1086.000000	82.862993 
1085.000000	82.815644 
1084.000000	82.770938 
1083.000000	82.730864 
1082.000000	82.691109 
1081.000000	82.642350 
1080.000000	82.583913 
1079.000000	82.523188 
1078.000000	82.461172 
1077.000000	82.391549 
1076.000000	82.313365 
1075.000000	82.229727 
1074.000000	82.133834 
1073.000000	82.011826 
1072.000000	81.860985 
1071.000000	81.691418 
1070.000000	81.508868 
1069.000000	81.309274 
1068.000000	81.090720 
1067.000000	80.856127 
1066.000000	80.603109 
1065.000000	80.326633 
1064.000000	80.034033 
1063.000000	79.742810 
1062.000000	79.461685 
1061.000000	79.188183 
1060.000000	78.924574 
1059.000000	78.678049 
1058.000000	78.442868 
1057.000000	78.201062 
1056.000000	77.945656 
1055.000000	77.686836 
1054.000000	77.431839 
1053.000000	77.176091 
1052.000000	76.918499 
1051.000000	76.666178 
1050.000000	76.416730 
1049.000000	76.154997 
1048.000000	75.874821 
1047.000000	75.585945 
1046.000000	75.295447 
1045.000000	75.000901 
1044.000000	74.704042 
1043.000000	74.412432 
1042.000000	74.124934 
1041.000000	73.833501 
1040.000000	73.541825 
1039.000000	73.263631 
1038.000000	72.999970 
1037.000000	72.737985 
1036.000000	72.475773 
1035.000000	72.228148 
1034.000000	72.003454 
1033.000000	71.795058 
1032.000000	71.600461 
1031.000000	71.428914 
1030.000000	71.284259 
1029.000000	71.158180 
1028.000000	71.044896 
1027.000000	70.945209 
1026.000000	70.853284 
1025.000000	70.758287 
1024.000000	70.661926 
1023.000000	70.575632 
1022.000000	70.498626 
1021.000000	70.417837 
1020.000000	70.330620 
1019.000000	70.246863 
1018.000000	70.166885 
1017.000000	70.078967 
1016.000000	69.981818 
1015.000000	69.888201 
1014.000000	69.802715 
1013.000000	69.716596 
1012.000000	69.627926 
1011.000000	69.546418 
1010.000000	69.474535 
1009.000000	69.404323 
1008.000000	69.336622 
1007.000000	69.283404 
1006.000000	69.247574 
1005.000000	69.220038 
1004.000000	69.199580 
1003.000000	69.195725 
1002.000000	69.209044 
1001.000000	69.228633 
1000.000000	69.251889 
999.000000	 69.287180 
998.000000	 69.334731 
997.000000	 69.384776 
996.000000	 69.436676 
995.000000	 69.499761 
994.000000	 69.573332 
993.000000	 69.646316 
992.000000	 69.718814 
991.000000	 69.803452 
990.000000	 69.902859 
989.000000	 70.006054 
988.000000	 70.109475 
987.000000	 70.221659 
986.000000	 70.344953 
985.000000	 70.472784 
984.000000	 70.607264 
983.000000	 70.759360 
982.000000	 70.929203 
981.000000	 71.105880 
980.000000	 71.288918 
979.000000	 71.490154 
978.000000	 71.712073 
977.000000	 71.943907 
976.000000	 72.181495 
975.000000	 72.431859 
974.000000	 72.695738 
973.000000	 72.964433 
972.000000	 73.236350 
971.000000	 73.518597 
970.000000	 73.810338 
969.000000	 74.102289 
968.000000	 74.393955 
967.000000	 74.693570 
966.000000	 74.999866 
965.000000	 75.301705 
964.000000	 75.596904 
963.000000	 75.893686 
962.000000	 76.192158 
961.000000	 76.481795 
960.000000	 76.759102 
959.000000	 77.031391 
958.000000	 77.301874 
957.000000	 77.567063 
956.000000	 77.829488 
955.000000	 78.095973 
954.000000	 78.361556 
953.000000	 78.611510 
952.000000	 78.841425 
951.000000	 79.060447 
950.000000	 79.273772 
949.000000	 79.477016 
948.000000	 79.669233 
947.000000	 79.856179 
946.000000	 80.038220 
945.000000	 80.208627 
944.000000	 80.365860 
943.000000	 80.515182 
942.000000	 80.657736 
941.000000	 80.790663 
940.000000	 80.917941 
939.000000	 81.048075 
938.000000	 81.181234 
937.000000	 81.311691 
936.000000	 81.441834 
935.000000	 81.579880 
934.000000	 81.724928 
933.000000	 81.868835 
932.000000	 82.011721 
931.000000	 82.160363 
930.000000	 82.311918 
929.000000	 82.454950 
928.000000	 82.586773 
927.000000	 82.714728 
926.000000	 82.840376 
925.000000	 82.957838 
924.000000	 83.068000 
923.000000	 83.178223 
922.000000	 83.286372 
921.000000	 83.380628 
920.000000	 83.457630 
919.000000	 83.526745 
918.000000	 83.594639 
917.000000	 83.659981 
916.000000	 83.725386 
915.000000	 83.800067 
914.000000	 83.887991 
913.000000	 83.987508 
912.000000	 84.105123 
911.000000	 84.254873 
910.000000	 84.440444 
909.000000	 84.651065 
908.000000	 84.878044 
907.000000	 85.122506 
906.000000	 85.384258 
905.000000	 85.656426 
904.000000	 85.934869 
903.000000	 86.222034 
902.000000	 86.518857 
901.000000	 86.821736 
900.000000	 87.127336 
899.000000	 87.431340 
898.000000	 87.724453 
897.000000	 88.000458 
896.000000	 88.266063 
895.000000	 88.532011 
894.000000	 88.796548 
893.000000	 89.048445 
892.000000	 89.283448 
891.000000	 89.505405 
890.000000	 89.712938 
889.000000	 89.897745 
888.000000	 90.056339 
887.000000	 90.192684 
886.000000	 90.309578 
885.000000	 90.407985 
884.000000	 90.494548 
883.000000	 90.578569 
882.000000	 90.660468 
881.000000	 90.733441 
880.000000	 90.797186 
879.000000	 90.860265 
878.000000	 90.929443 
877.000000	 91.007892 
876.000000	 91.103924 
875.000000	 91.229815 
874.000000	 91.390986 
873.000000	 91.585728 
872.000000	 91.813015 
871.000000	 92.068694 
870.000000	 92.336883 
869.000000	 92.598929 
868.000000	 92.850185 
867.000000	 93.096538 
866.000000	 93.336584 
865.000000	 93.559430 
864.000000	 93.759455 
863.000000	 93.941866 
862.000000	 94.113222 
861.000000	 94.276403 
860.000000	 94.435405 
859.000000	 94.594864 
858.000000	 94.752425 
857.000000	 94.899309 
856.000000	 95.030170 
855.000000	 95.146661 
854.000000	 95.251920 
853.000000	 95.347858 
852.000000	 95.436802 
851.000000	 95.519179 
850.000000	 95.590923 
849.000000	 95.649897 
848.000000	 95.702762 
847.000000	 95.757815 
846.000000	 95.812782 
845.000000	 95.857679 
844.000000	 95.888048 
843.000000	 95.907121 
842.000000	 95.916812 
841.000000	 95.915732 
840.000000	 95.905432 
839.000000	 95.889749 
838.000000	 95.867908 
837.000000	 95.836178 
836.000000	 95.796307 
835.000000	 95.755008 
834.000000	 95.716063 
833.000000	 95.680934 
832.000000	 95.655630 
831.000000	 95.646819 
830.000000	 95.650956 
829.000000	 95.658173 
828.000000	 95.668772 
827.000000	 95.695299 
826.000000	 95.745667 
825.000000	 95.814179 
824.000000	 95.890583 
823.000000	 95.965715 
822.000000	 96.026733 
821.000000	 96.060935 
820.000000	 96.068497 
819.000000	 96.062004 
818.000000	 96.051258 
817.000000	 96.035176 
816.000000	 96.007272 
815.000000	 95.959256 
814.000000	 95.877620 
813.000000	 95.745405 
812.000000	 95.550905 
811.000000	 95.289509 
810.000000	 94.956586 
809.000000	 94.546126 
808.000000	 94.058386 
807.000000	 93.501608 
806.000000	 92.884369 
805.000000	 92.216194 
804.000000	 91.520807 
803.000000	 90.838683 
802.000000	 90.209102 
801.000000	 89.657642 
800.000000	 89.204552 
799.000000	 88.870260 
798.000000	 88.663472 
797.000000	 88.575074 
796.000000	 88.589533 
795.000000	 88.690003 
794.000000	 88.848902 
793.000000	 89.029442 
792.000000	 89.204184 
791.000000	 89.362227 
790.000000	 89.495409 
789.000000	 89.589033 
788.000000	 89.629572 
787.000000	 89.611002 
786.000000	 89.530144 
785.000000	 89.385582 
784.000000	 89.185441 
783.000000	 88.948708 
782.000000	 88.696558 
781.000000	 88.450138 
780.000000	 88.236995 
779.000000	 88.087627 
778.000000	 88.021700 
777.000000	 88.045744 
776.000000	 88.161724 
775.000000	 88.362811 
774.000000	 88.620931 
773.000000	 88.896132 
772.000000	 89.163142 
771.000000	 89.417655 
770.000000	 89.657598 
769.000000	 89.873152 
768.000000	 90.056966 
767.000000	 90.210649 
766.000000	 90.338050 
765.000000	 90.443095 
764.000000	 90.536009 
763.000000	 90.630301 
762.000000	 90.730501 
761.000000	 90.831881 
760.000000	 90.933128 
759.000000	 91.039370 
758.000000	 91.152477 
757.000000	 91.268841 
756.000000	 91.386703 
755.000000	 91.505420 
754.000000	 91.619102 
753.000000	 91.722842 
752.000000	 91.823578 
751.000000	 91.931918 
750.000000	 92.044095 
749.000000	 92.145826 
748.000000	 92.234470 
747.000000	 92.323404 
746.000000	 92.422993 
745.000000	 92.531350 
744.000000	 92.647053 
743.000000	 92.777043 
742.000000	 92.926294 
741.000000	 93.090175 
740.000000	 93.260785 
739.000000	 93.431579 
738.000000	 93.594218 
737.000000	 93.741346 
736.000000	 93.874445 
735.000000	 93.998817 
734.000000	 94.109556 
733.000000	 94.193716 
732.000000	 94.248365 
731.000000	 94.286626 
730.000000	 94.323507 
729.000000	 94.364267 
728.000000	 94.408111 
727.000000	 94.453527 
726.000000	 94.497906 
725.000000	 94.539977 
724.000000	 94.584184 
723.000000	 94.636458 
722.000000	 94.696972 
721.000000	 94.764264 
720.000000	 94.842577 
719.000000	 94.933480 
718.000000	 95.022837 
717.000000	 95.090417 
716.000000	 95.132521 
715.000000	 95.164068 
714.000000	 95.199107 
713.000000	 95.240607 
712.000000	 95.289020 
711.000000	 95.347041 
710.000000	 95.411897 
709.000000	 95.472550 
708.000000	 95.519343 
707.000000	 95.546363 
706.000000	 95.544393 
705.000000	 95.506066 
704.000000	 95.436476 
703.000000	 95.343946 
702.000000	 95.218640 
701.000000	 95.034410 
700.000000	 94.777228 
699.000000	 94.460934 
698.000000	 94.114219 
697.000000	 93.770352 
696.000000	 93.474666 
695.000000	 93.280784 
694.000000	 93.221510 
693.000000	 93.287538 
692.000000	 93.440352 
691.000000	 93.638956 
690.000000	 93.852408 
689.000000	 94.060292 
688.000000	 94.252445 
687.000000	 94.425679 
686.000000	 94.575577 
685.000000	 94.695974 
684.000000	 94.790153 
683.000000	 94.873199 
682.000000	 94.957215 
681.000000	 95.040823 
680.000000	 95.117004 
679.000000	 95.184376 
678.000000	 95.244501 
677.000000	 95.296463 
676.000000	 95.340905 
675.000000	 95.385892 
674.000000	 95.437717 
673.000000	 95.482896 
672.000000	 95.499532 
671.000000	 95.496054 
670.000000	 95.524962 
669.000000	 95.654759 
668.000000	 95.902231 
667.000000	 96.155066 
666.000000	 96.248184 
665.000000	 96.182182 
664.000000	 96.097478 
663.000000	 96.080188 
662.000000	 96.118856 
661.000000	 96.172482 
660.000000	 96.226101 
659.000000	 96.277589 
658.000000	 96.308658 
657.000000	 96.306008 
656.000000	 96.285562 
655.000000	 96.269995 
654.000000	 96.255120 
653.000000	 96.220188 
652.000000	 96.166162 
651.000000	 96.121443 
650.000000	 96.112092 

