4000.000000	98.407608 
3999.000000	98.406590 
3998.000000	98.406181 
3997.000000	98.406473 
3996.000000	98.407263 
3995.000000	98.408104 
3994.000000	98.408585 
3993.000000	98.408679 
3992.000000	98.408634 
3991.000000	98.408568 
3990.000000	98.408483 
3989.000000	98.408434 
3988.000000	98.408420 
3987.000000	98.408232 
3986.000000	98.407663 
3985.000000	98.406870 
3984.000000	98.406300 
3983.000000	98.406229 
3982.000000	98.406574 
3981.000000	98.407037 
3980.000000	98.407259 
3979.000000	98.407006 
3978.000000	98.406313 
3977.000000	98.405439 
3976.000000	98.404596 
3975.000000	98.403773 
3974.000000	98.402931 
3973.000000	98.402260 
3972.000000	98.402075 
3971.000000	98.402455 
3970.000000	98.403188 
3969.000000	98.404080 
3968.000000	98.405095 
3967.000000	98.406158 
3966.000000	98.407108 
3965.000000	98.407809 
3964.000000	98.408185 
3963.000000	98.408209 
3962.000000	98.407960 
3961.000000	98.407629 
3960.000000	98.407365 
3959.000000	98.407035 
3958.000000	98.406305 
3957.000000	98.405160 
3956.000000	98.404090 
3955.000000	98.403646 
3954.000000	98.403973 
3953.000000	98.404700 
3952.000000	98.405232 
3951.000000	98.405191 
3950.000000	98.404814 
3949.000000	98.404873 
3948.000000	98.405776 
3947.000000	98.406931 
3946.000000	98.407295 
3945.000000	98.406378 
3944.000000	98.404529 
3943.000000	98.402615 
3942.000000	98.401363 
3941.000000	98.400902 
3940.000000	98.400908 
3939.000000	98.401115 
3938.000000	98.401547 
3937.000000	98.402346 
3936.000000	98.403505 
3935.000000	98.404697 
3934.000000	98.405533 
3933.000000	98.405833 
3932.000000	98.405651 
3931.000000	98.405028 
3930.000000	98.403961 
3929.000000	98.402652 
3928.000000	98.401416 
3927.000000	98.400530 
3926.000000	98.400151 
3925.000000	98.400234 
3924.000000	98.400805 
3923.000000	98.401870 
3922.000000	98.403036 
3921.000000	98.403848 
3920.000000	98.404303 
3919.000000	98.404731 
3918.000000	98.405240 
3917.000000	98.405531 
3916.000000	98.405374 
3915.000000	98.404907 
3914.000000	98.404464 
3913.000000	98.404270 
3912.000000	98.404373 
3911.000000	98.404703 
3910.000000	98.405101 
3909.000000	98.405402 
3908.000000	98.405589 
3907.000000	98.405715 
3906.000000	98.405828 
3905.000000	98.405910 
3904.000000	98.405915 
3903.000000	98.405818 
3902.000000	98.405623 
3901.000000	98.405397 
3900.000000	98.405217 
3899.000000	98.405097 
3898.000000	98.404989 
3897.000000	98.404854 
3896.000000	98.404687 
3895.000000	98.404480 
3894.000000	98.404229 
3893.000000	98.403943 
3892.000000	98.403631 
3891.000000	98.403304 
3890.000000	98.402965 
3889.000000	98.402621 
3888.000000	98.402277 
3887.000000	98.401943 
3886.000000	98.401636 
3885.000000	98.401363 
3884.000000	98.401099 
3883.000000	98.400760 
3882.000000	98.400260 
3881.000000	98.399658 
3880.000000	98.399185 
3879.000000	98.398997 
3878.000000	98.398980 
3877.000000	98.398869 
3876.000000	98.398556 
3875.000000	98.398080 
3874.000000	98.397493 
3873.000000	98.396855 
3872.000000	98.396267 
3871.000000	98.395784 
3870.000000	98.395347 
3869.000000	98.394949 
3868.000000	98.394562 
3867.000000	98.393944 
3866.000000	98.392893 
3865.000000	98.391613 
3864.000000	98.390940 
3863.000000	98.391369 
3862.000000	98.392251 
3861.000000	98.392881 
3860.000000	98.393397 
3859.000000	98.393674 
3858.000000	98.392969 
3857.000000	98.390798 
3856.000000	98.388263 
3855.000000	98.386686 
3854.000000	98.385335 
3853.000000	98.383855 
3852.000000	98.383571 
3851.000000	98.384496 
3850.000000	98.385657 
3849.000000	98.386912 
3848.000000	98.388814 
3847.000000	98.391630 
3846.000000	98.394429 
3845.000000	98.395988 
3844.000000	98.396314 
3843.000000	98.395850 
3842.000000	98.394625 
3841.000000	98.393168 
3840.000000	98.392534 
3839.000000	98.393245 
3838.000000	98.394926 
3837.000000	98.396245 
3836.000000	98.396257 
3835.000000	98.394949 
3834.000000	98.393130 
3833.000000	98.392046 
3832.000000	98.392363 
3831.000000	98.393780 
3830.000000	98.395391 
3829.000000	98.396253 
3828.000000	98.396283 
3827.000000	98.396195 
3826.000000	98.396400 
3825.000000	98.396800 
3824.000000	98.397301 
3823.000000	98.397615 
3822.000000	98.397434 
3821.000000	98.397113 
3820.000000	98.397333 
3819.000000	98.397543 
3818.000000	98.396914 
3817.000000	98.395640 
3816.000000	98.394368 
3815.000000	98.393414 
3814.000000	98.392670 
3813.000000	98.391927 
3812.000000	98.391194 
3811.000000	98.390947 
3810.000000	98.391536 
3809.000000	98.392670 
3808.000000	98.393700 
3807.000000	98.394255 
3806.000000	98.394402 
3805.000000	98.394124 
3804.000000	98.393085 
3803.000000	98.391399 
3802.000000	98.389871 
3801.000000	98.389143 
3800.000000	98.389062 
3799.000000	98.388730 
3798.000000	98.387717 
3797.000000	98.386868 
3796.000000	98.387138 
3795.000000	98.388278 
3794.000000	98.389104 
3793.000000	98.388927 
3792.000000	98.388118 
3791.000000	98.387628 
3790.000000	98.387843 
3789.000000	98.388259 
3788.000000	98.388320 
3787.000000	98.388139 
3786.000000	98.388191 
3785.000000	98.388686 
3784.000000	98.389395 
3783.000000	98.390022 
3782.000000	98.390452 
3781.000000	98.390713 
3780.000000	98.390951 
3779.000000	98.391354 
3778.000000	98.391904 
3777.000000	98.392447 
3776.000000	98.393027 
3775.000000	98.393743 
3774.000000	98.394572 
3773.000000	98.395414 
3772.000000	98.396259 
3771.000000	98.397096 
3770.000000	98.397826 
3769.000000	98.398374 
3768.000000	98.398644 
3767.000000	98.398649 
3766.000000	98.398739 
3765.000000	98.399262 
3764.000000	98.400220 
3763.000000	98.401301 
3762.000000	98.402090 
3761.000000	98.402396 
3760.000000	98.402451 
3759.000000	98.402862 
3758.000000	98.403789 
3757.000000	98.404579 
3756.000000	98.404887 
3755.000000	98.405032 
3754.000000	98.405482 
3753.000000	98.406342 
3752.000000	98.407498 
3751.000000	98.409311 
3750.000000	98.411453 
3749.000000	98.411897 
3748.000000	98.409226 
3747.000000	98.404719 
3746.000000	98.401749 
3745.000000	98.401744 
3744.000000	98.403230 
3743.000000	98.404813 
3742.000000	98.405567 
3741.000000	98.404529 
3740.000000	98.402376 
3739.000000	98.402333 
3738.000000	98.406608 
3737.000000	98.411767 
3736.000000	98.412871 
3735.000000	98.409244 
3734.000000	98.403559 
3733.000000	98.397451 
3732.000000	98.391757 
3731.000000	98.388655 
3730.000000	98.388912 
3729.000000	98.390540 
3728.000000	98.391122 
3727.000000	98.389736 
3726.000000	98.387173 
3725.000000	98.384503 
3724.000000	98.381627 
3723.000000	98.377691 
3722.000000	98.372706 
3721.000000	98.367492 
3720.000000	98.361901 
3719.000000	98.356746 
3718.000000	98.354015 
3717.000000	98.353882 
3716.000000	98.355693 
3715.000000	98.359121 
3714.000000	98.363667 
3713.000000	98.366968 
3712.000000	98.365497 
3711.000000	98.358263 
3710.000000	98.346996 
3709.000000	98.334543 
3708.000000	98.323486 
3707.000000	98.314612 
3706.000000	98.307297 
3705.000000	98.300527 
3704.000000	98.293177 
3703.000000	98.284247 
3702.000000	98.273564 
3701.000000	98.261823 
3700.000000	98.249318 
3699.000000	98.236425 
3698.000000	98.225100 
3697.000000	98.217249 
3696.000000	98.213350 
3695.000000	98.212356 
3694.000000	98.211284 
3693.000000	98.206660 
3692.000000	98.197492 
3691.000000	98.186259 
3690.000000	98.176456 
3689.000000	98.169787 
3688.000000	98.165297 
3687.000000	98.161016 
3686.000000	98.156824 
3685.000000	98.153976 
3684.000000	98.153490 
3683.000000	98.155240 
3682.000000	98.157387 
3681.000000	98.156610 
3680.000000	98.150584 
3679.000000	98.140185 
3678.000000	98.129422 
3677.000000	98.121552 
3676.000000	98.115810 
3675.000000	98.111620 
3674.000000	98.108074 
3673.000000	98.102379 
3672.000000	98.093875 
3671.000000	98.084914 
3670.000000	98.078203 
3669.000000	98.074457 
3668.000000	98.071707 
3667.000000	98.067871 
3666.000000	98.063757 
3665.000000	98.061176 
3664.000000	98.059778 
3663.000000	98.057574 
3662.000000	98.053208 
3661.000000	98.047078 
3660.000000	98.041098 
3659.000000	98.036923 
3658.000000	98.034783 
3657.000000	98.033615 
3656.000000	98.032387 
3655.000000	98.031366 
3654.000000	98.030666 
3653.000000	98.029772 
3652.000000	98.028425 
3651.000000	98.026283 
3650.000000	98.022418 
3649.000000	98.016199 
3648.000000	98.008246 
3647.000000	98.000251 
3646.000000	97.994250 
3645.000000	97.991165 
3644.000000	97.990430 
3643.000000	97.991315 
3642.000000	97.992459 
3641.000000	97.991868 
3640.000000	97.988660 
3639.000000	97.983909 
3638.000000	97.979908 
3637.000000	97.977861 
3636.000000	97.977098 
3635.000000	97.976066 
3634.000000	97.973751 
3633.000000	97.970848 
3632.000000	97.968847 
3631.000000	97.968463 
3630.000000	97.967838 
3629.000000	97.964903 
3628.000000	97.960650 
3627.000000	97.955958 
3626.000000	97.949770 
3625.000000	97.942462 
3624.000000	97.935826 
3623.000000	97.929919 
3622.000000	97.923290 
3621.000000	97.915332 
3620.000000	97.908690 
3619.000000	97.908221 
3618.000000	97.915021 
3617.000000	97.924159 
3616.000000	97.931752 
3615.000000	97.938572 
3614.000000	97.946995 
3613.000000	97.957781 
3612.000000	97.969046 
3611.000000	97.977609 
3610.000000	97.981724 
3609.000000	97.981827 
3608.000000	97.979601 
3607.000000	97.976898 
3606.000000	97.974117 
3605.000000	97.971077 
3604.000000	97.968200 
3603.000000	97.965480 
3602.000000	97.962713 
3601.000000	97.960267 
3600.000000	97.959720 
3599.000000	97.962670 
3598.000000	97.968245 
3597.000000	97.973084 
3596.000000	97.975375 
3595.000000	97.976396 
3594.000000	97.978568 
3593.000000	97.982946 
3592.000000	97.987532 
3591.000000	97.989436 
3590.000000	97.987457 
3589.000000	97.982494 
3588.000000	97.976778 
3587.000000	97.972733 
3586.000000	97.970299 
3585.000000	97.967878 
3584.000000	97.965490 
3583.000000	97.964509 
3582.000000	97.965391 
3581.000000	97.967095 
3580.000000	97.968519 
3579.000000	97.969546 
3578.000000	97.970592 
3577.000000	97.971780 
3576.000000	97.972832 
3575.000000	97.973438 
3574.000000	97.972994 
3573.000000	97.971143 
3572.000000	97.968377 
3571.000000	97.965901 
3570.000000	97.964847 
3569.000000	97.964825 
3568.000000	97.963813 
3567.000000	97.960882 
3566.000000	97.957255 
3565.000000	97.954280 
3564.000000	97.952397 
3563.000000	97.951258 
3562.000000	97.949744 
3561.000000	97.947018 
3560.000000	97.943543 
3559.000000	97.940919 
3558.000000	97.940143 
3557.000000	97.940505 
3556.000000	97.940433 
3555.000000	97.939415 
3554.000000	97.938444 
3553.000000	97.938609 
3552.000000	97.939727 
3551.000000	97.940494 
3550.000000	97.940066 
3549.000000	97.939019 
3548.000000	97.938458 
3547.000000	97.938736 
3546.000000	97.939061 
3545.000000	97.938455 
3544.000000	97.936979 
3543.000000	97.935767 
3542.000000	97.935817 
3541.000000	97.937031 
3540.000000	97.938284 
3539.000000	97.938500 
3538.000000	97.937707 
3537.000000	97.936877 
3536.000000	97.936934 
3535.000000	97.937795 
3534.000000	97.938747 
3533.000000	97.939359 
3532.000000	97.939704 
3531.000000	97.939899 
3530.000000	97.939883 
3529.000000	97.939860 
3528.000000	97.940379 
3527.000000	97.941634 
3526.000000	97.942922 
3525.000000	97.943230 
3524.000000	97.942320 
3523.000000	97.941011 
3522.000000	97.940312 
3521.000000	97.940562 
3520.000000	97.941514 
3519.000000	97.942798 
3518.000000	97.944073 
3517.000000	97.944936 
3516.000000	97.945148 
3515.000000	97.944939 
3514.000000	97.945034 
3513.000000	97.946156 
3512.000000	97.948377 
3511.000000	97.950988 
3510.000000	97.953146 
3509.000000	97.954456 
3508.000000	97.954885 
3507.000000	97.954553 
3506.000000	97.953868 
3505.000000	97.953672 
3504.000000	97.954739 
3503.000000	97.956974 
3502.000000	97.959310 
3501.000000	97.960715 
3500.000000	97.961091 
3499.000000	97.961020 
3498.000000	97.961128 
3497.000000	97.961849 
3496.000000	97.963359 
3495.000000	97.965228 
3494.000000	97.966389 
3493.000000	97.966026 
3492.000000	97.964400 
3491.000000	97.962535 
3490.000000	97.961232 
3489.000000	97.960615 
3488.000000	97.960425 
3487.000000	97.960362 
3486.000000	97.960131 
3485.000000	97.959507 
3484.000000	97.958599 
3483.000000	97.957836 
3482.000000	97.957565 
3481.000000	97.957702 
3480.000000	97.957822 
3479.000000	97.957627 
3478.000000	97.957246 
3477.000000	97.957049 
3476.000000	97.957151 
3475.000000	97.957163 
3474.000000	97.956546 
3473.000000	97.955194 
3472.000000	97.953580 
3471.000000	97.952313 
3470.000000	97.951649 
3469.000000	97.951454 
3468.000000	97.951388 
3467.000000	97.951066 
3466.000000	97.950259 
3465.000000	97.949070 
3464.000000	97.947891 
3463.000000	97.947047 
3462.000000	97.946512 
3461.000000	97.946010 
3460.000000	97.945338 
3459.000000	97.944520 
3458.000000	97.943657 
3457.000000	97.942788 
3456.000000	97.941912 
3455.000000	97.941031 
3454.000000	97.940164 
3453.000000	97.939309 
3452.000000	97.938450 
3451.000000	97.937583 
3450.000000	97.936710 
3449.000000	97.935834 
3448.000000	97.934953 
3447.000000	97.934066 
3446.000000	97.933175 
3445.000000	97.932277 
3444.000000	97.931371 
3443.000000	97.930465 
3442.000000	97.929577 
3441.000000	97.928717 
3440.000000	97.927882 
3439.000000	97.927054 
3438.000000	97.926209 
3437.000000	97.925331 
3436.000000	97.924426 
3435.000000	97.923534 
3434.000000	97.922691 
3433.000000	97.921888 
3432.000000	97.921089 
3431.000000	97.920293 
3430.000000	97.919507 
3429.000000	97.918643 
3428.000000	97.917538 
3427.000000	97.916209 
3426.000000	97.914961 
3425.000000	97.914073 
3424.000000	97.913441 
3423.000000	97.912687 
3422.000000	97.911665 
3421.000000	97.910641 
3420.000000	97.909883 
3419.000000	97.909272 
3418.000000	97.908535 
3417.000000	97.907714 
3416.000000	97.907095 
3415.000000	97.906745 
3414.000000	97.906372 
3413.000000	97.905736 
3412.000000	97.904952 
3411.000000	97.904253 
3410.000000	97.903694 
3409.000000	97.903222 
3408.000000	97.902828 
3407.000000	97.902444 
3406.000000	97.901924 
3405.000000	97.901358 
3404.000000	97.901177 
3403.000000	97.901554 
3402.000000	97.901893 
3401.000000	97.901363 
3400.000000	97.899929 
3399.000000	97.898497 
3398.000000	97.897891 
3397.000000	97.898010 
3396.000000	97.898132 
3395.000000	97.897847 
3394.000000	97.897462 
3393.000000	97.897501 
3392.000000	97.897981 
3391.000000	97.898357 
3390.000000	97.898202 
3389.000000	97.897766 
3388.000000	97.897657 
3387.000000	97.898114 
3386.000000	97.898872 
3385.000000	97.899716 
3384.000000	97.900867 
3383.000000	97.902586 
3382.000000	97.904636 
3381.000000	97.906354 
3380.000000	97.907228 
3379.000000	97.907244 
3378.000000	97.906749 
3377.000000	97.906143 
3376.000000	97.905665 
3375.000000	97.905448 
3374.000000	97.905674 
3373.000000	97.906564 
3372.000000	97.908096 
3371.000000	97.909806 
3370.000000	97.911076 
3369.000000	97.911685 
3368.000000	97.911883 
3367.000000	97.911933 
3366.000000	97.911837 
3365.000000	97.911650 
3364.000000	97.911803 
3363.000000	97.912750 
3362.000000	97.914357 
3361.000000	97.915895 
3360.000000	97.916808 
3359.000000	97.917263 
3358.000000	97.917833 
3357.000000	97.918801 
3356.000000	97.919910 
3355.000000	97.920716 
3354.000000	97.921044 
3353.000000	97.921110 
3352.000000	97.921321 
3351.000000	97.921947 
3350.000000	97.922986 
3349.000000	97.924337 
3348.000000	97.926008 
3347.000000	97.928031 
3346.000000	97.930218 
3345.000000	97.932133 
3344.000000	97.933424 
3343.000000	97.934030 
3342.000000	97.934048 
3341.000000	97.933566 
3340.000000	97.932696 
3339.000000	97.931690 
3338.000000	97.930915 
3337.000000	97.930787 
3336.000000	97.931647 
3335.000000	97.933532 
3334.000000	97.935975 
3333.000000	97.938141 
3332.000000	97.939355 
3331.000000	97.939446 
3330.000000	97.938644 
3329.000000	97.937363 
3328.000000	97.936148 
3327.000000	97.935604 
3326.000000	97.936042 
3325.000000	97.937146 
3324.000000	97.938207 
3323.000000	97.938780 
3322.000000	97.939114 
3321.000000	97.939924 
3320.000000	97.941772 
3319.000000	97.944630 
3318.000000	97.947870 
3317.000000	97.950620 
3316.000000	97.952337 
3315.000000	97.953196 
3314.000000	97.953931 
3313.000000	97.955177 
3312.000000	97.956820 
3311.000000	97.958077 
3310.000000	97.958315 
3309.000000	97.957679 
3308.000000	97.956868 
3307.000000	97.956352 
3306.000000	97.955955 
3305.000000	97.955281 
3304.000000	97.954386 
3303.000000	97.953877 
3302.000000	97.954355 
3301.000000	97.955825 
3300.000000	97.957633 
3299.000000	97.958977 
3298.000000	97.959560 
3297.000000	97.959721 
3296.000000	97.960023 
3295.000000	97.960744 
3294.000000	97.961743 
3293.000000	97.962689 
3292.000000	97.963292 
3291.000000	97.963443 
3290.000000	97.963319 
3289.000000	97.963339 
3288.000000	97.963826 
3287.000000	97.964671 
3286.000000	97.965433 
3285.000000	97.965782 
3284.000000	97.965751 
3283.000000	97.965622 
3282.000000	97.965676 
3281.000000	97.966076 
3280.000000	97.966826 
3279.000000	97.967755 
3278.000000	97.968641 
3277.000000	97.969368 
3276.000000	97.969916 
3275.000000	97.970240 
3274.000000	97.970272 
3273.000000	97.970083 
3272.000000	97.969916 
3271.000000	97.969996 
3270.000000	97.970387 
3269.000000	97.971064 
3268.000000	97.972003 
3267.000000	97.973125 
3266.000000	97.974228 
3265.000000	97.975103 
3264.000000	97.975691 
3263.000000	97.976074 
3262.000000	97.976333 
3261.000000	97.976506 
3260.000000	97.976668 
3259.000000	97.976947 
3258.000000	97.977414 
3257.000000	97.978030 
3256.000000	97.978712 
3255.000000	97.979383 
3254.000000	97.979997 
3253.000000	97.980558 
3252.000000	97.981127 
3251.000000	97.981771 
3250.000000	97.982475 
3249.000000	97.983159 
3248.000000	97.983775 
3247.000000	97.984353 
3246.000000	97.984958 
3245.000000	97.985618 
3244.000000	97.986311 
3243.000000	97.987003 
3242.000000	97.987667 
3241.000000	97.988303 
3240.000000	97.988936 
3239.000000	97.989600 
3238.000000	97.990312 
3237.000000	97.991058 
3236.000000	97.991812 
3235.000000	97.992545 
3234.000000	97.993237 
3233.000000	97.993883 
3232.000000	97.994496 
3231.000000	97.995109 
3230.000000	97.995744 
3229.000000	97.996394 
3228.000000	97.997038 
3227.000000	97.997664 
3226.000000	97.998286 
3225.000000	97.998934 
3224.000000	97.999625 
3223.000000	98.000351 
3222.000000	98.001078 
3221.000000	98.001773 
3220.000000	98.002422 
3219.000000	98.003042 
3218.000000	98.003686 
3217.000000	98.004401 
3216.000000	98.005192 
3215.000000	98.006006 
3214.000000	98.006785 
3213.000000	98.007511 
3212.000000	98.008212 
3211.000000	98.008922 
3210.000000	98.009657 
3209.000000	98.010387 
3208.000000	98.011042 
3207.000000	98.011556 
3206.000000	98.011960 
3205.000000	98.012411 
3204.000000	98.013064 
3203.000000	98.013928 
3202.000000	98.014881 
3201.000000	98.015835 
3200.000000	98.016804 
3199.000000	98.017778 
3198.000000	98.018637 
3197.000000	98.019254 
3196.000000	98.019639 
3195.000000	98.019960 
3194.000000	98.020419 
3193.000000	98.021130 
3192.000000	98.022090 
3191.000000	98.023209 
3190.000000	98.024373 
3189.000000	98.025529 
3188.000000	98.026661 
3187.000000	98.027714 
3186.000000	98.028563 
3185.000000	98.029177 
3184.000000	98.029772 
3183.000000	98.030691 
3182.000000	98.032063 
3181.000000	98.033652 
3180.000000	98.035057 
3179.000000	98.036082 
3178.000000	98.036802 
3177.000000	98.037422 
3176.000000	98.038118 
3175.000000	98.038982 
3174.000000	98.039963 
3173.000000	98.040852 
3172.000000	98.041474 
3171.000000	98.041948 
3170.000000	98.042652 
3169.000000	98.043821 
3168.000000	98.045244 
3167.000000	98.046444 
3166.000000	98.047173 
3165.000000	98.047663 
3164.000000	98.048363 
3163.000000	98.049464 
3162.000000	98.050752 
3161.000000	98.051921 
3160.000000	98.052945 
3159.000000	98.054119 
3158.000000	98.055704 
3157.000000	98.057581 
3156.000000	98.059245 
3155.000000	98.060213 
3154.000000	98.060461 
3153.000000	98.060489 
3152.000000	98.060843 
3151.000000	98.061540 
3150.000000	98.062056 
3149.000000	98.061959 
3148.000000	98.061560 
3147.000000	98.061761 
3146.000000	98.063148 
3145.000000	98.065464 
3144.000000	98.067934 
3143.000000	98.070078 
3142.000000	98.072009 
3141.000000	98.073972 
3140.000000	98.075876 
3139.000000	98.077394 
3138.000000	98.078395 
3137.000000	98.079082 
3136.000000	98.079801 
3135.000000	98.080814 
3134.000000	98.082196 
3133.000000	98.083773 
3132.000000	98.085135 
3131.000000	98.085924 
3130.000000	98.086179 
3129.000000	98.086383 
3128.000000	98.087051 
3127.000000	98.088302 
3126.000000	98.089908 
3125.000000	98.091598 
3124.000000	98.093228 
3123.000000	98.094714 
3122.000000	98.095972 
3121.000000	98.096986 
3120.000000	98.097857 
3119.000000	98.098724 
3118.000000	98.099670 
3117.000000	98.100723 
3116.000000	98.101884 
3115.000000	98.103114 
3114.000000	98.104355 
3113.000000	98.105591 
3112.000000	98.106856 
3111.000000	98.108173 
3110.000000	98.109494 
3109.000000	98.110723 
3108.000000	98.111814 
3107.000000	98.112809 
3106.000000	98.113791 
3105.000000	98.114809 
3104.000000	98.115853 
3103.000000	98.116894 
3102.000000	98.117916 
3101.000000	98.118920 
3100.000000	98.119923 
3099.000000	98.120940 
3098.000000	98.121960 
3097.000000	98.122944 
3096.000000	98.123847 
3095.000000	98.124677 
3094.000000	98.125542 
3093.000000	98.126579 
3092.000000	98.127825 
3091.000000	98.129093 
3090.000000	98.130071 
3089.000000	98.130580 
3088.000000	98.130832 
3087.000000	98.131380 
3086.000000	98.132721 
3085.000000	98.134902 
3084.000000	98.137382 
3083.000000	98.139301 
3082.000000	98.140023 
3081.000000	98.139684 
3080.000000	98.139280 
3079.000000	98.139883 
3078.000000	98.141575 
3077.000000	98.143321 
3076.000000	98.144138 
3075.000000	98.144268 
3074.000000	98.144956 
3073.000000	98.146894 
3072.000000	98.149063 
3071.000000	98.149548 
3070.000000	98.147696 
3069.000000	98.145146 
3068.000000	98.144119 
3067.000000	98.144810 
3066.000000	98.145474 
3065.000000	98.145256 
3064.000000	98.145607 
3063.000000	98.147906 
3062.000000	98.150747 
3061.000000	98.151279 
3060.000000	98.148973 
3059.000000	98.146437 
3058.000000	98.146132 
3057.000000	98.147511 
3056.000000	98.148242 
3055.000000	98.147314 
3054.000000	98.145958 
3053.000000	98.145889 
3052.000000	98.147467 
3051.000000	98.149537 
3050.000000	98.150427 
3049.000000	98.149086 
3048.000000	98.145827 
3047.000000	98.142230 
3046.000000	98.140039 
3045.000000	98.139798 
3044.000000	98.140484 
3043.000000	98.140533 
3042.000000	98.139000 
3041.000000	98.135742 
3040.000000	98.130902 
3039.000000	98.124831 
3038.000000	98.118483 
3037.000000	98.112971 
3036.000000	98.108245 
3035.000000	98.102811 
3034.000000	98.095590 
3033.000000	98.087483 
3032.000000	98.080118 
3031.000000	98.073258 
3030.000000	98.064634 
3029.000000	98.052849 
3028.000000	98.039489 
3027.000000	98.027541 
3026.000000	98.018056 
3025.000000	98.009229 
3024.000000	97.998620 
3023.000000	97.985585 
3022.000000	97.971562 
3021.000000	97.958596 
3020.000000	97.947646 
3019.000000	97.937923 
3018.000000	97.927684 
3017.000000	97.915736 
3016.000000	97.902136 
3015.000000	97.887538 
3014.000000	97.872357 
3013.000000	97.856718 
3012.000000	97.840661 
3011.000000	97.824043 
3010.000000	97.806702 
3009.000000	97.788985 
3008.000000	97.771513 
3007.000000	97.754169 
3006.000000	97.736170 
3005.000000	97.717694 
3004.000000	97.700340 
3003.000000	97.684852 
3002.000000	97.669295 
3001.000000	97.651083 
3000.000000	97.630552 
2999.000000	97.610998 
2998.000000	97.595272 
2997.000000	97.583918 
2996.000000	97.576314 
2995.000000	97.571051 
2994.000000	97.564059 
2993.000000	97.548894 
2992.000000	97.522094 
2991.000000	97.488365 
2990.000000	97.458369 
2989.000000	97.440432 
2988.000000	97.435226 
2987.000000	97.437898 
2986.000000	97.443345 
2985.000000	97.448836 
2984.000000	97.453345 
2983.000000	97.456752 
2982.000000	97.459835 
2981.000000	97.463445 
2980.000000	97.467024 
2979.000000	97.468668 
2978.000000	97.467174 
2977.000000	97.463418 
2976.000000	97.459294 
2975.000000	97.455988 
2974.000000	97.454100 
2973.000000	97.454957 
2972.000000	97.460480 
2971.000000	97.471276 
2970.000000	97.485491 
2969.000000	97.500124 
2968.000000	97.513454 
2967.000000	97.526102 
2966.000000	97.539997 
2965.000000	97.556466 
2964.000000	97.574927 
2963.000000	97.592991 
2962.000000	97.607949 
2961.000000	97.618655 
2960.000000	97.626283 
2959.000000	97.633465 
2958.000000	97.642689 
2957.000000	97.655060 
2956.000000	97.669792 
2955.000000	97.684565 
2954.000000	97.696960 
2953.000000	97.706212 
2952.000000	97.713594 
2951.000000	97.720915 
2950.000000	97.728823 
2949.000000	97.736756 
2948.000000	97.744091 
2947.000000	97.750741 
2946.000000	97.756869 
2945.000000	97.762644 
2944.000000	97.768347 
2943.000000	97.774332 
2942.000000	97.780653 
2941.000000	97.786883 
2940.000000	97.792534 
2939.000000	97.797575 
2938.000000	97.802427 
2937.000000	97.807547 
2936.000000	97.813259 
2935.000000	97.819993 
2934.000000	97.828411 
2933.000000	97.838775 
2932.000000	97.849863 
2931.000000	97.858848 
2930.000000	97.863047 
2929.000000	97.862276 
2928.000000	97.859401 
2927.000000	97.858218 
2926.000000	97.860622 
2925.000000	97.865514 
2924.000000	97.870023 
2923.000000	97.871714 
2922.000000	97.870076 
2921.000000	97.866322 
2920.000000	97.861689 
2919.000000	97.855978 
2918.000000	97.848016 
2917.000000	97.837366 
2916.000000	97.824974 
2915.000000	97.812115 
2914.000000	97.799465 
2913.000000	97.787565 
2912.000000	97.777366 
2911.000000	97.769558 
2910.000000	97.763813 
2909.000000	97.759369 
2908.000000	97.756112 
2907.000000	97.753980 
2906.000000	97.751217 
2905.000000	97.744298 
2904.000000	97.730929 
2903.000000	97.713611 
2902.000000	97.699857 
2901.000000	97.697324 
2900.000000	97.708124 
2899.000000	97.727313 
2898.000000	97.746085 
2897.000000	97.758036 
2896.000000	97.762298 
2895.000000	97.762112 
2894.000000	97.761572 
2893.000000	97.763435 
2892.000000	97.768326 
2891.000000	97.774746 
2890.000000	97.780191 
2889.000000	97.783155 
2888.000000	97.784131 
2887.000000	97.784584 
2886.000000	97.785537 
2885.000000	97.787651 
2884.000000	97.791951 
2883.000000	97.799315 
2882.000000	97.809262 
2881.000000	97.820207 
2880.000000	97.831185 
2879.000000	97.842798 
2878.000000	97.856058 
2877.000000	97.870647 
2876.000000	97.884687 
2875.000000	97.896277 
2874.000000	97.905209 
2873.000000	97.913057 
2872.000000	97.921343 
2871.000000	97.929599 
2870.000000	97.935760 
2869.000000	97.938793 
2868.000000	97.940578 
2867.000000	97.944743 
2866.000000	97.953854 
2865.000000	97.968047 
2864.000000	97.985856 
2863.000000	98.005600 
2862.000000	98.026058 
2861.000000	98.046569 
2860.000000	98.066926 
2859.000000	98.086993 
2858.000000	98.106280 
2857.000000	98.123986 
2856.000000	98.139339 
2855.000000	98.151847 
2854.000000	98.161726 
2853.000000	98.170102 
2852.000000	98.178044 
2851.000000	98.185101 
2850.000000	98.189425 
2849.000000	98.189749 
2848.000000	98.186919 
2847.000000	98.183326 
2846.000000	98.181362 
2845.000000	98.182523 
2844.000000	98.187019 
2843.000000	98.193457 
2842.000000	98.199450 
2841.000000	98.203332 
2840.000000	98.205079 
2839.000000	98.205387 
2838.000000	98.204741 
2837.000000	98.204005 
2836.000000	98.204743 
2835.000000	98.207671 
2834.000000	98.211526 
2833.000000	98.214748 
2832.000000	98.217605 
2831.000000	98.221084 
2830.000000	98.224298 
2829.000000	98.225121 
2828.000000	98.223537 
2827.000000	98.222304 
2826.000000	98.223557 
2825.000000	98.226430 
2824.000000	98.229116 
2823.000000	98.231762 
2822.000000	98.235772 
2821.000000	98.241113 
2820.000000	98.246003 
2819.000000	98.249133 
2818.000000	98.250876 
2817.000000	98.252104 
2816.000000	98.252857 
2815.000000	98.252694 
2814.000000	98.251840 
2813.000000	98.251359 
2812.000000	98.252165 
2811.000000	98.254145 
2810.000000	98.256405 
2809.000000	98.258299 
2808.000000	98.259967 
2807.000000	98.261768 
2806.000000	98.263491 
2805.000000	98.264473 
2804.000000	98.264393 
2803.000000	98.263664 
2802.000000	98.263033 
2801.000000	98.262976 
2800.000000	98.263554 
2799.000000	98.264660 
2798.000000	98.266242 
2797.000000	98.268277 
2796.000000	98.270584 
2795.000000	98.272756 
2794.000000	98.274424 
2793.000000	98.275616 
2792.000000	98.276702 
2791.000000	98.277880 
2790.000000	98.278924 
2789.000000	98.279586 
2788.000000	98.280044 
2787.000000	98.280723 
2786.000000	98.281784 
2785.000000	98.283032 
2784.000000	98.284271 
2783.000000	98.285457 
2782.000000	98.286499 
2781.000000	98.287203 
2780.000000	98.287563 
2779.000000	98.287932 
2778.000000	98.288684 
2777.000000	98.289802 
2776.000000	98.290954 
2775.000000	98.291895 
2774.000000	98.292707 
2773.000000	98.293624 
2772.000000	98.294738 
2771.000000	98.295901 
2770.000000	98.296906 
2769.000000	98.297713 
2768.000000	98.298448 
2767.000000	98.299219 
2766.000000	98.299980 
2765.000000	98.300625 
2764.000000	98.301141 
2763.000000	98.301637 
2762.000000	98.302265 
2761.000000	98.303096 
2760.000000	98.304081 
2759.000000	98.305080 
2758.000000	98.305990 
2757.000000	98.306834 
2756.000000	98.307700 
2755.000000	98.308622 
2754.000000	98.309549 
2753.000000	98.310425 
2752.000000	98.311264 
2751.000000	98.312120 
2750.000000	98.313007 
2749.000000	98.313894 
2748.000000	98.314755 
2747.000000	98.315601 
2746.000000	98.316456 
2745.000000	98.317332 
2744.000000	98.318220 
2743.000000	98.319108 
2742.000000	98.319988 
2741.000000	98.320847 
2740.000000	98.321680 
2739.000000	98.322496 
2738.000000	98.323317 
2737.000000	98.324167 
2736.000000	98.325050 
2735.000000	98.325950 
2734.000000	98.326836 
2733.000000	98.327696 
2732.000000	98.328534 
2731.000000	98.329358 
2730.000000	98.330174 
2729.000000	98.330987 
2728.000000	98.331807 
2727.000000	98.332634 
2726.000000	98.333446 
2725.000000	98.334223 
2724.000000	98.334969 
2723.000000	98.335718 
2722.000000	98.336498 
2721.000000	98.337300 
2720.000000	98.338085 
2719.000000	98.338827 
2718.000000	98.339521 
2717.000000	98.340173 
2716.000000	98.340802 
2715.000000	98.341415 
2714.000000	98.341990 
2713.000000	98.342491 
2712.000000	98.342926 
2711.000000	98.343369 
2710.000000	98.343885 
2709.000000	98.344461 
2708.000000	98.345041 
2707.000000	98.345642 
2706.000000	98.346339 
2705.000000	98.347001 
2704.000000	98.347273 
2703.000000	98.347046 
2702.000000	98.346805 
2701.000000	98.347178 
2700.000000	98.348211 
2699.000000	98.349304 
2698.000000	98.349875 
2697.000000	98.349875 
2696.000000	98.349605 
2695.000000	98.349330 
2694.000000	98.349231 
2693.000000	98.349444 
2692.000000	98.349856 
2691.000000	98.350011 
2690.000000	98.349567 
2689.000000	98.348730 
2688.000000	98.347938 
2687.000000	98.347258 
2686.000000	98.346532 
2685.000000	98.346125 
2684.000000	98.346863 
2683.000000	98.348802 
2682.000000	98.350475 
2681.000000	98.350181 
2680.000000	98.347814 
2679.000000	98.344971 
2678.000000	98.343240 
2677.000000	98.342812 
2676.000000	98.342979 
2675.000000	98.343256 
2674.000000	98.343568 
2673.000000	98.343761 
2672.000000	98.343595 
2671.000000	98.343231 
2670.000000	98.343283 
2669.000000	98.344199 
2668.000000	98.345641 
2667.000000	98.346540 
2666.000000	98.345784 
2665.000000	98.342910 
2664.000000	98.338337 
2663.000000	98.333030 
2662.000000	98.327966 
2661.000000	98.323884 
2660.000000	98.321282 
2659.000000	98.320331 
2658.000000	98.320695 
2657.000000	98.321575 
2656.000000	98.322042 
2655.000000	98.321358 
2654.000000	98.319222 
2653.000000	98.316070 
2652.000000	98.313089 
2651.000000	98.311372 
2650.000000	98.310754 
2649.000000	98.309697 
2648.000000	98.306727 
2647.000000	98.302022 
2646.000000	98.297430 
2645.000000	98.294900 
2644.000000	98.295039 
2643.000000	98.297006 
2642.000000	98.299327 
2641.000000	98.300829 
2640.000000	98.301119 
2639.000000	98.300527 
2638.000000	98.299692 
2637.000000	98.299050 
2636.000000	98.298665 
2635.000000	98.298559 
2634.000000	98.299023 
2633.000000	98.300340 
2632.000000	98.302145 
2631.000000	98.303362 
2630.000000	98.303144 
2629.000000	98.301808 
2628.000000	98.300554 
2627.000000	98.300196 
2626.000000	98.300405 
2625.000000	98.300294 
2624.000000	98.299557 
2623.000000	98.298872 
2622.000000	98.299205 
2621.000000	98.300828 
2620.000000	98.302997 
2619.000000	98.304577 
2618.000000	98.305020 
2617.000000	98.304646 
2616.000000	98.304026 
2615.000000	98.303355 
2614.000000	98.302541 
2613.000000	98.301655 
2612.000000	98.300977 
2611.000000	98.300715 
2610.000000	98.300898 
2609.000000	98.301424 
2608.000000	98.302095 
2607.000000	98.302691 
2606.000000	98.303277 
2605.000000	98.304202 
2604.000000	98.305530 
2603.000000	98.306842 
2602.000000	98.307782 
2601.000000	98.308424 
2600.000000	98.309002 
2599.000000	98.309598 
2598.000000	98.310168 
2597.000000	98.310721 
2596.000000	98.311322 
2595.000000	98.311992 
2594.000000	98.312682 
2593.000000	98.313337 
2592.000000	98.313950 
2591.000000	98.314542 
2590.000000	98.315139 
2589.000000	98.315763 
2588.000000	98.316416 
2587.000000	98.317087 
2586.000000	98.317762 
2585.000000	98.318436 
2584.000000	98.319108 
2583.000000	98.319783 
2582.000000	98.320466 
2581.000000	98.321161 
2580.000000	98.321869 
2579.000000	98.322586 
2578.000000	98.323306 
2577.000000	98.324024 
2576.000000	98.324736 
2575.000000	98.325439 
2574.000000	98.326130 
2573.000000	98.326806 
2572.000000	98.327466 
2571.000000	98.328114 
2570.000000	98.328753 
2569.000000	98.329390 
2568.000000	98.330028 
2567.000000	98.330664 
2566.000000	98.331283 
2565.000000	98.331868 
2564.000000	98.332413 
2563.000000	98.332914 
2562.000000	98.333381 
2561.000000	98.333830 
2560.000000	98.334278 
2559.000000	98.334716 
2558.000000	98.335101 
2557.000000	98.335380 
2556.000000	98.335558 
2555.000000	98.335687 
2554.000000	98.335762 
2553.000000	98.335742 
2552.000000	98.335748 
2551.000000	98.336012 
2550.000000	98.336516 
2549.000000	98.336864 
2548.000000	98.336782 
2547.000000	98.336520 
2546.000000	98.336485 
2545.000000	98.336664 
2544.000000	98.336791 
2543.000000	98.336879 
2542.000000	98.337191 
2541.000000	98.337828 
2540.000000	98.338632 
2539.000000	98.339318 
2538.000000	98.339433 
2537.000000	98.338519 
2536.000000	98.336712 
2535.000000	98.334935 
2534.000000	98.334126 
2533.000000	98.334417 
2532.000000	98.335224 
2531.000000	98.335814 
2530.000000	98.335640 
2529.000000	98.334624 
2528.000000	98.333393 
2527.000000	98.332800 
2526.000000	98.332811 
2525.000000	98.332352 
2524.000000	98.330668 
2523.000000	98.328396 
2522.000000	98.326809 
2521.000000	98.326390 
2520.000000	98.326632 
2519.000000	98.326811 
2518.000000	98.326408 
2517.000000	98.325271 
2516.000000	98.323935 
2515.000000	98.323535 
2514.000000	98.324885 
2513.000000	98.327652 
2512.000000	98.330524 
2511.000000	98.332106 
2510.000000	98.331872 
2509.000000	98.330660 
2508.000000	98.330184 
2507.000000	98.331445 
2506.000000	98.333592 
2505.000000	98.334802 
2504.000000	98.334317 
2503.000000	98.332934 
2502.000000	98.331646 
2501.000000	98.330811 
2500.000000	98.330831 
2499.000000	98.332505 
2498.000000	98.336023 
2497.000000	98.340216 
2496.000000	98.343383 
2495.000000	98.344602 
2494.000000	98.344104 
2493.000000	98.343136 
2492.000000	98.343659 
2491.000000	98.347228 
2490.000000	98.353434 
2489.000000	98.359714 
2488.000000	98.363570 
2487.000000	98.364733 
2486.000000	98.364741 
2485.000000	98.364918 
2484.000000	98.365228 
2483.000000	98.364929 
2482.000000	98.363662 
2481.000000	98.361952 
2480.000000	98.361046 
2479.000000	98.362048 
2478.000000	98.364867 
2477.000000	98.368074 
2476.000000	98.370087 
2475.000000	98.370427 
2474.000000	98.369743 
2473.000000	98.368949 
2472.000000	98.368521 
2471.000000	98.368360 
2470.000000	98.368094 
2469.000000	98.367604 
2468.000000	98.367251 
2467.000000	98.367341 
2466.000000	98.367455 
2465.000000	98.366864 
2464.000000	98.365670 
2463.000000	98.365005 
2462.000000	98.365836 
2461.000000	98.367903 
2460.000000	98.369942 
2459.000000	98.370674 
2458.000000	98.369598 
2457.000000	98.367364 
2456.000000	98.365502 
2455.000000	98.365128 
2454.000000	98.365675 
2453.000000	98.365400 
2452.000000	98.363500 
2451.000000	98.361263 
2450.000000	98.360648 
2449.000000	98.362359 
2448.000000	98.365663 
2447.000000	98.369382 
2446.000000	98.372653 
2445.000000	98.374955 
2444.000000	98.376130 
2443.000000	98.376470 
2442.000000	98.376438 
2441.000000	98.376365 
2440.000000	98.376473 
2439.000000	98.376965 
2438.000000	98.377831 
2437.000000	98.378730 
2436.000000	98.379282 
2435.000000	98.379448 
2434.000000	98.379519 
2433.000000	98.379882 
2432.000000	98.380863 
2431.000000	98.382577 
2430.000000	98.384721 
2429.000000	98.386618 
2428.000000	98.387676 
2427.000000	98.387828 
2426.000000	98.387507 
2425.000000	98.387321 
2424.000000	98.387727 
2423.000000	98.388844 
2422.000000	98.390441 
2421.000000	98.392105 
2420.000000	98.393571 
2419.000000	98.394840 
2418.000000	98.395964 
2417.000000	98.396864 
2416.000000	98.397461 
2415.000000	98.397855 
2414.000000	98.398258 
2413.000000	98.398878 
2412.000000	98.399940 
2411.000000	98.401553 
2410.000000	98.403447 
2409.000000	98.405038 
2408.000000	98.405996 
2407.000000	98.406538 
2406.000000	98.407050 
2405.000000	98.407559 
2404.000000	98.407808 
2403.000000	98.407698 
2402.000000	98.407377 
2401.000000	98.407026 
2400.000000	98.406895 
2399.000000	98.407443 
2398.000000	98.408933 
2397.000000	98.410866 
2396.000000	98.412138 
2395.000000	98.412040 
2394.000000	98.411014 
2393.000000	98.410305 
2392.000000	98.410871 
2391.000000	98.412710 
2390.000000	98.415049 
2389.000000	98.416998 
2388.000000	98.418176 
2387.000000	98.418992 
2386.000000	98.420462 
2385.000000	98.423458 
2384.000000	98.427719 
2383.000000	98.431616 
2382.000000	98.433400 
2381.000000	98.432650 
2380.000000	98.430503 
2379.000000	98.428452 
2378.000000	98.426979 
2377.000000	98.425670 
2376.000000	98.424237 
2375.000000	98.423045 
2374.000000	98.422801 
2373.000000	98.423996 
2372.000000	98.426433 
2371.000000	98.428865 
2370.000000	98.429564 
2369.000000	98.427916 
2368.000000	98.425136 
2367.000000	98.422958 
2366.000000	98.421735 
2365.000000	98.420602 
2364.000000	98.419099 
2363.000000	98.417410 
2362.000000	98.415576 
2361.000000	98.413629 
2360.000000	98.412249 
2359.000000	98.412336 
2358.000000	98.413265 
2357.000000	98.413113 
2356.000000	98.411310 
2355.000000	98.409088 
2354.000000	98.406970 
2353.000000	98.404168 
2352.000000	98.401008 
2351.000000	98.398943 
2350.000000	98.397999 
2349.000000	98.396860 
2348.000000	98.394844 
2347.000000	98.392191 
2346.000000	98.389196 
2345.000000	98.386381 
2344.000000	98.384895 
2343.000000	98.384810 
2342.000000	98.384290 
2341.000000	98.381495 
2340.000000	98.376454 
2339.000000	98.371206 
2338.000000	98.367707 
2337.000000	98.366094 
2336.000000	98.365227 
2335.000000	98.364128 
2334.000000	98.362737 
2333.000000	98.361805 
2332.000000	98.362446 
2331.000000	98.364730 
2330.000000	98.366592 
2329.000000	98.365273 
2328.000000	98.359365 
2327.000000	98.349197 
2326.000000	98.336448 
2325.000000	98.324028 
2324.000000	98.315406 
2323.000000	98.312340 
2322.000000	98.313662 
2321.000000	98.316634 
2320.000000	98.319521 
2319.000000	98.321959 
2318.000000	98.323627 
2317.000000	98.324199 
2316.000000	98.323821 
2315.000000	98.322720 
2314.000000	98.320568 
2313.000000	98.317353 
2312.000000	98.314181 
2311.000000	98.312222 
2310.000000	98.311286 
2309.000000	98.310682 
2308.000000	98.310614 
2307.000000	98.311421 
2306.000000	98.312174 
2305.000000	98.311666 
2304.000000	98.310366 
2303.000000	98.309656 
2302.000000	98.309501 
2301.000000	98.308523 
2300.000000	98.306211 
2299.000000	98.303320 
2298.000000	98.300282 
2297.000000	98.296856 
2296.000000	98.293314 
2295.000000	98.290154 
2294.000000	98.286754 
2293.000000	98.282214 
2292.000000	98.277480 
2291.000000	98.274358 
2290.000000	98.272221 
2289.000000	98.268199 
2288.000000	98.261240 
2287.000000	98.253831 
2286.000000	98.248881 
2285.000000	98.246984 
2284.000000	98.247291 
2283.000000	98.248957 
2282.000000	98.251016 
2281.000000	98.253077 
2280.000000	98.256446 
2279.000000	98.261987 
2278.000000	98.266922 
2277.000000	98.267175 
2276.000000	98.263600 
2275.000000	98.262037 
2274.000000	98.265767 
2273.000000	98.271476 
2272.000000	98.274477 
2271.000000	98.274948 
2270.000000	98.276359 
2269.000000	98.280051 
2268.000000	98.284059 
2267.000000	98.286008 
2266.000000	98.285138 
2265.000000	98.282549 
2264.000000	98.280635 
2263.000000	98.281068 
2262.000000	98.282568 
2261.000000	98.282030 
2260.000000	98.278385 
2259.000000	98.273733 
2258.000000	98.270299 
2257.000000	98.268071 
2256.000000	98.266303 
2255.000000	98.265371 
2254.000000	98.265881 
2253.000000	98.267357 
2252.000000	98.269012 
2251.000000	98.270741 
2250.000000	98.272529 
2249.000000	98.273718 
2248.000000	98.273705 
2247.000000	98.272558 
2246.000000	98.270625 
2245.000000	98.268385 
2244.000000	98.266601 
2243.000000	98.265839 
2242.000000	98.265811 
2241.000000	98.265776 
2240.000000	98.265538 
2239.000000	98.265569 
2238.000000	98.266042 
2237.000000	98.266219 
2236.000000	98.265283 
2235.000000	98.263421 
2234.000000	98.261694 
2233.000000	98.260914 
2232.000000	98.261153 
2231.000000	98.262072 
2230.000000	98.263068 
2229.000000	98.263392 
2228.000000	98.262539 
2227.000000	98.260498 
2226.000000	98.257550 
2225.000000	98.254271 
2224.000000	98.251964 
2223.000000	98.251998 
2222.000000	98.254162 
2221.000000	98.256405 
2220.000000	98.256990 
2219.000000	98.256358 
2218.000000	98.256086 
2217.000000	98.256875 
2216.000000	98.258364 
2215.000000	98.260041 
2214.000000	98.261280 
2213.000000	98.261137 
2212.000000	98.259192 
2211.000000	98.256252 
2210.000000	98.253574 
2209.000000	98.251796 
2208.000000	98.250901 
2207.000000	98.250450 
2206.000000	98.249504 
2205.000000	98.247476 
2204.000000	98.245896 
2203.000000	98.248049 
2202.000000	98.254980 
2201.000000	98.263337 
2200.000000	98.268601 
2199.000000	98.268711 
2198.000000	98.264428 
2197.000000	98.257352 
2196.000000	98.249793 
2195.000000	98.244827 
2194.000000	98.243606 
2193.000000	98.243376 
2192.000000	98.239840 
2191.000000	98.231351 
2190.000000	98.220282 
2189.000000	98.210946 
2188.000000	98.206452 
2187.000000	98.206975 
2186.000000	98.210742 
2185.000000	98.216712 
2184.000000	98.225330 
2183.000000	98.235579 
2182.000000	98.243002 
2181.000000	98.243586 
2180.000000	98.238970 
2179.000000	98.234824 
2178.000000	98.234425 
2177.000000	98.236924 
2176.000000	98.241239 
2175.000000	98.247543 
2174.000000	98.254226 
2173.000000	98.257460 
2172.000000	98.255502 
2171.000000	98.250440 
2170.000000	98.244523 
2169.000000	98.237771 
2168.000000	98.230441 
2167.000000	98.224560 
2166.000000	98.220884 
2165.000000	98.216837 
2164.000000	98.209805 
2163.000000	98.201214 
2162.000000	98.196651 
2161.000000	98.203921 
2160.000000	98.230041 
2159.000000	98.274854 
2158.000000	98.324810 
2157.000000	98.359996 
2156.000000	98.371645 
2155.000000	98.366217 
2154.000000	98.355427 
2153.000000	98.346319 
2152.000000	98.340774 
2151.000000	98.339303 
2150.000000	98.341094 
2149.000000	98.343232 
2148.000000	98.343858 
2147.000000	98.344934 
2146.000000	98.349593 
2145.000000	98.358200 
2144.000000	98.368818 
2143.000000	98.379627 
2142.000000	98.388623 
2141.000000	98.392753 
2140.000000	98.390114 
2139.000000	98.382554 
2138.000000	98.374719 
2137.000000	98.370934 
2136.000000	98.373275 
2135.000000	98.380984 
2134.000000	98.390560 
2133.000000	98.397858 
2132.000000	98.401356 
2131.000000	98.402388 
2130.000000	98.401915 
2129.000000	98.398877 
2128.000000	98.392351 
2127.000000	98.383577 
2126.000000	98.374940 
2125.000000	98.368139 
2124.000000	98.363947 
2123.000000	98.362405 
2122.000000	98.362341 
2121.000000	98.361677 
2120.000000	98.358938 
2119.000000	98.353787 
2118.000000	98.346264 
2117.000000	98.337092 
2116.000000	98.328586 
2115.000000	98.323248 
2114.000000	98.321407 
2113.000000	98.321385 
2112.000000	98.322623 
2111.000000	98.326257 
2110.000000	98.331227 
2109.000000	98.333344 
2108.000000	98.330095 
2107.000000	98.323775 
2106.000000	98.318353 
2105.000000	98.315325 
2104.000000	98.314025 
2103.000000	98.313829 
2102.000000	98.314090 
2101.000000	98.313419 
2100.000000	98.310999 
2099.000000	98.308095 
2098.000000	98.307204 
2097.000000	98.310032 
2096.000000	98.316453 
2095.000000	98.324167 
2094.000000	98.329389 
2093.000000	98.329425 
2092.000000	98.324897 
2091.000000	98.318970 
2090.000000	98.314168 
2089.000000	98.310486 
2088.000000	98.306517 
2087.000000	98.301328 
2086.000000	98.295235 
2085.000000	98.289739 
2084.000000	98.286785 
2083.000000	98.287273 
2082.000000	98.289950 
2081.000000	98.292084 
2080.000000	98.291834 
2079.000000	98.289437 
2078.000000	98.286145 
2077.000000	98.282979 
2076.000000	98.280583 
2075.000000	98.279212 
2074.000000	98.278290 
2073.000000	98.276774 
2072.000000	98.274554 
2071.000000	98.272835 
2070.000000	98.272652 
2069.000000	98.273594 
2068.000000	98.274391 
2067.000000	98.274186 
2066.000000	98.272816 
2065.000000	98.270764 
2064.000000	98.269247 
2063.000000	98.269371 
2062.000000	98.270611 
2061.000000	98.270897 
2060.000000	98.268778 
2059.000000	98.264884 
2058.000000	98.261118 
2057.000000	98.259142 
2056.000000	98.259651 
2055.000000	98.261735 
2054.000000	98.262403 
2053.000000	98.258326 
2052.000000	98.248915 
2051.000000	98.237420 
2050.000000	98.228574 
2049.000000	98.225100 
2048.000000	98.227099 
2047.000000	98.233086 
2046.000000	98.240365 
2045.000000	98.245765 
2044.000000	98.247724 
2043.000000	98.247076 
2042.000000	98.245136 
2041.000000	98.242290 
2040.000000	98.239364 
2039.000000	98.238603 
2038.000000	98.241680 
2037.000000	98.247781 
2036.000000	98.254693 
2035.000000	98.260897 
2034.000000	98.265734 
2033.000000	98.269080 
2032.000000	98.271652 
2031.000000	98.273793 
2030.000000	98.273569 
2029.000000	98.268766 
2028.000000	98.261453 
2027.000000	98.257472 
2026.000000	98.259657 
2025.000000	98.264294 
2024.000000	98.265875 
2023.000000	98.263485 
2022.000000	98.260248 
2021.000000	98.258523 
2020.000000	98.258046 
2019.000000	98.257705 
2018.000000	98.256777 
2017.000000	98.255260 
2016.000000	98.254834 
2015.000000	98.258300 
2014.000000	98.266485 
2013.000000	98.276577 
2012.000000	98.284278 
2011.000000	98.286547 
2010.000000	98.282658 
2009.000000	98.275388 
2008.000000	98.270574 
2007.000000	98.271517 
2006.000000	98.274339 
2005.000000	98.273127 
2004.000000	98.268245 
2003.000000	98.264163 
2002.000000	98.260535 
2001.000000	98.252802 
2000.000000	98.241861 
1999.000000	98.234888 
1998.000000	98.234569 
1997.000000	98.235077 
1996.000000	98.231644 
1995.000000	98.227295 
1994.000000	98.225742 
1993.000000	98.223699 
1992.000000	98.216408 
1991.000000	98.206730 
1990.000000	98.201813 
1989.000000	98.203336 
1988.000000	98.206457 
1987.000000	98.206440 
1986.000000	98.202808 
1985.000000	98.197990 
1984.000000	98.194279 
1983.000000	98.191176 
1982.000000	98.185206 
1981.000000	98.175339 
1980.000000	98.168278 
1979.000000	98.173012 
1978.000000	98.189766 
1977.000000	98.209066 
1976.000000	98.224034 
1975.000000	98.237309 
1974.000000	98.251811 
1973.000000	98.263278 
1972.000000	98.266794 
1971.000000	98.264108 
1970.000000	98.259678 
1969.000000	98.254162 
1968.000000	98.246822 
1967.000000	98.240796 
1966.000000	98.240309 
1965.000000	98.244589 
1964.000000	98.249103 
1963.000000	98.251587 
1962.000000	98.253682 
1961.000000	98.257464 
1960.000000	98.262479 
1959.000000	98.266024 
1958.000000	98.265668 
1957.000000	98.262170 
1956.000000	98.259966 
1955.000000	98.262959 
1954.000000	98.269691 
1953.000000	98.274411 
1952.000000	98.273591 
1951.000000	98.269271 
1950.000000	98.265789 
1949.000000	98.265177 
1948.000000	98.266914 
1947.000000	98.270025 
1946.000000	98.273651 
1945.000000	98.276938 
1944.000000	98.279591 
1943.000000	98.281818 
1942.000000	98.283347 
1941.000000	98.283613 
1940.000000	98.283002 
1939.000000	98.282657 
1938.000000	98.283116 
1937.000000	98.283982 
1936.000000	98.284764 
1935.000000	98.285319 
1934.000000	98.285684 
1933.000000	98.285853 
1932.000000	98.285856 
1931.000000	98.285883 
1930.000000	98.286077 
1929.000000	98.286325 
1928.000000	98.286457 
1927.000000	98.286492 
1926.000000	98.286547 
1925.000000	98.286571 
1924.000000	98.286539 
1923.000000	98.286895 
1922.000000	98.288111 
1921.000000	98.289820 
1920.000000	98.291032 
1919.000000	98.291184 
1918.000000	98.290405 
1917.000000	98.289103 
1916.000000	98.287755 
1915.000000	98.286780 
1914.000000	98.286101 
1913.000000	98.285132 
1912.000000	98.283767 
1911.000000	98.282889 
1910.000000	98.282949 
1909.000000	98.283034 
1908.000000	98.282244 
1907.000000	98.280864 
1906.000000	98.279588 
1905.000000	98.278496 
1904.000000	98.277537 
1903.000000	98.277027 
1902.000000	98.276665 
1901.000000	98.275519 
1900.000000	98.273662 
1899.000000	98.272460 
1898.000000	98.272693 
1897.000000	98.273290 
1896.000000	98.272752 
1895.000000	98.271099 
1894.000000	98.269262 
1893.000000	98.267616 
1892.000000	98.266203 
1891.000000	98.265402 
1890.000000	98.265468 
1889.000000	98.266147 
1888.000000	98.267328 
1887.000000	98.269001 
1886.000000	98.270174 
1885.000000	98.269242 
1884.000000	98.266071 
1883.000000	98.262866 
1882.000000	98.261647 
1881.000000	98.262158 
1880.000000	98.263160 
1879.000000	98.264250 
1878.000000	98.265521 
1877.000000	98.266638 
1876.000000	98.267597 
1875.000000	98.269451 
1874.000000	98.272660 
1873.000000	98.275699 
1872.000000	98.276968 
1871.000000	98.276786 
1870.000000	98.275863 
1869.000000	98.273497 
1868.000000	98.270149 
1867.000000	98.268851 
1866.000000	98.271013 
1865.000000	98.274638 
1864.000000	98.277688 
1863.000000	98.280775 
1862.000000	98.284795 
1861.000000	98.287787 
1860.000000	98.287424 
1859.000000	98.285029 
1858.000000	98.283680 
1857.000000	98.283812 
1856.000000	98.284036 
1855.000000	98.284739 
1854.000000	98.287368 
1853.000000	98.291552 
1852.000000	98.296026 
1851.000000	98.300660 
1850.000000	98.305795 
1849.000000	98.310947 
1848.000000	98.315691 
1847.000000	98.320676 
1846.000000	98.326068 
1845.000000	98.330075 
1844.000000	98.331687 
1843.000000	98.332722 
1842.000000	98.333815 
1841.000000	98.333418 
1840.000000	98.331243 
1839.000000	98.328932 
1838.000000	98.328057 
1837.000000	98.328243 
1836.000000	98.329039 
1835.000000	98.331616 
1834.000000	98.336057 
1833.000000	98.339676 
1832.000000	98.339333 
1831.000000	98.334046 
1830.000000	98.326372 
1829.000000	98.320363 
1828.000000	98.317409 
1827.000000	98.317051 
1826.000000	98.319057 
1825.000000	98.321875 
1824.000000	98.323243 
1823.000000	98.323367 
1822.000000	98.324067 
1821.000000	98.325870 
1820.000000	98.328602 
1819.000000	98.334028 
1818.000000	98.343397 
1817.000000	98.351563 
1816.000000	98.351671 
1815.000000	98.344578 
1814.000000	98.336983 
1813.000000	98.332370 
1812.000000	98.328442 
1811.000000	98.324258 
1810.000000	98.321709 
1809.000000	98.318996 
1808.000000	98.313287 
1807.000000	98.306701 
1806.000000	98.301838 
1805.000000	98.295796 
1804.000000	98.285176 
1803.000000	98.273141 
1802.000000	98.265104 
1801.000000	98.260330 
1800.000000	98.254294 
1799.000000	98.247977 
1798.000000	98.245554 
1797.000000	98.246367 
1796.000000	98.248057 
1795.000000	98.252058 
1794.000000	98.260654 
1793.000000	98.270393 
1792.000000	98.275503 
1791.000000	98.278642 
1790.000000	98.284823 
1789.000000	98.291420 
1788.000000	98.294147 
1787.000000	98.294494 
1786.000000	98.297257 
1785.000000	98.302868 
1784.000000	98.307800 
1783.000000	98.310472 
1782.000000	98.311734 
1781.000000	98.313212 
1780.000000	98.316091 
1779.000000	98.321081 
1778.000000	98.327547 
1777.000000	98.333118 
1776.000000	98.336098 
1775.000000	98.336455 
1774.000000	98.335417 
1773.000000	98.334591 
1772.000000	98.334501 
1771.000000	98.335353 
1770.000000	98.338664 
1769.000000	98.345157 
1768.000000	98.352384 
1767.000000	98.356802 
1766.000000	98.357662 
1765.000000	98.356634 
1764.000000	98.354936 
1763.000000	98.353003 
1762.000000	98.352674 
1761.000000	98.355971 
1760.000000	98.361286 
1759.000000	98.365884 
1758.000000	98.369310 
1757.000000	98.372866 
1756.000000	98.376939 
1755.000000	98.380192 
1754.000000	98.382569 
1753.000000	98.385971 
1752.000000	98.390959 
1751.000000	98.394949 
1750.000000	98.396086 
1749.000000	98.395729 
1748.000000	98.395744 
1747.000000	98.396060 
1746.000000	98.396243 
1745.000000	98.397129 
1744.000000	98.398969 
1743.000000	98.400450 
1742.000000	98.400791 
1741.000000	98.400684 
1740.000000	98.401023 
1739.000000	98.402000 
1738.000000	98.403079 
1737.000000	98.403665 
1736.000000	98.403979 
1735.000000	98.404622 
1734.000000	98.405441 
1733.000000	98.405824 
1732.000000	98.405600 
1731.000000	98.405260 
1730.000000	98.405589 
1729.000000	98.406707 
1728.000000	98.407947 
1727.000000	98.408583 
1726.000000	98.408536 
1725.000000	98.408226 
1724.000000	98.407939 
1723.000000	98.407851 
1722.000000	98.408033 
1721.000000	98.408306 
1720.000000	98.408425 
1719.000000	98.408347 
1718.000000	98.408157 
1717.000000	98.407734 
1716.000000	98.407123 
1715.000000	98.406676 
1714.000000	98.406458 
1713.000000	98.406276 
1712.000000	98.406005 
1711.000000	98.405672 
1710.000000	98.405310 
1709.000000	98.404901 
1708.000000	98.404444 
1707.000000	98.403962 
1706.000000	98.403467 
1705.000000	98.402955 
1704.000000	98.402425 
1703.000000	98.401880 
1702.000000	98.401326 
1701.000000	98.400763 
1700.000000	98.400180 
1699.000000	98.399576 
1698.000000	98.398955 
1697.000000	98.398317 
1696.000000	98.397662 
1695.000000	98.396990 
1694.000000	98.396301 
1693.000000	98.395593 
1692.000000	98.394870 
1691.000000	98.394147 
1690.000000	98.393440 
1689.000000	98.392736 
1688.000000	98.392010 
1687.000000	98.391244 
1686.000000	98.390447 
1685.000000	98.389568 
1684.000000	98.388595 
1683.000000	98.387704 
1682.000000	98.386898 
1681.000000	98.386092 
1680.000000	98.385446 
1679.000000	98.384997 
1678.000000	98.384540 
1677.000000	98.383949 
1676.000000	98.383423 
1675.000000	98.383097 
1674.000000	98.382685 
1673.000000	98.381952 
1672.000000	98.380972 
1671.000000	98.379942 
1670.000000	98.378795 
1669.000000	98.377631 
1668.000000	98.376945 
1667.000000	98.376721 
1666.000000	98.376496 
1665.000000	98.375953 
1664.000000	98.375111 
1663.000000	98.374260 
1662.000000	98.373358 
1661.000000	98.372268 
1660.000000	98.371463 
1659.000000	98.371214 
1658.000000	98.370873 
1657.000000	98.369950 
1656.000000	98.368852 
1655.000000	98.368216 
1654.000000	98.367069 
1653.000000	98.365128 
1652.000000	98.364213 
1651.000000	98.363992 
1650.000000	98.363224 
1649.000000	98.362422 
1648.000000	98.361921 
1647.000000	98.361395 
1646.000000	98.360851 
1645.000000	98.360282 
1644.000000	98.359635 
1643.000000	98.359317 
1642.000000	98.359476 
1641.000000	98.359888 
1640.000000	98.360449 
1639.000000	98.361068 
1638.000000	98.361587 
1637.000000	98.361836 
1636.000000	98.361855 
1635.000000	98.361602 
1634.000000	98.360937 
1633.000000	98.360219 
1632.000000	98.360192 
1631.000000	98.361110 
1630.000000	98.362194 
1629.000000	98.362448 
1628.000000	98.362043 
1627.000000	98.361802 
1626.000000	98.361794 
1625.000000	98.361736 
1624.000000	98.362079 
1623.000000	98.363385 
1622.000000	98.364911 
1621.000000	98.365638 
1620.000000	98.365971 
1619.000000	98.366937 
1618.000000	98.368383 
1617.000000	98.369082 
1616.000000	98.369519 
1615.000000	98.370036 
1614.000000	98.369237 
1613.000000	98.367993 
1612.000000	98.369801 
1611.000000	98.375657 
1610.000000	98.380895 
1609.000000	98.381732 
1608.000000	98.381412 
1607.000000	98.383685 
1606.000000	98.386009 
1605.000000	98.385878 
1604.000000	98.386339 
1603.000000	98.389680 
1602.000000	98.393093 
1601.000000	98.394375 
1600.000000	98.395601 
1599.000000	98.397323 
1598.000000	98.396307 
1597.000000	98.392250 
1596.000000	98.390383 
1595.000000	98.393827 
1594.000000	98.398230 
1593.000000	98.399100 
1592.000000	98.398575 
1591.000000	98.399648 
1590.000000	98.400097 
1589.000000	98.398103 
1588.000000	98.397298 
1587.000000	98.400406 
1586.000000	98.403607 
1585.000000	98.403595 
1584.000000	98.404481 
1583.000000	98.409441 
1582.000000	98.413781 
1581.000000	98.414301 
1580.000000	98.414737 
1579.000000	98.416541 
1578.000000	98.415012 
1577.000000	98.408549 
1576.000000	98.405733 
1575.000000	98.409233 
1574.000000	98.408891 
1573.000000	98.402341 
1572.000000	98.397317 
1571.000000	98.398304 
1570.000000	98.400085 
1569.000000	98.399870 
1568.000000	98.402376 
1567.000000	98.405221 
1566.000000	98.402056 
1565.000000	98.394808 
1564.000000	98.390674 
1563.000000	98.390580 
1562.000000	98.389243 
1561.000000	98.389202 
1560.000000	98.399129 
1559.000000	98.404409 
1558.000000	98.388310 
1557.000000	98.361581 
1556.000000	98.338531 
1555.000000	98.323480 
1554.000000	98.311199 
1553.000000	98.296321 
1552.000000	98.279309 
1551.000000	98.262341 
1550.000000	98.246611 
1549.000000	98.231048 
1548.000000	98.215335 
1547.000000	98.199446 
1546.000000	98.180826 
1545.000000	98.156674 
1544.000000	98.130667 
1543.000000	98.109511 
1542.000000	98.092648 
1541.000000	98.067241 
1540.000000	98.030717 
1539.000000	97.999074 
1538.000000	97.973241 
1537.000000	97.943098 
1536.000000	97.909117 
1535.000000	97.876651 
1534.000000	97.845615 
1533.000000	97.813472 
1532.000000	97.782518 
1531.000000	97.756701 
1530.000000	97.733857 
1529.000000	97.706131 
1528.000000	97.670063 
1527.000000	97.631898 
1526.000000	97.598494 
1525.000000	97.567986 
1524.000000	97.535695 
1523.000000	97.501803 
1522.000000	97.467113 
1521.000000	97.430316 
1520.000000	97.391762 
1519.000000	97.352959 
1518.000000	97.314164 
1517.000000	97.275405 
1516.000000	97.238575 
1515.000000	97.205457 
1514.000000	97.175036 
1513.000000	97.144249 
1512.000000	97.108315 
1511.000000	97.067030 
1510.000000	97.025262 
1509.000000	96.985844 
1508.000000	96.944383 
1507.000000	96.901122 
1506.000000	96.864248 
1505.000000	96.827764 
1504.000000	96.785419 
1503.000000	96.741006 
1502.000000	96.697354 
1501.000000	96.653783 
1500.000000	96.607633 
1499.000000	96.559543 
1498.000000	96.516102 
1497.000000	96.481320 
1496.000000	96.451028 
1495.000000	96.422149 
1494.000000	96.394628 
1493.000000	96.365891 
1492.000000	96.332052 
1491.000000	96.291595 
1490.000000	96.247342 
1489.000000	96.201763 
1488.000000	96.155486 
1487.000000	96.113560 
1486.000000	96.077593 
1485.000000	96.042071 
1484.000000	96.005068 
1483.000000	95.968743 
1482.000000	95.933991 
1481.000000	95.897998 
1480.000000	95.859255 
1479.000000	95.821492 
1478.000000	95.788025 
1477.000000	95.755879 
1476.000000	95.721119 
1475.000000	95.686858 
1474.000000	95.655313 
1473.000000	95.621569 
1472.000000	95.583383 
1471.000000	95.546761 
1470.000000	95.514811 
1469.000000	95.483277 
1468.000000	95.448463 
1467.000000	95.412723 
1466.000000	95.379893 
1465.000000	95.349414 
1464.000000	95.318937 
1463.000000	95.287189 
1462.000000	95.253950 
1461.000000	95.218110 
1460.000000	95.178979 
1459.000000	95.138240 
1458.000000	95.102216 
1457.000000	95.078183 
1456.000000	95.059521 
1455.000000	95.032875 
1454.000000	94.998946 
1453.000000	94.967312 
1452.000000	94.943147 
1451.000000	94.924977 
1450.000000	94.910956 
1449.000000	94.900926 
1448.000000	94.892271 
1447.000000	94.881724 
1446.000000	94.868714 
1445.000000	94.856502 
1444.000000	94.847363 
1443.000000	94.838731 
1442.000000	94.827820 
1441.000000	94.815379 
1440.000000	94.801724 
1439.000000	94.785446 
1438.000000	94.770805 
1437.000000	94.766630 
1436.000000	94.771736 
1435.000000	94.773326 
1434.000000	94.766106 
1433.000000	94.756146 
1432.000000	94.749987 
1431.000000	94.747125 
1430.000000	94.745499 
1429.000000	94.746798 
1428.000000	94.750175 
1427.000000	94.751124 
1426.000000	94.747970 
1425.000000	94.747625 
1424.000000	94.754594 
1423.000000	94.760523 
1422.000000	94.758582 
1421.000000	94.756400 
1420.000000	94.764775 
1419.000000	94.780140 
1418.000000	94.793002 
1417.000000	94.801645 
1416.000000	94.807686 
1415.000000	94.811508 
1414.000000	94.813304 
1413.000000	94.816768 
1412.000000	94.826439 
1411.000000	94.841853 
1410.000000	94.861248 
1409.000000	94.884690 
1408.000000	94.911279 
1407.000000	94.939588 
1406.000000	94.970845 
1405.000000	95.010938 
1404.000000	95.061272 
1403.000000	95.112441 
1402.000000	95.157099 
1401.000000	95.199237 
1400.000000	95.245573 
1399.000000	95.291654 
1398.000000	95.325035 
1397.000000	95.340754 
1396.000000	95.347476 
1395.000000	95.362789 
1394.000000	95.403505 
1393.000000	95.474615 
1392.000000	95.564019 
1391.000000	95.652298 
1390.000000	95.727437 
1389.000000	95.790065 
1388.000000	95.846910 
1387.000000	95.900680 
1386.000000	95.949500 
1385.000000	95.994779 
1384.000000	96.041513 
1383.000000	96.091115 
1382.000000	96.140788 
1381.000000	96.188917 
1380.000000	96.237469 
1379.000000	96.287644 
1378.000000	96.337444 
1377.000000	96.386027 
1376.000000	96.436312 
1375.000000	96.490605 
1374.000000	96.547077 
1373.000000	96.602439 
1372.000000	96.654627 
1371.000000	96.702734 
1370.000000	96.747025 
1369.000000	96.791347 
1368.000000	96.839480 
1367.000000	96.888458 
1366.000000	96.932098 
1365.000000	96.969212 
1364.000000	97.004684 
1363.000000	97.043686 
1362.000000	97.086829 
1361.000000	97.131219 
1360.000000	97.174209 
1359.000000	97.214438 
1358.000000	97.251774 
1357.000000	97.288063 
1356.000000	97.325275 
1355.000000	97.362239 
1354.000000	97.396403 
1353.000000	97.427386 
1352.000000	97.457049 
1351.000000	97.486938 
1350.000000	97.515944 
1349.000000	97.543449 
1348.000000	97.569855 
1347.000000	97.594485 
1346.000000	97.617510 
1345.000000	97.641836 
1344.000000	97.669314 
1343.000000	97.696420 
1342.000000	97.717991 
1341.000000	97.734263 
1340.000000	97.750559 
1339.000000	97.770085 
1338.000000	97.791594 
1337.000000	97.813844 
1336.000000	97.836804 
1335.000000	97.859357 
1334.000000	97.880490 
1333.000000	97.901706 
1332.000000	97.924409 
1331.000000	97.945700 
1330.000000	97.961318 
1329.000000	97.972324 
1328.000000	97.984097 
1327.000000	97.998823 
1326.000000	98.013618 
1325.000000	98.026964 
1324.000000	98.040533 
1323.000000	98.054565 
1322.000000	98.067099 
1321.000000	98.077901 
1320.000000	98.089179 
1319.000000	98.102364 
1318.000000	98.117440 
1317.000000	98.134575 
1316.000000	98.153374 
1315.000000	98.171456 
1314.000000	98.186920 
1313.000000	98.201121 
1312.000000	98.216229 
1311.000000	98.231443 
1310.000000	98.244811 
1309.000000	98.256959 
1308.000000	98.269664 
1307.000000	98.282100 
1306.000000	98.291685 
1305.000000	98.298667 
1304.000000	98.305746 
1303.000000	98.313901 
1302.000000	98.321855 
1301.000000	98.328882 
1300.000000	98.335325 
1299.000000	98.341150 
1298.000000	98.346722 
1297.000000	98.353795 
1296.000000	98.363188 
1295.000000	98.372247 
1294.000000	98.377522 
1293.000000	98.379187 
1292.000000	98.380343 
1291.000000	98.382870 
1290.000000	98.386211 
1289.000000	98.389436 
1288.000000	98.392135 
1287.000000	98.393703 
1286.000000	98.393838 
1285.000000	98.393493 
1284.000000	98.393925 
1283.000000	98.395628 
1282.000000	98.398824 
1281.000000	98.403565 
1280.000000	98.408602 
1279.000000	98.411568 
1278.000000	98.411739 
1277.000000	98.411118 
1276.000000	98.411521 
1275.000000	98.412139 
1274.000000	98.411509 
1273.000000	98.410263 
1272.000000	98.410014 
1271.000000	98.410875 
1270.000000	98.411743 
1269.000000	98.411952 
1268.000000	98.411289 
1267.000000	98.409751 
1266.000000	98.408561 
1265.000000	98.409364 
1264.000000	98.411275 
1263.000000	98.411290 
1262.000000	98.408727 
1261.000000	98.406450 
1260.000000	98.406152 
1259.000000	98.405337 
1258.000000	98.401637 
1257.000000	98.397085 
1256.000000	98.395127 
1255.000000	98.395666 
1254.000000	98.395784 
1253.000000	98.393803 
1252.000000	98.390428 
1251.000000	98.387329 
1250.000000	98.386564 
1249.000000	98.389908 
1248.000000	98.396873 
1247.000000	98.404423 
1246.000000	98.409579 
1245.000000	98.410352 
1244.000000	98.404504 
1243.000000	98.391879 
1242.000000	98.378989 
1241.000000	98.375696 
1240.000000	98.383908 
1239.000000	98.393699 
1238.000000	98.394220 
1237.000000	98.384759 
1236.000000	98.371636 
1235.000000	98.358266 
1234.000000	98.343292 
1233.000000	98.326192 
1232.000000	98.309327 
1231.000000	98.294753 
1230.000000	98.282487 
1229.000000	98.271155 
1228.000000	98.257780 
1227.000000	98.238550 
1226.000000	98.212736 
1225.000000	98.184468 
1224.000000	98.157835 
1223.000000	98.131648 
1222.000000	98.101862 
1221.000000	98.067410 
1220.000000	98.030367 
1219.000000	97.991642 
1218.000000	97.949972 
1217.000000	97.904404 
1216.000000	97.854713 
1215.000000	97.799964 
1214.000000	97.739699 
1213.000000	97.676338 
1212.000000	97.613580 
1211.000000	97.552142 
1210.000000	97.488981 
1209.000000	97.420895 
1208.000000	97.347512 
1207.000000	97.271261 
1206.000000	97.195848 
1205.000000	97.124048 
1204.000000	97.055319 
1203.000000	96.985875 
1202.000000	96.912518 
1201.000000	96.835978 
1200.000000	96.759231 
1199.000000	96.683441 
1198.000000	96.607754 
1197.000000	96.532463 
1196.000000	96.459491 
1195.000000	96.389091 
1194.000000	96.318217 
1193.000000	96.243403 
1192.000000	96.163901 
1191.000000	96.081210 
1190.000000	95.996935 
1189.000000	95.912044 
1188.000000	95.826882 
1187.000000	95.740537 
1186.000000	95.650993 
1185.000000	95.557254 
1184.000000	95.461030 
1183.000000	95.365193 
1182.000000	95.270545 
1181.000000	95.174921 
1180.000000	95.075529 
1179.000000	94.971469 
1178.000000	94.864053 
1177.000000	94.755154 
1176.000000	94.645104 
1175.000000	94.531831 
1174.000000	94.412465 
1173.000000	94.286465 
1172.000000	94.156645 
1171.000000	94.026677 
1170.000000	93.898505 
1169.000000	93.773076 
1168.000000	93.652679 
1167.000000	93.541427 
1166.000000	93.444552 
1165.000000	93.368873 
1164.000000	93.322566 
1163.000000	93.311464 
1162.000000	93.334514 
1161.000000	93.383084 
1160.000000	93.443224 
1159.000000	93.497908 
1158.000000	93.530754 
1157.000000	93.531514 
1156.000000	93.498269 
1155.000000	93.434698 
1154.000000	93.347493 
1153.000000	93.246279 
1152.000000	93.141607 
1151.000000	93.039262 
1150.000000	92.937901 
1149.000000	92.834711 
1148.000000	92.731527 
1147.000000	92.632475 
1146.000000	92.537528 
1145.000000	92.442216 
1144.000000	92.342989 
1143.000000	92.239748 
1142.000000	92.134142 
1141.000000	92.028528 
1140.000000	91.925814 
1139.000000	91.827204 
1138.000000	91.730543 
1137.000000	91.633104 
1136.000000	91.534652 
1135.000000	91.435650 
1134.000000	91.335080 
1133.000000	91.233059 
1132.000000	91.132583 
1131.000000	91.034685 
1130.000000	90.935034 
1129.000000	90.830202 
1128.000000	90.724118 
1127.000000	90.622418 
1126.000000	90.523127 
1125.000000	90.419716 
1124.000000	90.311329 
1123.000000	90.202587 
1122.000000	90.094668 
1121.000000	89.984579 
1120.000000	89.873079 
1119.000000	89.765223 
1118.000000	89.662255 
1117.000000	89.560276 
1116.000000	89.457570 
1115.000000	89.356091 
1114.000000	89.255289 
1113.000000	89.152001 
1112.000000	89.047172 
1111.000000	88.945059 
1110.000000	88.845881 
1109.000000	88.746797 
1108.000000	88.648623 
1107.000000	88.554120 
1106.000000	88.460754 
1105.000000	88.363923 
1104.000000	88.266864 
1103.000000	88.177727 
1102.000000	88.096286 
1101.000000	88.013977 
1100.000000	87.926969 
1099.000000	87.841405 
1098.000000	87.762122 
1097.000000	87.686262 
1096.000000	87.610687 
1095.000000	87.536076 
1094.000000	87.461385 
1093.000000	87.382544 
1092.000000	87.299770 
1091.000000	87.218813 
1090.000000	87.142940 
1089.000000	87.070865 
1088.000000	87.003696 
1087.000000	86.945654 
1086.000000	86.896256 
1085.000000	86.849766 
1084.000000	86.803830 
1083.000000	86.761096 
1082.000000	86.721876 
1081.000000	86.683446 
1080.000000	86.646868 
1079.000000	86.615829 
1078.000000	86.588680 
1077.000000	86.560653 
1076.000000	86.533258 
1075.000000	86.511039 
1074.000000	86.489213 
1073.000000	86.455467 
1072.000000	86.403304 
1071.000000	86.331351 
1070.000000	86.230130 
1069.000000	86.085423 
1068.000000	85.900255 
1067.000000	85.702300 
1066.000000	85.521272 
1065.000000	85.364737 
1064.000000	85.220893 
1063.000000	85.074511 
1062.000000	84.913818 
1061.000000	84.733031 
1060.000000	84.538360 
1059.000000	84.347051 
1058.000000	84.174056 
1057.000000	84.022042 
1056.000000	83.885155 
1055.000000	83.755186 
1054.000000	83.622735 
1053.000000	83.482084 
1052.000000	83.338922 
1051.000000	83.204832 
1050.000000	83.080765 
1049.000000	82.955383 
1048.000000	82.822113 
1047.000000	82.686787 
1046.000000	82.556395 
1045.000000	82.431323 
1044.000000	82.310375 
1043.000000	82.193153 
1042.000000	82.075698 
1041.000000	81.953253 
1040.000000	81.829471 
1039.000000	81.714716 
1038.000000	81.614231 
1037.000000	81.525845 
1036.000000	81.448527 
1035.000000	81.383659 
1034.000000	81.328299 
1033.000000	81.276513 
1032.000000	81.226135 
1031.000000	81.175603 
1030.000000	81.118713 
1029.000000	81.055095 
1028.000000	81.001931 
1027.000000	80.979296 
1026.000000	80.984092 
1025.000000	80.992777 
1024.000000	80.989835 
1023.000000	80.978592 
1022.000000	80.964586 
1021.000000	80.945813 
1020.000000	80.922266 
1019.000000	80.899604 
1018.000000	80.878612 
1017.000000	80.853342 
1016.000000	80.823076 
1015.000000	80.794564 
1014.000000	80.770340 
1013.000000	80.746886 
1012.000000	80.726118 
1011.000000	80.715874 
1010.000000	80.716416 
1009.000000	80.718640 
1008.000000	80.718554 
1007.000000	80.722336 
1006.000000	80.734783 
1005.000000	80.753858 
1004.000000	80.778563 
1003.000000	80.811425 
1002.000000	80.851317 
1001.000000	80.894042 
1000.000000	80.940916 
999.000000	 80.996587 
998.000000	 81.058411 
997.000000	 81.118761 
996.000000	 81.177607 
995.000000	 81.241501 
994.000000	 81.310705 
993.000000	 81.379544 
992.000000	 81.449483 
991.000000	 81.529296 
990.000000	 81.621189 
989.000000	 81.718088 
988.000000	 81.815227 
987.000000	 81.913608 
986.000000	 82.012375 
985.000000	 82.109700 
984.000000	 82.211156 
983.000000	 82.325148 
982.000000	 82.450055 
981.000000	 82.577154 
980.000000	 82.705897 
979.000000	 82.844331 
978.000000	 82.994395 
977.000000	 83.149292 
976.000000	 83.305944 
975.000000	 83.467893 
974.000000	 83.635075 
973.000000	 83.802749 
972.000000	 83.971638 
971.000000	 84.147501 
970.000000	 84.329372 
969.000000	 84.509305 
968.000000	 84.685025 
967.000000	 84.862142 
966.000000	 85.042787 
965.000000	 85.222789 
964.000000	 85.401453 
963.000000	 85.583607 
962.000000	 85.769830 
961.000000	 85.953934 
960.000000	 86.131822 
959.000000	 86.304499 
958.000000	 86.471920 
957.000000	 86.632878 
956.000000	 86.791668 
955.000000	 86.955471 
954.000000	 87.123191 
953.000000	 87.285054 
952.000000	 87.434934 
951.000000	 87.575883 
950.000000	 87.713005 
949.000000	 87.848114 
948.000000	 87.982144 
947.000000	 88.115848 
946.000000	 88.246892 
945.000000	 88.371810 
944.000000	 88.490843 
943.000000	 88.606030 
942.000000	 88.716409 
941.000000	 88.820863 
940.000000	 88.923270 
939.000000	 89.028238 
938.000000	 89.134179 
937.000000	 89.237820 
936.000000	 89.342545 
935.000000	 89.454005 
934.000000	 89.569998 
933.000000	 89.683568 
932.000000	 89.793960 
931.000000	 89.905260 
930.000000	 90.015947 
929.000000	 90.119718 
928.000000	 90.216086 
927.000000	 90.310827 
926.000000	 90.406137 
925.000000	 90.498606 
924.000000	 90.586532 
923.000000	 90.671102 
922.000000	 90.750560 
921.000000	 90.821401 
920.000000	 90.885781 
919.000000	 90.950081 
918.000000	 91.015783 
917.000000	 91.079107 
916.000000	 91.139705 
915.000000	 91.201910 
914.000000	 91.267175 
913.000000	 91.333834 
912.000000	 91.405762 
911.000000	 91.492791 
910.000000	 91.599556 
909.000000	 91.720352 
908.000000	 91.847059 
907.000000	 91.975976 
906.000000	 92.105220 
905.000000	 92.231987 
904.000000	 92.355638 
903.000000	 92.479969 
902.000000	 92.610687 
901.000000	 92.752191 
900.000000	 92.904857 
899.000000	 93.062197 
898.000000	 93.213085 
897.000000	 93.351818 
896.000000	 93.483437 
895.000000	 93.615025 
894.000000	 93.745629 
893.000000	 93.870182 
892.000000	 93.988742 
891.000000	 94.103046 
890.000000	 94.204549 
889.000000	 94.272439 
888.000000	 94.283992 
887.000000	 94.225239 
886.000000	 94.097858 
885.000000	 93.922957 
884.000000	 93.733773 
883.000000	 93.553636 
882.000000	 93.379698 
881.000000	 93.196280 
880.000000	 93.004041 
879.000000	 92.826259 
878.000000	 92.686079 
877.000000	 92.590583 
876.000000	 92.541276 
875.000000	 92.547316 
874.000000	 92.621648 
873.000000	 92.773155 
872.000000	 93.005855 
871.000000	 93.314337 
870.000000	 93.674672 
869.000000	 94.049248 
868.000000	 94.406595 
867.000000	 94.733105 
866.000000	 95.027143 
865.000000	 95.290325 
864.000000	 95.526529 
863.000000	 95.742307 
862.000000	 95.943265 
861.000000	 96.131871 
860.000000	 96.310129 
859.000000	 96.481282 
858.000000	 96.646526 
857.000000	 96.801842 
856.000000	 96.940691 
855.000000	 97.060685 
854.000000	 97.167103 
853.000000	 97.268048 
852.000000	 97.364513 
851.000000	 97.447244 
850.000000	 97.507881 
849.000000	 97.553243 
848.000000	 97.603072 
847.000000	 97.670983 
846.000000	 97.751907 
845.000000	 97.831343 
844.000000	 97.901721 
843.000000	 97.964531 
842.000000	 98.021069 
841.000000	 98.068991 
840.000000	 98.107550 
839.000000	 98.140236 
838.000000	 98.170890 
837.000000	 98.200050 
836.000000	 98.225228 
835.000000	 98.242852 
834.000000	 98.251431 
833.000000	 98.255263 
832.000000	 98.262979 
831.000000	 98.278996 
830.000000	 98.297987 
829.000000	 98.311886 
828.000000	 98.320995 
827.000000	 98.333462 
826.000000	 98.354732 
825.000000	 98.382541 
824.000000	 98.411553 
823.000000	 98.436660 
822.000000	 98.451447 
821.000000	 98.449829 
820.000000	 98.431420 
819.000000	 98.402335 
818.000000	 98.369650 
817.000000	 98.335634 
816.000000	 98.295098 
815.000000	 98.235443 
814.000000	 98.140793 
813.000000	 97.999599 
812.000000	 97.808310 
811.000000	 97.566348 
810.000000	 97.269591 
809.000000	 96.912160 
808.000000	 96.493621 
807.000000	 96.020766 
806.000000	 95.503088 
805.000000	 94.952521 
804.000000	 94.389681 
803.000000	 93.843953 
802.000000	 93.343163 
801.000000	 92.907214 
800.000000	 92.552260 
799.000000	 92.291109 
798.000000	 92.124854 
797.000000	 92.042106 
796.000000	 92.029601 
795.000000	 92.075763 
794.000000	 92.163411 
793.000000	 92.269891 
792.000000	 92.377619 
791.000000	 92.476700 
790.000000	 92.556409 
789.000000	 92.603013 
788.000000	 92.607623 
787.000000	 92.568384 
786.000000	 92.483646 
785.000000	 92.351304 
784.000000	 92.177736 
783.000000	 91.980157 
782.000000	 91.776897 
781.000000	 91.581559 
780.000000	 91.409181 
779.000000	 91.280367 
778.000000	 91.214407 
777.000000	 91.222341 
776.000000	 91.306689 
775.000000	 91.459731 
774.000000	 91.660681 
773.000000	 91.882909 
772.000000	 92.106946 
771.000000	 92.322890 
770.000000	 92.523486 
769.000000	 92.702556 
768.000000	 92.858785 
767.000000	 92.994376 
766.000000	 93.111517 
765.000000	 93.215797 
764.000000	 93.319530 
763.000000	 93.433828 
762.000000	 93.559084 
761.000000	 93.689750 
760.000000	 93.825074 
759.000000	 93.966916 
758.000000	 94.110463 
757.000000	 94.246892 
756.000000	 94.373419 
755.000000	 94.492156 
754.000000	 94.601925 
753.000000	 94.700716 
752.000000	 94.793404 
751.000000	 94.886481 
750.000000	 94.976568 
749.000000	 95.055051 
748.000000	 95.124306 
747.000000	 95.198646 
746.000000	 95.286964 
745.000000	 95.383592 
744.000000	 95.479334 
743.000000	 95.573717 
742.000000	 95.673192 
741.000000	 95.782966 
740.000000	 95.902425 
739.000000	 96.023684 
738.000000	 96.134261 
737.000000	 96.226310 
736.000000	 96.303263 
735.000000	 96.373137 
734.000000	 96.437305 
733.000000	 96.491555 
732.000000	 96.535991 
731.000000	 96.576833 
730.000000	 96.618667 
729.000000	 96.661247 
728.000000	 96.703080 
727.000000	 96.742719 
726.000000	 96.778126 
725.000000	 96.809567 
724.000000	 96.841804 
723.000000	 96.878428 
722.000000	 96.915312 
721.000000	 96.944126 
720.000000	 96.959718 
719.000000	 96.958060 
718.000000	 96.930064 
717.000000	 96.867087 
716.000000	 96.775191 
715.000000	 96.679586 
714.000000	 96.613667 
713.000000	 96.605240 
712.000000	 96.667507 
711.000000	 96.792490 
710.000000	 96.952026 
709.000000	 97.113643 
708.000000	 97.256992 
707.000000	 97.372058 
706.000000	 97.449942 
705.000000	 97.484619 
704.000000	 97.479171 
703.000000	 97.439275 
702.000000	 97.359510 
701.000000	 97.225503 
700.000000	 97.031837 
699.000000	 96.789193 
698.000000	 96.516879 
697.000000	 96.241489 
696.000000	 96.003433 
695.000000	 95.848744 
694.000000	 95.802015 
693.000000	 95.853161 
692.000000	 95.973791 
691.000000	 96.137621 
690.000000	 96.324588 
689.000000	 96.516323 
688.000000	 96.697085 
687.000000	 96.857111 
686.000000	 96.989372 
685.000000	 97.089650 
684.000000	 97.165461 
683.000000	 97.235302 
682.000000	 97.311732 
681.000000	 97.390056 
680.000000	 97.458970 
679.000000	 97.516342 
678.000000	 97.568089 
677.000000	 97.619168 
676.000000	 97.669649 
675.000000	 97.715435 
674.000000	 97.753115 
673.000000	 97.782892 
672.000000	 97.805352 
671.000000	 97.817982 
670.000000	 97.820915 
669.000000	 97.827791 
668.000000	 97.874536 
667.000000	 97.979345 
666.000000	 98.090264 
665.000000	 98.172470 
664.000000	 98.236413 
663.000000	 98.295712 
662.000000	 98.352824 
661.000000	 98.405630 
660.000000	 98.453726 
659.000000	 98.492875 
658.000000	 98.514603 
657.000000	 98.519353 
656.000000	 98.515627 
655.000000	 98.502394 
654.000000	 98.468666 
653.000000	 98.412530 
652.000000	 98.350409 
651.000000	 98.309575 
650.000000	 98.313874 

