4000.000000	100.079752 
3999.000000	100.079284 
3998.000000	100.078842 
3997.000000	100.078442 
3996.000000	100.078077 
3995.000000	100.077710 
3994.000000	100.077329 
3993.000000	100.076942 
3992.000000	100.076553 
3991.000000	100.076156 
3990.000000	100.075738 
3989.000000	100.075304 
3988.000000	100.074872 
3987.000000	100.074445 
3986.000000	100.074016 
3985.000000	100.073583 
3984.000000	100.073149 
3983.000000	100.072714 
3982.000000	100.072283 
3981.000000	100.071857 
3980.000000	100.071433 
3979.000000	100.071009 
3978.000000	100.070583 
3977.000000	100.070157 
3976.000000	100.069732 
3975.000000	100.069310 
3974.000000	100.068892 
3973.000000	100.068477 
3972.000000	100.068068 
3971.000000	100.067663 
3970.000000	100.067262 
3969.000000	100.066863 
3968.000000	100.066463 
3967.000000	100.066059 
3966.000000	100.065652 
3965.000000	100.065247 
3964.000000	100.064850 
3963.000000	100.064458 
3962.000000	100.064061 
3961.000000	100.063651 
3960.000000	100.063229 
3959.000000	100.062802 
3958.000000	100.062373 
3957.000000	100.061939 
3956.000000	100.061495 
3955.000000	100.061041 
3954.000000	100.060576 
3953.000000	100.060102 
3952.000000	100.059633 
3951.000000	100.059193 
3950.000000	100.058809 
3949.000000	100.058489 
3948.000000	100.058193 
3947.000000	100.057846 
3946.000000	100.057392 
3945.000000	100.056817 
3944.000000	100.056175 
3943.000000	100.055567 
3942.000000	100.055070 
3941.000000	100.054682 
3940.000000	100.054313 
3939.000000	100.053846 
3938.000000	100.053213 
3937.000000	100.052443 
3936.000000	100.051678 
3935.000000	100.051099 
3934.000000	100.050809 
3933.000000	100.050778 
3932.000000	100.050867 
3931.000000	100.050926 
3930.000000	100.050823 
3929.000000	100.050432 
3928.000000	100.049654 
3927.000000	100.048529 
3926.000000	100.047256 
3925.000000	100.046065 
3924.000000	100.045141 
3923.000000	100.044564 
3922.000000	100.044235 
3921.000000	100.043878 
3920.000000	100.043256 
3919.000000	100.042384 
3918.000000	100.041478 
3917.000000	100.040686 
3916.000000	100.040004 
3915.000000	100.039421 
3914.000000	100.038997 
3913.000000	100.038744 
3912.000000	100.038589 
3911.000000	100.038391 
3910.000000	100.037981 
3909.000000	100.037176 
3908.000000	100.035902 
3907.000000	100.034282 
3906.000000	100.032594 
3905.000000	100.031063 
3904.000000	100.029766 
3903.000000	100.028787 
3902.000000	100.028285 
3901.000000	100.028307 
3900.000000	100.028563 
3899.000000	100.028584 
3898.000000	100.028158 
3897.000000	100.027378 
3896.000000	100.026428 
3895.000000	100.025449 
3894.000000	100.024583 
3893.000000	100.023945 
3892.000000	100.023488 
3891.000000	100.022872 
3890.000000	100.021790 
3889.000000	100.020386 
3888.000000	100.019208 
3887.000000	100.018586 
3886.000000	100.018186 
3885.000000	100.017370 
3884.000000	100.016054 
3883.000000	100.014793 
3882.000000	100.014119 
3881.000000	100.014060 
3880.000000	100.014157 
3879.000000	100.013886 
3878.000000	100.013119 
3877.000000	100.012182 
3876.000000	100.011447 
3875.000000	100.010788 
3874.000000	100.009655 
3873.000000	100.007972 
3872.000000	100.006497 
3871.000000	100.005836 
3870.000000	100.005547 
3869.000000	100.004833 
3868.000000	100.003971 
3867.000000	100.004043 
3866.000000	100.005381 
3865.000000	100.007015 
3864.000000	100.007994 
3863.000000	100.008185 
3862.000000	100.007759 
3861.000000	100.006544 
3860.000000	100.004362 
3859.000000	100.001073 
3858.000000	99.996911  
3857.000000	99.992917  
3856.000000	99.990812  
3855.000000	99.991401  
3854.000000	99.993190  
3853.000000	99.994436  
3852.000000	99.995451  
3851.000000	99.996736  
3850.000000	99.998135  
3849.000000	99.999271  
3848.000000	99.999975  
3847.000000	100.000399 
3846.000000	100.000675 
3845.000000	100.000836 
3844.000000	100.000966 
3843.000000	100.000872 
3842.000000	100.000478 
3841.000000	100.000080 
3840.000000	99.999848  
3839.000000	99.999454  
3838.000000	99.998739  
3837.000000	99.998030  
3836.000000	99.997676  
3835.000000	99.997565  
3834.000000	99.997511  
3833.000000	99.997564  
3832.000000	99.997861  
3831.000000	99.998442  
3830.000000	99.999089  
3829.000000	99.999421  
3828.000000	99.999345  
3827.000000	99.999033  
3826.000000	99.998661  
3825.000000	99.998378  
3824.000000	99.998285  
3823.000000	99.998062  
3822.000000	99.997116  
3821.000000	99.995408  
3820.000000	99.993735  
3819.000000	99.992829  
3818.000000	99.992783  
3817.000000	99.993258  
3816.000000	99.993636  
3815.000000	99.993553  
3814.000000	99.993166  
3813.000000	99.992739  
3812.000000	99.992350  
3811.000000	99.992013  
3810.000000	99.991807  
3809.000000	99.991817  
3808.000000	99.991920  
3807.000000	99.991752  
3806.000000	99.991083  
3805.000000	99.990024  
3804.000000	99.988932  
3803.000000	99.988082  
3802.000000	99.987449  
3801.000000	99.986900  
3800.000000	99.986502  
3799.000000	99.986326  
3798.000000	99.986275  
3797.000000	99.986182  
3796.000000	99.985893  
3795.000000	99.985446  
3794.000000	99.985034  
3793.000000	99.984732  
3792.000000	99.984380  
3791.000000	99.983821  
3790.000000	99.983109  
3789.000000	99.982480  
3788.000000	99.982070  
3787.000000	99.981746  
3786.000000	99.981264  
3785.000000	99.980592  
3784.000000	99.980060  
3783.000000	99.980121  
3782.000000	99.980895  
3781.000000	99.981902  
3780.000000	99.982456  
3779.000000	99.982339  
3778.000000	99.981997  
3777.000000	99.981925  
3776.000000	99.982124  
3775.000000	99.982064  
3774.000000	99.981253  
3773.000000	99.979739  
3772.000000	99.977966  
3771.000000	99.975969  
3770.000000	99.973579  
3769.000000	99.971448  
3768.000000	99.970619  
3767.000000	99.971480  
3766.000000	99.973559  
3765.000000	99.975899  
3764.000000	99.977937  
3763.000000	99.979817  
3762.000000	99.981351  
3761.000000	99.981040  
3760.000000	99.977885  
3759.000000	99.973447  
3758.000000	99.969969  
3757.000000	99.967348  
3756.000000	99.964695  
3755.000000	99.962670  
3754.000000	99.962259  
3753.000000	99.962441  
3752.000000	99.961195  
3751.000000	99.959489  
3750.000000	99.960184  
3749.000000	99.962037  
3748.000000	99.961531  
3747.000000	99.959844  
3746.000000	99.960872  
3745.000000	99.964420  
3744.000000	99.966439  
3743.000000	99.966092  
3742.000000	99.966573  
3741.000000	99.969239  
3740.000000	99.972196  
3739.000000	99.973706  
3738.000000	99.974088  
3737.000000	99.974184  
3736.000000	99.973900  
3735.000000	99.972911  
3734.000000	99.971498  
3733.000000	99.969644  
3732.000000	99.966730  
3731.000000	99.962525  
3730.000000	99.957384  
3729.000000	99.952732  
3728.000000	99.950361  
3727.000000	99.950669  
3726.000000	99.952060  
3725.000000	99.952562  
3724.000000	99.950943  
3723.000000	99.947025  
3722.000000	99.942204  
3721.000000	99.938151  
3720.000000	99.935038  
3719.000000	99.932145  
3718.000000	99.928772  
3717.000000	99.924417  
3716.000000	99.919510  
3715.000000	99.914562  
3714.000000	99.908311  
3713.000000	99.897709  
3712.000000	99.881482  
3711.000000	99.863142  
3710.000000	99.848011  
3709.000000	99.838649  
3708.000000	99.833626  
3707.000000	99.828846  
3706.000000	99.820133  
3705.000000	99.805632  
3704.000000	99.786421  
3703.000000	99.765282  
3702.000000	99.744853  
3701.000000	99.726148  
3700.000000	99.708410  
3699.000000	99.690959  
3698.000000	99.673883  
3697.000000	99.656756  
3696.000000	99.638927  
3695.000000	99.620933  
3694.000000	99.604246  
3693.000000	99.589919  
3692.000000	99.578298  
3691.000000	99.569205  
3690.000000	99.561480  
3689.000000	99.553164  
3688.000000	99.542864  
3687.000000	99.530953  
3686.000000	99.520416  
3685.000000	99.514963  
3684.000000	99.516034  
3683.000000	99.521959  
3682.000000	99.528529  
3681.000000	99.529759  
3680.000000	99.519254  
3679.000000	99.494769  
3678.000000	99.461949  
3677.000000	99.431897  
3676.000000	99.413871  
3675.000000	99.410203  
3674.000000	99.416284  
3673.000000	99.426138  
3672.000000	99.436873  
3671.000000	99.446144  
3670.000000	99.451010  
3669.000000	99.451842  
3668.000000	99.451678  
3667.000000	99.451339  
3666.000000	99.449508  
3665.000000	99.445356  
3664.000000	99.440177  
3663.000000	99.437081  
3662.000000	99.438206  
3661.000000	99.442874  
3660.000000	99.448970  
3659.000000	99.455920  
3658.000000	99.465121  
3657.000000	99.477576  
3656.000000	99.491688  
3655.000000	99.504447  
3654.000000	99.514117  
3653.000000	99.521129  
3652.000000	99.526628  
3651.000000	99.531219  
3650.000000	99.536020  
3649.000000	99.543775  
3648.000000	99.556335  
3647.000000	99.572212  
3646.000000	99.588731  
3645.000000	99.604088  
3644.000000	99.617233  
3643.000000	99.627975  
3642.000000	99.637410  
3641.000000	99.647589  
3640.000000	99.659574  
3639.000000	99.671838  
3638.000000	99.681723  
3637.000000	99.688811  
3636.000000	99.695464  
3635.000000	99.703464  
3634.000000	99.711327  
3633.000000	99.716631  
3632.000000	99.719577  
3631.000000	99.722113  
3630.000000	99.724470  
3629.000000	99.725476  
3628.000000	99.726447  
3627.000000	99.729847  
3626.000000	99.735554  
3625.000000	99.741804  
3624.000000	99.747511  
3623.000000	99.752961  
3622.000000	99.758871  
3621.000000	99.764160  
3620.000000	99.766232  
3619.000000	99.764451  
3618.000000	99.761534  
3617.000000	99.760588  
3616.000000	99.762874  
3615.000000	99.767613  
3614.000000	99.772600  
3613.000000	99.775822  
3612.000000	99.777068  
3611.000000	99.777860  
3610.000000	99.779975  
3609.000000	99.784238  
3608.000000	99.790337  
3607.000000	99.797341  
3606.000000	99.803887  
3605.000000	99.808386  
3604.000000	99.809785  
3603.000000	99.808502  
3602.000000	99.806657  
3601.000000	99.806556  
3600.000000	99.808718  
3599.000000	99.811830  
3598.000000	99.814075  
3597.000000	99.814907  
3596.000000	99.815404  
3595.000000	99.816833  
3594.000000	99.819133  
3593.000000	99.821102  
3592.000000	99.821781  
3591.000000	99.821539  
3590.000000	99.821710  
3589.000000	99.823306  
3588.000000	99.826026  
3587.000000	99.828578  
3586.000000	99.829917  
3585.000000	99.830003  
3584.000000	99.829550  
3583.000000	99.829469  
3582.000000	99.830372  
3581.000000	99.832253  
3580.000000	99.834474  
3579.000000	99.836226  
3578.000000	99.837141  
3577.000000	99.837435  
3576.000000	99.837568  
3575.000000	99.837774  
3574.000000	99.837945  
3573.000000	99.837926  
3572.000000	99.837771  
3571.000000	99.837752  
3570.000000	99.838218  
3569.000000	99.839316  
3568.000000	99.840783  
3567.000000	99.842080  
3566.000000	99.842896  
3565.000000	99.843425  
3564.000000	99.844115  
3563.000000	99.845225  
3562.000000	99.846580  
3561.000000	99.847670  
3560.000000	99.848050  
3559.000000	99.847732  
3558.000000	99.847216  
3557.000000	99.847068  
3556.000000	99.847407  
3555.000000	99.847885  
3554.000000	99.848086  
3553.000000	99.847911  
3552.000000	99.847570  
3551.000000	99.847293  
3550.000000	99.847165  
3549.000000	99.847241  
3548.000000	99.847677  
3547.000000	99.848619  
3546.000000	99.849934  
3545.000000	99.851162  
3544.000000	99.851881  
3543.000000	99.852014  
3542.000000	99.851784  
3541.000000	99.851468  
3540.000000	99.851236  
3539.000000	99.851201  
3538.000000	99.851490  
3537.000000	99.852135  
3536.000000	99.852941  
3535.000000	99.853561  
3534.000000	99.853750  
3533.000000	99.853516  
3532.000000	99.853042  
3531.000000	99.852557  
3530.000000	99.852255  
3529.000000	99.852275  
3528.000000	99.852645  
3527.000000	99.853252  
3526.000000	99.853910  
3525.000000	99.854487  
3524.000000	99.854950  
3523.000000	99.855285  
3522.000000	99.855454  
3521.000000	99.855431  
3520.000000	99.855284  
3519.000000	99.855171  
3518.000000	99.855254  
3517.000000	99.855622  
3516.000000	99.856271  
3515.000000	99.857095  
3514.000000	99.857875  
3513.000000	99.858337  
3512.000000	99.858313  
3511.000000	99.857880  
3510.000000	99.857351  
3509.000000	99.857022  
3508.000000	99.856920  
3507.000000	99.856886  
3506.000000	99.856834  
3505.000000	99.856864  
3504.000000	99.857120  
3503.000000	99.857631  
3502.000000	99.858337  
3501.000000	99.859111  
3500.000000	99.859690  
3499.000000	99.859706  
3498.000000	99.858962  
3497.000000	99.857691  
3496.000000	99.856481  
3495.000000	99.855786  
3494.000000	99.855641  
3493.000000	99.855841  
3492.000000	99.856243  
3491.000000	99.856769  
3490.000000	99.857267  
3489.000000	99.857530  
3488.000000	99.857491  
3487.000000	99.857270  
3486.000000	99.856977  
3485.000000	99.856531  
3484.000000	99.855774  
3483.000000	99.854745  
3482.000000	99.853782  
3481.000000	99.853276  
3480.000000	99.853303  
3479.000000	99.853533  
3478.000000	99.853488  
3477.000000	99.852949  
3476.000000	99.852066  
3475.000000	99.851208  
3474.000000	99.850723  
3473.000000	99.850776  
3472.000000	99.851278  
3471.000000	99.851899  
3470.000000	99.852254  
3469.000000	99.852191  
3468.000000	99.851843  
3467.000000	99.851371  
3466.000000	99.850705  
3465.000000	99.849657  
3464.000000	99.848265  
3463.000000	99.846958  
3462.000000	99.846245  
3461.000000	99.846235  
3460.000000	99.846495  
3459.000000	99.846411  
3458.000000	99.845799  
3457.000000	99.845083  
3456.000000	99.844839  
3455.000000	99.845186  
3454.000000	99.845668  
3453.000000	99.845653  
3452.000000	99.844801  
3451.000000	99.843324  
3450.000000	99.841946  
3449.000000	99.841512  
3448.000000	99.842388  
3447.000000	99.844133  
3446.000000	99.845798  
3445.000000	99.846702  
3444.000000	99.846829  
3443.000000	99.846567  
3442.000000	99.846268  
3441.000000	99.846014  
3440.000000	99.845644  
3439.000000	99.844907  
3438.000000	99.843664  
3437.000000	99.842026  
3436.000000	99.840259  
3435.000000	99.838622  
3434.000000	99.837346  
3433.000000	99.836563  
3432.000000	99.836145  
3431.000000	99.835707  
3430.000000	99.834953  
3429.000000	99.833963  
3428.000000	99.833016  
3427.000000	99.832193  
3426.000000	99.831355  
3425.000000	99.830482  
3424.000000	99.829791  
3423.000000	99.829443  
3422.000000	99.829262  
3421.000000	99.828871  
3420.000000	99.828079  
3419.000000	99.827077  
3418.000000	99.826293  
3417.000000	99.826023  
3416.000000	99.826161  
3415.000000	99.826242  
3414.000000	99.825831  
3413.000000	99.824914  
3412.000000	99.823867  
3411.000000	99.823124  
3410.000000	99.822804  
3409.000000	99.822727  
3408.000000	99.822630  
3407.000000	99.822363  
3406.000000	99.821912  
3405.000000	99.821345  
3404.000000	99.820775  
3403.000000	99.820280  
3402.000000	99.819840  
3401.000000	99.819377  
3400.000000	99.818852  
3399.000000	99.818296  
3398.000000	99.817772  
3397.000000	99.817325  
3396.000000	99.816953  
3395.000000	99.816616  
3394.000000	99.816279  
3393.000000	99.815955  
3392.000000	99.815706  
3391.000000	99.815557  
3390.000000	99.815436  
3389.000000	99.815214  
3388.000000	99.814833  
3387.000000	99.814355  
3386.000000	99.813899  
3385.000000	99.813547  
3384.000000	99.813316  
3383.000000	99.813157  
3382.000000	99.812969  
3381.000000	99.812716  
3380.000000	99.812561  
3379.000000	99.812769  
3378.000000	99.813389  
3377.000000	99.814098  
3376.000000	99.814486  
3375.000000	99.814426  
3374.000000	99.814046  
3373.000000	99.813493  
3372.000000	99.812844  
3371.000000	99.812235  
3370.000000	99.811805  
3369.000000	99.811438  
3368.000000	99.810825  
3367.000000	99.809863  
3366.000000	99.808819  
3365.000000	99.808054  
3364.000000	99.807738  
3363.000000	99.807872  
3362.000000	99.808444  
3361.000000	99.809376  
3360.000000	99.810400  
3359.000000	99.811127  
3358.000000	99.811301  
3357.000000	99.810935  
3356.000000	99.810233  
3355.000000	99.809458  
3354.000000	99.808838  
3353.000000	99.808462  
3352.000000	99.808238  
3351.000000	99.808006  
3350.000000	99.807700  
3349.000000	99.807407  
3348.000000	99.807232  
3347.000000	99.807168  
3346.000000	99.807096  
3345.000000	99.806899  
3344.000000	99.806561  
3343.000000	99.806137  
3342.000000	99.805693  
3341.000000	99.805272  
3340.000000	99.804899  
3339.000000	99.804568  
3338.000000	99.804223  
3337.000000	99.803791  
3336.000000	99.803282  
3335.000000	99.802828  
3334.000000	99.802553  
3333.000000	99.802373  
3332.000000	99.802020  
3331.000000	99.801324  
3330.000000	99.800434  
3329.000000	99.799726  
3328.000000	99.799420  
3327.000000	99.799379  
3326.000000	99.799275  
3325.000000	99.798949  
3324.000000	99.798459  
3323.000000	99.797840  
3322.000000	99.797024  
3321.000000	99.796033  
3320.000000	99.795112  
3319.000000	99.794531  
3318.000000	99.794272  
3317.000000	99.793971  
3316.000000	99.793209  
3315.000000	99.791892  
3314.000000	99.790410  
3313.000000	99.789386  
3312.000000	99.789198  
3311.000000	99.789752  
3310.000000	99.790636  
3309.000000	99.791410  
3308.000000	99.791730  
3307.000000	99.791330  
3306.000000	99.790096  
3305.000000	99.788217  
3304.000000	99.786099  
3303.000000	99.784051  
3302.000000	99.782166  
3301.000000	99.780513  
3300.000000	99.779228  
3299.000000	99.778334  
3298.000000	99.777645  
3297.000000	99.777036  
3296.000000	99.776714  
3295.000000	99.777014  
3294.000000	99.777895  
3293.000000	99.778806  
3292.000000	99.779146  
3291.000000	99.778835  
3290.000000	99.778368  
3289.000000	99.778301  
3288.000000	99.778666  
3287.000000	99.778900  
3286.000000	99.778313  
3285.000000	99.776651  
3284.000000	99.774259  
3283.000000	99.771823  
3282.000000	99.769950  
3281.000000	99.768891  
3280.000000	99.768585  
3279.000000	99.768865  
3278.000000	99.769569  
3277.000000	99.770400  
3276.000000	99.770793  
3275.000000	99.770202  
3274.000000	99.768610  
3273.000000	99.766684  
3272.000000	99.765275  
3271.000000	99.764734  
3270.000000	99.764840  
3269.000000	99.765168  
3268.000000	99.765327  
3267.000000	99.764936  
3266.000000	99.763673  
3265.000000	99.761553  
3264.000000	99.759061  
3263.000000	99.756854  
3262.000000	99.755274  
3261.000000	99.754258  
3260.000000	99.753594  
3259.000000	99.753144  
3258.000000	99.752814  
3257.000000	99.752419  
3256.000000	99.751703  
3255.000000	99.750521  
3254.000000	99.748987  
3253.000000	99.747396  
3252.000000	99.745990  
3251.000000	99.744752  
3250.000000	99.743451  
3249.000000	99.741920  
3248.000000	99.740321  
3247.000000	99.739135  
3246.000000	99.738832  
3245.000000	99.739457  
3244.000000	99.740513  
3243.000000	99.741276  
3242.000000	99.741280  
3241.000000	99.740484  
3240.000000	99.739073  
3239.000000	99.737354  
3238.000000	99.735799  
3237.000000	99.734849  
3236.000000	99.734388  
3235.000000	99.733630  
3234.000000	99.731897  
3233.000000	99.729451  
3232.000000	99.727305  
3231.000000	99.726069  
3230.000000	99.725275  
3229.000000	99.723969  
3228.000000	99.721742  
3227.000000	99.719112  
3226.000000	99.716981  
3225.000000	99.715806  
3224.000000	99.715232  
3223.000000	99.714520  
3222.000000	99.713410  
3221.000000	99.712457  
3220.000000	99.712364  
3219.000000	99.713092  
3218.000000	99.713893  
3217.000000	99.714169  
3216.000000	99.714024  
3215.000000	99.713943  
3214.000000	99.714235  
3213.000000	99.714864  
3212.000000	99.715610  
3211.000000	99.716207  
3210.000000	99.716380  
3209.000000	99.715906  
3208.000000	99.714703  
3207.000000	99.712911  
3206.000000	99.710934  
3205.000000	99.709343  
3204.000000	99.708579  
3203.000000	99.708733  
3202.000000	99.709637  
3201.000000	99.711060  
3200.000000	99.712692  
3199.000000	99.714006  
3198.000000	99.714453  
3197.000000	99.713909  
3196.000000	99.712839  
3195.000000	99.711973  
3194.000000	99.711752  
3193.000000	99.712118  
3192.000000	99.712690  
3191.000000	99.713032  
3190.000000	99.712857  
3189.000000	99.712156  
3188.000000	99.711204  
3187.000000	99.710422  
3186.000000	99.710100  
3185.000000	99.710241  
3184.000000	99.710611  
3183.000000	99.710913  
3182.000000	99.710971  
3181.000000	99.710777  
3180.000000	99.710441  
3179.000000	99.710108  
3178.000000	99.709874  
3177.000000	99.709748  
3176.000000	99.709663  
3175.000000	99.709540  
3174.000000	99.709357  
3173.000000	99.709161  
3172.000000	99.709016  
3171.000000	99.708954  
3170.000000	99.708970  
3169.000000	99.709014  
3168.000000	99.708976  
3167.000000	99.708735  
3166.000000	99.708263  
3165.000000	99.707690  
3164.000000	99.707206  
3163.000000	99.706899  
3162.000000	99.706708  
3161.000000	99.706502  
3160.000000	99.706189  
3159.000000	99.705755  
3158.000000	99.705257  
3157.000000	99.704768  
3156.000000	99.704311  
3155.000000	99.703878  
3154.000000	99.703522  
3153.000000	99.703331  
3152.000000	99.703278  
3151.000000	99.703151  
3150.000000	99.702770  
3149.000000	99.702242  
3148.000000	99.701857  
3147.000000	99.701776  
3146.000000	99.701960  
3145.000000	99.702357  
3144.000000	99.702945  
3143.000000	99.703535  
3142.000000	99.703751  
3141.000000	99.703353  
3140.000000	99.702486  
3139.000000	99.701622  
3138.000000	99.701196  
3137.000000	99.701291  
3136.000000	99.701635  
3135.000000	99.701817  
3134.000000	99.701614  
3133.000000	99.701107  
3132.000000	99.700495  
3131.000000	99.699885  
3130.000000	99.699345  
3129.000000	99.699106  
3128.000000	99.699441  
3127.000000	99.700342  
3126.000000	99.701408  
3125.000000	99.702164  
3124.000000	99.702407  
3123.000000	99.702244  
3122.000000	99.701951  
3121.000000	99.701813  
3120.000000	99.701924  
3119.000000	99.702055  
3118.000000	99.701862  
3117.000000	99.701318  
3116.000000	99.700809  
3115.000000	99.700689  
3114.000000	99.700925  
3113.000000	99.701300  
3112.000000	99.701695  
3111.000000	99.701984  
3110.000000	99.701921  
3109.000000	99.701436  
3108.000000	99.700837  
3107.000000	99.700411  
3106.000000	99.700019  
3105.000000	99.699392  
3104.000000	99.698572  
3103.000000	99.697737  
3102.000000	99.696776  
3101.000000	99.695438  
3100.000000	99.693763  
3099.000000	99.692008  
3098.000000	99.690441  
3097.000000	99.689594  
3096.000000	99.690253  
3095.000000	99.692439  
3094.000000	99.694762  
3093.000000	99.695694  
3092.000000	99.695142  
3091.000000	99.693922  
3090.000000	99.692219  
3089.000000	99.689875  
3088.000000	99.687952  
3087.000000	99.688327  
3086.000000	99.691285  
3085.000000	99.694807  
3084.000000	99.696914  
3083.000000	99.697787  
3082.000000	99.698822  
3081.000000	99.700440  
3080.000000	99.701739  
3079.000000	99.701909  
3078.000000	99.701084  
3077.000000	99.699721  
3076.000000	99.697700  
3075.000000	99.694472  
3074.000000	99.690161  
3073.000000	99.686202  
3072.000000	99.684272  
3071.000000	99.684344  
3070.000000	99.684367  
3069.000000	99.682516  
3068.000000	99.679382  
3067.000000	99.677169  
3066.000000	99.676968  
3065.000000	99.677741  
3064.000000	99.677988  
3063.000000	99.677431  
3062.000000	99.676715  
3061.000000	99.676270  
3060.000000	99.675964  
3059.000000	99.675419  
3058.000000	99.674347  
3057.000000	99.672816  
3056.000000	99.671230  
3055.000000	99.669601  
3054.000000	99.666977  
3053.000000	99.662317  
3052.000000	99.656082  
3051.000000	99.650168  
3050.000000	99.645703  
3049.000000	99.641514  
3048.000000	99.635458  
3047.000000	99.626963  
3046.000000	99.617549  
3045.000000	99.608957  
3044.000000	99.601329  
3043.000000	99.593400  
3042.000000	99.583980  
3041.000000	99.572820  
3040.000000	99.560100  
3039.000000	99.545688  
3038.000000	99.529491  
3037.000000	99.512379  
3036.000000	99.495803  
3035.000000	99.480097  
3034.000000	99.463796  
3033.000000	99.444930  
3032.000000	99.422857  
3031.000000	99.398611  
3030.000000	99.373267  
3029.000000	99.346908  
3028.000000	99.319771  
3027.000000	99.292995  
3026.000000	99.267316  
3025.000000	99.241759  
3024.000000	99.214392  
3023.000000	99.184135  
3022.000000	99.151416  
3021.000000	99.117559  
3020.000000	99.083992  
3019.000000	99.051437  
3018.000000	99.018910  
3017.000000	98.983613  
3016.000000	98.942791  
3015.000000	98.896256  
3014.000000	98.847017  
3013.000000	98.799355  
3012.000000	98.756016  
3011.000000	98.716629  
3010.000000	98.678236  
3009.000000	98.637608  
3008.000000	98.593739  
3007.000000	98.548465  
3006.000000	98.504582  
3005.000000	98.463325  
3004.000000	98.423459  
3003.000000	98.382435  
3002.000000	98.338419  
3001.000000	98.291964  
3000.000000	98.246206  
2999.000000	98.204918  
2998.000000	98.169891  
2997.000000	98.140557  
2996.000000	98.115587  
2995.000000	98.092279  
2994.000000	98.062900  
2993.000000	98.015008  
2992.000000	97.941410  
2991.000000	97.851802  
2990.000000	97.770893  
2989.000000	97.721173  
2988.000000	97.708017  
2987.000000	97.721157  
2986.000000	97.746470  
2985.000000	97.774056  
2984.000000	97.797576  
2983.000000	97.812425  
2982.000000	97.817317  
2981.000000	97.815028  
2980.000000	97.809350  
2979.000000	97.802364  
2978.000000	97.795296  
2977.000000	97.789565  
2976.000000	97.785200  
2975.000000	97.779943  
2974.000000	97.772324  
2973.000000	97.764956  
2972.000000	97.763037  
2971.000000	97.770071  
2970.000000	97.786559  
2969.000000	97.811922  
2968.000000	97.845280  
2967.000000	97.884041  
2966.000000	97.923788  
2965.000000	97.960851  
2964.000000	97.994315  
2963.000000	98.025004  
2962.000000	98.053271  
2961.000000	98.078481  
2960.000000	98.100252  
2959.000000	98.119744  
2958.000000	98.139713  
2957.000000	98.162905  
2956.000000	98.189589  
2955.000000	98.216755  
2954.000000	98.240736  
2953.000000	98.261085  
2952.000000	98.281207  
2951.000000	98.304680  
2950.000000	98.331155  
2949.000000	98.356016  
2948.000000	98.373703  
2947.000000	98.381440  
2946.000000	98.381244  
2945.000000	98.379162  
2944.000000	98.381357  
2943.000000	98.390045  
2942.000000	98.403068  
2941.000000	98.416859  
2940.000000	98.429137  
2939.000000	98.439005  
2938.000000	98.445688  
2937.000000	98.448590  
2936.000000	98.448640  
2935.000000	98.448458  
2934.000000	98.450327  
2933.000000	98.454049  
2932.000000	98.457008  
2931.000000	98.456515  
2930.000000	98.452158  
2929.000000	98.445969  
2928.000000	98.440305  
2927.000000	98.435598  
2926.000000	98.430273  
2925.000000	98.422709  
2924.000000	98.413039  
2923.000000	98.403076  
2922.000000	98.394756  
2921.000000	98.388596  
2920.000000	98.383406  
2919.000000	98.377352  
2918.000000	98.369269  
2917.000000	98.358703  
2916.000000	98.344743  
2915.000000	98.325711  
2914.000000	98.301222  
2913.000000	98.274568  
2912.000000	98.251828  
2911.000000	98.237442  
2910.000000	98.230701  
2909.000000	98.226916  
2908.000000	98.221755  
2907.000000	98.213453  
2906.000000	98.200663  
2905.000000	98.179982  
2904.000000	98.148564  
2903.000000	98.110918  
2902.000000	98.081570  
2901.000000	98.077084  
2900.000000	98.103460  
2899.000000	98.150534  
2898.000000	98.198837  
2897.000000	98.233389  
2896.000000	98.251628  
2895.000000	98.260083  
2894.000000	98.266595  
2893.000000	98.275539  
2892.000000	98.287544  
2891.000000	98.300886  
2890.000000	98.313030  
2889.000000	98.322126  
2888.000000	98.327905  
2887.000000	98.331468  
2886.000000	98.334720  
2885.000000	98.340198  
2884.000000	98.350663  
2883.000000	98.367835  
2882.000000	98.391354  
2881.000000	98.419373  
2880.000000	98.450153  
2879.000000	98.482744  
2878.000000	98.516103  
2877.000000	98.548248  
2876.000000	98.576879  
2875.000000	98.600942  
2874.000000	98.621248  
2873.000000	98.639341  
2872.000000	98.655918  
2871.000000	98.670760  
2870.000000	98.684327  
2869.000000	98.698782  
2868.000000	98.716731  
2867.000000	98.739084  
2866.000000	98.764827  
2865.000000	98.792971  
2864.000000	98.823980  
2863.000000	98.858738  
2862.000000	98.896433  
2861.000000	98.934083  
2860.000000	98.968485  
2859.000000	98.998587  
2858.000000	99.026083  
2857.000000	99.053753  
2856.000000	99.082706  
2855.000000	99.111033  
2854.000000	99.135560  
2853.000000	99.154877  
2852.000000	99.170117  
2851.000000	99.183468  
2850.000000	99.196834  
2849.000000	99.211431  
2848.000000	99.227365  
2847.000000	99.243280  
2846.000000	99.257269  
2845.000000	99.268551  
2844.000000	99.277869  
2843.000000	99.286257  
2842.000000	99.294187  
2841.000000	99.301897  
2840.000000	99.309510  
2839.000000	99.316517  
2838.000000	99.322320  
2837.000000	99.327968  
2836.000000	99.336232  
2835.000000	99.348680  
2834.000000	99.363209  
2833.000000	99.375538  
2832.000000	99.383127  
2831.000000	99.386901  
2830.000000	99.389553  
2829.000000	99.393031  
2828.000000	99.397606  
2827.000000	99.402554  
2826.000000	99.407241  
2825.000000	99.411658  
2824.000000	99.415907  
2823.000000	99.419327  
2822.000000	99.420756  
2821.000000	99.420093  
2820.000000	99.419132  
2819.000000	99.420255  
2818.000000	99.424398  
2817.000000	99.430564  
2816.000000	99.436856  
2815.000000	99.441586  
2814.000000	99.443951  
2813.000000	99.444478  
2812.000000	99.444668  
2811.000000	99.445624  
2810.000000	99.447157  
2809.000000	99.448677  
2808.000000	99.450542  
2807.000000	99.453738  
2806.000000	99.458280  
2805.000000	99.462669  
2804.000000	99.465256  
2803.000000	99.465810  
2802.000000	99.465702  
2801.000000	99.466686  
2800.000000	99.469360  
2799.000000	99.472543  
2798.000000	99.474366  
2797.000000	99.474286  
2796.000000	99.473864  
2795.000000	99.475140  
2794.000000	99.478321  
2793.000000	99.481460  
2792.000000	99.482484  
2791.000000	99.481157  
2790.000000	99.479048  
2789.000000	99.477970  
2788.000000	99.478565  
2787.000000	99.480263  
2786.000000	99.482251  
2785.000000	99.484249  
2784.000000	99.486350  
2783.000000	99.488436  
2782.000000	99.490095  
2781.000000	99.491095  
2780.000000	99.491643  
2779.000000	99.492152  
2778.000000	99.492922  
2777.000000	99.494054  
2776.000000	99.495412  
2775.000000	99.496603  
2774.000000	99.497273  
2773.000000	99.497552  
2772.000000	99.498042  
2771.000000	99.499214  
2770.000000	99.500937  
2769.000000	99.502680  
2768.000000	99.504069  
2767.000000	99.505146  
2766.000000	99.506086  
2765.000000	99.506884  
2764.000000	99.507412  
2763.000000	99.507667  
2762.000000	99.507855  
2761.000000	99.508297  
2760.000000	99.509216  
2759.000000	99.510532  
2758.000000	99.511870  
2757.000000	99.512914  
2756.000000	99.513791  
2755.000000	99.514919  
2754.000000	99.516442  
2753.000000	99.517966  
2752.000000	99.518973  
2751.000000	99.519338  
2750.000000	99.519307  
2749.000000	99.519162  
2748.000000	99.519061  
2747.000000	99.519119  
2746.000000	99.519485  
2745.000000	99.520285  
2744.000000	99.521535  
2743.000000	99.523060  
2742.000000	99.524512  
2741.000000	99.525662  
2740.000000	99.526733  
2739.000000	99.528209  
2738.000000	99.530200  
2737.000000	99.532196  
2736.000000	99.533623  
2735.000000	99.534422  
2734.000000	99.534936  
2733.000000	99.535472  
2732.000000	99.536249  
2731.000000	99.537551  
2730.000000	99.539426  
2729.000000	99.541254  
2728.000000	99.542189  
2727.000000	99.542212  
2726.000000	99.542368  
2725.000000	99.543672  
2724.000000	99.545987  
2723.000000	99.548234  
2722.000000	99.549514  
2721.000000	99.549754  
2720.000000	99.549473  
2719.000000	99.549246  
2718.000000	99.549326  
2717.000000	99.549491  
2716.000000	99.549239  
2715.000000	99.548331  
2714.000000	99.547184  
2713.000000	99.546523  
2712.000000	99.546683  
2711.000000	99.547517  
2710.000000	99.548865  
2709.000000	99.550717  
2708.000000	99.552834  
2707.000000	99.554620  
2706.000000	99.555614  
2705.000000	99.555878  
2704.000000	99.555729  
2703.000000	99.555387  
2702.000000	99.555079  
2701.000000	99.555134  
2700.000000	99.555593  
2699.000000	99.555956  
2698.000000	99.555677  
2697.000000	99.554766  
2696.000000	99.553607  
2695.000000	99.552378  
2694.000000	99.551085  
2693.000000	99.550081  
2692.000000	99.549948  
2691.000000	99.550789  
2690.000000	99.552037  
2689.000000	99.553124  
2688.000000	99.554072  
2687.000000	99.555139  
2686.000000	99.556168  
2685.000000	99.556650  
2684.000000	99.556304  
2683.000000	99.555375  
2682.000000	99.554339  
2681.000000	99.553496  
2680.000000	99.552916  
2679.000000	99.552615  
2678.000000	99.552620  
2677.000000	99.552873  
2676.000000	99.553138  
2675.000000	99.553126  
2674.000000	99.552762  
2673.000000	99.552295  
2672.000000	99.552067  
2671.000000	99.552177  
2670.000000	99.552409  
2669.000000	99.552446  
2668.000000	99.552087  
2667.000000	99.551312  
2666.000000	99.550267  
2665.000000	99.549234  
2664.000000	99.548490  
2663.000000	99.548126  
2662.000000	99.548012  
2661.000000	99.547922  
2660.000000	99.547714  
2659.000000	99.547381  
2658.000000	99.546981  
2657.000000	99.546572  
2656.000000	99.546210  
2655.000000	99.545976  
2654.000000	99.545949  
2653.000000	99.546086  
2652.000000	99.546129  
2651.000000	99.545778  
2650.000000	99.544995  
2649.000000	99.544062  
2648.000000	99.543312  
2647.000000	99.542798  
2646.000000	99.542386  
2645.000000	99.542046  
2644.000000	99.541868  
2643.000000	99.541788  
2642.000000	99.541495  
2641.000000	99.540731  
2640.000000	99.539554  
2639.000000	99.538297  
2638.000000	99.537313  
2637.000000	99.536731  
2636.000000	99.536386  
2635.000000	99.535946  
2634.000000	99.535282  
2633.000000	99.534712  
2632.000000	99.534650  
2631.000000	99.535078  
2630.000000	99.535533  
2629.000000	99.535617  
2628.000000	99.535338  
2627.000000	99.534878  
2626.000000	99.534292  
2625.000000	99.533575  
2624.000000	99.532849  
2623.000000	99.532261  
2622.000000	99.531791  
2621.000000	99.531366  
2620.000000	99.531088  
2619.000000	99.531082  
2618.000000	99.531219  
2617.000000	99.531232  
2616.000000	99.531087  
2615.000000	99.530941  
2614.000000	99.530739  
2613.000000	99.530185  
2612.000000	99.529168  
2611.000000	99.527997  
2610.000000	99.527134  
2609.000000	99.526796  
2608.000000	99.526915  
2607.000000	99.527236  
2606.000000	99.527435  
2605.000000	99.527290  
2604.000000	99.526838  
2603.000000	99.526334  
2602.000000	99.526023  
2601.000000	99.525975  
2600.000000	99.526100  
2599.000000	99.526206  
2598.000000	99.526092  
2597.000000	99.525751  
2596.000000	99.525432  
2595.000000	99.525365  
2594.000000	99.525461  
2593.000000	99.525447  
2592.000000	99.525213  
2591.000000	99.524802  
2590.000000	99.524122  
2589.000000	99.522992  
2588.000000	99.521568  
2587.000000	99.520440  
2586.000000	99.520069  
2585.000000	99.520321  
2584.000000	99.520685  
2583.000000	99.520862  
2582.000000	99.520959  
2581.000000	99.521228  
2580.000000	99.521779  
2579.000000	99.522423  
2578.000000	99.522738  
2577.000000	99.522472  
2576.000000	99.521930  
2575.000000	99.521779  
2574.000000	99.522320  
2573.000000	99.523125  
2572.000000	99.523474  
2571.000000	99.523092  
2570.000000	99.522337  
2569.000000	99.521788  
2568.000000	99.521621  
2567.000000	99.521445  
2566.000000	99.520784  
2565.000000	99.519760  
2564.000000	99.519137  
2563.000000	99.519500  
2562.000000	99.520456  
2561.000000	99.521009  
2560.000000	99.520772  
2559.000000	99.520296  
2558.000000	99.520212  
2557.000000	99.520536  
2556.000000	99.520970  
2555.000000	99.521338  
2554.000000	99.521491  
2553.000000	99.521296  
2552.000000	99.521041  
2551.000000	99.521353  
2550.000000	99.522341  
2549.000000	99.523235  
2548.000000	99.523313  
2547.000000	99.522769  
2546.000000	99.522222  
2545.000000	99.521726  
2544.000000	99.520858  
2543.000000	99.519555  
2542.000000	99.518205  
2541.000000	99.516984  
2540.000000	99.515690  
2539.000000	99.514288  
2538.000000	99.513193  
2537.000000	99.512777  
2536.000000	99.512813  
2535.000000	99.512598  
2534.000000	99.511652  
2533.000000	99.510179  
2532.000000	99.508781  
2531.000000	99.507764  
2530.000000	99.506964  
2529.000000	99.506327  
2528.000000	99.506239  
2527.000000	99.506955  
2526.000000	99.508029  
2525.000000	99.508865  
2524.000000	99.509706  
2523.000000	99.511313  
2522.000000	99.513492  
2521.000000	99.514650  
2520.000000	99.513481  
2519.000000	99.510386  
2518.000000	99.507110  
2517.000000	99.505055  
2516.000000	99.504234  
2515.000000	99.503902  
2514.000000	99.503473  
2513.000000	99.502807  
2512.000000	99.502038  
2511.000000	99.501349  
2510.000000	99.500826  
2509.000000	99.500422  
2508.000000	99.500103  
2507.000000	99.499935  
2506.000000	99.499888  
2505.000000	99.499659  
2504.000000	99.498929  
2503.000000	99.497814  
2502.000000	99.496898  
2501.000000	99.496663  
2500.000000	99.497092  
2499.000000	99.497821  
2498.000000	99.498481  
2497.000000	99.498853  
2496.000000	99.498823  
2495.000000	99.498412  
2494.000000	99.497855  
2493.000000	99.497467  
2492.000000	99.497372  
2491.000000	99.497443  
2490.000000	99.497475  
2489.000000	99.497366  
2488.000000	99.497134  
2487.000000	99.496835  
2486.000000	99.496519  
2485.000000	99.496213  
2484.000000	99.495918  
2483.000000	99.495625  
2482.000000	99.495325  
2481.000000	99.495020  
2480.000000	99.494710  
2479.000000	99.494401  
2478.000000	99.494098  
2477.000000	99.493807  
2476.000000	99.493532  
2475.000000	99.493272  
2474.000000	99.493019  
2473.000000	99.492768  
2472.000000	99.492511  
2471.000000	99.492244  
2470.000000	99.491970  
2469.000000	99.491697  
2468.000000	99.491431  
2467.000000	99.491168  
2466.000000	99.490901  
2465.000000	99.490617  
2464.000000	99.490314  
2463.000000	99.489992  
2462.000000	99.489658  
2461.000000	99.489318  
2460.000000	99.488977  
2459.000000	99.488634  
2458.000000	99.488282  
2457.000000	99.487912  
2456.000000	99.487523  
2455.000000	99.487120  
2454.000000	99.486713  
2453.000000	99.486314  
2452.000000	99.485927  
2451.000000	99.485554  
2450.000000	99.485192  
2449.000000	99.484820  
2448.000000	99.484424  
2447.000000	99.484028  
2446.000000	99.483669  
2445.000000	99.483324  
2444.000000	99.482914  
2443.000000	99.482391  
2442.000000	99.481796  
2441.000000	99.481211  
2440.000000	99.480679  
2439.000000	99.480213  
2438.000000	99.479842  
2437.000000	99.479596  
2436.000000	99.479472  
2435.000000	99.479428  
2434.000000	99.479377  
2433.000000	99.479206  
2432.000000	99.478864  
2431.000000	99.478450  
2430.000000	99.478169  
2429.000000	99.478165  
2428.000000	99.478372  
2427.000000	99.478512  
2426.000000	99.478302  
2425.000000	99.477691  
2424.000000	99.476960  
2423.000000	99.476499  
2422.000000	99.476441  
2421.000000	99.476577  
2420.000000	99.476666  
2419.000000	99.476767  
2418.000000	99.477153  
2417.000000	99.477929  
2416.000000	99.478786  
2415.000000	99.479208  
2414.000000	99.478920  
2413.000000	99.478090  
2412.000000	99.477131  
2411.000000	99.476362  
2410.000000	99.475890  
2409.000000	99.475649  
2408.000000	99.475412  
2407.000000	99.474899  
2406.000000	99.474093  
2405.000000	99.473401  
2404.000000	99.473251  
2403.000000	99.473561  
2402.000000	99.473809  
2401.000000	99.473650  
2400.000000	99.473290  
2399.000000	99.473185  
2398.000000	99.473579  
2397.000000	99.474375  
2396.000000	99.475171  
2395.000000	99.475401  
2394.000000	99.474681  
2393.000000	99.473208  
2392.000000	99.471791  
2391.000000	99.471140  
2390.000000	99.471209  
2389.000000	99.471393  
2388.000000	99.471222  
2387.000000	99.470641  
2386.000000	99.469701  
2385.000000	99.468408  
2384.000000	99.466965  
2383.000000	99.465837  
2382.000000	99.465402  
2381.000000	99.465716  
2380.000000	99.466622  
2379.000000	99.467874  
2378.000000	99.469120  
2377.000000	99.469897  
2376.000000	99.469806  
2375.000000	99.468729  
2374.000000	99.467028  
2373.000000	99.465435  
2372.000000	99.464460  
2371.000000	99.463842  
2370.000000	99.462839  
2369.000000	99.461127  
2368.000000	99.459169  
2367.000000	99.457639  
2366.000000	99.456796  
2365.000000	99.456473  
2364.000000	99.456216  
2363.000000	99.455304  
2362.000000	99.453297  
2361.000000	99.450754  
2360.000000	99.448685  
2359.000000	99.447525  
2358.000000	99.446951  
2357.000000	99.446421  
2356.000000	99.445726  
2355.000000	99.444656  
2354.000000	99.444150  
2353.000000	99.444603  
2352.000000	99.445143  
2351.000000	99.444575  
2350.000000	99.442159  
2349.000000	99.438363  
2348.000000	99.434190  
2347.000000	99.431361  
2346.000000	99.430241  
2345.000000	99.428860  
2344.000000	99.426405  
2343.000000	99.423552  
2342.000000	99.422051  
2341.000000	99.421323  
2340.000000	99.420056  
2339.000000	99.418310  
2338.000000	99.417685  
2337.000000	99.419229  
2336.000000	99.420718  
2335.000000	99.419828  
2334.000000	99.416453  
2333.000000	99.412964  
2332.000000	99.409535  
2331.000000	99.406451  
2330.000000	99.403283  
2329.000000	99.401954  
2328.000000	99.400864  
2327.000000	99.399001  
2326.000000	99.395064  
2325.000000	99.389512  
2324.000000	99.383564  
2323.000000	99.379087  
2322.000000	99.378027  
2321.000000	99.380157  
2320.000000	99.383237  
2319.000000	99.385851  
2318.000000	99.387515  
2317.000000	99.389582  
2316.000000	99.391961  
2315.000000	99.395188  
2314.000000	99.397505  
2313.000000	99.397943  
2312.000000	99.395184  
2311.000000	99.391266  
2310.000000	99.388127  
2309.000000	99.387284  
2308.000000	99.387674  
2307.000000	99.388825  
2306.000000	99.390244  
2305.000000	99.391916  
2304.000000	99.393012  
2303.000000	99.393563  
2302.000000	99.393629  
2301.000000	99.393521  
2300.000000	99.392850  
2299.000000	99.392201  
2298.000000	99.392222  
2297.000000	99.393331  
2296.000000	99.394347  
2295.000000	99.394221  
2294.000000	99.392792  
2293.000000	99.391073  
2292.000000	99.389856  
2291.000000	99.389214  
2290.000000	99.388660  
2289.000000	99.387863  
2288.000000	99.387002  
2287.000000	99.386543  
2286.000000	99.386722  
2285.000000	99.387251  
2284.000000	99.387654  
2283.000000	99.387702  
2282.000000	99.387547  
2281.000000	99.387398  
2280.000000	99.387273  
2279.000000	99.387138  
2278.000000	99.386996  
2277.000000	99.386850  
2276.000000	99.386698  
2275.000000	99.386536  
2274.000000	99.386367  
2273.000000	99.386201  
2272.000000	99.386050  
2271.000000	99.385921  
2270.000000	99.385811  
2269.000000	99.385711  
2268.000000	99.385613  
2267.000000	99.385515  
2266.000000	99.385420  
2265.000000	99.385336  
2264.000000	99.385261  
2263.000000	99.385195  
2262.000000	99.385140  
2261.000000	99.385099  
2260.000000	99.385074  
2259.000000	99.385064  
2258.000000	99.385069  
2257.000000	99.385089  
2256.000000	99.385125  
2255.000000	99.385168  
2254.000000	99.385208  
2253.000000	99.385241  
2252.000000	99.385269  
2251.000000	99.385302  
2250.000000	99.385348  
2249.000000	99.385404  
2248.000000	99.385459  
2247.000000	99.385500  
2246.000000	99.385519  
2245.000000	99.385515  
2244.000000	99.385492  
2243.000000	99.385451  
2242.000000	99.385397  
2241.000000	99.385341  
2240.000000	99.385297  
2239.000000	99.385267  
2238.000000	99.385236  
2237.000000	99.385182  
2236.000000	99.385091  
2235.000000	99.384963  
2234.000000	99.384809  
2233.000000	99.384638  
2232.000000	99.384458  
2231.000000	99.384270  
2230.000000	99.384067  
2229.000000	99.383846  
2228.000000	99.383606  
2227.000000	99.383352  
2226.000000	99.383090  
2225.000000	99.382817  
2224.000000	99.382526  
2223.000000	99.382210  
2222.000000	99.381865  
2221.000000	99.381499  
2220.000000	99.381122  
2219.000000	99.380738  
2218.000000	99.380342  
2217.000000	99.379933  
2216.000000	99.379515  
2215.000000	99.379099  
2214.000000	99.378686  
2213.000000	99.378271  
2212.000000	99.377843  
2211.000000	99.377399  
2210.000000	99.376939  
2209.000000	99.376461  
2208.000000	99.375978  
2207.000000	99.375491  
2206.000000	99.374986  
2205.000000	99.374479  
2204.000000	99.374033  
2203.000000	99.373699  
2202.000000	99.373446  
2201.000000	99.373245  
2200.000000	99.373187  
2199.000000	99.373356  
2198.000000	99.373527  
2197.000000	99.373273  
2196.000000	99.372424  
2195.000000	99.371319  
2194.000000	99.370598  
2193.000000	99.370534  
2192.000000	99.370912  
2191.000000	99.371442  
2190.000000	99.371995  
2189.000000	99.372463  
2188.000000	99.372798  
2187.000000	99.373134  
2186.000000	99.373604  
2185.000000	99.374022  
2184.000000	99.374043  
2183.000000	99.373672  
2182.000000	99.373360  
2181.000000	99.373475  
2180.000000	99.373904  
2179.000000	99.374383  
2178.000000	99.374942  
2177.000000	99.375699  
2176.000000	99.376411  
2175.000000	99.376612  
2174.000000	99.376198  
2173.000000	99.375507  
2172.000000	99.374787  
2171.000000	99.374013  
2170.000000	99.373456  
2169.000000	99.373923  
2168.000000	99.375819  
2167.000000	99.378239  
2166.000000	99.379654  
2165.000000	99.379708  
2164.000000	99.379699  
2163.000000	99.381071  
2162.000000	99.383947  
2161.000000	99.387302  
2160.000000	99.389980  
2159.000000	99.391312  
2158.000000	99.391193  
2157.000000	99.390296  
2156.000000	99.389936  
2155.000000	99.391012  
2154.000000	99.393080  
2153.000000	99.394621  
2152.000000	99.394314  
2151.000000	99.391880  
2150.000000	99.388200  
2149.000000	99.385033  
2148.000000	99.383948  
2147.000000	99.385279  
2146.000000	99.387942  
2145.000000	99.390464  
2144.000000	99.392304  
2143.000000	99.393585  
2142.000000	99.394008  
2141.000000	99.392972  
2140.000000	99.390763  
2139.000000	99.388668  
2138.000000	99.387551  
2137.000000	99.387050  
2136.000000	99.386391  
2135.000000	99.385347  
2134.000000	99.384100  
2133.000000	99.382731  
2132.000000	99.381322  
2131.000000	99.380208  
2130.000000	99.379650  
2129.000000	99.379357  
2128.000000	99.378688  
2127.000000	99.377391  
2126.000000	99.375921  
2125.000000	99.374942  
2124.000000	99.374607  
2123.000000	99.374413  
2122.000000	99.373726  
2121.000000	99.372416  
2120.000000	99.370859  
2119.000000	99.369481  
2118.000000	99.368347  
2117.000000	99.367268  
2116.000000	99.366146  
2115.000000	99.365099  
2114.000000	99.364291  
2113.000000	99.363737  
2112.000000	99.363280  
2111.000000	99.362747  
2110.000000	99.362134  
2109.000000	99.361585  
2108.000000	99.361200  
2107.000000	99.360923  
2106.000000	99.360605  
2105.000000	99.360146  
2104.000000	99.359580  
2103.000000	99.359001  
2102.000000	99.358477  
2101.000000	99.358010  
2100.000000	99.357574  
2099.000000	99.357144  
2098.000000	99.356698  
2097.000000	99.356213  
2096.000000	99.355684  
2095.000000	99.355181  
2094.000000	99.354808  
2093.000000	99.354589  
2092.000000	99.354376  
2091.000000	99.353963  
2090.000000	99.353274  
2089.000000	99.352462  
2088.000000	99.351750  
2087.000000	99.351209  
2086.000000	99.350745  
2085.000000	99.350288  
2084.000000	99.349933  
2083.000000	99.349831  
2082.000000	99.349963  
2081.000000	99.350077  
2080.000000	99.349839  
2079.000000	99.348999  
2078.000000	99.347493  
2077.000000	99.345548  
2076.000000	99.343581  
2075.000000	99.341855  
2074.000000	99.340399  
2073.000000	99.339424  
2072.000000	99.339543  
2071.000000	99.341028  
2070.000000	99.342943  
2069.000000	99.343810  
2068.000000	99.343328  
2067.000000	99.342714  
2066.000000	99.343047  
2065.000000	99.343827  
2064.000000	99.343788  
2063.000000	99.342435  
2062.000000	99.340050  
2061.000000	99.336777  
2060.000000	99.332416  
2059.000000	99.327172  
2058.000000	99.322198  
2057.000000	99.319063  
2056.000000	99.318705  
2055.000000	99.320757  
2054.000000	99.323750  
2053.000000	99.326120  
2052.000000	99.327001  
2051.000000	99.326042  
2050.000000	99.323139  
2049.000000	99.319003  
2048.000000	99.315593  
2047.000000	99.314800  
2046.000000	99.316805  
2045.000000	99.320228  
2044.000000	99.323412  
2043.000000	99.325096  
2042.000000	99.324450  
2041.000000	99.321624  
2040.000000	99.317950  
2039.000000	99.314311  
2038.000000	99.309785  
2037.000000	99.303477  
2036.000000	99.297182  
2035.000000	99.294025  
2034.000000	99.294400  
2033.000000	99.295554  
2032.000000	99.295821  
2031.000000	99.296886  
2030.000000	99.300260  
2029.000000	99.303868  
2028.000000	99.304329  
2027.000000	99.301506  
2026.000000	99.298793  
2025.000000	99.299314  
2024.000000	99.303190  
2023.000000	99.308292  
2022.000000	99.312275  
2021.000000	99.313675  
2020.000000	99.312100  
2019.000000	99.308221  
2018.000000	99.303433  
2017.000000	99.299214  
2016.000000	99.296237  
2015.000000	99.293640  
2014.000000	99.289606  
2013.000000	99.283276  
2012.000000	99.276146  
2011.000000	99.271060  
2010.000000	99.269750  
2009.000000	99.271827  
2008.000000	99.275634  
2007.000000	99.279262  
2006.000000	99.280892  
2005.000000	99.279353  
2004.000000	99.275208  
2003.000000	99.270827  
2002.000000	99.268765  
2001.000000	99.270006  
2000.000000	99.273682  
1999.000000	99.277864  
1998.000000	99.280775  
1997.000000	99.281812  
1996.000000	99.281625  
1995.000000	99.281123  
1994.000000	99.280427  
1993.000000	99.279121  
1992.000000	99.277322  
1991.000000	99.275803  
1990.000000	99.275007  
1989.000000	99.274702  
1988.000000	99.274629  
1987.000000	99.274821  
1986.000000	99.275092  
1985.000000	99.274832  
1984.000000	99.273746  
1983.000000	99.272460  
1982.000000	99.272066  
1981.000000	99.273162  
1980.000000	99.275478  
1979.000000	99.277997  
1978.000000	99.279339  
1977.000000	99.278677  
1976.000000	99.276519  
1975.000000	99.274512  
1974.000000	99.273852  
1973.000000	99.274141  
1972.000000	99.274074  
1971.000000	99.272996  
1970.000000	99.271478  
1969.000000	99.270504  
1968.000000	99.270442  
1967.000000	99.270746  
1966.000000	99.270547  
1965.000000	99.269797  
1964.000000	99.269796  
1963.000000	99.272071  
1962.000000	99.276477  
1961.000000	99.280690  
1960.000000	99.282495  
1959.000000	99.281974  
1958.000000	99.280939  
1957.000000	99.280510  
1956.000000	99.279977  
1955.000000	99.278346  
1954.000000	99.275891  
1953.000000	99.273813  
1952.000000	99.272827  
1951.000000	99.272493  
1950.000000	99.271739  
1949.000000	99.269814  
1948.000000	99.266962  
1947.000000	99.264278  
1946.000000	99.262705  
1945.000000	99.262118  
1944.000000	99.261535  
1943.000000	99.260301  
1942.000000	99.258904  
1941.000000	99.258411  
1940.000000	99.259333  
1939.000000	99.261281  
1938.000000	99.263318  
1937.000000	99.264535  
1936.000000	99.264505  
1935.000000	99.263376  
1934.000000	99.261755  
1933.000000	99.260451  
1932.000000	99.260022  
1931.000000	99.260386  
1930.000000	99.260810  
1929.000000	99.260441  
1928.000000	99.259059  
1927.000000	99.257279  
1926.000000	99.255922  
1925.000000	99.255219  
1924.000000	99.254665  
1923.000000	99.253710  
1922.000000	99.252421  
1921.000000	99.251335  
1920.000000	99.250797  
1919.000000	99.250644  
1918.000000	99.250514  
1917.000000	99.250214  
1916.000000	99.249729  
1915.000000	99.249022  
1914.000000	99.248051  
1913.000000	99.246921  
1912.000000	99.245901  
1911.000000	99.245215  
1910.000000	99.244873  
1909.000000	99.244683  
1908.000000	99.244423  
1907.000000	99.244048  
1906.000000	99.243595  
1905.000000	99.243059  
1904.000000	99.242398  
1903.000000	99.241651  
1902.000000	99.240973  
1901.000000	99.240516  
1900.000000	99.240296  
1899.000000	99.240171  
1898.000000	99.239979  
1897.000000	99.239700  
1896.000000	99.239414  
1895.000000	99.239122  
1894.000000	99.238701  
1893.000000	99.238171  
1892.000000	99.237851  
1891.000000	99.238043  
1890.000000	99.238606  
1889.000000	99.238962  
1888.000000	99.238705  
1887.000000	99.238017  
1886.000000	99.237410  
1885.000000	99.237281  
1884.000000	99.237776  
1883.000000	99.238871  
1882.000000	99.240415  
1881.000000	99.242126  
1880.000000	99.243645  
1879.000000	99.244662  
1878.000000	99.245074  
1877.000000	99.245039  
1876.000000	99.244770  
1875.000000	99.244274  
1874.000000	99.243510  
1873.000000	99.242708  
1872.000000	99.242276  
1871.000000	99.242375  
1870.000000	99.242969  
1869.000000	99.244353  
1868.000000	99.246926  
1867.000000	99.250143  
1866.000000	99.252692  
1865.000000	99.253756  
1864.000000	99.253416  
1863.000000	99.252026  
1862.000000	99.249838  
1861.000000	99.247549  
1860.000000	99.246537  
1859.000000	99.247759  
1858.000000	99.250761  
1857.000000	99.254137  
1856.000000	99.256995  
1855.000000	99.259306  
1854.000000	99.261102  
1853.000000	99.262386  
1852.000000	99.263659  
1851.000000	99.265531  
1850.000000	99.267545  
1849.000000	99.268505  
1848.000000	99.268088  
1847.000000	99.267413  
1846.000000	99.267726  
1845.000000	99.269156  
1844.000000	99.271009  
1843.000000	99.272632  
1842.000000	99.273628  
1841.000000	99.273809  
1840.000000	99.273005  
1839.000000	99.270985  
1838.000000	99.267972  
1837.000000	99.265524  
1836.000000	99.265916  
1835.000000	99.269692  
1834.000000	99.274185  
1833.000000	99.276099  
1832.000000	99.275162  
1831.000000	99.274031  
1830.000000	99.274944  
1829.000000	99.277260  
1828.000000	99.279034  
1827.000000	99.279765  
1826.000000	99.279317  
1825.000000	99.277174  
1824.000000	99.274072  
1823.000000	99.271737  
1822.000000	99.270718  
1821.000000	99.270281  
1820.000000	99.270643  
1819.000000	99.273104  
1818.000000	99.277079  
1817.000000	99.279796  
1816.000000	99.280334  
1815.000000	99.281329  
1814.000000	99.284473  
1813.000000	99.287522  
1812.000000	99.287996  
1811.000000	99.286977  
1810.000000	99.286731  
1809.000000	99.287018  
1808.000000	99.287304  
1807.000000	99.289231  
1806.000000	99.293937  
1805.000000	99.299406  
1804.000000	99.302606  
1803.000000	99.303205  
1802.000000	99.303758  
1801.000000	99.306892  
1800.000000	99.313250  
1799.000000	99.321152  
1798.000000	99.327772  
1797.000000	99.331238  
1796.000000	99.333365  
1795.000000	99.339110  
1794.000000	99.351727  
1793.000000	99.368202  
1792.000000	99.382123  
1791.000000	99.391092  
1790.000000	99.397512  
1789.000000	99.404601  
1788.000000	99.414183  
1787.000000	99.425893  
1786.000000	99.437534  
1785.000000	99.447071  
1784.000000	99.455177  
1783.000000	99.464856  
1782.000000	99.478202  
1781.000000	99.494505  
1780.000000	99.511936  
1779.000000	99.529018  
1778.000000	99.545361  
1777.000000	99.560713  
1776.000000	99.574897  
1775.000000	99.588890  
1774.000000	99.603869  
1773.000000	99.619962  
1772.000000	99.637091  
1771.000000	99.656438  
1770.000000	99.679338  
1769.000000	99.705812  
1768.000000	99.734281  
1767.000000	99.762985  
1766.000000	99.791292  
1765.000000	99.819294  
1764.000000	99.846964  
1763.000000	99.874217  
1762.000000	99.901463  
1761.000000	99.928572  
1760.000000	99.955259  
1759.000000	99.982286  
1758.000000	100.009447 
1757.000000	100.033027 
1756.000000	100.049786 
1755.000000	100.062847 
1754.000000	100.078326 
1753.000000	100.096233 
1752.000000	100.108424 
1751.000000	100.107532 
1750.000000	100.096353 
1749.000000	100.082838 
1748.000000	100.069856 
1747.000000	100.056749 
1746.000000	100.043628 
1745.000000	100.029575 
1744.000000	100.010999 
1743.000000	99.985234  
1742.000000	99.953410  
1741.000000	99.916936  
1740.000000	99.875516  
1739.000000	99.832304  
1738.000000	99.794786  
1737.000000	99.765873  
1736.000000	99.740189  
1735.000000	99.708116  
1734.000000	99.666887  
1733.000000	99.627616  
1732.000000	99.599718  
1731.000000	99.581668  
1730.000000	99.567639  
1729.000000	99.553658  
1728.000000	99.539338  
1727.000000	99.527026  
1726.000000	99.518679  
1725.000000	99.513198  
1724.000000	99.507254  
1723.000000	99.498795  
1722.000000	99.489454  
1721.000000	99.481971  
1720.000000	99.476851  
1719.000000	99.471760  
1718.000000	99.463931  
1717.000000	99.452814  
1716.000000	99.442663  
1715.000000	99.439006  
1714.000000	99.441009  
1713.000000	99.443512  
1712.000000	99.444256  
1711.000000	99.444905  
1710.000000	99.446798  
1709.000000	99.448349  
1708.000000	99.447847  
1707.000000	99.446610  
1706.000000	99.446772  
1705.000000	99.447624  
1704.000000	99.447222  
1703.000000	99.446585  
1702.000000	99.446969  
1701.000000	99.445512  
1700.000000	99.438898  
1699.000000	99.433739  
1698.000000	99.435227  
1697.000000	99.439415  
1696.000000	99.439717  
1695.000000	99.434581  
1694.000000	99.428298  
1693.000000	99.424497  
1692.000000	99.423548  
1691.000000	99.424855  
1690.000000	99.427514  
1689.000000	99.429596  
1688.000000	99.430121  
1687.000000	99.431529  
1686.000000	99.436853  
1685.000000	99.445518  
1684.000000	99.453395  
1683.000000	99.458031  
1682.000000	99.459201  
1681.000000	99.459077  
1680.000000	99.458193  
1679.000000	99.457620  
1678.000000	99.459547  
1677.000000	99.464829  
1676.000000	99.470889  
1675.000000	99.473773  
1674.000000	99.473467  
1673.000000	99.473129  
1672.000000	99.474155  
1671.000000	99.475605  
1670.000000	99.476969  
1669.000000	99.479190  
1668.000000	99.482630  
1667.000000	99.486119  
1666.000000	99.488712  
1665.000000	99.490367  
1664.000000	99.491805  
1663.000000	99.493826  
1662.000000	99.496358  
1661.000000	99.498650  
1660.000000	99.500618  
1659.000000	99.502604  
1658.000000	99.504855  
1657.000000	99.507270  
1656.000000	99.509742  
1655.000000	99.512144  
1654.000000	99.514665  
1653.000000	99.517398  
1652.000000	99.519684  
1651.000000	99.521679  
1650.000000	99.523881  
1649.000000	99.526078  
1648.000000	99.528285  
1647.000000	99.530571  
1646.000000	99.532909  
1645.000000	99.535253  
1644.000000	99.537592  
1643.000000	99.539931  
1642.000000	99.542276  
1641.000000	99.544631  
1640.000000	99.546999  
1639.000000	99.549380  
1638.000000	99.551773  
1637.000000	99.554174  
1636.000000	99.556577  
1635.000000	99.558976  
1634.000000	99.561368  
1633.000000	99.563762  
1632.000000	99.566167  
1631.000000	99.568587  
1630.000000	99.571018  
1629.000000	99.573456  
1628.000000	99.575898  
1627.000000	99.578344  
1626.000000	99.580797  
1625.000000	99.583262  
1624.000000	99.585744  
1623.000000	99.588243  
1622.000000	99.590730  
1621.000000	99.593180  
1620.000000	99.595607  
1619.000000	99.598023  
1618.000000	99.600400  
1617.000000	99.602780  
1616.000000	99.605339  
1615.000000	99.608123  
1614.000000	99.610893  
1613.000000	99.613415  
1612.000000	99.615634  
1611.000000	99.617647  
1610.000000	99.619580  
1609.000000	99.621608  
1608.000000	99.623925  
1607.000000	99.626427  
1606.000000	99.628678  
1605.000000	99.630487  
1604.000000	99.632288  
1603.000000	99.634578  
1602.000000	99.637359  
1601.000000	99.640392  
1600.000000	99.643596  
1599.000000	99.646788  
1598.000000	99.649449  
1597.000000	99.651321  
1596.000000	99.652830  
1595.000000	99.654538  
1594.000000	99.656425  
1593.000000	99.658278  
1592.000000	99.660418  
1591.000000	99.663268  
1590.000000	99.666457  
1589.000000	99.669168  
1588.000000	99.671244  
1587.000000	99.673265  
1586.000000	99.675653  
1585.000000	99.678255  
1584.000000	99.680539  
1583.000000	99.681956  
1582.000000	99.682430  
1581.000000	99.682886  
1580.000000	99.683832  
1579.000000	99.684069  
1578.000000	99.682162  
1577.000000	99.679734  
1576.000000	99.680578  
1575.000000	99.684271  
1574.000000	99.687347  
1573.000000	99.689236  
1572.000000	99.690958  
1571.000000	99.692900  
1570.000000	99.694590  
1569.000000	99.696644  
1568.000000	99.699709  
1567.000000	99.702793  
1566.000000	99.704714  
1565.000000	99.705035  
1564.000000	99.703993  
1563.000000	99.701955  
1562.000000	99.699779  
1561.000000	99.699690  
1560.000000	99.701408  
1559.000000	99.701389  
1558.000000	99.696572  
1557.000000	99.690129  
1556.000000	99.689640  
1555.000000	99.694586  
1554.000000	99.699737  
1553.000000	99.701888  
1552.000000	99.701817  
1551.000000	99.700715  
1550.000000	99.698887  
1549.000000	99.698044  
1548.000000	99.700493  
1547.000000	99.706043  
1546.000000	99.709981  
1545.000000	99.707245  
1544.000000	99.698907  
1543.000000	99.690992  
1542.000000	99.686349  
1541.000000	99.682185  
1540.000000	99.676063  
1539.000000	99.668179  
1538.000000	99.659296  
1537.000000	99.652441  
1536.000000	99.647838  
1535.000000	99.643066  
1534.000000	99.635586  
1533.000000	99.624990  
1532.000000	99.613850  
1531.000000	99.604652  
1530.000000	99.597825  
1529.000000	99.591801  
1528.000000	99.585080  
1527.000000	99.577309  
1526.000000	99.568331  
1525.000000	99.558029  
1524.000000	99.547825  
1523.000000	99.539223  
1522.000000	99.531591  
1521.000000	99.522606  
1520.000000	99.512224  
1519.000000	99.503336  
1518.000000	99.496826  
1517.000000	99.490408  
1516.000000	99.482338  
1515.000000	99.473294  
1514.000000	99.464520  
1513.000000	99.454697  
1512.000000	99.441875  
1511.000000	99.427796  
1510.000000	99.416068  
1509.000000	99.407026  
1508.000000	99.397818  
1507.000000	99.389292  
1506.000000	99.381429  
1505.000000	99.369613  
1504.000000	99.357544  
1503.000000	99.348783  
1502.000000	99.341623  
1501.000000	99.333567  
1500.000000	99.324018  
1499.000000	99.314775  
1498.000000	99.306484  
1497.000000	99.295832  
1496.000000	99.280078  
1495.000000	99.263414  
1494.000000	99.251791  
1493.000000	99.245785  
1492.000000	99.241945  
1491.000000	99.236565  
1490.000000	99.228091  
1489.000000	99.216593  
1488.000000	99.202975  
1487.000000	99.189507  
1486.000000	99.177590  
1485.000000	99.166786  
1484.000000	99.156508  
1483.000000	99.146240  
1482.000000	99.134892  
1481.000000	99.122440  
1480.000000	99.111107  
1479.000000	99.103164  
1478.000000	99.097544  
1477.000000	99.091073  
1476.000000	99.083459  
1475.000000	99.077999  
1474.000000	99.076000  
1473.000000	99.074558  
1472.000000	99.071156  
1471.000000	99.067482  
1470.000000	99.066082  
1469.000000	99.066735  
1468.000000	99.067197  
1467.000000	99.065890  
1466.000000	99.062986  
1465.000000	99.059717  
1464.000000	99.057754  
1463.000000	99.057803  
1462.000000	99.059163  
1461.000000	99.060515  
1460.000000	99.061046  
1459.000000	99.060243  
1458.000000	99.055135  
1457.000000	99.039628  
1456.000000	99.013128  
1455.000000	98.987144  
1454.000000	98.971516  
1453.000000	98.964780  
1452.000000	98.961168  
1451.000000	98.958043  
1450.000000	98.957635  
1449.000000	98.961896  
1448.000000	98.968227  
1447.000000	98.972379  
1446.000000	98.973382  
1445.000000	98.972532  
1444.000000	98.970759  
1443.000000	98.967656  
1442.000000	98.963449  
1441.000000	98.960269  
1440.000000	98.961008  
1439.000000	98.967032  
1438.000000	98.976158  
1437.000000	98.982657  
1436.000000	98.982676  
1435.000000	98.980517  
1434.000000	98.982494  
1433.000000	98.989157  
1432.000000	98.996746  
1431.000000	99.001950  
1430.000000	99.004130  
1429.000000	99.003760  
1428.000000	99.000778  
1427.000000	98.995877  
1426.000000	98.990028  
1425.000000	98.982518  
1424.000000	98.972420  
1423.000000	98.960605  
1422.000000	98.948448  
1421.000000	98.934355  
1420.000000	98.913558  
1419.000000	98.884491  
1418.000000	98.853177  
1417.000000	98.824203  
1416.000000	98.796778  
1415.000000	98.769658  
1414.000000	98.742549  
1413.000000	98.715455  
1412.000000	98.689559  
1411.000000	98.667697  
1410.000000	98.652076  
1409.000000	98.642833  
1408.000000	98.640145  
1407.000000	98.645528  
1406.000000	98.659610  
1405.000000	98.680956  
1404.000000	98.708000  
1403.000000	98.740087  
1402.000000	98.776390  
1401.000000	98.814612  
1400.000000	98.850590  
1399.000000	98.877752  
1398.000000	98.887022  
1397.000000	98.870206  
1396.000000	98.829297  
1395.000000	98.787700  
1394.000000	98.780707  
1393.000000	98.822055  
1392.000000	98.893058  
1391.000000	98.963922  
1390.000000	99.016018  
1389.000000	99.046517  
1388.000000	99.060796  
1387.000000	99.065333  
1386.000000	99.066127  
1385.000000	99.068867  
1384.000000	99.076968  
1383.000000	99.090061  
1382.000000	99.105752  
1381.000000	99.122816  
1380.000000	99.141713  
1379.000000	99.162794  
1378.000000	99.185568  
1377.000000	99.209824  
1376.000000	99.236004  
1375.000000	99.264217  
1374.000000	99.293704  
1373.000000	99.323496  
1372.000000	99.353210  
1371.000000	99.382893  
1370.000000	99.412140  
1369.000000	99.440031  
1368.000000	99.466369  
1367.000000	99.492098  
1366.000000	99.518560  
1365.000000	99.546084  
1364.000000	99.572888  
1363.000000	99.596060  
1362.000000	99.614102  
1361.000000	99.628168  
1360.000000	99.640618  
1359.000000	99.653286  
1358.000000	99.667362  
1357.000000	99.683858  
1356.000000	99.702975  
1355.000000	99.723283  
1354.000000	99.742512  
1353.000000	99.759407  
1352.000000	99.773950  
1351.000000	99.786166  
1350.000000	99.796755  
1349.000000	99.807129  
1348.000000	99.817470  
1347.000000	99.826900  
1346.000000	99.835445  
1345.000000	99.843796  
1344.000000	99.852000  
1343.000000	99.859575  
1342.000000	99.866444  
1341.000000	99.872663  
1340.000000	99.877851  
1339.000000	99.882101  
1338.000000	99.886953  
1337.000000	99.893854  
1336.000000	99.901679  
1335.000000	99.907647  
1334.000000	99.911020  
1333.000000	99.914156  
1332.000000	99.919302  
1331.000000	99.926137  
1330.000000	99.933299  
1329.000000	99.940553  
1328.000000	99.948090  
1327.000000	99.954892  
1326.000000	99.959694  
1325.000000	99.963046  
1324.000000	99.967256  
1323.000000	99.973624  
1322.000000	99.980790  
1321.000000	99.986343  
1320.000000	99.989807  
1319.000000	99.993330  
1318.000000	99.999071  
1317.000000	100.006663 
1316.000000	100.014152 
1315.000000	100.020811 
1314.000000	100.027501 
1313.000000	100.034295 
1312.000000	100.039437 
1311.000000	100.041768 
1310.000000	100.042916 
1309.000000	100.045684 
1308.000000	100.051053 
1307.000000	100.057709 
1306.000000	100.063702 
1305.000000	100.067408 
1304.000000	100.068088 
1303.000000	100.066973 
1302.000000	100.067305 
1301.000000	100.071246 
1300.000000	100.077066 
1299.000000	100.081028 
1298.000000	100.081690 
1297.000000	100.080650 
1296.000000	100.079587 
1295.000000	100.078949 
1294.000000	100.079402 
1293.000000	100.081884 
1292.000000	100.085362 
1291.000000	100.086806 
1290.000000	100.084674 
1289.000000	100.080836 
1288.000000	100.077954 
1287.000000	100.076489 
1286.000000	100.075684 
1285.000000	100.075900 
1284.000000	100.078011 
1283.000000	100.081459 
1282.000000	100.084195 
1281.000000	100.084498 
1280.000000	100.082535 
1279.000000	100.079663 
1278.000000	100.076710 
1277.000000	100.073607 
1276.000000	100.069922 
1275.000000	100.065094 
1274.000000	100.058323 
1273.000000	100.048868 
1272.000000	100.036738 
1271.000000	100.022809 
1270.000000	100.007971 
1269.000000	99.992316  
1268.000000	99.975447  
1267.000000	99.957233  
1266.000000	99.937877  
1265.000000	99.917681  
1264.000000	99.897332  
1263.000000	99.878007  
1262.000000	99.860522  
1261.000000	99.844754  
1260.000000	99.830547  
1259.000000	99.818412  
1258.000000	99.808300  
1257.000000	99.798590  
1256.000000	99.787674  
1255.000000	99.775932  
1254.000000	99.764522  
1253.000000	99.753004  
1252.000000	99.740652  
1251.000000	99.730127  
1250.000000	99.726897  
1249.000000	99.734070  
1248.000000	99.749738  
1247.000000	99.769188  
1246.000000	99.786339  
1245.000000	99.792670  
1244.000000	99.780880  
1243.000000	99.755126  
1242.000000	99.734517  
1241.000000	99.738303  
1240.000000	99.766544  
1239.000000	99.799087  
1238.000000	99.815331  
1237.000000	99.811376  
1236.000000	99.796301  
1235.000000	99.778359  
1234.000000	99.759464  
1233.000000	99.740062  
1232.000000	99.722787  
1231.000000	99.710015  
1230.000000	99.701396  
1229.000000	99.695352  
1228.000000	99.691115  
1227.000000	99.688271  
1226.000000	99.685819  
1225.000000	99.682733  
1224.000000	99.678731  
1223.000000	99.673988  
1222.000000	99.668615  
1221.000000	99.662437  
1220.000000	99.654543  
1219.000000	99.643189  
1218.000000	99.627210  
1217.000000	99.607802  
1216.000000	99.587898  
1215.000000	99.569118  
1214.000000	99.549819  
1213.000000	99.526827  
1212.000000	99.498773  
1211.000000	99.467055  
1210.000000	99.433714  
1209.000000	99.399421  
1208.000000	99.364132  
1207.000000	99.328690  
1206.000000	99.294153  
1205.000000	99.259472  
1204.000000	99.221683  
1203.000000	99.179768  
1202.000000	99.137368  
1201.000000	99.099809  
1200.000000	99.068258  
1199.000000	99.038256  
1198.000000	99.004714  
1197.000000	98.967088  
1196.000000	98.928308  
1195.000000	98.890308  
1194.000000	98.852720  
1193.000000	98.815046  
1192.000000	98.777818  
1191.000000	98.741097  
1190.000000	98.703603  
1189.000000	98.664513  
1188.000000	98.624625  
1187.000000	98.584291  
1186.000000	98.541498  
1185.000000	98.494114  
1184.000000	98.443447  
1183.000000	98.393292  
1182.000000	98.345205  
1181.000000	98.296554  
1180.000000	98.243804  
1179.000000	98.186210  
1178.000000	98.125687  
1177.000000	98.064356  
1176.000000	98.002846  
1175.000000	97.939826  
1174.000000	97.872701  
1173.000000	97.800085  
1172.000000	97.724307  
1171.000000	97.650386  
1170.000000	97.581846  
1169.000000	97.518420  
1168.000000	97.458022  
1167.000000	97.399752  
1166.000000	97.345135  
1165.000000	97.298439  
1164.000000	97.266133  
1163.000000	97.253542  
1162.000000	97.260195  
1161.000000	97.278854  
1160.000000	97.299159  
1159.000000	97.311360  
1158.000000	97.307771  
1157.000000	97.283964  
1156.000000	97.240098  
1155.000000	97.180012  
1154.000000	97.108439  
1153.000000	97.029927  
1152.000000	96.950011  
1151.000000	96.874436  
1150.000000	96.805516  
1149.000000	96.740997  
1148.000000	96.677680  
1147.000000	96.614526  
1146.000000	96.551655  
1145.000000	96.488823  
1144.000000	96.426576  
1143.000000	96.367184  
1142.000000	96.312756  
1141.000000	96.263261  
1140.000000	96.216979  
1139.000000	96.171431  
1138.000000	96.123728  
1137.000000	96.072122  
1136.000000	96.017773  
1135.000000	95.963128  
1134.000000	95.908205  
1133.000000	95.850627  
1132.000000	95.789548  
1131.000000	95.726995  
1130.000000	95.664721  
1129.000000	95.602202  
1128.000000	95.538332  
1127.000000	95.472503  
1126.000000	95.403603  
1125.000000	95.330916  
1124.000000	95.256598  
1123.000000	95.184273  
1122.000000	95.114520  
1121.000000	95.044702  
1120.000000	94.973411  
1119.000000	94.901395  
1118.000000	94.827886  
1117.000000	94.750642  
1116.000000	94.670668  
1115.000000	94.592576  
1114.000000	94.518843  
1113.000000	94.447829  
1112.000000	94.378456  
1111.000000	94.311747  
1110.000000	94.246988  
1109.000000	94.181838  
1108.000000	94.116360  
1107.000000	94.053154  
1106.000000	93.993202  
1105.000000	93.934747  
1104.000000	93.876645  
1103.000000	93.819690  
1102.000000	93.764021  
1101.000000	93.708602  
1100.000000	93.653718  
1099.000000	93.600970  
1098.000000	93.550041  
1097.000000	93.498238  
1096.000000	93.443969  
1095.000000	93.387714  
1094.000000	93.328152  
1093.000000	93.260527  
1092.000000	93.181492  
1091.000000	93.094036  
1090.000000	93.005658  
1089.000000	92.922399  
1088.000000	92.845568  
1087.000000	92.772175  
1086.000000	92.697135  
1085.000000	92.617220  
1084.000000	92.534113  
1083.000000	92.451813  
1082.000000	92.371238  
1081.000000	92.290805  
1080.000000	92.212066  
1079.000000	92.139927  
1078.000000	92.076917  
1077.000000	92.022676  
1076.000000	91.979272  
1075.000000	91.949999  
1074.000000	91.931606  
1073.000000	91.914708  
1072.000000	91.892197  
1071.000000	91.857624  
1070.000000	91.794581  
1069.000000	91.683079  
1068.000000	91.527041  
1067.000000	91.367783  
1066.000000	91.255669  
1065.000000	91.208302  
1064.000000	91.202844  
1063.000000	91.200551  
1062.000000	91.170414  
1061.000000	91.096144  
1060.000000	90.979004  
1059.000000	90.842208  
1058.000000	90.721845  
1057.000000	90.641868  
1056.000000	90.597690  
1055.000000	90.565020  
1054.000000	90.522830  
1053.000000	90.468022  
1052.000000	90.411553  
1051.000000	90.364543  
1050.000000	90.328988  
1049.000000	90.300004  
1048.000000	90.273624  
1047.000000	90.249938  
1046.000000	90.230490  
1045.000000	90.216366  
1044.000000	90.208827  
1043.000000	90.208344  
1042.000000	90.211599  
1041.000000	90.211659  
1040.000000	90.203859  
1039.000000	90.192604  
1038.000000	90.191851  
1037.000000	90.216199  
1036.000000	90.268381  
1035.000000	90.335529  
1034.000000	90.400432  
1033.000000	90.454880  
1032.000000	90.496114  
1031.000000	90.513702  
1030.000000	90.494721  
1029.000000	90.449003  
1028.000000	90.417067  
1027.000000	90.437877  
1026.000000	90.511017  
1025.000000	90.599943  
1024.000000	90.670349  
1023.000000	90.715317  
1022.000000	90.745547  
1021.000000	90.770164  
1020.000000	90.791746  
1019.000000	90.810301  
1018.000000	90.825290  
1017.000000	90.837669  
1016.000000	90.852527  
1015.000000	90.875665  
1014.000000	90.906441  
1013.000000	90.938686  
1012.000000	90.969388  
1011.000000	91.001273  
1010.000000	91.036570  
1009.000000	91.074109  
1008.000000	91.113427  
1007.000000	91.156425  
1006.000000	91.203896  
1005.000000	91.254773  
1004.000000	91.308802  
1003.000000	91.365427  
1002.000000	91.420833  
1001.000000	91.471836  
1000.000000	91.522341  
999.000000	 91.579610  
998.000000	 91.643652  
997.000000	 91.706396  
996.000000	 91.762314  
995.000000	 91.813964  
994.000000	 91.865901  
993.000000	 91.919442  
992.000000	 91.975434  
991.000000	 92.035954  
990.000000	 92.100092  
989.000000	 92.163092  
988.000000	 92.222574  
987.000000	 92.281284  
986.000000	 92.341725  
985.000000	 92.403173  
984.000000	 92.465511  
983.000000	 92.530533  
982.000000	 92.598905  
981.000000	 92.669485  
980.000000	 92.741951  
979.000000	 92.817611  
978.000000	 92.896658  
977.000000	 92.978037  
976.000000	 93.062527  
975.000000	 93.151767  
974.000000	 93.244120  
973.000000	 93.336066  
972.000000	 93.427799  
971.000000	 93.522557  
970.000000	 93.620164  
969.000000	 93.716271  
968.000000	 93.808641  
967.000000	 93.899367  
966.000000	 93.990120  
965.000000	 94.079881  
964.000000	 94.168149  
963.000000	 94.255733  
962.000000	 94.341391  
961.000000	 94.422313  
960.000000	 94.499118  
959.000000	 94.575946  
958.000000	 94.654243  
957.000000	 94.730777  
956.000000	 94.803733  
955.000000	 94.876741  
954.000000	 94.954261  
953.000000	 95.035462  
952.000000	 95.114643  
951.000000	 95.185972  
950.000000	 95.247571  
949.000000	 95.303457  
948.000000	 95.361322  
947.000000	 95.425173  
946.000000	 95.489973  
945.000000	 95.547086  
944.000000	 95.595028  
943.000000	 95.640955  
942.000000	 95.690964  
941.000000	 95.743263  
940.000000	 95.793090  
939.000000	 95.840328  
938.000000	 95.888966  
937.000000	 95.941129  
936.000000	 95.994624  
935.000000	 96.045836  
934.000000	 96.093531  
933.000000	 96.140249  
932.000000	 96.190056  
931.000000	 96.243979  
930.000000	 96.297889  
929.000000	 96.346501  
928.000000	 96.389393  
927.000000	 96.431297  
926.000000	 96.476193  
925.000000	 96.522873  
924.000000	 96.566868  
923.000000	 96.604998  
922.000000	 96.637291  
921.000000	 96.665936  
920.000000	 96.693384  
919.000000	 96.720842  
918.000000	 96.747980  
917.000000	 96.774012  
916.000000	 96.799137  
915.000000	 96.825179  
914.000000	 96.855045  
913.000000	 96.890615  
912.000000	 96.929724  
911.000000	 96.966035  
910.000000	 96.994841  
909.000000	 97.019367  
908.000000	 97.048128  
907.000000	 97.085041  
906.000000	 97.125510  
905.000000	 97.163994  
904.000000	 97.202001  
903.000000	 97.245949  
902.000000	 97.299950  
901.000000	 97.363129  
900.000000	 97.431081  
899.000000	 97.497466  
898.000000	 97.557107  
897.000000	 97.610358  
896.000000	 97.661108  
895.000000	 97.708961  
894.000000	 97.748909  
893.000000	 97.782298  
892.000000	 97.821539  
891.000000	 97.876796  
890.000000	 97.941513  
889.000000	 97.998332  
888.000000	 98.036454  
887.000000	 98.056322  
886.000000	 98.061247  
885.000000	 98.053688  
884.000000	 98.038757  
883.000000	 98.021911  
882.000000	 98.001936  
881.000000	 97.975172  
880.000000	 97.948465  
879.000000	 97.937955  
878.000000	 97.950870  
877.000000	 97.977530  
876.000000	 98.006468  
875.000000	 98.039306  
874.000000	 98.084227  
873.000000	 98.142548  
872.000000	 98.209953  
871.000000	 98.285689  
870.000000	 98.372141  
869.000000	 98.467307  
868.000000	 98.564249  
867.000000	 98.657892  
866.000000	 98.748391  
865.000000	 98.837381  
864.000000	 98.923327  
863.000000	 99.001496  
862.000000	 99.068451  
861.000000	 99.126942  
860.000000	 99.185396  
859.000000	 99.250181  
858.000000	 99.318439  
857.000000	 99.381580  
856.000000	 99.436058  
855.000000	 99.486977  
854.000000	 99.540116  
853.000000	 99.594356  
852.000000	 99.644127  
851.000000	 99.685807  
850.000000	 99.719309  
849.000000	 99.746880  
848.000000	 99.773503  
847.000000	 99.805324  
846.000000	 99.843385  
845.000000	 99.880684  
844.000000	 99.909242  
843.000000	 99.928876  
842.000000	 99.945881  
841.000000	 99.964395  
840.000000	 99.982770  
839.000000	 99.997674  
838.000000	 100.007931 
837.000000	 100.014079 
836.000000	 100.017348 
835.000000	 100.019928 
834.000000	 100.024176 
833.000000	 100.031156 
832.000000	 100.041360 
831.000000	 100.055674 
830.000000	 100.072648 
829.000000	 100.085511 
828.000000	 100.086251 
827.000000	 100.074818 
826.000000	 100.062064 
825.000000	 100.061103 
824.000000	 100.075703 
823.000000	 100.096809 
822.000000	 100.109274 
821.000000	 100.103319 
820.000000	 100.082361 
819.000000	 100.059990 
818.000000	 100.046815 
817.000000	 100.039362 
816.000000	 100.023546 
815.000000	 99.988371  
814.000000	 99.932851  
813.000000	 99.858637  
812.000000	 99.760232  
811.000000	 99.626779  
810.000000	 99.452319  
809.000000	 99.240975  
808.000000	 99.002085  
807.000000	 98.742519  
806.000000	 98.464589  
805.000000	 98.171430  
804.000000	 97.873865  
803.000000	 97.589553  
802.000000	 97.334096  
801.000000	 97.116198  
800.000000	 96.943057  
799.000000	 96.824148  
798.000000	 96.763965  
797.000000	 96.754612  
796.000000	 96.780609  
795.000000	 96.828947  
794.000000	 96.891524  
793.000000	 96.961165  
792.000000	 97.029612  
791.000000	 97.088165  
790.000000	 97.127797  
789.000000	 97.140649  
788.000000	 97.124244  
787.000000	 97.082872  
786.000000	 97.022077  
785.000000	 96.942770  
784.000000	 96.843528  
783.000000	 96.727830  
782.000000	 96.606747  
781.000000	 96.496007  
780.000000	 96.412348  
779.000000	 96.369232  
778.000000	 96.371219  
777.000000	 96.413232  
776.000000	 96.487083  
775.000000	 96.585655  
774.000000	 96.699031  
773.000000	 96.812253  
772.000000	 96.913320  
771.000000	 97.002173  
770.000000	 97.087129  
769.000000	 97.172972  
768.000000	 97.256852  
767.000000	 97.335241  
766.000000	 97.409203  
765.000000	 97.480841  
764.000000	 97.549217  
763.000000	 97.613288  
762.000000	 97.675975  
761.000000	 97.741548  
760.000000	 97.810300  
759.000000	 97.878829  
758.000000	 97.944782  
757.000000	 98.008673  
756.000000	 98.071707  
755.000000	 98.134642  
754.000000	 98.198317  
753.000000	 98.262034  
752.000000	 98.321260  
751.000000	 98.370129  
750.000000	 98.407696  
749.000000	 98.440175  
748.000000	 98.475746  
747.000000	 98.517829  
746.000000	 98.563504  
745.000000	 98.607097  
744.000000	 98.645275  
743.000000	 98.680320  
742.000000	 98.718382  
741.000000	 98.763044  
740.000000	 98.811604  
739.000000	 98.859651  
738.000000	 98.907425  
737.000000	 98.957618  
736.000000	 99.007482  
735.000000	 99.048678  
734.000000	 99.076263  
733.000000	 99.093114  
732.000000	 99.104477  
731.000000	 99.113150  
730.000000	 99.121788  
729.000000	 99.133968  
728.000000	 99.151403  
727.000000	 99.172845  
726.000000	 99.196117  
725.000000	 99.220590  
724.000000	 99.246228  
723.000000	 99.272245  
722.000000	 99.298701  
721.000000	 99.326876  
720.000000	 99.355147  
719.000000	 99.376104  
718.000000	 99.381603  
717.000000	 99.371553  
716.000000	 99.355391  
715.000000	 99.345620  
714.000000	 99.351042  
713.000000	 99.373805  
712.000000	 99.410571  
711.000000	 99.455395  
710.000000	 99.503232  
709.000000	 99.550886  
708.000000	 99.594093  
707.000000	 99.627735  
706.000000	 99.647442  
705.000000	 99.651186  
704.000000	 99.639565  
703.000000	 99.613172  
702.000000	 99.571593  
701.000000	 99.512543  
700.000000	 99.428594  
699.000000	 99.311326  
698.000000	 99.162348  
697.000000	 99.002673  
696.000000	 98.867837  
695.000000	 98.786451  
694.000000	 98.766586  
693.000000	 98.799448  
692.000000	 98.870020  
691.000000	 98.966270  
690.000000	 99.078251  
689.000000	 99.193765  
688.000000	 99.298492  
687.000000	 99.381887  
686.000000	 99.445317  
685.000000	 99.497024  
684.000000	 99.537971  
683.000000	 99.562252  
682.000000	 99.571396  
681.000000	 99.579261  
680.000000	 99.598183  
679.000000	 99.628386  
678.000000	 99.664143  
677.000000	 99.697799  
676.000000	 99.723248  
675.000000	 99.740021  
674.000000	 99.756574  
673.000000	 99.787236  
672.000000	 99.844474  
671.000000	 99.932155  
670.000000	 100.046020 
669.000000	 100.157727 
668.000000	 100.191523 
667.000000	 100.122899 
666.000000	 100.041214 
665.000000	 99.993325  
664.000000	 99.977683  
663.000000	 99.988652  
662.000000	 100.015491 
661.000000	 100.041862 
660.000000	 100.060246 
659.000000	 100.073850 
658.000000	 100.082758 
657.000000	 100.077478 
656.000000	 100.058160 
655.000000	 100.042697 
654.000000	 100.043964 
653.000000	 100.056144 
652.000000	 100.070365 
651.000000	 100.081719 
650.000000	 100.080112 

