4000.000000	99.641287 
3999.000000	99.639350 
3998.000000	99.638459 
3997.000000	99.639095 
3996.000000	99.640315 
3995.000000	99.641388 
3994.000000	99.642697 
3993.000000	99.644591 
3992.000000	99.645988 
3991.000000	99.645106 
3990.000000	99.641455 
3989.000000	99.636068 
3988.000000	99.629758 
3987.000000	99.622529 
3986.000000	99.615174 
3985.000000	99.610047 
3984.000000	99.608860 
3983.000000	99.610334 
3982.000000	99.611231 
3981.000000	99.609796 
3980.000000	99.607488 
3979.000000	99.607138 
3978.000000	99.610136 
3977.000000	99.615687 
3976.000000	99.621840 
3975.000000	99.626825 
3974.000000	99.629940 
3973.000000	99.631669 
3972.000000	99.632623 
3971.000000	99.632208 
3970.000000	99.629447 
3969.000000	99.624809 
3968.000000	99.620592 
3967.000000	99.619255 
3966.000000	99.621669 
3965.000000	99.626697 
3964.000000	99.631722 
3963.000000	99.634005 
3962.000000	99.632633 
3961.000000	99.629622 
3960.000000	99.627978 
3959.000000	99.628168 
3958.000000	99.628373 
3957.000000	99.627211 
3956.000000	99.625021 
3955.000000	99.622459 
3954.000000	99.619417 
3953.000000	99.616034 
3952.000000	99.613089 
3951.000000	99.611476 
3950.000000	99.610952 
3949.000000	99.609587 
3948.000000	99.605742 
3947.000000	99.601245 
3946.000000	99.600509 
3945.000000	99.605279 
3944.000000	99.612023 
3943.000000	99.615847 
3942.000000	99.616326 
3941.000000	99.617975 
3940.000000	99.623755 
3939.000000	99.629904 
3938.000000	99.631057 
3937.000000	99.626485 
3936.000000	99.619279 
3935.000000	99.611347 
3934.000000	99.602253 
3933.000000	99.593283 
3932.000000	99.587429 
3931.000000	99.585627 
3930.000000	99.585636 
3929.000000	99.585476 
3928.000000	99.587008 
3927.000000	99.591921 
3926.000000	99.597024 
3925.000000	99.598297 
3924.000000	99.597843 
3923.000000	99.600694 
3922.000000	99.605096 
3921.000000	99.604704 
3920.000000	99.600199 
3919.000000	99.599154 
3918.000000	99.604243 
3917.000000	99.610047 
3916.000000	99.612905 
3915.000000	99.615816 
3914.000000	99.620518 
3913.000000	99.623062 
3912.000000	99.621529 
3911.000000	99.617854 
3910.000000	99.614335 
3909.000000	99.609780 
3908.000000	99.602229 
3907.000000	99.592522 
3906.000000	99.582604 
3905.000000	99.573155 
3904.000000	99.564434 
3903.000000	99.560777 
3902.000000	99.567622 
3901.000000	99.581166 
3900.000000	99.590494 
3899.000000	99.592863 
3898.000000	99.595681 
3897.000000	99.602315 
3896.000000	99.605905 
3895.000000	99.600482 
3894.000000	99.593177 
3893.000000	99.593701 
3892.000000	99.597815 
3891.000000	99.591354 
3890.000000	99.579088 
3889.000000	99.579793 
3888.000000	99.592471 
3887.000000	99.599237 
3886.000000	99.589401 
3885.000000	99.569844 
3884.000000	99.561030 
3883.000000	99.569566 
3882.000000	99.579700 
3881.000000	99.580310 
3880.000000	99.574973 
3879.000000	99.574220 
3878.000000	99.586610 
3877.000000	99.604406 
3876.000000	99.610592 
3875.000000	99.597328 
3874.000000	99.574469 
3873.000000	99.565977 
3872.000000	99.582597 
3871.000000	99.603618 
3870.000000	99.602178 
3869.000000	99.584854 
3868.000000	99.585269 
3867.000000	99.605384 
3866.000000	99.611809 
3865.000000	99.594844 
3864.000000	99.576882 
3863.000000	99.572124 
3862.000000	99.573779 
3861.000000	99.571390 
3860.000000	99.565904 
3859.000000	99.557757 
3858.000000	99.540080 
3857.000000	99.511064 
3856.000000	99.486455 
3855.000000	99.493013 
3854.000000	99.524519 
3853.000000	99.530213 
3852.000000	99.512345 
3851.000000	99.524105 
3850.000000	99.557931 
3849.000000	99.580316 
3848.000000	99.591704 
3847.000000	99.603716 
3846.000000	99.615801 
3845.000000	99.620117 
3844.000000	99.612930 
3843.000000	99.597512 
3842.000000	99.583821 
3841.000000	99.578017 
3840.000000	99.578439 
3839.000000	99.580046 
3838.000000	99.577264 
3837.000000	99.567432 
3836.000000	99.555923 
3835.000000	99.550965 
3834.000000	99.553558 
3833.000000	99.558719 
3832.000000	99.562344 
3831.000000	99.565552 
3830.000000	99.572884 
3829.000000	99.584620 
3828.000000	99.592563 
3827.000000	99.585891 
3826.000000	99.566279 
3825.000000	99.550768 
3824.000000	99.552978 
3823.000000	99.568253 
3822.000000	99.579333 
3821.000000	99.568033 
3820.000000	99.547813 
3819.000000	99.554927 
3818.000000	99.583672 
3817.000000	99.600268 
3816.000000	99.593483 
3815.000000	99.582217 
3814.000000	99.591473 
3813.000000	99.612755 
3812.000000	99.616916 
3811.000000	99.602458 
3810.000000	99.592580 
3809.000000	99.599847 
3808.000000	99.609363 
3807.000000	99.597075 
3806.000000	99.567550 
3805.000000	99.552347 
3804.000000	99.560783 
3803.000000	99.572793 
3802.000000	99.573382 
3801.000000	99.561011 
3800.000000	99.556540 
3799.000000	99.576830 
3798.000000	99.600437 
3797.000000	99.607205 
3796.000000	99.604871 
3795.000000	99.609226 
3794.000000	99.621824 
3793.000000	99.630511 
3792.000000	99.628651 
3791.000000	99.621838 
3790.000000	99.615486 
3789.000000	99.608449 
3788.000000	99.599831 
3787.000000	99.592694 
3786.000000	99.587804 
3785.000000	99.581204 
3784.000000	99.573072 
3783.000000	99.570872 
3782.000000	99.578728 
3781.000000	99.590860 
3780.000000	99.599594 
3779.000000	99.603517 
3778.000000	99.609253 
3777.000000	99.620882 
3776.000000	99.630738 
3775.000000	99.629983 
3774.000000	99.622915 
3773.000000	99.620505 
3772.000000	99.623728 
3771.000000	99.622334 
3770.000000	99.610934 
3769.000000	99.599037 
3768.000000	99.599136 
3767.000000	99.606286 
3766.000000	99.603569 
3765.000000	99.587501 
3764.000000	99.573451 
3763.000000	99.573630 
3762.000000	99.579511 
3761.000000	99.577654 
3760.000000	99.571746 
3759.000000	99.569797 
3758.000000	99.567326 
3757.000000	99.556638 
3756.000000	99.540487 
3755.000000	99.525165 
3754.000000	99.510291 
3753.000000	99.498490 
3752.000000	99.501918 
3751.000000	99.519405 
3750.000000	99.525864 
3749.000000	99.514474 
3748.000000	99.513409 
3747.000000	99.537595 
3746.000000	99.571398 
3745.000000	99.591620 
3744.000000	99.579851 
3743.000000	99.564403 
3742.000000	99.584637 
3741.000000	99.608339 
3740.000000	99.599894 
3739.000000	99.576712 
3738.000000	99.563495 
3737.000000	99.557724 
3736.000000	99.545381 
3735.000000	99.532757 
3734.000000	99.533007 
3733.000000	99.536331 
3732.000000	99.525926 
3731.000000	99.510352 
3730.000000	99.511276 
3729.000000	99.529240 
3728.000000	99.545723 
3727.000000	99.551717 
3726.000000	99.555888 
3725.000000	99.569286 
3724.000000	99.588103 
3723.000000	99.600142 
3722.000000	99.602109 
3721.000000	99.599527 
3720.000000	99.598797 
3719.000000	99.599365 
3718.000000	99.596137 
3717.000000	99.588575 
3716.000000	99.581635 
3715.000000	99.577685 
3714.000000	99.574443 
3713.000000	99.572234 
3712.000000	99.571732 
3711.000000	99.568120 
3710.000000	99.560383 
3709.000000	99.553828 
3708.000000	99.550733 
3707.000000	99.549434 
3706.000000	99.548783 
3705.000000	99.549483 
3704.000000	99.552431 
3703.000000	99.557851 
3702.000000	99.562998 
3701.000000	99.564127 
3700.000000	99.564610 
3699.000000	99.569285 
3698.000000	99.572443 
3697.000000	99.566240 
3696.000000	99.553997 
3695.000000	99.544729 
3694.000000	99.539358 
3693.000000	99.532770 
3692.000000	99.527773 
3691.000000	99.533468 
3690.000000	99.548058 
3689.000000	99.552263 
3688.000000	99.535818 
3687.000000	99.518978 
3686.000000	99.521004 
3685.000000	99.530982 
3684.000000	99.532373 
3683.000000	99.526418 
3682.000000	99.519950 
3681.000000	99.508538 
3680.000000	99.483416 
3679.000000	99.455148 
3678.000000	99.445765 
3677.000000	99.460206 
3676.000000	99.473541 
3675.000000	99.459537 
3674.000000	99.444189 
3673.000000	99.461378 
3672.000000	99.487984 
3671.000000	99.496878 
3670.000000	99.491479 
3669.000000	99.483274 
3668.000000	99.484048 
3667.000000	99.491898 
3666.000000	99.494841 
3665.000000	99.490476 
3664.000000	99.484696 
3663.000000	99.479797 
3662.000000	99.472313 
3661.000000	99.460470 
3660.000000	99.448594 
3659.000000	99.443136 
3658.000000	99.442357 
3657.000000	99.434683 
3656.000000	99.410230 
3655.000000	99.379833 
3654.000000	99.361435 
3653.000000	99.350003 
3652.000000	99.332245 
3651.000000	99.314533 
3650.000000	99.308722 
3649.000000	99.306143 
3648.000000	99.292784 
3647.000000	99.274421 
3646.000000	99.267670 
3645.000000	99.276854 
3644.000000	99.292408 
3643.000000	99.303861 
3642.000000	99.309358 
3641.000000	99.312989 
3640.000000	99.316591 
3639.000000	99.317813 
3638.000000	99.315890 
3637.000000	99.315256 
3636.000000	99.315456 
3635.000000	99.305788 
3634.000000	99.278281 
3633.000000	99.241829 
3632.000000	99.213414 
3631.000000	99.200257 
3630.000000	99.199800 
3629.000000	99.198107 
3628.000000	99.186362 
3627.000000	99.184317 
3626.000000	99.197737 
3625.000000	99.202482 
3624.000000	99.189524 
3623.000000	99.172015 
3622.000000	99.161895 
3621.000000	99.159831 
3620.000000	99.161081 
3619.000000	99.160588 
3618.000000	99.158309 
3617.000000	99.161821 
3616.000000	99.174311 
3615.000000	99.189605 
3614.000000	99.200957 
3613.000000	99.206913 
3612.000000	99.211049 
3611.000000	99.216652 
3610.000000	99.222430 
3609.000000	99.226358 
3608.000000	99.230411 
3607.000000	99.238232 
3606.000000	99.249944 
3605.000000	99.260835 
3604.000000	99.267412 
3603.000000	99.272059 
3602.000000	99.277886 
3601.000000	99.284415 
3600.000000	99.290864 
3599.000000	99.297898 
3598.000000	99.304131 
3597.000000	99.307971 
3596.000000	99.309171 
3595.000000	99.306970 
3594.000000	99.299356 
3593.000000	99.286104 
3592.000000	99.270068 
3591.000000	99.254303 
3590.000000	99.241073 
3589.000000	99.232126 
3588.000000	99.226451 
3587.000000	99.220530 
3586.000000	99.215837 
3585.000000	99.216617 
3584.000000	99.222039 
3583.000000	99.229646 
3582.000000	99.239547 
3581.000000	99.251883 
3580.000000	99.264465 
3579.000000	99.275124 
3578.000000	99.283315 
3577.000000	99.289940 
3576.000000	99.296327 
3575.000000	99.302825 
3574.000000	99.309164 
3573.000000	99.314457 
3572.000000	99.317476 
3571.000000	99.317143 
3570.000000	99.313334 
3569.000000	99.307326 
3568.000000	99.301145 
3567.000000	99.295325 
3566.000000	99.289927 
3565.000000	99.286230 
3564.000000	99.282834 
3563.000000	99.277179 
3562.000000	99.270720 
3561.000000	99.267037 
3560.000000	99.266653 
3559.000000	99.266357 
3558.000000	99.262774 
3557.000000	99.255435 
3556.000000	99.247333 
3555.000000	99.241881 
3554.000000	99.239407 
3553.000000	99.237517 
3552.000000	99.235300 
3551.000000	99.235784 
3550.000000	99.241850 
3549.000000	99.251523 
3548.000000	99.260429 
3547.000000	99.266878 
3546.000000	99.271880 
3545.000000	99.276330 
3544.000000	99.279907 
3543.000000	99.281656 
3542.000000	99.281276 
3541.000000	99.279639 
3540.000000	99.278423 
3539.000000	99.278399 
3538.000000	99.278504 
3537.000000	99.277307 
3536.000000	99.274562 
3535.000000	99.271065 
3534.000000	99.266673 
3533.000000	99.260386 
3532.000000	99.252353 
3531.000000	99.244651 
3530.000000	99.238900 
3529.000000	99.234389 
3528.000000	99.229996 
3527.000000	99.226917 
3526.000000	99.227786 
3525.000000	99.233303 
3524.000000	99.241524 
3523.000000	99.249889 
3522.000000	99.257347 
3521.000000	99.264376 
3520.000000	99.271512 
3519.000000	99.278277 
3518.000000	99.283643 
3517.000000	99.287223 
3516.000000	99.289026 
3515.000000	99.288609 
3514.000000	99.285690 
3513.000000	99.281623 
3512.000000	99.279014 
3511.000000	99.279672 
3510.000000	99.283017 
3509.000000	99.286841 
3508.000000	99.289494 
3507.000000	99.290422 
3506.000000	99.288891 
3505.000000	99.284235 
3504.000000	99.277613 
3503.000000	99.272105 
3502.000000	99.270740 
3501.000000	99.274248 
3500.000000	99.280419 
3499.000000	99.285357 
3498.000000	99.285958 
3497.000000	99.282184 
3496.000000	99.277210 
3495.000000	99.274669 
3494.000000	99.275668 
3493.000000	99.278725 
3492.000000	99.281909 
3491.000000	99.284351 
3490.000000	99.285715 
3489.000000	99.284931 
3488.000000	99.280457 
3487.000000	99.272156 
3486.000000	99.262690 
3485.000000	99.256528 
3484.000000	99.256918 
3483.000000	99.263344 
3482.000000	99.271759 
3481.000000	99.277871 
3480.000000	99.280106 
3479.000000	99.279382 
3478.000000	99.277176 
3477.000000	99.274679 
3476.000000	99.273224 
3475.000000	99.273927 
3474.000000	99.276686 
3473.000000	99.280262 
3472.000000	99.283336 
3471.000000	99.285321 
3470.000000	99.286443 
3469.000000	99.287203 
3468.000000	99.287718 
3467.000000	99.287608 
3466.000000	99.286767 
3465.000000	99.286002 
3464.000000	99.286470 
3463.000000	99.288382 
3462.000000	99.290390 
3461.000000	99.290371 
3460.000000	99.286684 
3459.000000	99.278865 
3458.000000	99.268036 
3457.000000	99.256797 
3456.000000	99.247968 
3455.000000	99.243046 
3454.000000	99.241514 
3453.000000	99.241950 
3452.000000	99.243534 
3451.000000	99.245840 
3450.000000	99.247185 
3449.000000	99.244672 
3448.000000	99.237244 
3447.000000	99.227940 
3446.000000	99.221755 
3445.000000	99.221032 
3444.000000	99.223961 
3443.000000	99.227659 
3442.000000	99.231355 
3441.000000	99.235968 
3440.000000	99.241639 
3439.000000	99.246448 
3438.000000	99.247553 
3437.000000	99.243352 
3436.000000	99.234890 
3435.000000	99.225728 
3434.000000	99.219815 
3433.000000	99.219296 
3432.000000	99.224137 
3431.000000	99.232831 
3430.000000	99.242418 
3429.000000	99.248492 
3428.000000	99.247206 
3427.000000	99.238144 
3426.000000	99.225183 
3425.000000	99.214222 
3424.000000	99.209535 
3423.000000	99.211218 
3422.000000	99.215626 
3421.000000	99.218843 
3420.000000	99.220055 
3419.000000	99.221230 
3418.000000	99.223568 
3417.000000	99.225506 
3416.000000	99.224799 
3415.000000	99.221376 
3414.000000	99.217057 
3413.000000	99.213066 
3412.000000	99.209078 
3411.000000	99.204728 
3410.000000	99.200961 
3409.000000	99.199298 
3408.000000	99.200000 
3407.000000	99.201204 
3406.000000	99.200414 
3405.000000	99.197237 
3404.000000	99.194361 
3403.000000	99.195395 
3402.000000	99.201782 
3401.000000	99.211973 
3400.000000	99.222682 
3399.000000	99.230265 
3398.000000	99.232058 
3397.000000	99.228085 
3396.000000	99.221373 
3395.000000	99.215280 
3394.000000	99.210435 
3393.000000	99.205230 
3392.000000	99.199299 
3391.000000	99.195095 
3390.000000	99.195211 
3389.000000	99.199054 
3388.000000	99.203248 
3387.000000	99.205028 
3386.000000	99.204567 
3385.000000	99.204092 
3384.000000	99.205084 
3383.000000	99.206711 
3382.000000	99.207109 
3381.000000	99.206016 
3380.000000	99.205620 
3379.000000	99.208554 
3378.000000	99.215213 
3377.000000	99.222948 
3376.000000	99.227556 
3375.000000	99.225921 
3374.000000	99.218464 
3373.000000	99.209483 
3372.000000	99.204102 
3371.000000	99.203923 
3370.000000	99.205992 
3369.000000	99.206360 
3368.000000	99.203990 
3367.000000	99.200662 
3366.000000	99.197975 
3365.000000	99.195732 
3364.000000	99.193069 
3363.000000	99.189966 
3362.000000	99.187390 
3361.000000	99.186858 
3360.000000	99.190012 
3359.000000	99.197604 
3358.000000	99.208144 
3357.000000	99.218019 
3356.000000	99.223747 
3355.000000	99.224509 
3354.000000	99.222644 
3353.000000	99.221651 
3352.000000	99.223336 
3351.000000	99.226427 
3350.000000	99.228191 
3349.000000	99.227593 
3348.000000	99.226358 
3347.000000	99.226427 
3346.000000	99.226996 
3345.000000	99.225456 
3344.000000	99.221102 
3343.000000	99.216466 
3342.000000	99.214505 
3341.000000	99.215590 
3340.000000	99.217996 
3339.000000	99.220351 
3338.000000	99.222382 
3337.000000	99.223666 
3336.000000	99.223215 
3335.000000	99.220785 
3334.000000	99.217711 
3333.000000	99.215770 
3332.000000	99.215654 
3331.000000	99.217080 
3330.000000	99.219934 
3329.000000	99.224346 
3328.000000	99.229531 
3327.000000	99.233387 
3326.000000	99.233984 
3325.000000	99.231374 
3324.000000	99.227368 
3323.000000	99.223751 
3322.000000	99.221474 
3321.000000	99.221331 
3320.000000	99.223971 
3319.000000	99.228541 
3318.000000	99.232357 
3317.000000	99.233148 
3316.000000	99.231298 
3315.000000	99.228944 
3314.000000	99.227262 
3313.000000	99.225874 
3312.000000	99.224818 
3311.000000	99.225488 
3310.000000	99.228758 
3309.000000	99.233155 
3308.000000	99.236132 
3307.000000	99.236808 
3306.000000	99.236433 
3305.000000	99.236082 
3304.000000	99.234855 
3303.000000	99.230947 
3302.000000	99.224181 
3301.000000	99.217059 
3300.000000	99.213277 
3299.000000	99.215256 
3298.000000	99.222470 
3297.000000	99.231450 
3296.000000	99.237602 
3295.000000	99.238274 
3294.000000	99.235110 
3293.000000	99.232992 
3292.000000	99.235548 
3291.000000	99.241498 
3290.000000	99.246146 
3289.000000	99.246475 
3288.000000	99.243917 
3287.000000	99.242065 
3286.000000	99.242799 
3285.000000	99.245354 
3284.000000	99.248039 
3283.000000	99.249473 
3282.000000	99.248838 
3281.000000	99.246445 
3280.000000	99.244058 
3279.000000	99.243569 
3278.000000	99.245129 
3277.000000	99.247340 
3276.000000	99.249347 
3275.000000	99.251717 
3274.000000	99.254857 
3273.000000	99.257652 
3272.000000	99.258668 
3271.000000	99.258229 
3270.000000	99.258098 
3269.000000	99.258903 
3268.000000	99.258906 
3267.000000	99.256116 
3266.000000	99.251216 
3265.000000	99.247468 
3264.000000	99.247261 
3263.000000	99.249342 
3262.000000	99.250478 
3261.000000	99.249516 
3260.000000	99.248655 
3259.000000	99.250713 
3258.000000	99.256084 
3257.000000	99.262607 
3256.000000	99.267585 
3255.000000	99.269524 
3254.000000	99.268600 
3253.000000	99.266377 
3252.000000	99.264822 
3251.000000	99.264945 
3250.000000	99.266374 
3249.000000	99.268303 
3248.000000	99.270457 
3247.000000	99.272835 
3246.000000	99.274939 
3245.000000	99.275755 
3244.000000	99.274392 
3243.000000	99.270663 
3242.000000	99.265695 
3241.000000	99.262179 
3240.000000	99.263110 
3239.000000	99.269283 
3238.000000	99.278081 
3237.000000	99.285185 
3236.000000	99.287754 
3235.000000	99.286142 
3234.000000	99.282913 
3233.000000	99.280568 
3232.000000	99.279902 
3231.000000	99.280028 
3230.000000	99.279859 
3229.000000	99.279324 
3228.000000	99.279002 
3227.000000	99.278960 
3226.000000	99.278540 
3225.000000	99.277277 
3224.000000	99.275336 
3223.000000	99.272930 
3222.000000	99.270244 
3221.000000	99.268345 
3220.000000	99.269245 
3219.000000	99.274288 
3218.000000	99.282784 
3217.000000	99.292357 
3216.000000	99.300091 
3215.000000	99.303477 
3214.000000	99.301519 
3213.000000	99.295987 
3212.000000	99.291154 
3211.000000	99.291034 
3210.000000	99.296218 
3209.000000	99.303426 
3208.000000	99.308324 
3207.000000	99.308955 
3206.000000	99.306847 
3205.000000	99.305151 
3204.000000	99.305595 
3203.000000	99.307104 
3202.000000	99.307630 
3201.000000	99.307208 
3200.000000	99.308494 
3199.000000	99.313910 
3198.000000	99.322674 
3197.000000	99.331093 
3196.000000	99.335524 
3195.000000	99.334763 
3194.000000	99.330113 
3193.000000	99.324226 
3192.000000	99.320063 
3191.000000	99.319989 
3190.000000	99.324605 
3189.000000	99.332003 
3188.000000	99.338565 
3187.000000	99.341202 
3186.000000	99.339390 
3185.000000	99.334943 
3184.000000	99.329932 
3183.000000	99.325382 
3182.000000	99.321870 
3181.000000	99.320196 
3180.000000	99.320639 
3179.000000	99.322167 
3178.000000	99.323434 
3177.000000	99.324400 
3176.000000	99.325979 
3175.000000	99.328074 
3174.000000	99.329024 
3173.000000	99.327607 
3172.000000	99.325018 
3171.000000	99.324286 
3170.000000	99.327762 
3169.000000	99.335117 
3168.000000	99.343473 
3167.000000	99.349542 
3166.000000	99.352123 
3165.000000	99.352461 
3164.000000	99.352099 
3163.000000	99.351041 
3162.000000	99.348529 
3161.000000	99.344906 
3160.000000	99.341590 
3159.000000	99.339512 
3158.000000	99.338784 
3157.000000	99.339846 
3156.000000	99.343440 
3155.000000	99.348946 
3154.000000	99.354110 
3153.000000	99.357351 
3152.000000	99.359360 
3151.000000	99.361414 
3150.000000	99.363015 
3149.000000	99.362608 
3148.000000	99.360235 
3147.000000	99.358048 
3146.000000	99.358017 
3145.000000	99.360169 
3144.000000	99.363405 
3143.000000	99.367144 
3142.000000	99.371387 
3141.000000	99.375574 
3140.000000	99.378045 
3139.000000	99.377015 
3138.000000	99.372300 
3137.000000	99.365903 
3136.000000	99.360613 
3135.000000	99.358132 
3134.000000	99.358790 
3133.000000	99.362354 
3132.000000	99.368023 
3131.000000	99.373884 
3130.000000	99.377828 
3129.000000	99.379587 
3128.000000	99.380840 
3127.000000	99.382526 
3126.000000	99.382794 
3125.000000	99.378818 
3124.000000	99.370688 
3123.000000	99.362399 
3122.000000	99.358562 
3121.000000	99.360923 
3120.000000	99.368185 
3119.000000	99.378069 
3118.000000	99.388731 
3117.000000	99.398630 
3116.000000	99.406077 
3115.000000	99.409649 
3114.000000	99.409012 
3113.000000	99.405127 
3112.000000	99.399725 
3111.000000	99.394788 
3110.000000	99.392256 
3109.000000	99.393359 
3108.000000	99.397473 
3107.000000	99.401741 
3106.000000	99.402664 
3105.000000	99.398902 
3104.000000	99.392794 
3103.000000	99.388550 
3102.000000	99.388586 
3101.000000	99.391895 
3100.000000	99.395913 
3099.000000	99.399159 
3098.000000	99.401821 
3097.000000	99.404730 
3096.000000	99.408623 
3095.000000	99.413984 
3094.000000	99.420485 
3093.000000	99.426202 
3092.000000	99.428258 
3091.000000	99.425328 
3090.000000	99.419538 
3089.000000	99.415112 
3088.000000	99.414705 
3087.000000	99.417512 
3086.000000	99.421346 
3085.000000	99.425833 
3084.000000	99.432413 
3083.000000	99.441292 
3082.000000	99.449715 
3081.000000	99.454076 
3080.000000	99.453098 
3079.000000	99.448346 
3078.000000	99.442321 
3077.000000	99.436900 
3076.000000	99.433115 
3075.000000	99.431332 
3074.000000	99.431131 
3073.000000	99.431476 
3072.000000	99.431622 
3071.000000	99.431963 
3070.000000	99.433893 
3069.000000	99.438460 
3068.000000	99.444586 
3067.000000	99.448669 
3066.000000	99.447000 
3065.000000	99.439459 
3064.000000	99.430504 
3063.000000	99.425632 
3062.000000	99.426891 
3061.000000	99.431982 
3060.000000	99.436936 
3059.000000	99.438994 
3058.000000	99.437765 
3057.000000	99.435130 
3056.000000	99.433988 
3055.000000	99.435928 
3054.000000	99.439606 
3053.000000	99.441865 
3052.000000	99.440686 
3051.000000	99.436772 
3050.000000	99.432575 
3049.000000	99.430505 
3048.000000	99.431770 
3047.000000	99.435934 
3046.000000	99.441212 
3045.000000	99.445585 
3044.000000	99.447878 
3043.000000	99.447820 
3042.000000	99.445815 
3041.000000	99.443182 
3040.000000	99.441866 
3039.000000	99.442882 
3038.000000	99.445201 
3037.000000	99.447245 
3036.000000	99.449373 
3035.000000	99.453620 
3034.000000	99.460684 
3033.000000	99.468111 
3032.000000	99.472113 
3031.000000	99.470888 
3030.000000	99.466030 
3029.000000	99.461153 
3028.000000	99.459409 
3027.000000	99.461856 
3026.000000	99.467379 
3025.000000	99.473835 
3024.000000	99.479297 
3023.000000	99.482512 
3022.000000	99.482912 
3021.000000	99.480891 
3020.000000	99.477984 
3019.000000	99.476024 
3018.000000	99.476026 
3017.000000	99.478203 
3016.000000	99.482514 
3015.000000	99.488202 
3014.000000	99.493125 
3013.000000	99.495183 
3012.000000	99.494865 
3011.000000	99.495206 
3010.000000	99.498465 
3009.000000	99.503743 
3008.000000	99.508525 
3007.000000	99.511565 
3006.000000	99.513229 
3005.000000	99.513706 
3004.000000	99.512521 
3003.000000	99.509979 
3002.000000	99.507795 
3001.000000	99.507641 
3000.000000	99.509634 
2999.000000	99.512753 
2998.000000	99.516365 
2997.000000	99.520617 
2996.000000	99.525327 
2995.000000	99.529245 
2994.000000	99.531032 
2993.000000	99.530956 
2992.000000	99.531169 
2991.000000	99.534045 
2990.000000	99.540209 
2989.000000	99.548098 
2988.000000	99.555134 
2987.000000	99.559313 
2986.000000	99.560218 
2985.000000	99.558953 
2984.000000	99.556942 
2983.000000	99.554554 
2982.000000	99.551053 
2981.000000	99.546055 
2980.000000	99.540681 
2979.000000	99.536782 
2978.000000	99.535205 
2977.000000	99.535409 
2976.000000	99.536639 
2975.000000	99.538658 
2974.000000	99.541153 
2973.000000	99.543393 
2972.000000	99.545179 
2971.000000	99.547525 
2970.000000	99.551347 
2969.000000	99.555633 
2968.000000	99.558028 
2967.000000	99.557596 
2966.000000	99.556105 
2965.000000	99.555819 
2964.000000	99.556686 
2963.000000	99.556898 
2962.000000	99.555940 
2961.000000	99.555510 
2960.000000	99.556827 
2959.000000	99.558465 
2958.000000	99.558333 
2957.000000	99.557112 
2956.000000	99.557814 
2955.000000	99.561543 
2954.000000	99.565164 
2953.000000	99.564428 
2952.000000	99.558754 
2951.000000	99.551887 
2950.000000	99.547985 
2949.000000	99.547958 
2948.000000	99.549758 
2947.000000	99.551124 
2946.000000	99.551231 
2945.000000	99.550158 
2944.000000	99.548162 
2943.000000	99.546131 
2942.000000	99.545902 
2941.000000	99.548694 
2940.000000	99.552959 
2939.000000	99.554894 
2938.000000	99.551969 
2937.000000	99.545505 
2936.000000	99.539166 
2935.000000	99.535550 
2934.000000	99.535194 
2933.000000	99.538165 
2932.000000	99.544639 
2931.000000	99.553427 
2930.000000	99.561476 
2929.000000	99.566139 
2928.000000	99.567586 
2927.000000	99.568257 
2926.000000	99.570456 
2925.000000	99.575037 
2924.000000	99.581660 
2923.000000	99.589021 
2922.000000	99.594951 
2921.000000	99.597621 
2920.000000	99.597255 
2919.000000	99.596136 
2918.000000	99.596476 
2917.000000	99.598509 
2916.000000	99.600705 
2915.000000	99.601260 
2914.000000	99.599067 
2913.000000	99.593937 
2912.000000	99.587025 
2911.000000	99.581085 
2910.000000	99.579039 
2909.000000	99.581322 
2908.000000	99.584934 
2907.000000	99.586112 
2906.000000	99.584075 
2905.000000	99.581340 
2904.000000	99.580234 
2903.000000	99.580258 
2902.000000	99.579472 
2901.000000	99.577534 
2900.000000	99.576018 
2899.000000	99.576460 
2898.000000	99.579016 
2897.000000	99.582710 
2896.000000	99.585881 
2895.000000	99.586325 
2894.000000	99.582675 
2893.000000	99.576476 
2892.000000	99.571976 
2891.000000	99.572648 
2890.000000	99.577900 
2889.000000	99.583605 
2888.000000	99.585844 
2887.000000	99.584030 
2886.000000	99.580630 
2885.000000	99.578261 
2884.000000	99.577213 
2883.000000	99.575749 
2882.000000	99.572597 
2881.000000	99.568667 
2880.000000	99.566089 
2879.000000	99.565962 
2878.000000	99.567448 
2877.000000	99.568659 
2876.000000	99.567950 
2875.000000	99.564722 
2874.000000	99.559686 
2873.000000	99.554265 
2872.000000	99.549375 
2871.000000	99.545110 
2870.000000	99.541913 
2869.000000	99.541016 
2868.000000	99.542642 
2867.000000	99.544621 
2866.000000	99.544502 
2865.000000	99.542891 
2864.000000	99.543032 
2863.000000	99.546988 
2862.000000	99.553759 
2861.000000	99.561225 
2860.000000	99.567961 
2859.000000	99.572626 
2858.000000	99.573892 
2857.000000	99.572481 
2856.000000	99.571768 
2855.000000	99.574546 
2854.000000	99.579760 
2853.000000	99.583703 
2852.000000	99.584041 
2851.000000	99.581816 
2850.000000	99.579859 
2849.000000	99.579950 
2848.000000	99.581163 
2847.000000	99.580458 
2846.000000	99.575483 
2845.000000	99.567324 
2844.000000	99.559931 
2843.000000	99.556292 
2842.000000	99.555800 
2841.000000	99.555744 
2840.000000	99.554295 
2839.000000	99.551255 
2838.000000	99.546995 
2837.000000	99.542198 
2836.000000	99.538316 
2835.000000	99.536971 
2834.000000	99.538749 
2833.000000	99.543160 
2832.000000	99.549461 
2831.000000	99.556707 
2830.000000	99.563250 
2829.000000	99.567195 
2828.000000	99.567725 
2827.000000	99.565697 
2826.000000	99.562954 
2825.000000	99.561131 
2824.000000	99.560687 
2823.000000	99.560751 
2822.000000	99.560313 
2821.000000	99.559729 
2820.000000	99.560364 
2819.000000	99.562375 
2818.000000	99.563763 
2817.000000	99.562473 
2816.000000	99.558821 
2815.000000	99.555098 
2814.000000	99.553276 
2813.000000	99.553802 
2812.000000	99.555971 
2811.000000	99.558493 
2810.000000	99.560054 
2809.000000	99.560331 
2808.000000	99.560368 
2807.000000	99.561278 
2806.000000	99.562794 
2805.000000	99.563640 
2804.000000	99.562944 
2803.000000	99.560666 
2802.000000	99.557160 
2801.000000	99.553191 
2800.000000	99.550014 
2799.000000	99.548535 
2798.000000	99.548542 
2797.000000	99.549409 
2796.000000	99.551077 
2795.000000	99.553485 
2794.000000	99.555558 
2793.000000	99.556057 
2792.000000	99.555405 
2791.000000	99.555538 
2790.000000	99.557582 
2789.000000	99.560431 
2788.000000	99.561881 
2787.000000	99.560713 
2786.000000	99.557614 
2785.000000	99.554562 
2784.000000	99.553403 
2783.000000	99.554675 
2782.000000	99.557723 
2781.000000	99.561859 
2780.000000	99.566707 
2779.000000	99.571171 
2778.000000	99.573239 
2777.000000	99.571996 
2776.000000	99.569221 
2775.000000	99.567582 
2774.000000	99.567456 
2773.000000	99.566858 
2772.000000	99.564516 
2771.000000	99.561589 
2770.000000	99.559977 
2769.000000	99.560166 
2768.000000	99.561429 
2767.000000	99.563209 
2766.000000	99.565360 
2765.000000	99.567453 
2764.000000	99.568650 
2763.000000	99.568361 
2762.000000	99.566792 
2761.000000	99.564909 
2760.000000	99.563847 
2759.000000	99.564056 
2758.000000	99.564921 
2757.000000	99.565452 
2756.000000	99.565287 
2755.000000	99.564867 
2754.000000	99.564838 
2753.000000	99.565694 
2752.000000	99.567740 
2751.000000	99.570731 
2750.000000	99.573529 
2749.000000	99.574761 
2748.000000	99.574042 
2747.000000	99.572160 
2746.000000	99.569995 
2745.000000	99.567752 
2744.000000	99.565421 
2743.000000	99.563544 
2742.000000	99.563116 
2741.000000	99.564823 
2740.000000	99.568442 
2739.000000	99.572865 
2738.000000	99.576675 
2737.000000	99.578944 
2736.000000	99.579626 
2735.000000	99.579224 
2734.000000	99.578254 
2733.000000	99.577112 
2732.000000	99.576225 
2731.000000	99.575989 
2730.000000	99.576518 
2729.000000	99.577484 
2728.000000	99.578153 
2727.000000	99.577734 
2726.000000	99.576104 
2725.000000	99.574238 
2724.000000	99.573417 
2723.000000	99.573802 
2722.000000	99.574259 
2721.000000	99.573788 
2720.000000	99.572660 
2719.000000	99.571865 
2718.000000	99.572028 
2717.000000	99.573217 
2716.000000	99.575195 
2715.000000	99.577192 
2714.000000	99.577884 
2713.000000	99.576300 
2712.000000	99.572669 
2711.000000	99.568031 
2710.000000	99.563432 
2709.000000	99.559925 
2708.000000	99.558759 
2707.000000	99.560633 
2706.000000	99.564824 
2705.000000	99.569678 
2704.000000	99.574052 
2703.000000	99.577907 
2702.000000	99.581518 
2701.000000	99.584423 
2700.000000	99.585270 
2699.000000	99.582934 
2698.000000	99.578247 
2697.000000	99.574389 
2696.000000	99.574551 
2695.000000	99.578740 
2694.000000	99.583778 
2693.000000	99.586882 
2692.000000	99.588251 
2691.000000	99.589417 
2690.000000	99.590268 
2689.000000	99.589203 
2688.000000	99.585747 
2687.000000	99.581442 
2686.000000	99.578069 
2685.000000	99.576090 
2684.000000	99.574993 
2683.000000	99.574244 
2682.000000	99.573564 
2681.000000	99.572858 
2680.000000	99.572113 
2679.000000	99.571145 
2678.000000	99.569678 
2677.000000	99.568101 
2676.000000	99.567829 
2675.000000	99.570171 
2674.000000	99.574874 
2673.000000	99.580256 
2672.000000	99.584693 
2671.000000	99.587607 
2670.000000	99.589296 
2669.000000	99.590320 
2668.000000	99.590852 
2667.000000	99.590253 
2666.000000	99.587598 
2665.000000	99.583008 
2664.000000	99.577940 
2663.000000	99.573612 
2662.000000	99.569602 
2661.000000	99.564627 
2660.000000	99.558275 
2659.000000	99.551375 
2658.000000	99.545166 
2657.000000	99.540615 
2656.000000	99.537796 
2655.000000	99.535128 
2654.000000	99.530001 
2653.000000	99.521340 
2652.000000	99.511061 
2651.000000	99.502048 
2650.000000	99.495453 
2649.000000	99.491129 
2648.000000	99.489617 
2647.000000	99.491506 
2646.000000	99.495054 
2645.000000	99.496670 
2644.000000	99.494462 
2643.000000	99.489994 
2642.000000	99.486242 
2641.000000	99.485172 
2640.000000	99.487510 
2639.000000	99.493112 
2638.000000	99.500636 
2637.000000	99.508038 
2636.000000	99.514307 
2635.000000	99.519994 
2634.000000	99.525636 
2633.000000	99.530616 
2632.000000	99.534145 
2631.000000	99.536482 
2630.000000	99.538481 
2629.000000	99.540387 
2628.000000	99.541271 
2627.000000	99.539234 
2626.000000	99.532520 
2625.000000	99.521577 
2624.000000	99.510000 
2623.000000	99.502129 
2622.000000	99.499330 
2621.000000	99.499551 
2620.000000	99.500448 
2619.000000	99.501484 
2618.000000	99.502709 
2617.000000	99.503195 
2616.000000	99.501680 
2615.000000	99.497747 
2614.000000	99.491632 
2613.000000	99.483891 
2612.000000	99.476050 
2611.000000	99.470745 
2610.000000	99.470190 
2609.000000	99.474537 
2608.000000	99.481802 
2607.000000	99.489005 
2606.000000	99.493806 
2605.000000	99.496287 
2604.000000	99.499172 
2603.000000	99.504974 
2602.000000	99.512693 
2601.000000	99.518534 
2600.000000	99.520002 
2599.000000	99.517789 
2598.000000	99.513546 
2597.000000	99.507986 
2596.000000	99.502111 
2595.000000	99.498147 
2594.000000	99.497472 
2593.000000	99.498886 
2592.000000	99.500674 
2591.000000	99.503389 
2590.000000	99.508577 
2589.000000	99.515127 
2588.000000	99.518844 
2587.000000	99.516168 
2586.000000	99.507391 
2585.000000	99.496187 
2584.000000	99.487030 
2583.000000	99.483184 
2582.000000	99.485781 
2581.000000	99.493459 
2580.000000	99.502763 
2579.000000	99.509684 
2578.000000	99.511701 
2577.000000	99.508885 
2576.000000	99.503279 
2575.000000	99.497308 
2574.000000	99.492829 
2573.000000	99.491163 
2572.000000	99.492922 
2571.000000	99.497215 
2570.000000	99.501713 
2569.000000	99.504313 
2568.000000	99.504519 
2567.000000	99.502835 
2566.000000	99.499537 
2565.000000	99.494777 
2564.000000	99.489163 
2563.000000	99.483198 
2562.000000	99.476739 
2561.000000	99.470191 
2560.000000	99.465647 
2559.000000	99.465321 
2558.000000	99.468890 
2557.000000	99.473637 
2556.000000	99.477230 
2555.000000	99.479335 
2554.000000	99.480650 
2553.000000	99.481613 
2552.000000	99.482168 
2551.000000	99.481884 
2550.000000	99.480496 
2549.000000	99.479206 
2548.000000	99.480632 
2547.000000	99.485686 
2546.000000	99.490896 
2545.000000	99.491188 
2544.000000	99.485943 
2543.000000	99.480440 
2542.000000	99.480278 
2541.000000	99.485604 
2540.000000	99.491637 
2539.000000	99.493772 
2538.000000	99.491401 
2537.000000	99.487809 
2536.000000	99.487360 
2535.000000	99.492235 
2534.000000	99.500859 
2533.000000	99.509327 
2532.000000	99.514493 
2531.000000	99.515754 
2530.000000	99.514454 
2529.000000	99.512408 
2528.000000	99.510880 
2527.000000	99.510049 
2526.000000	99.509156 
2525.000000	99.507388 
2524.000000	99.504418 
2523.000000	99.499996 
2522.000000	99.494041 
2521.000000	99.487840 
2520.000000	99.483974 
2519.000000	99.483766 
2518.000000	99.485543 
2517.000000	99.486609 
2516.000000	99.486037 
2515.000000	99.484243 
2514.000000	99.481260 
2513.000000	99.477595 
2512.000000	99.475709 
2511.000000	99.477824 
2510.000000	99.482411 
2509.000000	99.485388 
2508.000000	99.484940 
2507.000000	99.482927 
2506.000000	99.481636 
2505.000000	99.481817 
2504.000000	99.484175 
2503.000000	99.489765 
2502.000000	99.497724 
2501.000000	99.505051 
2500.000000	99.510130 
2499.000000	99.514642 
2498.000000	99.520728 
2497.000000	99.527936 
2496.000000	99.534170 
2495.000000	99.538023 
2494.000000	99.539083 
2493.000000	99.537517 
2492.000000	99.534582 
2491.000000	99.532201 
2490.000000	99.530996 
2489.000000	99.530036 
2488.000000	99.529061 
2487.000000	99.528813 
2486.000000	99.528028 
2485.000000	99.522714 
2484.000000	99.511026 
2483.000000	99.497395 
2482.000000	99.488972 
2481.000000	99.488161 
2480.000000	99.490609 
2479.000000	99.490394 
2478.000000	99.485345 
2477.000000	99.477426 
2476.000000	99.470114 
2475.000000	99.466346 
2474.000000	99.467592 
2473.000000	99.473267 
2472.000000	99.481008 
2471.000000	99.488302 
2470.000000	99.494322 
2469.000000	99.500081 
2468.000000	99.506484 
2467.000000	99.512426 
2466.000000	99.515710 
2465.000000	99.516433 
2464.000000	99.518391 
2463.000000	99.525537 
2462.000000	99.537134 
2461.000000	99.547871 
2460.000000	99.553187 
2459.000000	99.553298 
2458.000000	99.551561 
2457.000000	99.550120 
2456.000000	99.547974 
2455.000000	99.542558 
2454.000000	99.532389 
2453.000000	99.518512 
2452.000000	99.503778 
2451.000000	99.490584 
2450.000000	99.479539 
2449.000000	99.470793 
2448.000000	99.465828 
2447.000000	99.466287 
2446.000000	99.470897 
2445.000000	99.475329 
2444.000000	99.476174 
2443.000000	99.474161 
2442.000000	99.472680 
2441.000000	99.473877 
2440.000000	99.476993 
2439.000000	99.480003 
2438.000000	99.482114 
2437.000000	99.484733 
2436.000000	99.490311 
2435.000000	99.500157 
2434.000000	99.513383 
2433.000000	99.527947 
2432.000000	99.542015 
2431.000000	99.553790 
2430.000000	99.561121 
2429.000000	99.563031 
2428.000000	99.561479 
2427.000000	99.559998 
2426.000000	99.560140 
2425.000000	99.560295 
2424.000000	99.558170 
2423.000000	99.553506 
2422.000000	99.548307 
2421.000000	99.545245 
2420.000000	99.545592 
2419.000000	99.547612 
2418.000000	99.547336 
2417.000000	99.542404 
2416.000000	99.535033 
2415.000000	99.529691 
2414.000000	99.527926 
2413.000000	99.527211 
2412.000000	99.525041 
2411.000000	99.522213 
2410.000000	99.521422 
2409.000000	99.524261 
2408.000000	99.530471 
2407.000000	99.538772 
2406.000000	99.547404 
2405.000000	99.554751 
2404.000000	99.560277 
2403.000000	99.564441 
2402.000000	99.567665 
2401.000000	99.570273 
2400.000000	99.573091 
2399.000000	99.576502 
2398.000000	99.578956 
2397.000000	99.578473 
2396.000000	99.576224 
2395.000000	99.576534 
2394.000000	99.582162 
2393.000000	99.591121 
2392.000000	99.599381 
2391.000000	99.605103 
2390.000000	99.608644 
2389.000000	99.609837 
2388.000000	99.607624 
2387.000000	99.602224 
2386.000000	99.595979 
2385.000000	99.591806 
2384.000000	99.591668 
2383.000000	99.596224 
2382.000000	99.604568 
2381.000000	99.613959 
2380.000000	99.621017 
2379.000000	99.624266 
2378.000000	99.625319 
2377.000000	99.626731 
2376.000000	99.628830 
2375.000000	99.629735 
2374.000000	99.628973 
2373.000000	99.629366 
2372.000000	99.633447 
2371.000000	99.638863 
2370.000000	99.640187 
2369.000000	99.635808 
2368.000000	99.630672 
2367.000000	99.630873 
2366.000000	99.637031 
2365.000000	99.644235 
2364.000000	99.647519 
2363.000000	99.645477 
2362.000000	99.639870 
2361.000000	99.634390 
2360.000000	99.632427 
2359.000000	99.635635 
2358.000000	99.642877 
2357.000000	99.650830 
2356.000000	99.655555 
2355.000000	99.655151 
2354.000000	99.650299 
2353.000000	99.643712 
2352.000000	99.639221 
2351.000000	99.637949 
2350.000000	99.637515 
2349.000000	99.637168 
2348.000000	99.638618 
2347.000000	99.640578 
2346.000000	99.637592 
2345.000000	99.627652 
2344.000000	99.613906 
2343.000000	99.600012 
2342.000000	99.589319 
2341.000000	99.585322 
2340.000000	99.588671 
2339.000000	99.595934 
2338.000000	99.603223 
2337.000000	99.609038 
2336.000000	99.615057 
2335.000000	99.622694 
2334.000000	99.629661 
2333.000000	99.629381 
2332.000000	99.619397 
2331.000000	99.606368 
2330.000000	99.600319 
2329.000000	99.601773 
2328.000000	99.600645 
2327.000000	99.586495 
2326.000000	99.558866 
2325.000000	99.527177 
2324.000000	99.503681 
2323.000000	99.494092 
2322.000000	99.494431 
2321.000000	99.496797 
2320.000000	99.499396 
2319.000000	99.506087 
2318.000000	99.518197 
2317.000000	99.529395 
2316.000000	99.532329 
2315.000000	99.525382 
2314.000000	99.512896 
2313.000000	99.499585 
2312.000000	99.488036 
2311.000000	99.478710 
2310.000000	99.470857 
2309.000000	99.463367 
2308.000000	99.456962 
2307.000000	99.453866 
2306.000000	99.454607 
2305.000000	99.455673 
2304.000000	99.452563 
2303.000000	99.443953 
2302.000000	99.432899 
2301.000000	99.423945 
2300.000000	99.420192 
2299.000000	99.421292 
2298.000000	99.424717 
2297.000000	99.428625 
2296.000000	99.433465 
2295.000000	99.439149 
2294.000000	99.442628 
2293.000000	99.440841 
2292.000000	99.435717 
2291.000000	99.432838 
2290.000000	99.434808 
2289.000000	99.439255 
2288.000000	99.443396 
2287.000000	99.446850 
2286.000000	99.448816 
2285.000000	99.446904 
2284.000000	99.440418 
2283.000000	99.431354 
2282.000000	99.420614 
2281.000000	99.407559 
2280.000000	99.394793 
2279.000000	99.387648 
2278.000000	99.385485 
2277.000000	99.378747 
2276.000000	99.359969 
2275.000000	99.334048 
2274.000000	99.312727 
2273.000000	99.302084 
2272.000000	99.300493 
2271.000000	99.305363 
2270.000000	99.315177 
2269.000000	99.326511 
2268.000000	99.335822 
2267.000000	99.344252 
2266.000000	99.355485 
2265.000000	99.368962 
2264.000000	99.380088 
2263.000000	99.387214 
2262.000000	99.393581 
2261.000000	99.401853 
2260.000000	99.410930 
2259.000000	99.419009 
2258.000000	99.426074 
2257.000000	99.431992 
2256.000000	99.434499 
2255.000000	99.430158 
2254.000000	99.416727 
2253.000000	99.395766 
2252.000000	99.374446 
2251.000000	99.362502 
2250.000000	99.364100 
2249.000000	99.373007 
2248.000000	99.378080 
2247.000000	99.372737 
2246.000000	99.357816 
2245.000000	99.338161 
2244.000000	99.319908 
2243.000000	99.308612 
2242.000000	99.305074 
2241.000000	99.303253 
2240.000000	99.296083 
2239.000000	99.283308 
2238.000000	99.270512 
2237.000000	99.261324 
2236.000000	99.254298 
2235.000000	99.247309 
2234.000000	99.241420 
2233.000000	99.239874 
2232.000000	99.245815 
2231.000000	99.260779 
2230.000000	99.282488 
2229.000000	99.303898 
2228.000000	99.317089 
2227.000000	99.318762 
2226.000000	99.311241 
2225.000000	99.299908 
2224.000000	99.291289 
2223.000000	99.290775 
2222.000000	99.298330 
2221.000000	99.307364 
2220.000000	99.310960 
2219.000000	99.308307 
2218.000000	99.302453 
2217.000000	99.294198 
2216.000000	99.282666 
2215.000000	99.270812 
2214.000000	99.265127 
2213.000000	99.268514 
2212.000000	99.276660 
2211.000000	99.282885 
2210.000000	99.284642 
2209.000000	99.284484 
2208.000000	99.286062 
2207.000000	99.289664 
2206.000000	99.291146 
2205.000000	99.285461 
2204.000000	99.271329 
2203.000000	99.251522 
2202.000000	99.229503 
2201.000000	99.208582 
2200.000000	99.193691 
2199.000000	99.189228 
2198.000000	99.193436 
2197.000000	99.198936 
2196.000000	99.200741 
2195.000000	99.199240 
2194.000000	99.193045 
2193.000000	99.175390 
2192.000000	99.143223 
2191.000000	99.105705 
2190.000000	99.077903 
2189.000000	99.068282 
2188.000000	99.075882 
2187.000000	99.095133 
2186.000000	99.116967 
2185.000000	99.129621 
2184.000000	99.128462 
2183.000000	99.124848 
2182.000000	99.136404 
2181.000000	99.166031 
2180.000000	99.196480 
2179.000000	99.207969 
2178.000000	99.196465 
2177.000000	99.174256 
2176.000000	99.157388 
2175.000000	99.153685 
2174.000000	99.159477 
2173.000000	99.165263 
2172.000000	99.164307 
2171.000000	99.155288 
2170.000000	99.137940 
2169.000000	99.111000 
2168.000000	99.077005 
2167.000000	99.044733 
2166.000000	99.021747 
2165.000000	99.005732 
2164.000000	98.987410 
2163.000000	98.962451 
2162.000000	98.939369 
2161.000000	98.937917 
2160.000000	98.978841 
2159.000000	99.066054 
2158.000000	99.173840 
2157.000000	99.261599 
2156.000000	99.308679 
2155.000000	99.326055 
2154.000000	99.332674 
2153.000000	99.333115 
2152.000000	99.323004 
2151.000000	99.305338 
2150.000000	99.290428 
2149.000000	99.283657 
2148.000000	99.283116 
2147.000000	99.288306 
2146.000000	99.302251 
2145.000000	99.324072 
2144.000000	99.346595 
2143.000000	99.362975 
2142.000000	99.371110 
2141.000000	99.371976 
2140.000000	99.368978 
2139.000000	99.369440 
2138.000000	99.381886 
2137.000000	99.409629 
2136.000000	99.448545 
2135.000000	99.490564 
2134.000000	99.526764 
2133.000000	99.549052 
2132.000000	99.554100 
2131.000000	99.546757 
2130.000000	99.537047 
2129.000000	99.532674 
2128.000000	99.534616 
2127.000000	99.539140 
2126.000000	99.542736 
2125.000000	99.545169 
2124.000000	99.548273 
2123.000000	99.551457 
2122.000000	99.549374 
2121.000000	99.536714 
2120.000000	99.515443 
2119.000000	99.493827 
2118.000000	99.477228 
2117.000000	99.463451 
2116.000000	99.448863 
2115.000000	99.434977 
2114.000000	99.425463 
2113.000000	99.419774 
2112.000000	99.414131 
2111.000000	99.407185 
2110.000000	99.400719 
2109.000000	99.395975 
2108.000000	99.392875 
2107.000000	99.391624 
2106.000000	99.391545 
2105.000000	99.389684 
2104.000000	99.384499 
2103.000000	99.380083 
2102.000000	99.382733 
2101.000000	99.393519 
2100.000000	99.407355 
2099.000000	99.418610 
2098.000000	99.424730 
2097.000000	99.425957 
2096.000000	99.425844 
2095.000000	99.431099 
2094.000000	99.445856 
2093.000000	99.465588 
2092.000000	99.480382 
2091.000000	99.484661 
2090.000000	99.481178 
2089.000000	99.476448 
2088.000000	99.475180 
2087.000000	99.478192 
2086.000000	99.481913 
2085.000000	99.480068 
2084.000000	99.469772 
2083.000000	99.456264 
2082.000000	99.447830 
2081.000000	99.445447 
2080.000000	99.441355 
2079.000000	99.429237 
2078.000000	99.412180 
2077.000000	99.398425 
2076.000000	99.392500 
2075.000000	99.393428 
2074.000000	99.398825 
2073.000000	99.406972 
2072.000000	99.415126 
2071.000000	99.419126 
2070.000000	99.416279 
2069.000000	99.407636 
2068.000000	99.396674 
2067.000000	99.386208 
2066.000000	99.377679 
2065.000000	99.372832 
2064.000000	99.373720 
2063.000000	99.379651 
2062.000000	99.385853 
2061.000000	99.387594 
2060.000000	99.384981 
2059.000000	99.381165 
2058.000000	99.376770 
2057.000000	99.369718 
2056.000000	99.360025 
2055.000000	99.349982 
2054.000000	99.338756 
2053.000000	99.322179 
2052.000000	99.299984 
2051.000000	99.278749 
2050.000000	99.265473 
2049.000000	99.261733 
2048.000000	99.265852 
2047.000000	99.276040 
2046.000000	99.287218 
2045.000000	99.290048 
2044.000000	99.279619 
2043.000000	99.261558 
2042.000000	99.244206 
2041.000000	99.228836 
2040.000000	99.213276 
2039.000000	99.200801 
2038.000000	99.197499 
2037.000000	99.202989 
2036.000000	99.210801 
2035.000000	99.216620 
2034.000000	99.219730 
2033.000000	99.218684 
2032.000000	99.213579 
2031.000000	99.210598 
2030.000000	99.215739 
2029.000000	99.224898 
2028.000000	99.227645 
2027.000000	99.220937 
2026.000000	99.211411 
2025.000000	99.205135 
2024.000000	99.202907 
2023.000000	99.206063 
2022.000000	99.218221 
2021.000000	99.236639 
2020.000000	99.248427 
2019.000000	99.241862 
2018.000000	99.220461 
2017.000000	99.202517 
2016.000000	99.204595 
2015.000000	99.225150 
2014.000000	99.245271 
2013.000000	99.246191 
2012.000000	99.226883 
2011.000000	99.203887 
2010.000000	99.195053 
2009.000000	99.207037 
2008.000000	99.236687 
2007.000000	99.276850 
2006.000000	99.316449 
2005.000000	99.342160 
2004.000000	99.347586 
2003.000000	99.338382 
2002.000000	99.325994 
2001.000000	99.319195 
2000.000000	99.323131 
1999.000000	99.338283 
1998.000000	99.356191 
1997.000000	99.363355 
1996.000000	99.354704 
1995.000000	99.338578 
1994.000000	99.324886 
1993.000000	99.314535 
1992.000000	99.304360 
1991.000000	99.296218 
1990.000000	99.293637 
1989.000000	99.294336 
1988.000000	99.293512 
1987.000000	99.290124 
1986.000000	99.283535 
1985.000000	99.268706 
1984.000000	99.241833 
1983.000000	99.206615 
1982.000000	99.168644 
1981.000000	99.128322 
1980.000000	99.088248 
1979.000000	99.061140 
1978.000000	99.058939 
1977.000000	99.076811 
1976.000000	99.100415 
1975.000000	99.127606 
1974.000000	99.167761 
1973.000000	99.220769 
1972.000000	99.270879 
1971.000000	99.303666 
1970.000000	99.318540 
1969.000000	99.323468 
1968.000000	99.326560 
1967.000000	99.334145 
1966.000000	99.348370 
1965.000000	99.363378 
1964.000000	99.370310 
1963.000000	99.368404 
1962.000000	99.366255 
1961.000000	99.370981 
1960.000000	99.381026 
1959.000000	99.391076 
1958.000000	99.399033 
1957.000000	99.405760 
1956.000000	99.412200 
1955.000000	99.419080 
1954.000000	99.426192 
1953.000000	99.430776 
1952.000000	99.428409 
1951.000000	99.418206 
1950.000000	99.405273 
1949.000000	99.396001 
1948.000000	99.393559 
1947.000000	99.397814 
1946.000000	99.407068 
1945.000000	99.418969 
1944.000000	99.430849 
1943.000000	99.439859 
1942.000000	99.443747 
1941.000000	99.443922 
1940.000000	99.446275 
1939.000000	99.455320 
1938.000000	99.467919 
1937.000000	99.475378 
1936.000000	99.473242 
1935.000000	99.466120 
1934.000000	99.460779 
1933.000000	99.458909 
1932.000000	99.458529 
1931.000000	99.460395 
1930.000000	99.466927 
1929.000000	99.475573 
1928.000000	99.481166 
1927.000000	99.481711 
1926.000000	99.480205 
1925.000000	99.479860 
1924.000000	99.481994 
1923.000000	99.489162 
1922.000000	99.503163 
1921.000000	99.520671 
1920.000000	99.535008 
1919.000000	99.542362 
1918.000000	99.543735 
1917.000000	99.541855 
1916.000000	99.540056 
1915.000000	99.541324 
1914.000000	99.545418 
1913.000000	99.548551 
1912.000000	99.546744 
1911.000000	99.540780 
1910.000000	99.534376 
1909.000000	99.528443 
1908.000000	99.521823 
1907.000000	99.513906 
1906.000000	99.505959 
1905.000000	99.498941 
1904.000000	99.493299 
1903.000000	99.491685 
1902.000000	99.494875 
1901.000000	99.498363 
1900.000000	99.498002 
1899.000000	99.494837 
1898.000000	99.492111 
1897.000000	99.489987 
1896.000000	99.487610 
1895.000000	99.489208 
1894.000000	99.500033 
1893.000000	99.517263 
1892.000000	99.530993 
1891.000000	99.533563 
1890.000000	99.524041 
1889.000000	99.506709 
1888.000000	99.489582 
1887.000000	99.480565 
1886.000000	99.480557 
1885.000000	99.482109 
1884.000000	99.477261 
1883.000000	99.467130 
1882.000000	99.459335 
1881.000000	99.457977 
1880.000000	99.461732 
1879.000000	99.467691 
1878.000000	99.473769 
1877.000000	99.478800 
1876.000000	99.482366 
1875.000000	99.486095 
1874.000000	99.492407 
1873.000000	99.501163 
1872.000000	99.510930 
1871.000000	99.521971 
1870.000000	99.533408 
1869.000000	99.538813 
1868.000000	99.533488 
1867.000000	99.524013 
1866.000000	99.518128 
1865.000000	99.513183 
1864.000000	99.503240 
1863.000000	99.491068 
1862.000000	99.486479 
1861.000000	99.493310 
1860.000000	99.504534 
1859.000000	99.511633 
1858.000000	99.512968 
1857.000000	99.511893 
1856.000000	99.511560 
1855.000000	99.512620 
1854.000000	99.512403 
1853.000000	99.505868 
1852.000000	99.494213 
1851.000000	99.485409 
1850.000000	99.485275 
1849.000000	99.493046 
1848.000000	99.504090 
1847.000000	99.515271 
1846.000000	99.524424 
1845.000000	99.529136 
1844.000000	99.529516 
1843.000000	99.532893 
1842.000000	99.545963 
1841.000000	99.564361 
1840.000000	99.581027 
1839.000000	99.593356 
1838.000000	99.601246 
1837.000000	99.603481 
1836.000000	99.600464 
1835.000000	99.597869 
1834.000000	99.599682 
1833.000000	99.602159 
1832.000000	99.599506 
1831.000000	99.589986 
1830.000000	99.576933 
1829.000000	99.566977 
1828.000000	99.564918 
1827.000000	99.569372 
1826.000000	99.575220 
1825.000000	99.577906 
1824.000000	99.575314 
1823.000000	99.570451 
1822.000000	99.567409 
1821.000000	99.567071 
1820.000000	99.568680 
1819.000000	99.572184 
1818.000000	99.578446 
1817.000000	99.583695 
1816.000000	99.581376 
1815.000000	99.572701 
1814.000000	99.564928 
1813.000000	99.562215 
1812.000000	99.561486 
1811.000000	99.560346 
1810.000000	99.563349 
1809.000000	99.571299 
1808.000000	99.576946 
1807.000000	99.576225 
1806.000000	99.573617 
1805.000000	99.573622 
1804.000000	99.574759 
1803.000000	99.575096 
1802.000000	99.573954 
1801.000000	99.569986 
1800.000000	99.561109 
1799.000000	99.550281 
1798.000000	99.545227 
1797.000000	99.547135 
1796.000000	99.549954 
1795.000000	99.549909 
1794.000000	99.549700 
1793.000000	99.553638 
1792.000000	99.559830 
1791.000000	99.565144 
1790.000000	99.571335 
1789.000000	99.577529 
1788.000000	99.581476 
1787.000000	99.585456 
1786.000000	99.593002 
1785.000000	99.599908 
1784.000000	99.598111 
1783.000000	99.589324 
1782.000000	99.580850 
1781.000000	99.578683 
1780.000000	99.582967 
1779.000000	99.590049 
1778.000000	99.599231 
1777.000000	99.609927 
1776.000000	99.621477 
1775.000000	99.631525 
1774.000000	99.637010 
1773.000000	99.636873 
1772.000000	99.630792 
1771.000000	99.620837 
1770.000000	99.613819 
1769.000000	99.613373 
1768.000000	99.617735 
1767.000000	99.622848 
1766.000000	99.625869 
1765.000000	99.626551 
1764.000000	99.624218 
1763.000000	99.618593 
1762.000000	99.610922 
1761.000000	99.606340 
1760.000000	99.608099 
1759.000000	99.613178 
1758.000000	99.617843 
1757.000000	99.622046 
1756.000000	99.628396 
1755.000000	99.634626 
1754.000000	99.636157 
1753.000000	99.634737 
1752.000000	99.638290 
1751.000000	99.646721 
1750.000000	99.652386 
1749.000000	99.653066 
1748.000000	99.653922 
1747.000000	99.658684 
1746.000000	99.663384 
1745.000000	99.666127 
1744.000000	99.668515 
1743.000000	99.670221 
1742.000000	99.669560 
1741.000000	99.666000 
1740.000000	99.659120 
1739.000000	99.649645 
1738.000000	99.639783 
1737.000000	99.627519 
1736.000000	99.611760 
1735.000000	99.600958 
1734.000000	99.597960 
1733.000000	99.595907 
1732.000000	99.596970 
1731.000000	99.598422 
1730.000000	99.595239 
1729.000000	99.586993 
1728.000000	99.578420 
1727.000000	99.576188 
1726.000000	99.582673 
1725.000000	99.596750 
1724.000000	99.611578 
1723.000000	99.621750 
1722.000000	99.629420 
1721.000000	99.635613 
1720.000000	99.638061 
1719.000000	99.638575 
1718.000000	99.643987 
1717.000000	99.651220 
1716.000000	99.650623 
1715.000000	99.644892 
1714.000000	99.642946 
1713.000000	99.644570 
1712.000000	99.641920 
1711.000000	99.633852 
1710.000000	99.626044 
1709.000000	99.620597 
1708.000000	99.614387 
1707.000000	99.606401 
1706.000000	99.601707 
1705.000000	99.600601 
1704.000000	99.596216 
1703.000000	99.584269 
1702.000000	99.570763 
1701.000000	99.568226 
1700.000000	99.570387 
1699.000000	99.568249 
1698.000000	99.569967 
1697.000000	99.569187 
1696.000000	99.561148 
1695.000000	99.551870 
1694.000000	99.552567 
1693.000000	99.560704 
1692.000000	99.563572 
1691.000000	99.559863 
1690.000000	99.554131 
1689.000000	99.548694 
1688.000000	99.546096 
1687.000000	99.544520 
1686.000000	99.543514 
1685.000000	99.543283 
1684.000000	99.534765 
1683.000000	99.521392 
1682.000000	99.517280 
1681.000000	99.515968 
1680.000000	99.515146 
1679.000000	99.517102 
1678.000000	99.516679 
1677.000000	99.509311 
1676.000000	99.501031 
1675.000000	99.500339 
1674.000000	99.504702 
1673.000000	99.508725 
1672.000000	99.507654 
1671.000000	99.502755 
1670.000000	99.497552 
1669.000000	99.491895 
1668.000000	99.491943 
1667.000000	99.501233 
1666.000000	99.512646 
1665.000000	99.519427 
1664.000000	99.521470 
1663.000000	99.522650 
1662.000000	99.521405 
1661.000000	99.515377 
1660.000000	99.508594 
1659.000000	99.503149 
1658.000000	99.496352 
1657.000000	99.486859 
1656.000000	99.477131 
1655.000000	99.472846 
1654.000000	99.481442 
1653.000000	99.481242 
1652.000000	99.459489 
1651.000000	99.453887 
1650.000000	99.455850 
1649.000000	99.448768 
1648.000000	99.440318 
1647.000000	99.439191 
1646.000000	99.443987 
1645.000000	99.452624 
1644.000000	99.462875 
1643.000000	99.470401 
1642.000000	99.472933 
1641.000000	99.470869 
1640.000000	99.466842 
1639.000000	99.461041 
1638.000000	99.453522 
1637.000000	99.447379 
1636.000000	99.445476 
1635.000000	99.442937 
1634.000000	99.441375 
1633.000000	99.445146 
1632.000000	99.449961 
1631.000000	99.456533 
1630.000000	99.466351 
1629.000000	99.476299 
1628.000000	99.482487 
1627.000000	99.485507 
1626.000000	99.485391 
1625.000000	99.480638 
1624.000000	99.473006 
1623.000000	99.466644 
1622.000000	99.462487 
1621.000000	99.459193 
1620.000000	99.456181 
1619.000000	99.453119 
1618.000000	99.450850 
1617.000000	99.446482 
1616.000000	99.439655 
1615.000000	99.438341 
1614.000000	99.443379 
1613.000000	99.448250 
1612.000000	99.453809 
1611.000000	99.464314 
1610.000000	99.475268 
1609.000000	99.479158 
1608.000000	99.478459 
1607.000000	99.481163 
1606.000000	99.486713 
1605.000000	99.490850 
1604.000000	99.495827 
1603.000000	99.503920 
1602.000000	99.512377 
1601.000000	99.518315 
1600.000000	99.523475 
1599.000000	99.529160 
1598.000000	99.532471 
1597.000000	99.532173 
1596.000000	99.532182 
1595.000000	99.536183 
1594.000000	99.541961 
1593.000000	99.545339 
1592.000000	99.546302 
1591.000000	99.546480 
1590.000000	99.544247 
1589.000000	99.538123 
1588.000000	99.531690 
1587.000000	99.529789 
1586.000000	99.531744 
1585.000000	99.533398 
1584.000000	99.537195 
1583.000000	99.546511 
1582.000000	99.556035 
1581.000000	99.559799 
1580.000000	99.560249 
1579.000000	99.561109 
1578.000000	99.561940 
1577.000000	99.563232 
1576.000000	99.565325 
1575.000000	99.568323 
1574.000000	99.570895 
1573.000000	99.568998 
1572.000000	99.564013 
1571.000000	99.563202 
1570.000000	99.566288 
1569.000000	99.564837 
1568.000000	99.561794 
1567.000000	99.560971 
1566.000000	99.556791 
1565.000000	99.547053 
1564.000000	99.537960 
1563.000000	99.531066 
1562.000000	99.518994 
1561.000000	99.501557 
1560.000000	99.505054 
1559.000000	99.530025 
1558.000000	99.532965 
1557.000000	99.523598 
1556.000000	99.519042 
1555.000000	99.516985 
1554.000000	99.514096 
1553.000000	99.509352 
1552.000000	99.505217 
1551.000000	99.502578 
1550.000000	99.503832 
1549.000000	99.507982 
1548.000000	99.512198 
1547.000000	99.513923 
1546.000000	99.510170 
1545.000000	99.501208 
1544.000000	99.490567 
1543.000000	99.481785 
1542.000000	99.477851 
1541.000000	99.477155 
1540.000000	99.467104 
1539.000000	99.444623 
1538.000000	99.425907 
1537.000000	99.412642 
1536.000000	99.393970 
1535.000000	99.371868 
1534.000000	99.353713 
1533.000000	99.341251 
1532.000000	99.331658 
1531.000000	99.323023 
1530.000000	99.314666 
1529.000000	99.305634 
1528.000000	99.296164 
1527.000000	99.288897 
1526.000000	99.284462 
1525.000000	99.279650 
1524.000000	99.270370 
1523.000000	99.256533 
1522.000000	99.243513 
1521.000000	99.233430 
1520.000000	99.225314 
1519.000000	99.217242 
1518.000000	99.204690 
1517.000000	99.187745 
1516.000000	99.168584 
1515.000000	99.148987 
1514.000000	99.129945 
1513.000000	99.113901 
1512.000000	99.102393 
1511.000000	99.092755 
1510.000000	99.081816 
1509.000000	99.069069 
1508.000000	99.058389 
1507.000000	99.046674 
1506.000000	99.025430 
1505.000000	99.004614 
1504.000000	98.993531 
1503.000000	98.982433 
1502.000000	98.966117 
1501.000000	98.947346 
1500.000000	98.929151 
1499.000000	98.910968 
1498.000000	98.893898 
1497.000000	98.882406 
1496.000000	98.876226 
1495.000000	98.874493 
1494.000000	98.876573 
1493.000000	98.877570 
1492.000000	98.873582 
1491.000000	98.866794 
1490.000000	98.861594 
1489.000000	98.856244 
1488.000000	98.843624 
1487.000000	98.824500 
1486.000000	98.806301 
1485.000000	98.789397 
1484.000000	98.772809 
1483.000000	98.757462 
1482.000000	98.745039 
1481.000000	98.735121 
1480.000000	98.723749 
1479.000000	98.708865 
1478.000000	98.691643 
1477.000000	98.673686 
1476.000000	98.654011 
1475.000000	98.634559 
1474.000000	98.619105 
1473.000000	98.608561 
1472.000000	98.599585 
1471.000000	98.591407 
1470.000000	98.587531 
1469.000000	98.586781 
1468.000000	98.585216 
1467.000000	98.581612 
1466.000000	98.576080 
1465.000000	98.568036 
1464.000000	98.558656 
1463.000000	98.550003 
1462.000000	98.543881 
1461.000000	98.539757 
1460.000000	98.535640 
1459.000000	98.528280 
1458.000000	98.515138 
1457.000000	98.496531 
1456.000000	98.479537 
1455.000000	98.472095 
1454.000000	98.468500 
1453.000000	98.465234 
1452.000000	98.466677 
1451.000000	98.473045 
1450.000000	98.480858 
1449.000000	98.488592 
1448.000000	98.495318 
1447.000000	98.499248 
1446.000000	98.498525 
1445.000000	98.496594 
1444.000000	98.497747 
1443.000000	98.498462 
1442.000000	98.494599 
1441.000000	98.488141 
1440.000000	98.483273 
1439.000000	98.478720 
1438.000000	98.474686 
1437.000000	98.476685 
1436.000000	98.486196 
1435.000000	98.497743 
1434.000000	98.506803 
1433.000000	98.513669 
1432.000000	98.521294 
1431.000000	98.529476 
1430.000000	98.536171 
1429.000000	98.543238 
1428.000000	98.552047 
1427.000000	98.560624 
1426.000000	98.565162 
1425.000000	98.569192 
1424.000000	98.579860 
1423.000000	98.593055 
1422.000000	98.600085 
1421.000000	98.601965 
1420.000000	98.609350 
1419.000000	98.624452 
1418.000000	98.639798 
1417.000000	98.654391 
1416.000000	98.669752 
1415.000000	98.684310 
1414.000000	98.696990 
1413.000000	98.710147 
1412.000000	98.725586 
1411.000000	98.739245 
1410.000000	98.747825 
1409.000000	98.754682 
1408.000000	98.763157 
1407.000000	98.772471 
1406.000000	98.779663 
1405.000000	98.786365 
1404.000000	98.797800 
1403.000000	98.812900 
1402.000000	98.826772 
1401.000000	98.838689 
1400.000000	98.852508 
1399.000000	98.868579 
1398.000000	98.883536 
1397.000000	98.897675 
1396.000000	98.914995 
1395.000000	98.936793 
1394.000000	98.957857 
1393.000000	98.974887 
1392.000000	98.988650 
1391.000000	98.997862 
1390.000000	99.001971 
1389.000000	99.005758 
1388.000000	99.016565 
1387.000000	99.036413 
1386.000000	99.059890 
1385.000000	99.081825 
1384.000000	99.101783 
1383.000000	99.120025 
1382.000000	99.135692 
1381.000000	99.147839 
1380.000000	99.157080 
1379.000000	99.164832 
1378.000000	99.170956 
1377.000000	99.174382 
1376.000000	99.175590 
1375.000000	99.176757 
1374.000000	99.178748 
1373.000000	99.181068 
1372.000000	99.183300 
1371.000000	99.185453 
1370.000000	99.187429 
1369.000000	99.190493 
1368.000000	99.197014 
1367.000000	99.206591 
1366.000000	99.216470 
1365.000000	99.224606 
1364.000000	99.230930 
1363.000000	99.235960 
1362.000000	99.240643 
1361.000000	99.247017 
1360.000000	99.256048 
1359.000000	99.265308 
1358.000000	99.271062 
1357.000000	99.272683 
1356.000000	99.273489 
1355.000000	99.276551 
1354.000000	99.282101 
1353.000000	99.288574 
1352.000000	99.293978 
1351.000000	99.297559 
1350.000000	99.298937 
1349.000000	99.298755 
1348.000000	99.299363 
1347.000000	99.302357 
1346.000000	99.307991 
1345.000000	99.315569 
1344.000000	99.323184 
1343.000000	99.327275 
1342.000000	99.325766 
1341.000000	99.321766 
1340.000000	99.321093 
1339.000000	99.324400 
1338.000000	99.325951 
1337.000000	99.322320 
1336.000000	99.317573 
1335.000000	99.317880 
1334.000000	99.324301 
1333.000000	99.332540 
1332.000000	99.338059 
1331.000000	99.339527 
1330.000000	99.338430 
1329.000000	99.337248 
1328.000000	99.337512 
1327.000000	99.338778 
1326.000000	99.339575 
1325.000000	99.340212 
1324.000000	99.342723 
1323.000000	99.346903 
1322.000000	99.349495 
1321.000000	99.348190 
1320.000000	99.344423 
1319.000000	99.340942 
1318.000000	99.338763 
1317.000000	99.337577 
1316.000000	99.337288 
1315.000000	99.337706 
1314.000000	99.338244 
1313.000000	99.338898 
1312.000000	99.340197 
1311.000000	99.341572 
1310.000000	99.341425 
1309.000000	99.339448 
1308.000000	99.337049 
1307.000000	99.335016 
1306.000000	99.331952 
1305.000000	99.326356 
1304.000000	99.318761 
1303.000000	99.310837 
1302.000000	99.304287 
1301.000000	99.300789 
1300.000000	99.301040 
1299.000000	99.302833 
1298.000000	99.302230 
1297.000000	99.297648 
1296.000000	99.291407 
1295.000000	99.286542 
1294.000000	99.283858 
1293.000000	99.282795 
1292.000000	99.282681 
1291.000000	99.281966 
1290.000000	99.278451 
1289.000000	99.271876 
1288.000000	99.264577 
1287.000000	99.258154 
1286.000000	99.251213 
1285.000000	99.242056 
1284.000000	99.231943 
1283.000000	99.223870 
1282.000000	99.219121 
1281.000000	99.216232 
1280.000000	99.212537 
1279.000000	99.205549 
1278.000000	99.194217 
1277.000000	99.180349 
1276.000000	99.167784 
1275.000000	99.158921 
1274.000000	99.152801 
1273.000000	99.147493 
1272.000000	99.142950 
1271.000000	99.140374 
1270.000000	99.140189 
1269.000000	99.141950 
1268.000000	99.144851 
1267.000000	99.146913 
1266.000000	99.145578 
1265.000000	99.140816 
1264.000000	99.135788 
1263.000000	99.132672 
1262.000000	99.129483 
1261.000000	99.122998 
1260.000000	99.113276 
1259.000000	99.102543 
1258.000000	99.090941 
1257.000000	99.076634 
1256.000000	99.059708 
1255.000000	99.043182 
1254.000000	99.029503 
1253.000000	99.017974 
1252.000000	99.006314 
1251.000000	98.993353 
1250.000000	98.979413 
1249.000000	98.964952 
1248.000000	98.949486 
1247.000000	98.931753 
1246.000000	98.911222 
1245.000000	98.889414 
1244.000000	98.868677 
1243.000000	98.849361 
1242.000000	98.829517 
1241.000000	98.808188 
1240.000000	98.787476 
1239.000000	98.769835 
1238.000000	98.754350 
1237.000000	98.737510 
1236.000000	98.717243 
1235.000000	98.694692 
1234.000000	98.672226 
1233.000000	98.650847 
1232.000000	98.629352 
1231.000000	98.605234 
1230.000000	98.576816 
1229.000000	98.544829 
1228.000000	98.510819 
1227.000000	98.473664 
1226.000000	98.429518 
1225.000000	98.376445 
1224.000000	98.317273 
1223.000000	98.255946 
1222.000000	98.192492 
1221.000000	98.123851 
1220.000000	98.048358 
1219.000000	97.966498 
1218.000000	97.878001 
1217.000000	97.781676 
1216.000000	97.678560 
1215.000000	97.572482 
1214.000000	97.466733 
1213.000000	97.362345 
1212.000000	97.259873 
1211.000000	97.160073 
1210.000000	97.062076 
1209.000000	96.963385 
1208.000000	96.862542 
1207.000000	96.759722 
1206.000000	96.654619 
1205.000000	96.546564 
1204.000000	96.437191 
1203.000000	96.330015 
1202.000000	96.226384 
1201.000000	96.124314 
1200.000000	96.021725 
1199.000000	95.918115 
1198.000000	95.813029 
1197.000000	95.706145 
1196.000000	95.599009 
1195.000000	95.493286 
1194.000000	95.387167 
1193.000000	95.277318 
1192.000000	95.164568 
1191.000000	95.053383 
1190.000000	94.945256 
1189.000000	94.837087 
1188.000000	94.726664 
1187.000000	94.614772 
1186.000000	94.500897 
1185.000000	94.382214 
1184.000000	94.258721 
1183.000000	94.134416 
1182.000000	94.010892 
1181.000000	93.884017 
1180.000000	93.749318 
1179.000000	93.606738 
1178.000000	93.458127 
1177.000000	93.304131 
1176.000000	93.145711 
1175.000000	92.984871 
1174.000000	92.821742 
1173.000000	92.654512 
1172.000000	92.483700 
1171.000000	92.312774 
1170.000000	92.143673 
1169.000000	91.976022 
1168.000000	91.811670 
1167.000000	91.655899 
1166.000000	91.514811 
1165.000000	91.397574 
1164.000000	91.320627 
1163.000000	91.300707 
1162.000000	91.339822 
1161.000000	91.421206 
1160.000000	91.519509 
1159.000000	91.609171 
1158.000000	91.666266 
1157.000000	91.673913 
1156.000000	91.630127 
1155.000000	91.545691 
1154.000000	91.433161 
1153.000000	91.301855 
1152.000000	91.161551 
1151.000000	91.022349 
1150.000000	90.888537 
1149.000000	90.758673 
1148.000000	90.632629 
1147.000000	90.512135 
1146.000000	90.394415 
1145.000000	90.273319 
1144.000000	90.147942 
1143.000000	90.022885 
1142.000000	89.899590 
1141.000000	89.775349 
1140.000000	89.651029 
1139.000000	89.530686 
1138.000000	89.412587 
1137.000000	89.289975 
1136.000000	89.162088 
1135.000000	89.034961 
1134.000000	88.909852 
1133.000000	88.781004 
1132.000000	88.647202 
1131.000000	88.515334 
1130.000000	88.389322 
1129.000000	88.265089 
1128.000000	88.139803 
1127.000000	88.016713 
1126.000000	87.897389 
1125.000000	87.778049 
1124.000000	87.656939 
1123.000000	87.537024 
1122.000000	87.418801 
1121.000000	87.298827 
1120.000000	87.177292 
1119.000000	87.058327 
1118.000000	86.941427 
1117.000000	86.821918 
1116.000000	86.701072 
1115.000000	86.585719 
1114.000000	86.476706 
1113.000000	86.368144 
1112.000000	86.258925 
1111.000000	86.153808 
1110.000000	86.052457 
1109.000000	85.949672 
1108.000000	85.847100 
1107.000000	85.751433 
1106.000000	85.659668 
1105.000000	85.560390 
1104.000000	85.452363 
1103.000000	85.347508 
1102.000000	85.252090 
1101.000000	85.159293 
1100.000000	85.064247 
1099.000000	84.972030 
1098.000000	84.885518 
1097.000000	84.799045 
1096.000000	84.710535 
1095.000000	84.627758 
1094.000000	84.556771 
1093.000000	84.495041 
1092.000000	84.440537 
1091.000000	84.396390 
1090.000000	84.362443 
1089.000000	84.333159 
1088.000000	84.307217 
1087.000000	84.288393 
1086.000000	84.275011 
1085.000000	84.260364 
1084.000000	84.245192 
1083.000000	84.237280 
1082.000000	84.237234 
1081.000000	84.237922 
1080.000000	84.239420 
1079.000000	84.249947 
1078.000000	84.268902 
1077.000000	84.282836 
1076.000000	84.281799 
1075.000000	84.266753 
1074.000000	84.238116 
1073.000000	84.190381 
1072.000000	84.121253 
1071.000000	84.033223 
1070.000000	83.922971 
1069.000000	83.781920 
1068.000000	83.610462 
1067.000000	83.419451 
1066.000000	83.215145 
1065.000000	82.995799 
1064.000000	82.766114 
1063.000000	82.541101 
1062.000000	82.331246 
1061.000000	82.136183 
1060.000000	81.955304 
1059.000000	81.790166 
1058.000000	81.633749 
1057.000000	81.472915 
1056.000000	81.305768 
1055.000000	81.142666 
1054.000000	80.987142 
1053.000000	80.830838 
1052.000000	80.671039 
1051.000000	80.516532 
1050.000000	80.370518 
1049.000000	80.225029 
1048.000000	80.077424 
1047.000000	79.934104 
1046.000000	79.794294 
1045.000000	79.648265 
1044.000000	79.494127 
1043.000000	79.339533 
1042.000000	79.185319 
1041.000000	79.025148 
1040.000000	78.863912 
1039.000000	78.717847 
1038.000000	78.591700 
1037.000000	78.473409 
1036.000000	78.355862 
1035.000000	78.246218 
1034.000000	78.149330 
1033.000000	78.060211 
1032.000000	77.978206 
1031.000000	77.911075 
1030.000000	77.859711 
1029.000000	77.815560 
1028.000000	77.777412 
1027.000000	77.753297 
1026.000000	77.741541 
1025.000000	77.727827 
1024.000000	77.705869 
1023.000000	77.683643 
1022.000000	77.664605 
1021.000000	77.640425 
1020.000000	77.607646 
1019.000000	77.574531 
1018.000000	77.545902 
1017.000000	77.517117 
1016.000000	77.487331 
1015.000000	77.462251 
1014.000000	77.439799 
1013.000000	77.410137 
1012.000000	77.374326 
1011.000000	77.346162 
1010.000000	77.331235 
1009.000000	77.320870 
1008.000000	77.310520 
1007.000000	77.306390 
1006.000000	77.309550 
1005.000000	77.311715 
1004.000000	77.312415 
1003.000000	77.323176 
1002.000000	77.349018 
1001.000000	77.382153 
1000.000000	77.418786 
999.000000	 77.465049 
998.000000	 77.521081 
997.000000	 77.576519 
996.000000	 77.627864 
995.000000	 77.683876 
994.000000	 77.747800 
993.000000	 77.810562 
992.000000	 77.868039 
991.000000	 77.929358 
990.000000	 78.001297 
989.000000	 78.079194 
988.000000	 78.159638 
987.000000	 78.247750 
986.000000	 78.345656 
985.000000	 78.447665 
984.000000	 78.552889 
983.000000	 78.669380 
982.000000	 78.800239 
981.000000	 78.938350 
980.000000	 79.079414 
979.000000	 79.227531 
978.000000	 79.384384 
977.000000	 79.546213 
976.000000	 79.714775 
975.000000	 79.897089 
974.000000	 80.090338 
973.000000	 80.281071 
972.000000	 80.463955 
971.000000	 80.648123 
970.000000	 80.840601 
969.000000	 81.036397 
968.000000	 81.229547 
967.000000	 81.421455 
966.000000	 81.613569 
965.000000	 81.803313 
964.000000	 81.991700 
963.000000	 82.184297 
962.000000	 82.381007 
961.000000	 82.574979 
960.000000	 82.763895 
959.000000	 82.951781 
958.000000	 83.138139 
957.000000	 83.316755 
956.000000	 83.486953 
955.000000	 83.654333 
954.000000	 83.818579 
953.000000	 83.972722 
952.000000	 84.116749 
951.000000	 84.259881 
950.000000	 84.406791 
949.000000	 84.553213 
948.000000	 84.697041 
947.000000	 84.840886 
946.000000	 84.980780 
945.000000	 85.105525 
944.000000	 85.211857 
943.000000	 85.309473 
942.000000	 85.407718 
941.000000	 85.508157 
940.000000	 85.612531 
939.000000	 85.725062 
938.000000	 85.842493 
937.000000	 85.954044 
936.000000	 86.056463 
935.000000	 86.158437 
934.000000	 86.265770 
933.000000	 86.373109 
932.000000	 86.475048 
931.000000	 86.574602 
930.000000	 86.675494 
929.000000	 86.775932 
928.000000	 86.875078 
927.000000	 86.976338 
926.000000	 87.079486 
925.000000	 87.178231 
924.000000	 87.269558 
923.000000	 87.356835 
922.000000	 87.440605 
921.000000	 87.515816 
920.000000	 87.581825 
919.000000	 87.645816 
918.000000	 87.712621 
917.000000	 87.780285 
916.000000	 87.848877 
915.000000	 87.923706 
914.000000	 88.006020 
913.000000	 88.090572 
912.000000	 88.176583 
911.000000	 88.271413 
910.000000	 88.379181 
909.000000	 88.495571 
908.000000	 88.617914 
907.000000	 88.750014 
906.000000	 88.892462 
905.000000	 89.038505 
904.000000	 89.184394 
903.000000	 89.333756 
902.000000	 89.486959 
901.000000	 89.636534 
900.000000	 89.779093 
899.000000	 89.922285 
898.000000	 90.073054 
897.000000	 90.227060 
896.000000	 90.376138 
895.000000	 90.518797 
894.000000	 90.657012 
893.000000	 90.788969 
892.000000	 90.911011 
891.000000	 91.021539 
890.000000	 91.117920 
889.000000	 91.194673 
888.000000	 91.249717 
887.000000	 91.288521 
886.000000	 91.318575 
885.000000	 91.344179 
884.000000	 91.369275 
883.000000	 91.398776 
882.000000	 91.432433 
881.000000	 91.463124 
880.000000	 91.486441 
879.000000	 91.508104 
878.000000	 91.539016 
877.000000	 91.588209 
876.000000	 91.662978 
875.000000	 91.768293 
874.000000	 91.901312 
873.000000	 92.052170 
872.000000	 92.213158 
871.000000	 92.381470 
870.000000	 92.551649 
869.000000	 92.712841 
868.000000	 92.856777 
867.000000	 92.983619 
866.000000	 93.098366 
865.000000	 93.206293 
864.000000	 93.312516 
863.000000	 93.420176 
862.000000	 93.527487 
861.000000	 93.631267 
860.000000	 93.733067 
859.000000	 93.835654 
858.000000	 93.934293 
857.000000	 94.020116 
856.000000	 94.093465 
855.000000	 94.165385 
854.000000	 94.243231 
853.000000	 94.322742 
852.000000	 94.397313 
851.000000	 94.466369 
850.000000	 94.529932 
849.000000	 94.582966 
848.000000	 94.621491 
847.000000	 94.648875 
846.000000	 94.671080 
845.000000	 94.691193 
844.000000	 94.712882 
843.000000	 94.741645 
842.000000	 94.775434 
841.000000	 94.800270 
840.000000	 94.803613 
839.000000	 94.789042 
838.000000	 94.771134 
837.000000	 94.758987 
836.000000	 94.751748 
835.000000	 94.747382 
834.000000	 94.748073 
833.000000	 94.757773 
832.000000	 94.780107 
831.000000	 94.817029 
830.000000	 94.863374 
829.000000	 94.904089 
828.000000	 94.924433 
827.000000	 94.925225 
826.000000	 94.923133 
825.000000	 94.933302 
824.000000	 94.954984 
823.000000	 94.975344 
822.000000	 94.983272 
821.000000	 94.976561 
820.000000	 94.957548 
819.000000	 94.925400 
818.000000	 94.874349 
817.000000	 94.799348 
816.000000	 94.701433 
815.000000	 94.584602 
814.000000	 94.447190 
813.000000	 94.279138 
812.000000	 94.067478 
811.000000	 93.799689 
810.000000	 93.460597 
809.000000	 93.032605 
808.000000	 92.505718 
807.000000	 91.887574 
806.000000	 91.202393 
805.000000	 90.483768 
804.000000	 89.770323 
803.000000	 89.099375 
802.000000	 88.496019 
801.000000	 87.972796 
800.000000	 87.543815 
799.000000	 87.229260 
798.000000	 87.039474 
797.000000	 86.963588 
796.000000	 86.978539 
795.000000	 87.059669 
794.000000	 87.180974 
793.000000	 87.318619 
792.000000	 87.459226 
791.000000	 87.595139 
790.000000	 87.709426 
789.000000	 87.775076 
788.000000	 87.770188 
787.000000	 87.685554 
786.000000	 87.519609 
785.000000	 87.279643 
784.000000	 86.990966 
783.000000	 86.692656 
782.000000	 86.418788 
781.000000	 86.190958 
780.000000	 86.026474 
779.000000	 85.937140 
778.000000	 85.917372 
777.000000	 85.950880 
776.000000	 86.034522 
775.000000	 86.180619 
774.000000	 86.392115 
773.000000	 86.651111 
772.000000	 86.934313 
771.000000	 87.222194 
770.000000	 87.490240 
769.000000	 87.711504 
768.000000	 87.877219 
767.000000	 88.002307 
766.000000	 88.105169 
765.000000	 88.194926 
764.000000	 88.282097 
763.000000	 88.384091 
762.000000	 88.510054 
761.000000	 88.652773 
760.000000	 88.802579 
759.000000	 88.955699 
758.000000	 89.102654 
757.000000	 89.225386 
756.000000	 89.318444 
755.000000	 89.401491 
754.000000	 89.498784 
753.000000	 89.614558 
752.000000	 89.736892 
751.000000	 89.854542 
750.000000	 89.959723 
749.000000	 90.045143 
748.000000	 90.111611 
747.000000	 90.173067 
746.000000	 90.243530 
745.000000	 90.323895 
744.000000	 90.410670 
743.000000	 90.511304 
742.000000	 90.638785 
741.000000	 90.792242 
740.000000	 90.950392 
739.000000	 91.083779 
738.000000	 91.171911 
737.000000	 91.215104 
736.000000	 91.235637 
735.000000	 91.262759 
734.000000	 91.309377 
733.000000	 91.365462 
732.000000	 91.416296 
731.000000	 91.458909 
730.000000	 91.494774 
729.000000	 91.516051 
728.000000	 91.512288 
727.000000	 91.488067 
726.000000	 91.464298 
725.000000	 91.463452 
724.000000	 91.499485 
723.000000	 91.578524 
722.000000	 91.699815 
721.000000	 91.852022 
720.000000	 92.010122 
719.000000	 92.139156 
718.000000	 92.208494 
717.000000	 92.212399 
716.000000	 92.181160 
715.000000	 92.166516 
714.000000	 92.206082 
713.000000	 92.299897 
712.000000	 92.422534 
711.000000	 92.550809 
710.000000	 92.674671 
709.000000	 92.785791 
708.000000	 92.863690 
707.000000	 92.877374 
706.000000	 92.804525 
705.000000	 92.656182 
704.000000	 92.480967 
703.000000	 92.330449 
702.000000	 92.210616 
701.000000	 92.070015 
700.000000	 91.839226 
699.000000	 91.482807 
698.000000	 91.020456 
697.000000	 90.517086 
696.000000	 90.061049 
695.000000	 89.736998 
694.000000	 89.601568 
693.000000	 89.674203 
692.000000	 89.940631 
691.000000	 90.353044 
690.000000	 90.828317 
689.000000	 91.266091 
688.000000	 91.588408 
687.000000	 91.774303 
686.000000	 91.860400 
685.000000	 91.907314 
684.000000	 91.964869 
683.000000	 92.060343 
682.000000	 92.206495 
681.000000	 92.410971 
680.000000	 92.664658 
679.000000	 92.915946 
678.000000	 93.070896 
677.000000	 93.045202 
676.000000	 92.839368 
675.000000	 92.557031 
674.000000	 92.341212 
673.000000	 92.292050 
672.000000	 92.428548 
671.000000	 92.709897 
670.000000	 93.071290 
669.000000	 93.401687 
668.000000	 93.507110 
667.000000	 93.334062 
666.000000	 93.026737 
665.000000	 92.682757 
664.000000	 92.354592 
663.000000	 92.140779 
662.000000	 92.134615 
661.000000	 92.323761 
660.000000	 92.600389 
659.000000	 92.858767 
658.000000	 93.030238 
657.000000	 93.067504 
656.000000	 92.941142 
655.000000	 92.659653 
654.000000	 92.288784 
653.000000	 91.951330 
652.000000	 91.801861 
651.000000	 91.947725 
650.000000	 92.336930 

