4000.000000	100.143508 
3999.000000	100.143163 
3998.000000	100.142823 
3997.000000	100.142491 
3996.000000	100.142167 
3995.000000	100.141847 
3994.000000	100.141527 
3993.000000	100.141206 
3992.000000	100.140885 
3991.000000	100.140564 
3990.000000	100.140243 
3989.000000	100.139924 
3988.000000	100.139612 
3987.000000	100.139305 
3986.000000	100.139002 
3985.000000	100.138699 
3984.000000	100.138395 
3983.000000	100.138089 
3982.000000	100.137780 
3981.000000	100.137467 
3980.000000	100.137148 
3979.000000	100.136824 
3978.000000	100.136496 
3977.000000	100.136168 
3976.000000	100.135837 
3975.000000	100.135503 
3974.000000	100.135163 
3973.000000	100.134818 
3972.000000	100.134471 
3971.000000	100.134124 
3970.000000	100.133782 
3969.000000	100.133444 
3968.000000	100.133107 
3967.000000	100.132785 
3966.000000	100.132493 
3965.000000	100.132237 
3964.000000	100.132004 
3963.000000	100.131764 
3962.000000	100.131491 
3961.000000	100.131173 
3960.000000	100.130821 
3959.000000	100.130469 
3958.000000	100.130143 
3957.000000	100.129854 
3956.000000	100.129600 
3955.000000	100.129364 
3954.000000	100.129122 
3953.000000	100.128834 
3952.000000	100.128458 
3951.000000	100.127992 
3950.000000	100.127501 
3949.000000	100.127085 
3948.000000	100.126815 
3947.000000	100.126682 
3946.000000	100.126587 
3945.000000	100.126390 
3944.000000	100.126017 
3943.000000	100.125539 
3942.000000	100.125086 
3941.000000	100.124669 
3940.000000	100.124153 
3939.000000	100.123446 
3938.000000	100.122646 
3937.000000	100.121971 
3936.000000	100.121556 
3935.000000	100.121371 
3934.000000	100.121282 
3933.000000	100.121181 
3932.000000	100.121080 
3931.000000	100.121098 
3930.000000	100.121313 
3929.000000	100.121559 
3928.000000	100.121464 
3927.000000	100.120756 
3926.000000	100.119552 
3925.000000	100.118331 
3924.000000	100.117512 
3923.000000	100.117136 
3922.000000	100.116958 
3921.000000	100.116657 
3920.000000	100.115978 
3919.000000	100.114815 
3918.000000	100.113295 
3917.000000	100.111753 
3916.000000	100.110558 
3915.000000	100.109915 
3914.000000	100.109827 
3913.000000	100.110136 
3912.000000	100.110590 
3911.000000	100.110938 
3910.000000	100.111023 
3909.000000	100.110756 
3908.000000	100.110056 
3907.000000	100.108902 
3906.000000	100.107420 
3905.000000	100.105938 
3904.000000	100.104818 
3903.000000	100.104220 
3902.000000	100.104077 
3901.000000	100.104158 
3900.000000	100.104158 
3899.000000	100.103852 
3898.000000	100.103178 
3897.000000	100.102270 
3896.000000	100.101375 
3895.000000	100.100655 
3894.000000	100.100115 
3893.000000	100.099678 
3892.000000	100.099291 
3891.000000	100.098908 
3890.000000	100.098423 
3889.000000	100.097831 
3888.000000	100.097296 
3887.000000	100.096992 
3886.000000	100.096797 
3885.000000	100.096301 
3884.000000	100.095316 
3883.000000	100.094242 
3882.000000	100.093610 
3881.000000	100.093462 
3880.000000	100.093322 
3879.000000	100.092875 
3878.000000	100.092334 
3877.000000	100.092035 
3876.000000	100.091887 
3875.000000	100.091467 
3874.000000	100.090353 
3873.000000	100.088365 
3872.000000	100.085829 
3871.000000	100.083692 
3870.000000	100.082846 
3869.000000	100.083053 
3868.000000	100.083410 
3867.000000	100.083714 
3866.000000	100.084436 
3865.000000	100.085700 
3864.000000	100.086769 
3863.000000	100.086827 
3862.000000	100.085894 
3861.000000	100.084197 
3860.000000	100.081672 
3859.000000	100.078466 
3858.000000	100.075287 
3857.000000	100.072990 
3856.000000	100.071990 
3855.000000	100.072328 
3854.000000	100.074103 
3853.000000	100.076229 
3852.000000	100.077061 
3851.000000	100.076738 
3850.000000	100.076596 
3849.000000	100.077228 
3848.000000	100.078347 
3847.000000	100.079260 
3846.000000	100.079542 
3845.000000	100.079175 
3844.000000	100.078317 
3843.000000	100.077344 
3842.000000	100.076855 
3841.000000	100.077084 
3840.000000	100.077758 
3839.000000	100.078463 
3838.000000	100.079027 
3837.000000	100.079623 
3836.000000	100.080215 
3835.000000	100.080306 
3834.000000	100.079442 
3833.000000	100.077693 
3832.000000	100.075738 
3831.000000	100.074321 
3830.000000	100.073695 
3829.000000	100.073790 
3828.000000	100.074483 
3827.000000	100.075596 
3826.000000	100.076812 
3825.000000	100.077609 
3824.000000	100.077537 
3823.000000	100.076557 
3822.000000	100.075256 
3821.000000	100.074291 
3820.000000	100.073482 
3819.000000	100.072474 
3818.000000	100.071506 
3817.000000	100.071007 
3816.000000	100.070793 
3815.000000	100.070011 
3814.000000	100.068270 
3813.000000	100.066183 
3812.000000	100.064612 
3811.000000	100.063840 
3810.000000	100.063656 
3809.000000	100.063833 
3808.000000	100.064340 
3807.000000	100.065026 
3806.000000	100.065391 
3805.000000	100.064972 
3804.000000	100.063875 
3803.000000	100.062614 
3802.000000	100.061839 
3801.000000	100.061777 
3800.000000	100.062004 
3799.000000	100.062241 
3798.000000	100.062535 
3797.000000	100.062762 
3796.000000	100.062544 
3795.000000	100.061675 
3794.000000	100.060445 
3793.000000	100.059357 
3792.000000	100.058667 
3791.000000	100.058289 
3790.000000	100.058098 
3789.000000	100.058082 
3788.000000	100.058138 
3787.000000	100.057982 
3786.000000	100.057431 
3785.000000	100.056670 
3784.000000	100.056119 
3783.000000	100.056014 
3782.000000	100.056267 
3781.000000	100.056646 
3780.000000	100.056974 
3779.000000	100.057125 
3778.000000	100.057004 
3777.000000	100.056635 
3776.000000	100.056158 
3775.000000	100.055688 
3774.000000	100.055190 
3773.000000	100.054420 
3772.000000	100.053061 
3771.000000	100.051129 
3770.000000	100.049216 
3769.000000	100.048032 
3768.000000	100.047986 
3767.000000	100.049266 
3766.000000	100.051502 
3765.000000	100.053588 
3764.000000	100.054324 
3763.000000	100.053614 
3762.000000	100.052795 
3761.000000	100.053262 
3760.000000	100.054910 
3759.000000	100.055897 
3758.000000	100.054765 
3757.000000	100.051906 
3756.000000	100.048314 
3755.000000	100.044544 
3754.000000	100.041056 
3753.000000	100.038702 
3752.000000	100.038123 
3751.000000	100.039140 
3750.000000	100.041399 
3749.000000	100.044688 
3748.000000	100.047832 
3747.000000	100.048728 
3746.000000	100.046013 
3745.000000	100.041627 
3744.000000	100.038728 
3743.000000	100.038434 
3742.000000	100.041106 
3741.000000	100.046662 
3740.000000	100.053184 
3739.000000	100.057352 
3738.000000	100.056923 
3737.000000	100.053801 
3736.000000	100.052746 
3735.000000	100.056538 
3734.000000	100.062924 
3733.000000	100.067251 
3732.000000	100.066707 
3731.000000	100.061105 
3730.000000	100.052098 
3729.000000	100.042380 
3728.000000	100.034348 
3727.000000	100.029073 
3726.000000	100.025812 
3725.000000	100.022912 
3724.000000	100.019568 
3723.000000	100.016344 
3722.000000	100.014104 
3721.000000	100.012522 
3720.000000	100.010426 
3719.000000	100.006549 
3718.000000	100.000232 
3717.000000	99.991830  
3716.000000	99.981992  
3715.000000	99.971054  
3714.000000	99.959004  
3713.000000	99.946111  
3712.000000	99.933687  
3711.000000	99.923061  
3710.000000	99.914318  
3709.000000	99.906912  
3708.000000	99.899877  
3707.000000	99.891396  
3706.000000	99.879085  
3705.000000	99.861510  
3704.000000	99.839704  
3703.000000	99.816786  
3702.000000	99.795723  
3701.000000	99.776800  
3700.000000	99.757957  
3699.000000	99.737514  
3698.000000	99.715400  
3697.000000	99.692453  
3696.000000	99.669349  
3695.000000	99.646463  
3694.000000	99.624958  
3693.000000	99.607243  
3692.000000	99.595870  
3691.000000	99.591630  
3690.000000	99.591851  
3689.000000	99.590522  
3688.000000	99.582310  
3687.000000	99.567585  
3686.000000	99.551806  
3685.000000	99.540810  
3684.000000	99.537568  
3683.000000	99.541067  
3682.000000	99.546580  
3681.000000	99.547492  
3680.000000	99.537816  
3679.000000	99.515150  
3678.000000	99.483016  
3677.000000	99.451777  
3676.000000	99.434538  
3675.000000	99.435158  
3674.000000	99.445092  
3673.000000	99.455099  
3672.000000	99.462173  
3671.000000	99.466090  
3670.000000	99.466727  
3669.000000	99.464221  
3668.000000	99.459741  
3667.000000	99.454487  
3666.000000	99.448104  
3665.000000	99.440064  
3664.000000	99.431895  
3663.000000	99.426588  
3662.000000	99.426031  
3661.000000	99.429747  
3660.000000	99.435938  
3659.000000	99.443606  
3658.000000	99.452967  
3657.000000	99.464429  
3656.000000	99.477319  
3655.000000	99.490033  
3654.000000	99.501823  
3653.000000	99.512956  
3652.000000	99.523709  
3651.000000	99.533892  
3650.000000	99.543184  
3649.000000	99.551364  
3648.000000	99.558457  
3647.000000	99.565078  
3646.000000	99.572088  
3645.000000	99.579947  
3644.000000	99.588338  
3643.000000	99.596544  
3642.000000	99.604530  
3641.000000	99.613394  
3640.000000	99.624005  
3639.000000	99.635739  
3638.000000	99.646849  
3637.000000	99.656232  
3636.000000	99.664283  
3635.000000	99.672003  
3634.000000	99.679529  
3633.000000	99.685766  
3632.000000	99.689588  
3631.000000	99.690692  
3630.000000	99.689820  
3629.000000	99.688765  
3628.000000	99.688836  
3627.000000	99.690274  
3626.000000	99.693415  
3625.000000	99.698326  
3624.000000	99.704656  
3623.000000	99.712098  
3622.000000	99.720174  
3621.000000	99.727494  
3620.000000	99.731935  
3619.000000	99.732359  
3618.000000	99.730208  
3617.000000	99.728553  
3616.000000	99.729572  
3615.000000	99.733303  
3614.000000	99.738251  
3613.000000	99.742501  
3612.000000	99.744823  
3611.000000	99.745400  
3610.000000	99.745656  
3609.000000	99.747555  
3608.000000	99.752305  
3607.000000	99.759270  
3606.000000	99.766533  
3605.000000	99.772268  
3604.000000	99.775607  
3603.000000	99.776866  
3602.000000	99.777471  
3601.000000	99.779225  
3600.000000	99.782872  
3599.000000	99.787346  
3598.000000	99.790738  
3597.000000	99.792224  
3596.000000	99.792731  
3595.000000	99.793941  
3594.000000	99.796384  
3593.000000	99.798673  
3592.000000	99.799119  
3591.000000	99.797668  
3590.000000	99.796025  
3589.000000	99.796237  
3588.000000	99.798767  
3587.000000	99.801910  
3586.000000	99.803559  
3585.000000	99.803212  
3584.000000	99.801880  
3583.000000	99.800806  
3582.000000	99.800678  
3581.000000	99.801516  
3580.000000	99.802795  
3579.000000	99.803777  
3578.000000	99.804021  
3577.000000	99.803760  
3576.000000	99.803640  
3575.000000	99.804024  
3574.000000	99.804651  
3573.000000	99.804963  
3572.000000	99.804693  
3571.000000	99.804139  
3570.000000	99.803829  
3569.000000	99.804050  
3568.000000	99.804603  
3567.000000	99.804990  
3566.000000	99.804954  
3565.000000	99.804840  
3564.000000	99.805286  
3563.000000	99.806534  
3562.000000	99.808120  
3561.000000	99.809160  
3560.000000	99.809051  
3559.000000	99.807969  
3558.000000	99.806722  
3557.000000	99.806056  
3556.000000	99.806055  
3555.000000	99.806213  
3554.000000	99.806011  
3553.000000	99.805364  
3552.000000	99.804527  
3551.000000	99.803772  
3550.000000	99.803228  
3549.000000	99.803002  
3548.000000	99.803245  
3547.000000	99.804018  
3546.000000	99.805106  
3545.000000	99.806046  
3544.000000	99.806481  
3543.000000	99.806405  
3542.000000	99.806107  
3541.000000	99.805939  
3540.000000	99.806084  
3539.000000	99.806523  
3538.000000	99.807140  
3537.000000	99.807793  
3536.000000	99.808303  
3535.000000	99.808489  
3534.000000	99.808288  
3533.000000	99.807830  
3532.000000	99.807356  
3531.000000	99.807078  
3530.000000	99.807117  
3529.000000	99.807511  
3528.000000	99.808196  
3527.000000	99.808978  
3526.000000	99.809626  
3525.000000	99.810025  
3524.000000	99.810224  
3523.000000	99.810316  
3522.000000	99.810297  
3521.000000	99.810061  
3520.000000	99.809570  
3519.000000	99.808997  
3518.000000	99.808678  
3517.000000	99.808877  
3516.000000	99.809579  
3515.000000	99.810507  
3514.000000	99.811304  
3513.000000	99.811746  
3512.000000	99.811791  
3511.000000	99.811525  
3510.000000	99.811113  
3509.000000	99.810729  
3508.000000	99.810466  
3507.000000	99.810331  
3506.000000	99.810325  
3505.000000	99.810486  
3504.000000	99.810822  
3503.000000	99.811252  
3502.000000	99.811659  
3501.000000	99.811952  
3500.000000	99.811992  
3499.000000	99.811551  
3498.000000	99.810500  
3497.000000	99.809073  
3496.000000	99.807795  
3495.000000	99.807052  
3494.000000	99.806843  
3493.000000	99.806966  
3492.000000	99.807276  
3491.000000	99.807701  
3490.000000	99.808096  
3489.000000	99.808312  
3488.000000	99.808389  
3487.000000	99.808526  
3486.000000	99.808727  
3485.000000	99.808597  
3484.000000	99.807693  
3483.000000	99.806107  
3482.000000	99.804590  
3481.000000	99.803908  
3480.000000	99.804090  
3479.000000	99.804388  
3478.000000	99.804031  
3477.000000	99.802981  
3476.000000	99.801867  
3475.000000	99.801298  
3474.000000	99.801366  
3473.000000	99.801775  
3472.000000	99.802232  
3471.000000	99.802637  
3470.000000	99.802978  
3469.000000	99.803163  
3468.000000	99.802971  
3467.000000	99.802141  
3466.000000	99.800525  
3465.000000	99.798181  
3464.000000	99.795434  
3463.000000	99.792894  
3462.000000	99.791225  
3461.000000	99.790681  
3460.000000	99.790847  
3459.000000	99.790988  
3458.000000	99.790778  
3457.000000	99.790476  
3456.000000	99.790301  
3455.000000	99.789966  
3454.000000	99.789073  
3453.000000	99.787708  
3452.000000	99.786358  
3451.000000	99.785445  
3450.000000	99.785237  
3449.000000	99.786036  
3448.000000	99.787937  
3447.000000	99.790306  
3446.000000	99.791912  
3445.000000	99.791935  
3444.000000	99.790650  
3443.000000	99.789130  
3442.000000	99.788384  
3441.000000	99.788621  
3440.000000	99.789150  
3439.000000	99.788917  
3438.000000	99.787316  
3437.000000	99.784626  
3436.000000	99.781675  
3435.000000	99.779149  
3434.000000	99.777289  
3433.000000	99.776054  
3432.000000	99.775267  
3431.000000	99.774635  
3430.000000	99.773926  
3429.000000	99.773207  
3428.000000	99.772706  
3427.000000	99.772409  
3426.000000	99.772016  
3425.000000	99.771339  
3424.000000	99.770538  
3423.000000	99.769849  
3422.000000	99.769188  
3421.000000	99.768200  
3420.000000	99.766687  
3419.000000	99.764925  
3418.000000	99.763542  
3417.000000	99.762974  
3416.000000	99.763103  
3415.000000	99.763333  
3414.000000	99.763075  
3413.000000	99.762258  
3412.000000	99.761271  
3411.000000	99.760544  
3410.000000	99.760167  
3409.000000	99.759915  
3408.000000	99.759499  
3407.000000	99.758784  
3406.000000	99.757827  
3405.000000	99.756835  
3404.000000	99.756035  
3403.000000	99.755519  
3402.000000	99.755188  
3401.000000	99.754863  
3400.000000	99.754440  
3399.000000	99.753935  
3398.000000	99.753399  
3397.000000	99.752840  
3396.000000	99.752237  
3395.000000	99.751605  
3394.000000	99.751011  
3393.000000	99.750534  
3392.000000	99.750214  
3391.000000	99.750047  
3390.000000	99.749978  
3389.000000	99.749891  
3388.000000	99.749643  
3387.000000	99.749177  
3386.000000	99.748634  
3385.000000	99.748252  
3384.000000	99.748062  
3383.000000	99.747745  
3382.000000	99.746961  
3381.000000	99.745875  
3380.000000	99.745185  
3379.000000	99.745462  
3378.000000	99.746625  
3377.000000	99.748045  
3376.000000	99.749145  
3375.000000	99.749816  
3374.000000	99.750212  
3373.000000	99.750462  
3372.000000	99.750572  
3371.000000	99.750468  
3370.000000	99.750112  
3369.000000	99.749526  
3368.000000	99.748786  
3367.000000	99.748027  
3366.000000	99.747367  
3365.000000	99.746839  
3364.000000	99.746460  
3363.000000	99.746305  
3362.000000	99.746482  
3361.000000	99.746963  
3360.000000	99.747510  
3359.000000	99.747814  
3358.000000	99.747757  
3357.000000	99.747474  
3356.000000	99.747160  
3355.000000	99.746879  
3354.000000	99.746583  
3353.000000	99.746255  
3352.000000	99.745945  
3351.000000	99.745704  
3350.000000	99.745536  
3349.000000	99.745410  
3348.000000	99.745297  
3347.000000	99.745171  
3346.000000	99.745019  
3345.000000	99.744840  
3344.000000	99.744639  
3343.000000	99.744419  
3342.000000	99.744179  
3341.000000	99.743921  
3340.000000	99.743644  
3339.000000	99.743346  
3338.000000	99.743022  
3337.000000	99.742670  
3336.000000	99.742288  
3335.000000	99.741886  
3334.000000	99.741490  
3333.000000	99.741117  
3332.000000	99.740737  
3331.000000	99.740293  
3330.000000	99.739760  
3329.000000	99.739204  
3328.000000	99.738728  
3327.000000	99.738348  
3326.000000	99.737966  
3325.000000	99.737484  
3324.000000	99.736932  
3323.000000	99.736407  
3322.000000	99.735917  
3321.000000	99.735397  
3320.000000	99.734887  
3319.000000	99.734588  
3318.000000	99.734629  
3317.000000	99.734799  
3316.000000	99.734618  
3315.000000	99.733792  
3314.000000	99.732562  
3313.000000	99.731555  
3312.000000	99.731197  
3311.000000	99.731409  
3310.000000	99.731844  
3309.000000	99.732281  
3308.000000	99.732663  
3307.000000	99.732805  
3306.000000	99.732327  
3305.000000	99.730938  
3304.000000	99.728686  
3303.000000	99.725908  
3302.000000	99.723067  
3301.000000	99.720630  
3300.000000	99.718946  
3299.000000	99.718093  
3298.000000	99.717841  
3297.000000	99.717857  
3296.000000	99.718029  
3295.000000	99.718495  
3294.000000	99.719321  
3293.000000	99.720178  
3292.000000	99.720488  
3291.000000	99.720038  
3290.000000	99.719364  
3289.000000	99.719243  
3288.000000	99.719748  
3287.000000	99.720057  
3286.000000	99.719365  
3285.000000	99.717720  
3284.000000	99.715833  
3283.000000	99.714267  
3282.000000	99.713140  
3281.000000	99.712467  
3280.000000	99.712382  
3279.000000	99.712889  
3278.000000	99.713620  
3277.000000	99.713975  
3276.000000	99.713466  
3275.000000	99.711974  
3274.000000	99.709836  
3273.000000	99.707750  
3272.000000	99.706378  
3271.000000	99.705935  
3270.000000	99.706161  
3269.000000	99.706554  
3268.000000	99.706574  
3267.000000	99.705773  
3266.000000	99.703997  
3265.000000	99.701570  
3264.000000	99.699101  
3263.000000	99.696982  
3262.000000	99.695217  
3261.000000	99.693761  
3260.000000	99.692789  
3259.000000	99.692439  
3258.000000	99.692412  
3257.000000	99.692102  
3256.000000	99.691178  
3255.000000	99.689885  
3254.000000	99.688746  
3253.000000	99.688037  
3252.000000	99.687573  
3251.000000	99.686918  
3250.000000	99.685761  
3249.000000	99.684144  
3248.000000	99.682435  
3247.000000	99.681089  
3246.000000	99.680347  
3245.000000	99.680113  
3244.000000	99.680118  
3243.000000	99.680154  
3242.000000	99.680060  
3241.000000	99.679548  
3240.000000	99.678311  
3239.000000	99.676527  
3238.000000	99.674995  
3237.000000	99.674424  
3236.000000	99.674543  
3235.000000	99.674241  
3234.000000	99.672726  
3233.000000	99.670307  
3232.000000	99.667971  
3231.000000	99.666284  
3230.000000	99.664961  
3229.000000	99.663415  
3228.000000	99.661498  
3227.000000	99.659712  
3226.000000	99.658767  
3225.000000	99.658878  
3224.000000	99.659428  
3223.000000	99.659450  
3222.000000	99.658633  
3221.000000	99.657663  
3220.000000	99.657368  
3219.000000	99.657750  
3218.000000	99.658116  
3217.000000	99.658006  
3216.000000	99.657630  
3215.000000	99.657401  
3214.000000	99.657395  
3213.000000	99.657423  
3212.000000	99.657391  
3211.000000	99.657379  
3210.000000	99.657394  
3209.000000	99.657162  
3208.000000	99.656242  
3207.000000	99.654462  
3206.000000	99.652291  
3205.000000	99.650643  
3204.000000	99.650144  
3203.000000	99.650743  
3202.000000	99.652103  
3201.000000	99.654102  
3200.000000	99.656652  
3199.000000	99.659152  
3198.000000	99.660622  
3197.000000	99.660549  
3196.000000	99.659345  
3195.000000	99.658005  
3194.000000	99.657304  
3193.000000	99.657346  
3192.000000	99.657718  
3191.000000	99.657911  
3190.000000	99.657704  
3189.000000	99.657262  
3188.000000	99.656874  
3187.000000	99.656641  
3186.000000	99.656498  
3185.000000	99.656477  
3184.000000	99.656720  
3183.000000	99.657190  
3182.000000	99.657550  
3181.000000	99.657502  
3180.000000	99.657172  
3179.000000	99.657027  
3178.000000	99.657392  
3177.000000	99.658104  
3176.000000	99.658647  
3175.000000	99.658655  
3174.000000	99.658278  
3173.000000	99.658060  
3172.000000	99.658432  
3171.000000	99.659347  
3170.000000	99.660389  
3169.000000	99.661157  
3168.000000	99.661480  
3167.000000	99.661312  
3166.000000	99.660658  
3165.000000	99.659704  
3164.000000	99.658828  
3163.000000	99.658345  
3162.000000	99.658259  
3161.000000	99.658326  
3160.000000	99.658320  
3159.000000	99.658248  
3158.000000	99.658338  
3157.000000	99.658804  
3156.000000	99.659592  
3155.000000	99.660327  
3154.000000	99.660572  
3153.000000	99.660175  
3152.000000	99.659329  
3151.000000	99.658428  
3150.000000	99.657866  
3149.000000	99.657901  
3148.000000	99.658536  
3147.000000	99.659492  
3146.000000	99.660472  
3145.000000	99.661455  
3144.000000	99.662565  
3143.000000	99.663659  
3142.000000	99.664285  
3141.000000	99.664143  
3140.000000	99.663398  
3139.000000	99.662521  
3138.000000	99.661936  
3137.000000	99.661862  
3136.000000	99.662290  
3135.000000	99.662982  
3134.000000	99.663608  
3133.000000	99.664044  
3132.000000	99.664353  
3131.000000	99.664501  
3130.000000	99.664364  
3129.000000	99.664130  
3128.000000	99.664395  
3127.000000	99.665606  
3126.000000	99.667575  
3125.000000	99.669622  
3124.000000	99.671169  
3123.000000	99.672102  
3122.000000	99.672667  
3121.000000	99.673147  
3120.000000	99.673563  
3119.000000	99.673656  
3118.000000	99.673239  
3117.000000	99.672509  
3116.000000	99.671908  
3115.000000	99.671690  
3114.000000	99.671843  
3113.000000	99.672379  
3112.000000	99.673371  
3111.000000	99.674574  
3110.000000	99.675367  
3109.000000	99.675332  
3108.000000	99.674672  
3107.000000	99.673929  
3106.000000	99.673447  
3105.000000	99.673314  
3104.000000	99.673625  
3103.000000	99.674440  
3102.000000	99.675467  
3101.000000	99.676097  
3100.000000	99.675804  
3099.000000	99.674427  
3098.000000	99.672308  
3097.000000	99.670451  
3096.000000	99.670197  
3095.000000	99.672057  
3094.000000	99.674862  
3093.000000	99.676717  
3092.000000	99.676795  
3091.000000	99.675650  
3090.000000	99.674130  
3089.000000	99.672871  
3088.000000	99.672623  
3087.000000	99.673874  
3086.000000	99.675910  
3085.000000	99.677190  
3084.000000	99.677075  
3083.000000	99.676488  
3082.000000	99.676531  
3081.000000	99.677120  
3080.000000	99.677479  
3079.000000	99.677497  
3078.000000	99.677922  
3077.000000	99.679232  
3076.000000	99.680624  
3075.000000	99.680429  
3074.000000	99.677697  
3073.000000	99.673387  
3072.000000	99.669675  
3071.000000	99.667889  
3070.000000	99.667493  
3069.000000	99.667296  
3068.000000	99.667042  
3067.000000	99.667223  
3066.000000	99.667735  
3065.000000	99.667571  
3064.000000	99.665923  
3063.000000	99.663096  
3062.000000	99.660304  
3061.000000	99.658842  
3060.000000	99.659213  
3059.000000	99.660661  
3058.000000	99.661729  
3057.000000	99.661659  
3056.000000	99.660846  
3055.000000	99.659451  
3054.000000	99.656229  
3053.000000	99.649900  
3052.000000	99.641624  
3051.000000	99.634804  
3050.000000	99.631649  
3049.000000	99.630562  
3048.000000	99.627733  
3047.000000	99.621081  
3046.000000	99.611890  
3045.000000	99.602690  
3044.000000	99.594242  
3043.000000	99.585093  
3042.000000	99.573757  
3041.000000	99.560500  
3040.000000	99.546591  
3039.000000	99.532360  
3038.000000	99.516895  
3037.000000	99.499525  
3036.000000	99.480554  
3035.000000	99.460377  
3034.000000	99.438798  
3033.000000	99.415351  
3032.000000	99.389990  
3031.000000	99.363221  
3030.000000	99.335477  
3029.000000	99.307203  
3028.000000	99.279684  
3027.000000	99.254302  
3026.000000	99.230480  
3025.000000	99.205363  
3024.000000	99.176151  
3023.000000	99.142256  
3022.000000	99.105120  
3021.000000	99.066826  
3020.000000	99.029259  
3019.000000	98.993463  
3018.000000	98.958528  
3017.000000	98.921357  
3016.000000	98.878794  
3015.000000	98.830583  
3014.000000	98.779963  
3013.000000	98.731095  
3012.000000	98.685806  
3011.000000	98.642524  
3010.000000	98.597952  
3009.000000	98.549925  
3008.000000	98.499232  
3007.000000	98.449040  
3006.000000	98.402312  
3005.000000	98.359397  
3004.000000	98.317782  
3003.000000	98.274106  
3002.000000	98.226717  
3001.000000	98.176924  
3000.000000	98.128112  
2999.000000	98.083490  
2998.000000	98.044616  
2997.000000	98.012070  
2996.000000	97.986187  
2995.000000	97.964309  
2994.000000	97.936328  
2993.000000	97.886774  
2992.000000	97.807280  
2991.000000	97.709114  
2990.000000	97.620088  
2989.000000	97.565243  
2988.000000	97.550641  
2987.000000	97.564827  
2986.000000	97.591690  
2985.000000	97.619852  
2984.000000	97.642592  
2983.000000	97.655774  
2982.000000	97.659128  
2981.000000	97.656628  
2980.000000	97.652592  
2979.000000	97.648107  
2978.000000	97.642369  
2977.000000	97.635511  
2976.000000	97.628046  
2975.000000	97.619125  
2974.000000	97.608218  
2973.000000	97.598191  
2972.000000	97.594264  
2971.000000	97.599593  
2970.000000	97.613598  
2969.000000	97.634697  
2968.000000	97.662552  
2967.000000	97.696735  
2966.000000	97.734723  
2965.000000	97.772675  
2964.000000	97.807740  
2963.000000	97.838917  
2962.000000	97.866321  
2961.000000	97.890495  
2960.000000	97.912271  
2959.000000	97.932817  
2958.000000	97.953797  
2957.000000	97.977119  
2956.000000	98.003534  
2955.000000	98.031337  
2954.000000	98.057562  
2953.000000	98.081305  
2952.000000	98.105077  
2951.000000	98.131816  
2950.000000	98.160668  
2949.000000	98.186534  
2948.000000	98.203850  
2947.000000	98.210347  
2946.000000	98.208242  
2945.000000	98.202923  
2944.000000	98.199868  
2943.000000	98.202036  
2942.000000	98.209362  
2941.000000	98.219726  
2940.000000	98.230137  
2939.000000	98.237617  
2938.000000	98.240125  
2937.000000	98.237686  
2936.000000	98.232636  
2935.000000	98.227860  
2934.000000	98.224329  
2933.000000	98.220482  
2932.000000	98.213973  
2931.000000	98.203772  
2930.000000	98.190770  
2929.000000	98.177013  
2928.000000	98.164569  
2927.000000	98.154487  
2926.000000	98.146092  
2925.000000	98.137317  
2924.000000	98.126526  
2923.000000	98.114526  
2922.000000	98.104481  
2921.000000	98.099250  
2920.000000	98.098884  
2919.000000	98.100987  
2918.000000	98.102979  
2917.000000	98.103000  
2916.000000	98.098762  
2915.000000	98.087437  
2914.000000	98.068462  
2913.000000	98.046170  
2912.000000	98.027871  
2911.000000	98.018252  
2910.000000	98.016005  
2909.000000	98.016170  
2908.000000	98.014939  
2907.000000	98.010991  
2906.000000	98.002375  
2905.000000	97.984475  
2904.000000	97.954095  
2903.000000	97.916978  
2902.000000	97.889404  
2901.000000	97.888464  
2900.000000	97.919186  
2899.000000	97.970133  
2898.000000	98.021367  
2897.000000	98.058350  
2896.000000	98.078830  
2895.000000	98.088936  
2894.000000	98.096064  
2893.000000	98.105103  
2892.000000	98.118008  
2891.000000	98.133964  
2890.000000	98.149985  
2889.000000	98.162953  
2888.000000	98.171847  
2887.000000	98.178124  
2886.000000	98.184426  
2885.000000	98.193528  
2884.000000	98.207991  
2883.000000	98.229388  
2882.000000	98.257086  
2881.000000	98.288272  
2880.000000	98.319915  
2879.000000	98.350859  
2878.000000	98.381612  
2877.000000	98.412188  
2876.000000	98.440787  
2875.000000	98.465117  
2874.000000	98.484830  
2873.000000	98.502012  
2872.000000	98.519092  
2871.000000	98.536792  
2870.000000	98.554653  
2869.000000	98.573061  
2868.000000	98.593762  
2867.000000	98.618109  
2866.000000	98.645476  
2865.000000	98.674032  
2864.000000	98.702838  
2863.000000	98.732581  
2862.000000	98.763981  
2861.000000	98.795931  
2860.000000	98.825883  
2859.000000	98.852303  
2858.000000	98.876441  
2857.000000	98.901226  
2856.000000	98.928076  
2855.000000	98.955287  
2854.000000	98.980062  
2853.000000	99.001616  
2852.000000	99.021575  
2851.000000	99.041991  
2850.000000	99.063855  
2849.000000	99.087056  
2848.000000	99.110781  
2847.000000	99.133880  
2846.000000	99.155479  
2845.000000	99.175408  
2844.000000	99.193792  
2843.000000	99.210552  
2842.000000	99.225835  
2841.000000	99.240424  
2840.000000	99.254769  
2839.000000	99.267855  
2838.000000	99.278238  
2837.000000	99.286404  
2836.000000	99.294989  
2835.000000	99.306003  
2834.000000	99.318556  
2833.000000	99.329946  
2832.000000	99.338542  
2831.000000	99.345134  
2830.000000	99.351929  
2829.000000	99.360620  
2828.000000	99.371008  
2827.000000	99.381080  
2826.000000	99.388565  
2825.000000	99.392722  
2824.000000	99.394553  
2823.000000	99.395556  
2822.000000	99.396849  
2821.000000	99.399422  
2820.000000	99.404201  
2819.000000	99.411204  
2818.000000	99.419118  
2817.000000	99.426188  
2816.000000	99.431279  
2815.000000	99.434017  
2814.000000	99.434629  
2813.000000	99.434138  
2812.000000	99.434078  
2811.000000	99.435374  
2810.000000	99.437762  
2809.000000	99.440731  
2808.000000	99.444509  
2807.000000	99.449489  
2806.000000	99.454966  
2805.000000	99.459189  
2804.000000	99.460851  
2803.000000	99.460220  
2802.000000	99.458881  
2801.000000	99.458569  
2800.000000	99.460071  
2799.000000	99.462885  
2798.000000	99.465948  
2797.000000	99.468859  
2796.000000	99.472304  
2795.000000	99.477044  
2794.000000	99.482595  
2793.000000	99.487154  
2792.000000	99.488959  
2791.000000	99.487700  
2790.000000	99.484757  
2789.000000	99.482212  
2788.000000	99.481485  
2787.000000	99.482688  
2786.000000	99.485046  
2785.000000	99.487701  
2784.000000	99.490163  
2783.000000	99.492340  
2782.000000	99.494370  
2781.000000	99.496306  
2780.000000	99.497802  
2779.000000	99.498349  
2778.000000	99.497996  
2777.000000	99.497553  
2776.000000	99.497731  
2775.000000	99.498331  
2774.000000	99.498715  
2773.000000	99.498874  
2772.000000	99.499500  
2771.000000	99.501048  
2770.000000	99.503221  
2769.000000	99.505425  
2768.000000	99.507382  
2767.000000	99.509115  
2766.000000	99.510597  
2765.000000	99.511676  
2764.000000	99.512230  
2763.000000	99.512306  
2762.000000	99.512208  
2761.000000	99.512461  
2760.000000	99.513459  
2759.000000	99.515087  
2758.000000	99.516862  
2757.000000	99.518522  
2756.000000	99.520259  
2755.000000	99.522213  
2754.000000	99.524037  
2753.000000	99.525229  
2752.000000	99.525745  
2751.000000	99.526026  
2750.000000	99.526503  
2749.000000	99.527257  
2748.000000	99.528110  
2747.000000	99.528863  
2746.000000	99.529460  
2745.000000	99.530031  
2744.000000	99.530773  
2743.000000	99.531763  
2742.000000	99.532947  
2741.000000	99.534352  
2740.000000	99.536133  
2739.000000	99.538308  
2738.000000	99.540567  
2737.000000	99.542502  
2736.000000	99.543940  
2735.000000	99.544916  
2734.000000	99.545506  
2733.000000	99.545938  
2732.000000	99.546729  
2731.000000	99.548341  
2730.000000	99.550634  
2729.000000	99.552873  
2728.000000	99.554455  
2727.000000	99.555494  
2726.000000	99.556553  
2725.000000	99.557938  
2724.000000	99.559411  
2723.000000	99.560521  
2722.000000	99.561017  
2721.000000	99.560964  
2720.000000	99.560671  
2719.000000	99.560553  
2718.000000	99.560943  
2717.000000	99.561804  
2716.000000	99.562651  
2715.000000	99.562970  
2714.000000	99.562719  
2713.000000	99.562345  
2712.000000	99.562379  
2711.000000	99.563144  
2710.000000	99.564699  
2709.000000	99.566782  
2708.000000	99.568819  
2707.000000	99.570341  
2706.000000	99.571435  
2705.000000	99.572528  
2704.000000	99.573713  
2703.000000	99.574645  
2702.000000	99.575171  
2701.000000	99.575609  
2700.000000	99.576164  
2699.000000	99.576535  
2698.000000	99.576432  
2697.000000	99.576088  
2696.000000	99.575848  
2695.000000	99.575556  
2694.000000	99.574896  
2693.000000	99.574119  
2692.000000	99.573916  
2691.000000	99.574585  
2690.000000	99.575796  
2689.000000	99.577107  
2688.000000	99.578332  
2687.000000	99.579315  
2686.000000	99.579778  
2685.000000	99.579616  
2684.000000	99.579055  
2683.000000	99.578356  
2682.000000	99.577532  
2681.000000	99.576605  
2680.000000	99.575928  
2679.000000	99.575952  
2678.000000	99.576734  
2677.000000	99.577810  
2676.000000	99.578517  
2675.000000	99.578554  
2674.000000	99.578160  
2673.000000	99.577834  
2672.000000	99.577827  
2671.000000	99.577984  
2670.000000	99.578053  
2669.000000	99.577997  
2668.000000	99.577905  
2667.000000	99.577693  
2666.000000	99.577139  
2665.000000	99.576236  
2664.000000	99.575340  
2663.000000	99.574851  
2662.000000	99.574824  
2661.000000	99.574965  
2660.000000	99.574966  
2659.000000	99.574805  
2658.000000	99.574704  
2657.000000	99.574824  
2656.000000	99.575043  
2655.000000	99.575107  
2654.000000	99.575007  
2653.000000	99.575058  
2652.000000	99.575436  
2651.000000	99.575806  
2650.000000	99.575658  
2649.000000	99.574943  
2648.000000	99.574098  
2647.000000	99.573511  
2646.000000	99.573237  
2645.000000	99.573268  
2644.000000	99.573645  
2643.000000	99.574132  
2642.000000	99.574122  
2641.000000	99.573145  
2640.000000	99.571318  
2639.000000	99.569294  
2638.000000	99.567763  
2637.000000	99.567020  
2636.000000	99.566876  
2635.000000	99.566815  
2634.000000	99.566536  
2633.000000	99.566371  
2632.000000	99.566857  
2631.000000	99.567958  
2630.000000	99.569028  
2629.000000	99.569553  
2628.000000	99.569554  
2627.000000	99.569162  
2626.000000	99.568271  
2625.000000	99.566876  
2624.000000	99.565402  
2623.000000	99.564296  
2622.000000	99.563561  
2621.000000	99.563039  
2620.000000	99.562855  
2619.000000	99.563163  
2618.000000	99.563677  
2617.000000	99.563884  
2616.000000	99.563675  
2615.000000	99.563386  
2614.000000	99.563223  
2613.000000	99.563000  
2612.000000	99.562455  
2611.000000	99.561602  
2610.000000	99.560754  
2609.000000	99.560308  
2608.000000	99.560426  
2607.000000	99.560790  
2606.000000	99.560800  
2605.000000	99.560141  
2604.000000	99.559009  
2603.000000	99.557759  
2602.000000	99.556636  
2601.000000	99.555926  
2600.000000	99.555945  
2599.000000	99.556593  
2598.000000	99.557246  
2597.000000	99.557484  
2596.000000	99.557588  
2595.000000	99.557909  
2594.000000	99.558207  
2593.000000	99.558052  
2592.000000	99.557508  
2591.000000	99.556879  
2590.000000	99.556041  
2589.000000	99.554655  
2588.000000	99.552932  
2587.000000	99.551631  
2586.000000	99.551237  
2585.000000	99.551600  
2584.000000	99.552371  
2583.000000	99.553361  
2582.000000	99.554448  
2581.000000	99.555526  
2580.000000	99.556585  
2579.000000	99.557493  
2578.000000	99.557756  
2577.000000	99.556967  
2576.000000	99.555507  
2575.000000	99.554419  
2574.000000	99.554390  
2573.000000	99.555198  
2572.000000	99.556136  
2571.000000	99.556663  
2570.000000	99.556655  
2569.000000	99.556279  
2568.000000	99.555693  
2567.000000	99.554720  
2566.000000	99.552986  
2565.000000	99.550628  
2564.000000	99.548659  
2563.000000	99.548096  
2562.000000	99.548848  
2561.000000	99.549796  
2560.000000	99.550068  
2559.000000	99.549795  
2558.000000	99.549545  
2557.000000	99.549609  
2556.000000	99.549962  
2555.000000	99.550363  
2554.000000	99.550328  
2553.000000	99.549477  
2552.000000	99.548200  
2551.000000	99.547576  
2550.000000	99.548272  
2549.000000	99.549773  
2548.000000	99.550933  
2547.000000	99.551097  
2546.000000	99.550406  
2545.000000	99.549295  
2544.000000	99.547996  
2543.000000	99.546418  
2542.000000	99.544285  
2541.000000	99.541462  
2540.000000	99.538317  
2539.000000	99.535629  
2538.000000	99.534005  
2537.000000	99.533455  
2536.000000	99.533546  
2535.000000	99.533747  
2534.000000	99.533547  
2533.000000	99.532531  
2532.000000	99.530607  
2531.000000	99.528213  
2530.000000	99.526212  
2529.000000	99.525486  
2528.000000	99.526435  
2527.000000	99.528622  
2526.000000	99.530919  
2525.000000	99.532288  
2524.000000	99.532555  
2523.000000	99.532331  
2522.000000	99.532118  
2521.000000	99.531550  
2520.000000	99.529639  
2519.000000	99.525857  
2518.000000	99.520963  
2517.000000	99.516788  
2516.000000	99.514795  
2515.000000	99.514764  
2514.000000	99.514967  
2513.000000	99.513799  
2512.000000	99.511327  
2511.000000	99.509056  
2510.000000	99.508293  
2509.000000	99.509026  
2508.000000	99.510247  
2507.000000	99.511030  
2506.000000	99.511184  
2505.000000	99.511032  
2504.000000	99.510875  
2503.000000	99.510821  
2502.000000	99.510981  
2501.000000	99.511559  
2500.000000	99.512681  
2499.000000	99.514232  
2498.000000	99.515874  
2497.000000	99.517091  
2496.000000	99.517269  
2495.000000	99.516096  
2494.000000	99.514105  
2493.000000	99.512531  
2492.000000	99.512267  
2491.000000	99.513165  
2490.000000	99.514395  
2489.000000	99.515258  
2488.000000	99.515542  
2487.000000	99.515334  
2486.000000	99.514893  
2485.000000	99.514601  
2484.000000	99.514649  
2483.000000	99.514836  
2482.000000	99.514909  
2481.000000	99.514978  
2480.000000	99.515318  
2479.000000	99.515893  
2478.000000	99.516343  
2477.000000	99.516423  
2476.000000	99.516248  
2475.000000	99.516105  
2474.000000	99.516190  
2473.000000	99.516525  
2472.000000	99.516968  
2471.000000	99.517283  
2470.000000	99.517363  
2469.000000	99.517396  
2468.000000	99.517655  
2467.000000	99.518137  
2466.000000	99.518570  
2465.000000	99.518789  
2464.000000	99.518903  
2463.000000	99.519032  
2462.000000	99.519110  
2461.000000	99.519135  
2460.000000	99.519361  
2459.000000	99.519996  
2458.000000	99.520810  
2457.000000	99.521293  
2456.000000	99.521114  
2455.000000	99.520272  
2454.000000	99.519077  
2453.000000	99.518205  
2452.000000	99.518391  
2451.000000	99.519685  
2450.000000	99.521082  
2449.000000	99.521465  
2448.000000	99.520874  
2447.000000	99.520329  
2446.000000	99.520401  
2445.000000	99.520498  
2444.000000	99.519731  
2443.000000	99.517951  
2442.000000	99.515818  
2441.000000	99.514197  
2440.000000	99.513486  
2439.000000	99.513339  
2438.000000	99.513008  
2437.000000	99.512168  
2436.000000	99.511288  
2435.000000	99.510990  
2434.000000	99.511272  
2433.000000	99.511591  
2432.000000	99.511554  
2431.000000	99.511256  
2430.000000	99.511077  
2429.000000	99.511390  
2428.000000	99.512235  
2427.000000	99.513093  
2426.000000	99.513236  
2425.000000	99.512508  
2424.000000	99.511514  
2423.000000	99.510892  
2422.000000	99.510656  
2421.000000	99.510491  
2420.000000	99.510370  
2419.000000	99.510569  
2418.000000	99.511271  
2417.000000	99.512434  
2416.000000	99.513817  
2415.000000	99.514893  
2414.000000	99.514989  
2413.000000	99.513879  
2412.000000	99.512048  
2411.000000	99.510223  
2410.000000	99.508759  
2409.000000	99.507632  
2408.000000	99.506678  
2407.000000	99.505715  
2406.000000	99.504792  
2405.000000	99.504354  
2404.000000	99.504761  
2403.000000	99.505573  
2402.000000	99.505784  
2401.000000	99.504989  
2400.000000	99.503890  
2399.000000	99.503448  
2398.000000	99.503911  
2397.000000	99.504859  
2396.000000	99.505688  
2395.000000	99.505787  
2394.000000	99.504693  
2393.000000	99.502693  
2392.000000	99.500929  
2391.000000	99.500285  
2390.000000	99.500485  
2389.000000	99.500543  
2388.000000	99.499981  
2387.000000	99.499014  
2386.000000	99.497882  
2385.000000	99.496636  
2384.000000	99.495444  
2383.000000	99.494564  
2382.000000	99.494045  
2381.000000	99.493800  
2380.000000	99.493882  
2379.000000	99.494409  
2378.000000	99.495269  
2377.000000	99.496093  
2376.000000	99.496475  
2375.000000	99.496158  
2374.000000	99.495196  
2373.000000	99.493989  
2372.000000	99.492986  
2371.000000	99.492235  
2370.000000	99.491441  
2369.000000	99.490446  
2368.000000	99.489405  
2367.000000	99.488506  
2366.000000	99.487773  
2365.000000	99.487134  
2364.000000	99.486479  
2363.000000	99.485642  
2362.000000	99.484504  
2361.000000	99.483263  
2360.000000	99.482160  
2359.000000	99.481085  
2358.000000	99.479798  
2357.000000	99.478515  
2356.000000	99.477699  
2355.000000	99.477357  
2354.000000	99.477619  
2353.000000	99.478329  
2352.000000	99.478461  
2351.000000	99.477038  
2350.000000	99.473886  
2349.000000	99.469942  
2348.000000	99.466499  
2347.000000	99.464980  
2346.000000	99.465544  
2345.000000	99.466103  
2344.000000	99.464862  
2343.000000	99.462278  
2342.000000	99.460388  
2341.000000	99.459698  
2340.000000	99.459365  
2339.000000	99.458799  
2338.000000	99.458574  
2337.000000	99.459071  
2336.000000	99.458923  
2335.000000	99.456503  
2334.000000	99.452814  
2333.000000	99.450376  
2332.000000	99.449803  
2331.000000	99.449857  
2330.000000	99.449114  
2329.000000	99.447659  
2328.000000	99.444692  
2327.000000	99.440065  
2326.000000	99.434762  
2325.000000	99.429862  
2324.000000	99.426241  
2323.000000	99.423783  
2322.000000	99.423134  
2321.000000	99.423678  
2320.000000	99.424527  
2319.000000	99.425416  
2318.000000	99.427066  
2317.000000	99.430453  
2316.000000	99.435707  
2315.000000	99.442426  
2314.000000	99.448793  
2313.000000	99.452558  
2312.000000	99.452361  
2311.000000	99.449572  
2310.000000	99.446885  
2309.000000	99.445852  
2308.000000	99.446308  
2307.000000	99.447779  
2306.000000	99.450138  
2305.000000	99.452440  
2304.000000	99.453303  
2303.000000	99.452322  
2302.000000	99.450594  
2301.000000	99.449387  
2300.000000	99.449205  
2299.000000	99.450276  
2298.000000	99.452700  
2297.000000	99.456136  
2296.000000	99.459212  
2295.000000	99.460589  
2294.000000	99.460149  
2293.000000	99.459138  
2292.000000	99.458935  
2291.000000	99.459806  
2290.000000	99.461037  
2289.000000	99.461894  
2288.000000	99.462397  
2287.000000	99.463037  
2286.000000	99.464155  
2285.000000	99.465564  
2284.000000	99.466828  
2283.000000	99.467735  
2282.000000	99.468486  
2281.000000	99.469331  
2280.000000	99.470204  
2279.000000	99.471048  
2278.000000	99.471869  
2277.000000	99.472667  
2276.000000	99.473441  
2275.000000	99.474191  
2274.000000	99.474919  
2273.000000	99.475633  
2272.000000	99.476345  
2271.000000	99.477064  
2270.000000	99.477798  
2269.000000	99.478552  
2268.000000	99.479329  
2267.000000	99.480128  
2266.000000	99.480942  
2265.000000	99.481756  
2264.000000	99.482552  
2263.000000	99.483321  
2262.000000	99.484065  
2261.000000	99.484797  
2260.000000	99.485532  
2259.000000	99.486280  
2258.000000	99.487043  
2257.000000	99.487814  
2256.000000	99.488584  
2255.000000	99.489337  
2254.000000	99.490064  
2253.000000	99.490766  
2252.000000	99.491459  
2251.000000	99.492158  
2250.000000	99.492864  
2249.000000	99.493569  
2248.000000	99.494254  
2247.000000	99.494907  
2246.000000	99.495527  
2245.000000	99.496121  
2244.000000	99.496695  
2243.000000	99.497251  
2242.000000	99.497795  
2241.000000	99.498340  
2240.000000	99.498905  
2239.000000	99.499499  
2238.000000	99.500109  
2237.000000	99.500716  
2236.000000	99.501308  
2235.000000	99.501884  
2234.000000	99.502452  
2233.000000	99.503014  
2232.000000	99.503570  
2231.000000	99.504118  
2230.000000	99.504653  
2229.000000	99.505176  
2228.000000	99.505684  
2227.000000	99.506175  
2226.000000	99.506642  
2225.000000	99.507081  
2224.000000	99.507493  
2223.000000	99.507888  
2222.000000	99.508282  
2221.000000	99.508689  
2220.000000	99.509123  
2219.000000	99.509583  
2218.000000	99.510057  
2217.000000	99.510533  
2216.000000	99.511003  
2215.000000	99.511467  
2214.000000	99.511928  
2213.000000	99.512391  
2212.000000	99.512856  
2211.000000	99.513320  
2210.000000	99.513775  
2209.000000	99.514218  
2208.000000	99.514653  
2207.000000	99.515090  
2206.000000	99.515549  
2205.000000	99.516043  
2204.000000	99.516599  
2203.000000	99.517254  
2202.000000	99.518026  
2201.000000	99.518946  
2200.000000	99.520184  
2199.000000	99.521967  
2198.000000	99.523920  
2197.000000	99.525065  
2196.000000	99.524774  
2195.000000	99.523750  
2194.000000	99.523585  
2193.000000	99.524906  
2192.000000	99.526782  
2191.000000	99.528100  
2190.000000	99.528822  
2189.000000	99.529510  
2188.000000	99.530540  
2187.000000	99.532029  
2186.000000	99.533795  
2185.000000	99.535337  
2184.000000	99.536367  
2183.000000	99.537246  
2182.000000	99.538428  
2181.000000	99.539744  
2180.000000	99.540794  
2179.000000	99.541788  
2178.000000	99.543352  
2177.000000	99.545575  
2176.000000	99.547634  
2175.000000	99.548387  
2174.000000	99.547191  
2173.000000	99.544349  
2172.000000	99.540868  
2171.000000	99.537749  
2170.000000	99.535660  
2169.000000	99.535433  
2168.000000	99.538323  
2167.000000	99.544944  
2166.000000	99.553892  
2165.000000	99.562195  
2164.000000	99.567781  
2163.000000	99.571190  
2162.000000	99.574586  
2161.000000	99.579042  
2160.000000	99.582727  
2159.000000	99.582276  
2158.000000	99.576773  
2157.000000	99.569973  
2156.000000	99.567137  
2155.000000	99.569724  
2154.000000	99.574572  
2153.000000	99.577384  
2152.000000	99.575570  
2151.000000	99.568166  
2150.000000	99.556044  
2149.000000	99.543223  
2148.000000	99.535391  
2147.000000	99.535073  
2146.000000	99.539521  
2145.000000	99.544090  
2144.000000	99.547053  
2143.000000	99.549266  
2142.000000	99.550425  
2141.000000	99.548696  
2140.000000	99.543942  
2139.000000	99.538686  
2138.000000	99.535079  
2137.000000	99.532654  
2136.000000	99.529882  
2135.000000	99.526412  
2134.000000	99.522838  
2133.000000	99.519416  
2132.000000	99.516136  
2131.000000	99.513416  
2130.000000	99.511648  
2129.000000	99.510308  
2128.000000	99.508357  
2127.000000	99.505663  
2126.000000	99.503510  
2125.000000	99.503272  
2124.000000	99.504760  
2123.000000	99.506218  
2122.000000	99.506023  
2121.000000	99.504193  
2120.000000	99.501974  
2119.000000	99.500253  
2118.000000	99.498844  
2117.000000	99.497228  
2116.000000	99.495450  
2115.000000	99.494076  
2114.000000	99.493507  
2113.000000	99.493556  
2112.000000	99.493600  
2111.000000	99.493176  
2110.000000	99.492389  
2109.000000	99.491764  
2108.000000	99.491769  
2107.000000	99.492381  
2106.000000	99.493126  
2105.000000	99.493502  
2104.000000	99.493432  
2103.000000	99.493200  
2102.000000	99.493110  
2101.000000	99.493272  
2100.000000	99.493610  
2099.000000	99.493990  
2098.000000	99.494320  
2097.000000	99.494597  
2096.000000	99.494888  
2095.000000	99.495286  
2094.000000	99.495827  
2093.000000	99.496475  
2092.000000	99.497143  
2091.000000	99.497769  
2090.000000	99.498351  
2089.000000	99.498931  
2088.000000	99.499549  
2087.000000	99.500210  
2086.000000	99.500909  
2085.000000	99.501647  
2084.000000	99.502441  
2083.000000	99.503305  
2082.000000	99.504256  
2081.000000	99.505282  
2080.000000	99.506314  
2079.000000	99.507249  
2078.000000	99.508006  
2077.000000	99.508619  
2076.000000	99.509237  
2075.000000	99.510000  
2074.000000	99.510961  
2073.000000	99.512135  
2072.000000	99.513569  
2071.000000	99.515231  
2070.000000	99.516890  
2069.000000	99.518257  
2068.000000	99.519264  
2067.000000	99.520125  
2066.000000	99.521086  
2065.000000	99.522172  
2064.000000	99.523286  
2063.000000	99.524383  
2062.000000	99.525471  
2061.000000	99.526517  
2060.000000	99.527429  
2059.000000	99.528094  
2058.000000	99.528475  
2057.000000	99.528762  
2056.000000	99.529409  
2055.000000	99.530863  
2054.000000	99.533187  
2053.000000	99.535952  
2052.000000	99.538418  
2051.000000	99.539803  
2050.000000	99.539639  
2049.000000	99.538322  
2048.000000	99.537320  
2047.000000	99.538100  
2046.000000	99.540976  
2045.000000	99.545082  
2044.000000	99.549096  
2043.000000	99.551937  
2042.000000	99.553149  
2041.000000	99.553257  
2040.000000	99.553369  
2039.000000	99.553643  
2038.000000	99.552804  
2037.000000	99.550121  
2036.000000	99.547133  
2035.000000	99.546066  
2034.000000	99.546914  
2033.000000	99.547677  
2032.000000	99.547375  
2031.000000	99.547237  
2030.000000	99.548446  
2029.000000	99.550068  
2028.000000	99.550029  
2027.000000	99.547608  
2026.000000	99.544601  
2025.000000	99.544228  
2024.000000	99.548596  
2023.000000	99.556618  
2022.000000	99.564211  
2021.000000	99.567569  
2020.000000	99.566050  
2019.000000	99.561662  
2018.000000	99.556585  
2017.000000	99.551838  
2016.000000	99.547499  
2015.000000	99.542902  
2014.000000	99.537093  
2013.000000	99.530192  
2012.000000	99.524005  
2011.000000	99.520439  
2010.000000	99.519802  
2009.000000	99.521248  
2008.000000	99.523915  
2007.000000	99.526659  
2006.000000	99.527638  
2005.000000	99.525601  
2004.000000	99.521363  
2003.000000	99.517271  
2002.000000	99.515651  
2001.000000	99.517906  
2000.000000	99.523755  
1999.000000	99.530655  
1998.000000	99.535244  
1997.000000	99.536235  
1996.000000	99.535063  
1995.000000	99.533260  
1994.000000	99.530524  
1993.000000	99.526314  
1992.000000	99.521731  
1991.000000	99.518144  
1990.000000	99.515268  
1989.000000	99.512543  
1988.000000	99.511087  
1987.000000	99.512257  
1986.000000	99.515165  
1985.000000	99.517390  
1984.000000	99.517835  
1983.000000	99.517563  
1982.000000	99.518259  
1981.000000	99.520903  
1980.000000	99.525191  
1979.000000	99.529059  
1978.000000	99.529664  
1977.000000	99.526469  
1976.000000	99.522344  
1975.000000	99.520246  
1974.000000	99.519760  
1973.000000	99.518396  
1972.000000	99.514848  
1971.000000	99.509568  
1970.000000	99.503608  
1969.000000	99.498432  
1968.000000	99.495698  
1967.000000	99.495530  
1966.000000	99.495774  
1965.000000	99.494587  
1964.000000	99.493100  
1963.000000	99.493716  
1962.000000	99.496430  
1961.000000	99.498407  
1960.000000	99.497400  
1959.000000	99.494022  
1958.000000	99.490441  
1957.000000	99.487934  
1956.000000	99.486079  
1955.000000	99.483740  
1954.000000	99.480327  
1953.000000	99.476474  
1952.000000	99.473570  
1951.000000	99.472255  
1950.000000	99.471449  
1949.000000	99.469269  
1948.000000	99.464956  
1947.000000	99.459534  
1946.000000	99.454819  
1945.000000	99.451892  
1944.000000	99.450587  
1943.000000	99.449894  
1942.000000	99.448721  
1941.000000	99.446705  
1940.000000	99.444369  
1939.000000	99.442465  
1938.000000	99.441259  
1937.000000	99.440401  
1936.000000	99.439331  
1935.000000	99.437722  
1934.000000	99.435589  
1933.000000	99.433187  
1932.000000	99.430837  
1931.000000	99.428708  
1930.000000	99.426699  
1929.000000	99.424546  
1928.000000	99.422071  
1927.000000	99.419401  
1926.000000	99.416933  
1925.000000	99.414965  
1924.000000	99.413312  
1923.000000	99.411429  
1922.000000	99.409071  
1921.000000	99.406660  
1920.000000	99.404817  
1919.000000	99.403689  
1918.000000	99.402984  
1917.000000	99.402396  
1916.000000	99.401720  
1915.000000	99.400651  
1914.000000	99.398876  
1913.000000	99.396486  
1912.000000	99.394122  
1911.000000	99.392418  
1910.000000	99.391407  
1909.000000	99.390629  
1908.000000	99.389693  
1907.000000	99.388632  
1906.000000	99.387611  
1905.000000	99.386614  
1904.000000	99.385478  
1903.000000	99.384097  
1902.000000	99.382548  
1901.000000	99.381068  
1900.000000	99.379866  
1899.000000	99.378995  
1898.000000	99.378413  
1897.000000	99.378121  
1896.000000	99.378026  
1895.000000	99.377714  
1894.000000	99.376777  
1893.000000	99.375408  
1892.000000	99.374304  
1891.000000	99.373827  
1890.000000	99.373625  
1889.000000	99.373195  
1888.000000	99.372499  
1887.000000	99.371732  
1886.000000	99.370941  
1885.000000	99.370281  
1884.000000	99.370227  
1883.000000	99.371100  
1882.000000	99.372649  
1881.000000	99.374298  
1880.000000	99.375552  
1879.000000	99.376089  
1878.000000	99.375842  
1877.000000	99.375151  
1876.000000	99.374449  
1875.000000	99.373677  
1874.000000	99.372534  
1873.000000	99.371342  
1872.000000	99.370869  
1871.000000	99.371195  
1870.000000	99.371603  
1869.000000	99.371970  
1868.000000	99.373099  
1867.000000	99.375016  
1866.000000	99.376546  
1865.000000	99.376901  
1864.000000	99.376324  
1863.000000	99.375149  
1862.000000	99.373358  
1861.000000	99.371511  
1860.000000	99.370939  
1859.000000	99.372202  
1858.000000	99.374349  
1857.000000	99.376217  
1856.000000	99.377859  
1855.000000	99.379702  
1854.000000	99.381260  
1853.000000	99.381816  
1852.000000	99.381713  
1851.000000	99.381903  
1850.000000	99.382506  
1849.000000	99.382862  
1848.000000	99.382784  
1847.000000	99.382771  
1846.000000	99.383124  
1845.000000	99.383651  
1844.000000	99.384327  
1843.000000	99.385347  
1842.000000	99.386292  
1841.000000	99.386207  
1840.000000	99.384630  
1839.000000	99.381940  
1838.000000	99.378976  
1837.000000	99.377181  
1836.000000	99.378414  
1835.000000	99.382746  
1834.000000	99.387145  
1833.000000	99.388479  
1832.000000	99.386905  
1831.000000	99.384933  
1830.000000	99.384139  
1829.000000	99.384429  
1828.000000	99.385986  
1827.000000	99.388866  
1826.000000	99.390712  
1825.000000	99.388895  
1824.000000	99.384676  
1823.000000	99.381414  
1822.000000	99.379809  
1821.000000	99.378801  
1820.000000	99.379300  
1819.000000	99.382681  
1818.000000	99.386435  
1817.000000	99.386339  
1816.000000	99.383121  
1815.000000	99.381857  
1814.000000	99.384464  
1813.000000	99.387680  
1812.000000	99.388871  
1811.000000	99.389312  
1810.000000	99.390248  
1809.000000	99.390381  
1808.000000	99.389074  
1807.000000	99.387634  
1806.000000	99.386516  
1805.000000	99.384453  
1804.000000	99.380588  
1803.000000	99.375486  
1802.000000	99.370359  
1801.000000	99.366941  
1800.000000	99.367137  
1799.000000	99.370958  
1798.000000	99.375922  
1797.000000	99.380424  
1796.000000	99.386612  
1795.000000	99.398097  
1794.000000	99.415330  
1793.000000	99.433889  
1792.000000	99.448914  
1791.000000	99.459834  
1790.000000	99.468987  
1789.000000	99.479218  
1788.000000	99.492819  
1787.000000	99.509255  
1786.000000	99.524492  
1785.000000	99.535633  
1784.000000	99.545472  
1783.000000	99.559046  
1782.000000	99.577058  
1781.000000	99.595598  
1780.000000	99.611513  
1779.000000	99.625291  
1778.000000	99.638531  
1777.000000	99.651359  
1776.000000	99.663916  
1775.000000	99.678036  
1774.000000	99.695537  
1773.000000	99.715934  
1772.000000	99.737562  
1771.000000	99.760587  
1770.000000	99.785820  
1769.000000	99.811748  
1768.000000	99.836583  
1767.000000	99.861561  
1766.000000	99.888888  
1765.000000	99.918060  
1764.000000	99.946283  
1763.000000	99.971567  
1762.000000	99.994492  
1761.000000	100.017334 
1760.000000	100.042426 
1759.000000	100.070361 
1758.000000	100.097903 
1757.000000	100.118717 
1756.000000	100.130295 
1755.000000	100.138915 
1754.000000	100.151554 
1753.000000	100.165744 
1752.000000	100.171643 
1751.000000	100.164629 
1750.000000	100.152017 
1749.000000	100.142026 
1748.000000	100.133639 
1747.000000	100.122637 
1746.000000	100.108572 
1745.000000	100.092016 
1744.000000	100.071323 
1743.000000	100.045091 
1742.000000	100.013918 
1741.000000	99.978125  
1740.000000	99.937942  
1739.000000	99.897918  
1738.000000	99.865918  
1737.000000	99.843933  
1736.000000	99.825695  
1735.000000	99.800868  
1734.000000	99.765369  
1733.000000	99.729909  
1732.000000	99.705541  
1731.000000	99.690120  
1730.000000	99.675758  
1729.000000	99.659000  
1728.000000	99.642468  
1727.000000	99.630817  
1726.000000	99.625243  
1725.000000	99.622732  
1724.000000	99.619010  
1723.000000	99.612049  
1722.000000	99.603146  
1721.000000	99.595722  
1720.000000	99.592557  
1719.000000	99.593131  
1718.000000	99.592204  
1717.000000	99.585335  
1716.000000	99.577685  
1715.000000	99.576379  
1714.000000	99.579312  
1713.000000	99.581227  
1712.000000	99.581662  
1711.000000	99.582907  
1710.000000	99.585115  
1709.000000	99.586596  
1708.000000	99.587123  
1707.000000	99.587805  
1706.000000	99.588002  
1705.000000	99.585988  
1704.000000	99.583749  
1703.000000	99.583852  
1702.000000	99.584578  
1701.000000	99.580748  
1700.000000	99.573487  
1699.000000	99.572899  
1698.000000	99.581131  
1697.000000	99.589278  
1696.000000	99.589142  
1695.000000	99.581893  
1694.000000	99.575188  
1693.000000	99.573112  
1692.000000	99.574771  
1691.000000	99.578596  
1690.000000	99.582936  
1689.000000	99.586247  
1688.000000	99.589137  
1687.000000	99.594127  
1686.000000	99.602542  
1685.000000	99.611466  
1684.000000	99.616127  
1683.000000	99.616989  
1682.000000	99.618306  
1681.000000	99.620726  
1680.000000	99.621674  
1679.000000	99.621492  
1678.000000	99.622671  
1677.000000	99.626332  
1676.000000	99.630464  
1675.000000	99.633011  
1674.000000	99.634920  
1673.000000	99.637896  
1672.000000	99.641466  
1671.000000	99.644316  
1670.000000	99.646418  
1669.000000	99.649153  
1668.000000	99.653251  
1667.000000	99.657838  
1666.000000	99.661714  
1665.000000	99.664525  
1664.000000	99.667048  
1663.000000	99.670275  
1662.000000	99.674083  
1661.000000	99.677629  
1660.000000	99.680561  
1659.000000	99.683312  
1658.000000	99.686379  
1657.000000	99.689908  
1656.000000	99.693503  
1655.000000	99.696898  
1654.000000	99.700491  
1653.000000	99.704290  
1652.000000	99.707568  
1651.000000	99.710984  
1650.000000	99.714910  
1649.000000	99.718613  
1648.000000	99.722065  
1647.000000	99.725411  
1646.000000	99.728810  
1645.000000	99.732313  
1644.000000	99.736139  
1643.000000	99.740278  
1642.000000	99.744453  
1641.000000	99.748380  
1640.000000	99.752063  
1639.000000	99.755689  
1638.000000	99.759312  
1637.000000	99.762941  
1636.000000	99.766812  
1635.000000	99.770910  
1634.000000	99.774895  
1633.000000	99.778806  
1632.000000	99.782889  
1631.000000	99.787180  
1630.000000	99.791369  
1629.000000	99.795166  
1628.000000	99.798769  
1627.000000	99.802485  
1626.000000	99.806265  
1625.000000	99.810050  
1624.000000	99.814190  
1623.000000	99.818721  
1622.000000	99.822926  
1621.000000	99.826647  
1620.000000	99.830388  
1619.000000	99.834106  
1618.000000	99.837232  
1617.000000	99.840320  
1616.000000	99.845318  
1615.000000	99.852548  
1614.000000	99.859904  
1613.000000	99.865240  
1612.000000	99.868066  
1611.000000	99.869094  
1610.000000	99.869557  
1609.000000	99.871326  
1608.000000	99.875931  
1607.000000	99.882330  
1606.000000	99.887483  
1605.000000	99.889947  
1604.000000	99.891399  
1603.000000	99.894289  
1602.000000	99.899065  
1601.000000	99.904554  
1600.000000	99.909909  
1599.000000	99.914732  
1598.000000	99.918425  
1597.000000	99.920859  
1596.000000	99.923052  
1595.000000	99.925706  
1594.000000	99.927975  
1593.000000	99.929393  
1592.000000	99.931488  
1591.000000	99.935399  
1590.000000	99.939431  
1589.000000	99.941210  
1588.000000	99.941158  
1587.000000	99.941624  
1586.000000	99.943654  
1585.000000	99.946421  
1584.000000	99.948553  
1583.000000	99.949070  
1582.000000	99.948087  
1581.000000	99.946974  
1580.000000	99.946765  
1579.000000	99.946505  
1578.000000	99.944326  
1577.000000	99.940783  
1576.000000	99.938897  
1575.000000	99.939324  
1574.000000	99.941110  
1573.000000	99.944057  
1572.000000	99.947800  
1571.000000	99.951766  
1570.000000	99.954196  
1569.000000	99.954217  
1568.000000	99.952976  
1567.000000	99.951935  
1566.000000	99.950643  
1565.000000	99.948097  
1564.000000	99.943766  
1563.000000	99.938451  
1562.000000	99.932703  
1561.000000	99.926531  
1560.000000	99.918725  
1559.000000	99.908491  
1558.000000	99.896590  
1557.000000	99.888865  
1556.000000	99.889059  
1555.000000	99.889602  
1554.000000	99.886001  
1553.000000	99.878627  
1552.000000	99.870980  
1551.000000	99.861472  
1550.000000	99.846621  
1549.000000	99.828686  
1548.000000	99.815101  
1547.000000	99.808254  
1546.000000	99.801300  
1545.000000	99.785715  
1544.000000	99.761665  
1543.000000	99.736305  
1542.000000	99.712961  
1541.000000	99.688823  
1540.000000	99.662896  
1539.000000	99.637202  
1538.000000	99.613930  
1537.000000	99.594650  
1536.000000	99.577305  
1535.000000	99.558293  
1534.000000	99.533902  
1533.000000	99.504417  
1532.000000	99.475667  
1531.000000	99.452236  
1530.000000	99.432296  
1529.000000	99.411859  
1528.000000	99.389028  
1527.000000	99.363115  
1526.000000	99.333337  
1525.000000	99.301620  
1524.000000	99.272931  
1523.000000	99.249188  
1522.000000	99.224713  
1521.000000	99.193137  
1520.000000	99.159231  
1519.000000	99.131432  
1518.000000	99.107545  
1517.000000	99.079109  
1516.000000	99.043931  
1515.000000	99.008190  
1514.000000	98.976001  
1513.000000	98.944428  
1512.000000	98.910930  
1511.000000	98.877998  
1510.000000	98.848007  
1509.000000	98.817836  
1508.000000	98.781914  
1507.000000	98.740600  
1506.000000	98.697736  
1505.000000	98.657147  
1504.000000	98.624036  
1503.000000	98.597600  
1502.000000	98.572069  
1501.000000	98.542729  
1500.000000	98.509958  
1499.000000	98.477531  
1498.000000	98.445054  
1497.000000	98.406822  
1496.000000	98.362296  
1495.000000	98.319867  
1494.000000	98.285149  
1493.000000	98.256115  
1492.000000	98.229078  
1491.000000	98.201305  
1490.000000	98.169835  
1489.000000	98.133221  
1488.000000	98.094729  
1487.000000	98.058523  
1486.000000	98.024297  
1485.000000	97.990512  
1484.000000	97.957965  
1483.000000	97.926858  
1482.000000	97.894030  
1481.000000	97.857473  
1480.000000	97.821044  
1479.000000	97.789296  
1478.000000	97.760200  
1477.000000	97.728576  
1476.000000	97.695205  
1475.000000	97.665285  
1474.000000	97.638835  
1473.000000	97.610238  
1472.000000	97.578424  
1471.000000	97.549332  
1470.000000	97.526016  
1469.000000	97.505892  
1468.000000	97.485966  
1467.000000	97.464812  
1466.000000	97.441501  
1465.000000	97.416424  
1464.000000	97.393204  
1463.000000	97.375157  
1462.000000	97.360589  
1461.000000	97.345909  
1460.000000	97.330541  
1459.000000	97.315333  
1458.000000	97.295053  
1457.000000	97.258089  
1456.000000	97.206771  
1455.000000	97.161265  
1454.000000	97.132163  
1453.000000	97.113758  
1452.000000	97.098080  
1451.000000	97.082867  
1450.000000	97.071575  
1449.000000	97.066985  
1448.000000	97.067424  
1447.000000	97.068138  
1446.000000	97.066116  
1445.000000	97.061724  
1444.000000	97.056474  
1443.000000	97.050303  
1442.000000	97.041835  
1441.000000	97.031981  
1440.000000	97.025388  
1439.000000	97.026051  
1438.000000	97.031803  
1437.000000	97.034840  
1436.000000	97.031096  
1435.000000	97.026168  
1434.000000	97.026061  
1433.000000	97.030600  
1432.000000	97.037346  
1431.000000	97.044641  
1430.000000	97.050938  
1429.000000	97.054360  
1428.000000	97.054696  
1427.000000	97.053883  
1426.000000	97.053089  
1425.000000	97.050903  
1424.000000	97.045843  
1423.000000	97.038957  
1422.000000	97.031557  
1421.000000	97.022309  
1420.000000	97.008121  
1419.000000	96.988482  
1418.000000	96.966547  
1417.000000	96.944418  
1416.000000	96.922843  
1415.000000	96.903232  
1414.000000	96.886401  
1413.000000	96.872001  
1412.000000	96.860761  
1411.000000	96.854775  
1410.000000	96.854561  
1409.000000	96.859300  
1408.000000	96.870660  
1407.000000	96.892339  
1406.000000	96.925665  
1405.000000	96.968731  
1404.000000	97.019344  
1403.000000	97.075979  
1402.000000	97.136597  
1401.000000	97.198927  
1400.000000	97.260089  
1399.000000	97.312986  
1398.000000	97.344673  
1397.000000	97.343622  
1396.000000	97.313351  
1395.000000	97.284030  
1394.000000	97.298603  
1393.000000	97.373261  
1392.000000	97.485007  
1391.000000	97.597597  
1390.000000	97.688179  
1389.000000	97.753149  
1388.000000	97.798830  
1387.000000	97.831538  
1386.000000	97.856620  
1385.000000	97.881064  
1384.000000	97.910804  
1383.000000	97.946636  
1382.000000	97.985709  
1381.000000	98.026560  
1380.000000	98.070133  
1379.000000	98.116446  
1378.000000	98.163917  
1377.000000	98.212556  
1376.000000	98.264737  
1375.000000	98.321545  
1374.000000	98.380246  
1373.000000	98.436992  
1372.000000	98.490791  
1371.000000	98.543090  
1370.000000	98.594902  
1369.000000	98.645760  
1368.000000	98.694993  
1367.000000	98.743063  
1366.000000	98.791643  
1365.000000	98.841960  
1364.000000	98.892316  
1363.000000	98.938058  
1362.000000	98.975655  
1361.000000	99.006372  
1360.000000	99.034312  
1359.000000	99.062620  
1358.000000	99.093169  
1357.000000	99.127588  
1356.000000	99.166058  
1355.000000	99.205834  
1354.000000	99.243022  
1353.000000	99.275960  
1352.000000	99.305083  
1351.000000	99.330525  
1350.000000	99.353084  
1349.000000	99.375169  
1348.000000	99.398145  
1347.000000	99.421160  
1346.000000	99.443023  
1345.000000	99.463648  
1344.000000	99.483700  
1343.000000	99.503974  
1342.000000	99.525104  
1341.000000	99.546521  
1340.000000	99.565705  
1339.000000	99.580533  
1338.000000	99.592675  
1337.000000	99.606248  
1336.000000	99.622771  
1335.000000	99.639952  
1334.000000	99.655689  
1333.000000	99.670729  
1332.000000	99.686458  
1331.000000	99.702482  
1330.000000	99.717917  
1329.000000	99.733224  
1328.000000	99.749035  
1327.000000	99.764522  
1326.000000	99.778584  
1325.000000	99.791654  
1324.000000	99.805249  
1323.000000	99.819936  
1322.000000	99.834756  
1321.000000	99.848465  
1320.000000	99.860899  
1319.000000	99.873133  
1318.000000	99.886276  
1317.000000	99.900050  
1316.000000	99.913056  
1315.000000	99.924643  
1314.000000	99.935533  
1313.000000	99.946084  
1312.000000	99.955311  
1311.000000	99.963176  
1310.000000	99.972491  
1309.000000	99.986128  
1308.000000	100.002835 
1307.000000	100.018061 
1306.000000	100.028954 
1305.000000	100.036425 
1304.000000	100.042639 
1303.000000	100.048877 
1302.000000	100.056168 
1301.000000	100.065239 
1300.000000	100.074926 
1299.000000	100.082789 
1298.000000	100.088210 
1297.000000	100.093119 
1296.000000	100.098989 
1295.000000	100.105233 
1294.000000	100.111213 
1293.000000	100.117553 
1292.000000	100.124226 
1291.000000	100.129468 
1290.000000	100.132180 
1289.000000	100.133676 
1288.000000	100.135510 
1287.000000	100.137054 
1286.000000	100.137130 
1285.000000	100.136613 
1284.000000	100.137532 
1283.000000	100.140547 
1282.000000	100.144282 
1281.000000	100.147060 
1280.000000	100.148711 
1279.000000	100.149947 
1278.000000	100.150666 
1277.000000	100.149882 
1276.000000	100.146960 
1275.000000	100.142368 
1274.000000	100.136995 
1273.000000	100.130907 
1272.000000	100.123217 
1271.000000	100.113305 
1270.000000	100.101672 
1269.000000	100.089215 
1268.000000	100.076072 
1267.000000	100.061621 
1266.000000	100.045311 
1265.000000	100.027185 
1264.000000	100.007913 
1263.000000	99.988633  
1262.000000	99.970648  
1261.000000	99.955082  
1260.000000	99.942723  
1259.000000	99.933555  
1258.000000	99.926025  
1257.000000	99.917624  
1256.000000	99.907223  
1255.000000	99.896246  
1254.000000	99.886306  
1253.000000	99.876502  
1252.000000	99.865340  
1251.000000	99.855309  
1250.000000	99.852718  
1249.000000	99.861955  
1248.000000	99.881663  
1247.000000	99.906300  
1246.000000	99.928092  
1245.000000	99.937228  
1244.000000	99.926445  
1243.000000	99.901363  
1242.000000	99.883126  
1241.000000	99.892077  
1240.000000	99.927222  
1239.000000	99.965694  
1238.000000	99.984710  
1237.000000	99.980281  
1236.000000	99.963020  
1235.000000	99.942685  
1234.000000	99.921739  
1233.000000	99.900687  
1232.000000	99.882506  
1231.000000	99.870265  
1230.000000	99.864050  
1229.000000	99.861919  
1228.000000	99.861908  
1227.000000	99.862157  
1226.000000	99.860876  
1225.000000	99.857479  
1224.000000	99.852993  
1223.000000	99.848714  
1222.000000	99.844903  
1221.000000	99.840793  
1220.000000	99.835005  
1219.000000	99.825809  
1218.000000	99.811952  
1217.000000	99.793773  
1216.000000	99.773032  
1215.000000	99.751073  
1214.000000	99.727231  
1213.000000	99.699383  
1212.000000	99.666216  
1211.000000	99.628794  
1210.000000	99.589655  
1209.000000	99.550479  
1208.000000	99.511165  
1207.000000	99.471183  
1206.000000	99.430706  
1205.000000	99.389647  
1204.000000	99.346510  
1203.000000	99.299999  
1202.000000	99.251979  
1201.000000	99.207108  
1200.000000	99.168201  
1199.000000	99.132632  
1198.000000	99.094730  
1197.000000	99.051498  
1196.000000	99.004510  
1195.000000	98.956939  
1194.000000	98.910607  
1193.000000	98.865716  
1192.000000	98.821764  
1191.000000	98.777602  
1190.000000	98.731637  
1189.000000	98.683321  
1188.000000	98.633806  
1187.000000	98.583994  
1186.000000	98.532737  
1185.000000	98.478478  
1184.000000	98.421983  
1183.000000	98.365546  
1182.000000	98.309654  
1181.000000	98.252362  
1180.000000	98.192234  
1179.000000	98.130072  
1178.000000	98.067112  
1177.000000	98.002972  
1176.000000	97.935905  
1175.000000	97.863911  
1174.000000	97.785537  
1173.000000	97.701349  
1172.000000	97.615147  
1171.000000	97.532071  
1170.000000	97.454701  
1169.000000	97.382086  
1168.000000	97.312533  
1167.000000	97.245642  
1166.000000	97.182295  
1165.000000	97.126003  
1164.000000	97.084770  
1163.000000	97.067660  
1162.000000	97.076751  
1161.000000	97.103465  
1160.000000	97.133555  
1159.000000	97.154304  
1158.000000	97.157207  
1157.000000	97.137690  
1156.000000	97.095310  
1155.000000	97.033403  
1154.000000	96.957038  
1153.000000	96.871663  
1152.000000	96.783668  
1151.000000	96.699469  
1150.000000	96.621930  
1149.000000	96.549197  
1148.000000	96.478414  
1147.000000	96.408847  
1146.000000	96.340533  
1145.000000	96.272642  
1144.000000	96.205265  
1143.000000	96.140838  
1142.000000	96.081629  
1141.000000	96.026971  
1140.000000	95.974087  
1139.000000	95.920031  
1138.000000	95.862103  
1137.000000	95.798771  
1136.000000	95.731497  
1135.000000	95.663666  
1134.000000	95.596449  
1133.000000	95.527586  
1132.000000	95.455051  
1131.000000	95.379450  
1130.000000	95.301804  
1129.000000	95.221600  
1128.000000	95.138269  
1127.000000	95.051989  
1126.000000	94.962074  
1125.000000	94.867610  
1124.000000	94.770858  
1123.000000	94.676725  
1122.000000	94.587239  
1121.000000	94.499434  
1120.000000	94.409861  
1119.000000	94.317893  
1118.000000	94.223661  
1117.000000	94.126933  
1116.000000	94.029698  
1115.000000	93.935898  
1114.000000	93.846708  
1113.000000	93.759688  
1112.000000	93.673842  
1111.000000	93.590865  
1110.000000	93.510771  
1109.000000	93.431526  
1108.000000	93.352799  
1107.000000	93.276485  
1106.000000	93.203353  
1105.000000	93.132058  
1104.000000	93.061922  
1103.000000	92.993604  
1102.000000	92.926587  
1101.000000	92.859329  
1100.000000	92.791986  
1099.000000	92.725923  
1098.000000	92.660641  
1097.000000	92.594111  
1096.000000	92.525963  
1095.000000	92.456937  
1094.000000	92.384652  
1093.000000	92.303527  
1092.000000	92.210688  
1091.000000	92.110054  
1090.000000	92.009333  
1089.000000	91.914176  
1088.000000	91.825813  
1087.000000	91.741903  
1086.000000	91.658053  
1085.000000	91.570544  
1084.000000	91.479010  
1083.000000	91.385297  
1082.000000	91.290134  
1081.000000	91.193958  
1080.000000	91.100612  
1079.000000	91.015821  
1078.000000	90.941633  
1077.000000	90.876926  
1076.000000	90.822894  
1075.000000	90.781601  
1074.000000	90.749105  
1073.000000	90.717196  
1072.000000	90.680958  
1071.000000	90.634193  
1070.000000	90.557707  
1069.000000	90.428767  
1068.000000	90.251824  
1067.000000	90.071402  
1066.000000	89.940301  
1065.000000	89.875814  
1064.000000	89.853408  
1063.000000	89.832992  
1062.000000	89.782688  
1061.000000	89.685529  
1060.000000	89.542759  
1059.000000	89.378297  
1058.000000	89.228932  
1057.000000	89.119044  
1056.000000	89.044618  
1055.000000	88.981870  
1054.000000	88.909266  
1053.000000	88.822424  
1052.000000	88.731832  
1051.000000	88.649224  
1050.000000	88.576912  
1049.000000	88.509889  
1048.000000	88.444921  
1047.000000	88.383244  
1046.000000	88.325991  
1045.000000	88.272738  
1044.000000	88.224858  
1043.000000	88.184923  
1042.000000	88.150745  
1041.000000	88.114131  
1040.000000	88.069221  
1039.000000	88.021575  
1038.000000	87.987275  
1037.000000	87.981554  
1036.000000	88.006154  
1035.000000	88.047069  
1034.000000	88.086949  
1033.000000	88.118610  
1032.000000	88.140228  
1031.000000	88.139930  
1030.000000	88.101274  
1029.000000	88.033158  
1028.000000	87.980864  
1027.000000	87.989319  
1026.000000	88.058073  
1025.000000	88.144489  
1024.000000	88.209255  
1023.000000	88.245470  
1022.000000	88.265188  
1021.000000	88.276833  
1020.000000	88.282371  
1019.000000	88.283818  
1018.000000	88.283621  
1017.000000	88.284075  
1016.000000	88.290113  
1015.000000	88.306873  
1014.000000	88.332450  
1013.000000	88.359377  
1012.000000	88.384427  
1011.000000	88.410315  
1010.000000	88.437980  
1009.000000	88.465487  
1008.000000	88.494996  
1007.000000	88.532405  
1006.000000	88.578938  
1005.000000	88.630673  
1004.000000	88.686690  
1003.000000	88.749421  
1002.000000	88.816632  
1001.000000	88.882045  
1000.000000	88.945144  
999.000000	 89.011668  
998.000000	 89.082961  
997.000000	 89.153452  
996.000000	 89.220478  
995.000000	 89.288263  
994.000000	 89.359957  
993.000000	 89.433647  
992.000000	 89.508491  
991.000000	 89.586908  
990.000000	 89.668281  
989.000000	 89.748128  
988.000000	 89.825977  
987.000000	 89.906823  
986.000000	 89.992809  
985.000000	 90.081140  
984.000000	 90.171235  
983.000000	 90.265552  
982.000000	 90.363342  
981.000000	 90.460976  
980.000000	 90.559227  
979.000000	 90.663713  
978.000000	 90.775903  
977.000000	 90.890837  
976.000000	 91.005889  
975.000000	 91.124465  
974.000000	 91.248797  
973.000000	 91.376244  
972.000000	 91.504915  
971.000000	 91.636134  
970.000000	 91.769002  
969.000000	 91.899081  
968.000000	 92.025094  
967.000000	 92.151198  
966.000000	 92.280407  
965.000000	 92.410948  
964.000000	 92.540355  
963.000000	 92.667428  
962.000000	 92.789056  
961.000000	 92.901647  
960.000000	 93.007705  
959.000000	 93.114903  
958.000000	 93.225992  
957.000000	 93.335162  
956.000000	 93.437263  
955.000000	 93.535338  
954.000000	 93.635868  
953.000000	 93.740394  
952.000000	 93.844673  
951.000000	 93.943113  
950.000000	 94.032408  
949.000000	 94.114042  
948.000000	 94.194154  
947.000000	 94.277297  
946.000000	 94.359634  
945.000000	 94.432755  
944.000000	 94.494983  
943.000000	 94.554152  
942.000000	 94.617732  
941.000000	 94.684704  
940.000000	 94.749690  
939.000000	 94.810887  
938.000000	 94.870962  
937.000000	 94.932913  
936.000000	 94.997479  
935.000000	 95.062745  
934.000000	 95.125216  
933.000000	 95.183392  
932.000000	 95.240217  
931.000000	 95.299306  
930.000000	 95.359093  
929.000000	 95.414480  
928.000000	 95.464540  
927.000000	 95.514284  
926.000000	 95.567715  
925.000000	 95.622815  
924.000000	 95.674683  
923.000000	 95.720400  
922.000000	 95.759380  
921.000000	 95.791980  
920.000000	 95.819729  
919.000000	 95.845008  
918.000000	 95.869325  
917.000000	 95.893237  
916.000000	 95.918081  
915.000000	 95.945918  
914.000000	 95.977720  
913.000000	 96.013382  
912.000000	 96.052924  
911.000000	 96.095574  
910.000000	 96.138989  
909.000000	 96.182581  
908.000000	 96.230313  
907.000000	 96.286195  
906.000000	 96.347947  
905.000000	 96.409783  
904.000000	 96.471407  
903.000000	 96.539358  
902.000000	 96.618300  
901.000000	 96.704686  
900.000000	 96.790619  
899.000000	 96.871575  
898.000000	 96.949227  
897.000000	 97.027747  
896.000000	 97.106851  
895.000000	 97.178680  
894.000000	 97.235011  
893.000000	 97.279310  
892.000000	 97.326715  
891.000000	 97.386926  
890.000000	 97.449221  
889.000000	 97.488507  
888.000000	 97.483329  
887.000000	 97.424762  
886.000000	 97.315004  
885.000000	 97.166793  
884.000000	 97.001220  
883.000000	 96.834566  
882.000000	 96.665365  
881.000000	 96.484332  
880.000000	 96.299224  
879.000000	 96.138349  
878.000000	 96.024744  
877.000000	 95.958953  
876.000000	 95.934020  
875.000000	 95.954811  
874.000000	 96.032278  
873.000000	 96.168208  
872.000000	 96.355855  
871.000000	 96.587947  
870.000000	 96.853482  
869.000000	 97.130908  
868.000000	 97.394438  
867.000000	 97.628722  
866.000000	 97.834366  
865.000000	 98.019885  
864.000000	 98.190958  
863.000000	 98.346839  
862.000000	 98.484531  
861.000000	 98.605375  
860.000000	 98.716972  
859.000000	 98.827148  
858.000000	 98.936148  
857.000000	 99.037542  
856.000000	 99.127666  
855.000000	 99.210823  
854.000000	 99.292987  
853.000000	 99.372962  
852.000000	 99.442711  
851.000000	 99.495336  
850.000000	 99.531371  
849.000000	 99.559397  
848.000000	 99.592382  
847.000000	 99.640322  
846.000000	 99.702140  
845.000000	 99.765551  
844.000000	 99.817880  
843.000000	 99.856639  
842.000000	 99.888108  
841.000000	 99.917759  
840.000000	 99.945412  
839.000000	 99.968495  
838.000000	 99.985872  
837.000000	 99.998015  
836.000000	 100.006292 
835.000000	 100.012908 
834.000000	 100.019806 
833.000000	 100.027621 
832.000000	 100.037271 
831.000000	 100.051091 
830.000000	 100.069300 
829.000000	 100.086487 
828.000000	 100.096199 
827.000000	 100.099854 
826.000000	 100.106855 
825.000000	 100.123687 
824.000000	 100.146010 
823.000000	 100.163536 
822.000000	 100.169734 
821.000000	 100.165144 
820.000000	 100.154738 
819.000000	 100.144197 
818.000000	 100.135519 
817.000000	 100.123506 
816.000000	 100.098463 
815.000000	 100.054342 
814.000000	 99.992177  
813.000000	 99.912833  
812.000000	 99.808343  
811.000000	 99.664603  
810.000000	 99.473013  
809.000000	 99.236733  
808.000000	 98.965244  
807.000000	 98.665749  
806.000000	 98.341815  
805.000000	 97.999629  
804.000000	 97.653250  
803.000000	 97.321500  
802.000000	 97.020249  
801.000000	 96.760889  
800.000000	 96.555148  
799.000000	 96.414128  
798.000000	 96.339836  
797.000000	 96.323202  
796.000000	 96.352269  
795.000000	 96.416309  
794.000000	 96.501116  
793.000000	 96.589226  
792.000000	 96.669424  
791.000000	 96.740138  
790.000000	 96.799546  
789.000000	 96.837798  
788.000000	 96.843560  
787.000000	 96.813739  
786.000000	 96.751856  
785.000000	 96.660577  
784.000000	 96.542249  
783.000000	 96.405848  
782.000000	 96.268463  
781.000000	 96.149767  
780.000000	 96.066556  
779.000000	 96.028701  
778.000000	 96.036082  
777.000000	 96.082093  
776.000000	 96.162381  
775.000000	 96.275506  
774.000000	 96.412572  
773.000000	 96.553321  
772.000000	 96.679399  
771.000000	 96.788573  
770.000000	 96.890619  
769.000000	 96.992082  
768.000000	 97.091028  
767.000000	 97.184190  
766.000000	 97.271094  
765.000000	 97.349940  
764.000000	 97.416399  
763.000000	 97.470246  
762.000000	 97.519226  
761.000000	 97.572901  
760.000000	 97.635091  
759.000000	 97.704366  
758.000000	 97.778661  
757.000000	 97.856123  
756.000000	 97.933363  
755.000000	 98.006703  
754.000000	 98.075124  
753.000000	 98.139607  
752.000000	 98.200071  
751.000000	 98.255093  
750.000000	 98.304247  
749.000000	 98.348987  
748.000000	 98.391240  
747.000000	 98.432298  
746.000000	 98.473019  
745.000000	 98.514178  
744.000000	 98.557094  
743.000000	 98.604426  
742.000000	 98.658576  
741.000000	 98.717905  
740.000000	 98.776821  
739.000000	 98.831978  
738.000000	 98.886338  
737.000000	 98.943616  
736.000000	 99.000105  
735.000000	 99.046950  
734.000000	 99.080474  
733.000000	 99.105489  
732.000000	 99.127748  
731.000000	 99.147739  
730.000000	 99.163827  
729.000000	 99.176820  
728.000000	 99.190458  
727.000000	 99.208606  
726.000000	 99.231516  
725.000000	 99.256010  
724.000000	 99.279051  
723.000000	 99.300600  
722.000000	 99.322447  
721.000000	 99.343501  
720.000000	 99.356759  
719.000000	 99.351780  
718.000000	 99.320163  
717.000000	 99.259841  
716.000000	 99.177387  
715.000000	 99.090367  
714.000000	 99.026148  
713.000000	 99.011453  
712.000000	 99.058036  
711.000000	 99.155251  
710.000000	 99.275315  
709.000000	 99.388542  
708.000000	 99.477976  
707.000000	 99.542738  
706.000000	 99.588605  
705.000000	 99.617945  
704.000000	 99.629557  
703.000000	 99.622351  
702.000000	 99.595690  
701.000000	 99.544793  
700.000000	 99.458922  
699.000000	 99.332850  
698.000000	 99.178021  
697.000000	 99.020694  
696.000000	 98.890359  
695.000000	 98.808045  
694.000000	 98.785579  
693.000000	 98.825266  
692.000000	 98.914215  
691.000000	 99.028819  
690.000000	 99.148164  
689.000000	 99.262294  
688.000000	 99.365112  
687.000000	 99.445617  
686.000000	 99.498246  
685.000000	 99.532927  
684.000000	 99.563357  
683.000000	 99.592670  
682.000000	 99.617101  
681.000000	 99.638378  
680.000000	 99.663268  
679.000000	 99.695265  
678.000000	 99.732582  
677.000000	 99.767508  
676.000000	 99.793907  
675.000000	 99.813616  
674.000000	 99.833931  
673.000000	 99.862268  
672.000000	 99.906726  
671.000000	 99.977567  
670.000000	 100.083950 
669.000000	 100.209254 
668.000000	 100.266904 
667.000000	 100.211612 
666.000000	 100.132757 
665.000000	 100.085310 
664.000000	 100.067204 
663.000000	 100.074283 
662.000000	 100.097940 
661.000000	 100.121090 
660.000000	 100.132754 
659.000000	 100.138821 
658.000000	 100.148662 
657.000000	 100.156555 
656.000000	 100.154050 
655.000000	 100.146194 
654.000000	 100.140658 
653.000000	 100.137553 
652.000000	 100.137729 
651.000000	 100.140695 
650.000000	 100.134245 

