4000.000000	98.730732 
3999.000000	98.730913 
3998.000000	98.731453 
3997.000000	98.731860 
3996.000000	98.732004 
3995.000000	98.732025 
3994.000000	98.732032 
3993.000000	98.732016 
3992.000000	98.731893 
3991.000000	98.731600 
3990.000000	98.731302 
3989.000000	98.731332 
3988.000000	98.731807 
3987.000000	98.732347 
3986.000000	98.732418 
3985.000000	98.731862 
3984.000000	98.730994 
3983.000000	98.730264 
3982.000000	98.729885 
3981.000000	98.729808 
3980.000000	98.729848 
3979.000000	98.729828 
3978.000000	98.729681 
3977.000000	98.729428 
3976.000000	98.729069 
3975.000000	98.728546 
3974.000000	98.727880 
3973.000000	98.727291 
3972.000000	98.727070 
3971.000000	98.727296 
3970.000000	98.727804 
3969.000000	98.728412 
3968.000000	98.729012 
3967.000000	98.729430 
3966.000000	98.729477 
3965.000000	98.729128 
3964.000000	98.728589 
3963.000000	98.728162 
3962.000000	98.728061 
3961.000000	98.728324 
3960.000000	98.728800 
3959.000000	98.729150 
3958.000000	98.728997 
3957.000000	98.728345 
3956.000000	98.727654 
3955.000000	98.727402 
3954.000000	98.727690 
3953.000000	98.728190 
3952.000000	98.728408 
3951.000000	98.728039 
3950.000000	98.727357 
3949.000000	98.727212 
3948.000000	98.728086 
3947.000000	98.729295 
3946.000000	98.729508 
3945.000000	98.727933 
3944.000000	98.724868 
3943.000000	98.721507 
3942.000000	98.719098 
3941.000000	98.718045 
3940.000000	98.717915 
3939.000000	98.718241 
3938.000000	98.719017 
3937.000000	98.720455 
3936.000000	98.722445 
3935.000000	98.724362 
3934.000000	98.725581 
3933.000000	98.725965 
3932.000000	98.725805 
3931.000000	98.725260 
3930.000000	98.724234 
3929.000000	98.722785 
3928.000000	98.721229 
3927.000000	98.720058 
3926.000000	98.719681 
3925.000000	98.720087 
3924.000000	98.721109 
3923.000000	98.722501 
3922.000000	98.723772 
3921.000000	98.724560 
3920.000000	98.724948 
3919.000000	98.725262 
3918.000000	98.725583 
3917.000000	98.725695 
3916.000000	98.725521 
3915.000000	98.725248 
3914.000000	98.725068 
3913.000000	98.725015 
3912.000000	98.725084 
3911.000000	98.725305 
3910.000000	98.725645 
3909.000000	98.725996 
3908.000000	98.726280 
3907.000000	98.726467 
3906.000000	98.726580 
3905.000000	98.726644 
3904.000000	98.726669 
3903.000000	98.726653 
3902.000000	98.726611 
3901.000000	98.726585 
3900.000000	98.726574 
3899.000000	98.726555 
3898.000000	98.726522 
3897.000000	98.726468 
3896.000000	98.726382 
3895.000000	98.726251 
3894.000000	98.726075 
3893.000000	98.725866 
3892.000000	98.725635 
3891.000000	98.725392 
3890.000000	98.725143 
3889.000000	98.724887 
3888.000000	98.724629 
3887.000000	98.724371 
3886.000000	98.724112 
3885.000000	98.723845 
3884.000000	98.723562 
3883.000000	98.723253 
3882.000000	98.722923 
3881.000000	98.722589 
3880.000000	98.722269 
3879.000000	98.721969 
3878.000000	98.721699 
3877.000000	98.721439 
3876.000000	98.721142 
3875.000000	98.720791 
3874.000000	98.720413 
3873.000000	98.720036 
3872.000000	98.719665 
3871.000000	98.719282 
3870.000000	98.718884 
3869.000000	98.718533 
3868.000000	98.718237 
3867.000000	98.717829 
3866.000000	98.717124 
3865.000000	98.716179 
3864.000000	98.715489 
3863.000000	98.715431 
3862.000000	98.715684 
3861.000000	98.715847 
3860.000000	98.716081 
3859.000000	98.716427 
3858.000000	98.716449 
3857.000000	98.715659 
3856.000000	98.714384 
3855.000000	98.713102 
3854.000000	98.711546 
3853.000000	98.710233 
3852.000000	98.710042 
3851.000000	98.710305 
3850.000000	98.710250 
3849.000000	98.710334 
3848.000000	98.711442 
3847.000000	98.713824 
3846.000000	98.716457 
3845.000000	98.718079 
3844.000000	98.718695 
3843.000000	98.718807 
3842.000000	98.718525 
3841.000000	98.718276 
3840.000000	98.718753 
3839.000000	98.720044 
3838.000000	98.721516 
3837.000000	98.721968 
3836.000000	98.720873 
3835.000000	98.718586 
3834.000000	98.716102 
3833.000000	98.714646 
3832.000000	98.714798 
3831.000000	98.716209 
3830.000000	98.717875 
3829.000000	98.718728 
3828.000000	98.718776 
3827.000000	98.719059 
3826.000000	98.720207 
3825.000000	98.721896 
3824.000000	98.723376 
3823.000000	98.723708 
3822.000000	98.722663 
3821.000000	98.721532 
3820.000000	98.721752 
3819.000000	98.722481 
3818.000000	98.722161 
3817.000000	98.720686 
3816.000000	98.719005 
3815.000000	98.717733 
3814.000000	98.716509 
3813.000000	98.714754 
3812.000000	98.712596 
3811.000000	98.711197 
3810.000000	98.711557 
3809.000000	98.713409 
3808.000000	98.715645 
3807.000000	98.717476 
3806.000000	98.718752 
3805.000000	98.719141 
3804.000000	98.717896 
3803.000000	98.715184 
3802.000000	98.712485 
3801.000000	98.711057 
3800.000000	98.710479 
3799.000000	98.708976 
3798.000000	98.706002 
3797.000000	98.703344 
3796.000000	98.702813 
3795.000000	98.703862 
3794.000000	98.704166 
3793.000000	98.702357 
3792.000000	98.699323 
3791.000000	98.697273 
3790.000000	98.697356 
3789.000000	98.698751 
3788.000000	98.699987 
3787.000000	98.700514 
3786.000000	98.700682 
3785.000000	98.700944 
3784.000000	98.701361 
3783.000000	98.701834 
3782.000000	98.702153 
3781.000000	98.701992 
3780.000000	98.701432 
3779.000000	98.701126 
3778.000000	98.701317 
3777.000000	98.701642 
3776.000000	98.702168 
3775.000000	98.703117 
3774.000000	98.704304 
3773.000000	98.705244 
3772.000000	98.705928 
3771.000000	98.706714 
3770.000000	98.707954 
3769.000000	98.709691 
3768.000000	98.710929 
3767.000000	98.710742 
3766.000000	98.710099 
3765.000000	98.710644 
3764.000000	98.712799 
3763.000000	98.715441 
3762.000000	98.716889 
3761.000000	98.716499 
3760.000000	98.715398 
3759.000000	98.715835 
3758.000000	98.718256 
3757.000000	98.720625 
3756.000000	98.722088 
3755.000000	98.723585 
3754.000000	98.725967 
3753.000000	98.728897 
3752.000000	98.731794 
3751.000000	98.735236 
3750.000000	98.738446 
3749.000000	98.738365 
3748.000000	98.733711 
3747.000000	98.726986 
3746.000000	98.722254 
3745.000000	98.720615 
3744.000000	98.720821 
3743.000000	98.721718 
3742.000000	98.721709 
3741.000000	98.719741 
3740.000000	98.717005 
3739.000000	98.716808 
3738.000000	98.720825 
3737.000000	98.725476 
3736.000000	98.726533 
3735.000000	98.723661 
3734.000000	98.718963 
3733.000000	98.713489 
3732.000000	98.708011 
3731.000000	98.704581 
3730.000000	98.703691 
3729.000000	98.703505 
3728.000000	98.702221 
3727.000000	98.699560 
3726.000000	98.696460 
3725.000000	98.693477 
3724.000000	98.690118 
3723.000000	98.686043 
3722.000000	98.682227 
3721.000000	98.679625 
3720.000000	98.677156 
3719.000000	98.674291 
3718.000000	98.672257 
3717.000000	98.671701 
3716.000000	98.672696 
3715.000000	98.674969 
3714.000000	98.677812 
3713.000000	98.679542 
3712.000000	98.678233 
3711.000000	98.673477 
3710.000000	98.665938 
3709.000000	98.657103 
3708.000000	98.648862 
3707.000000	98.642077 
3706.000000	98.636417 
3705.000000	98.630961 
3704.000000	98.624730 
3703.000000	98.617435 
3702.000000	98.610046 
3701.000000	98.603745 
3700.000000	98.597896 
3699.000000	98.590952 
3698.000000	98.583170 
3697.000000	98.576401 
3696.000000	98.572595 
3695.000000	98.572185 
3694.000000	98.572812 
3693.000000	98.570957 
3692.000000	98.565354 
3691.000000	98.558022 
3690.000000	98.551877 
3689.000000	98.548033 
3688.000000	98.545063 
3687.000000	98.540803 
3686.000000	98.535330 
3685.000000	98.530654 
3684.000000	98.528663 
3683.000000	98.529722 
3682.000000	98.532182 
3681.000000	98.533023 
3680.000000	98.530269 
3679.000000	98.524537 
3678.000000	98.518408 
3677.000000	98.513388 
3676.000000	98.508663 
3675.000000	98.505233 
3674.000000	98.503754 
3673.000000	98.501740 
3672.000000	98.497330 
3671.000000	98.491033 
3670.000000	98.484700 
3669.000000	98.479760 
3668.000000	98.475614 
3667.000000	98.471277 
3666.000000	98.467882 
3665.000000	98.466886 
3664.000000	98.467310 
3663.000000	98.466765 
3662.000000	98.464064 
3661.000000	98.460035 
3660.000000	98.456504 
3659.000000	98.454382 
3658.000000	98.453396 
3657.000000	98.453116 
3656.000000	98.453749 
3655.000000	98.455615 
3654.000000	98.457657 
3653.000000	98.458420 
3652.000000	98.457649 
3651.000000	98.455942 
3650.000000	98.453561 
3649.000000	98.449994 
3648.000000	98.445044 
3647.000000	98.440017 
3646.000000	98.436935 
3645.000000	98.436505 
3644.000000	98.437791 
3643.000000	98.439710 
3642.000000	98.441148 
3641.000000	98.441087 
3640.000000	98.439502 
3639.000000	98.437523 
3638.000000	98.436639 
3637.000000	98.437171 
3636.000000	98.438281 
3635.000000	98.439188 
3634.000000	98.439948 
3633.000000	98.441214 
3632.000000	98.442848 
3631.000000	98.443351 
3630.000000	98.440627 
3629.000000	98.435271 
3628.000000	98.431109 
3627.000000	98.429821 
3626.000000	98.429745 
3625.000000	98.429678 
3624.000000	98.429640 
3623.000000	98.429081 
3622.000000	98.426966 
3621.000000	98.422970 
3620.000000	98.418818 
3619.000000	98.417629 
3618.000000	98.420266 
3617.000000	98.424122 
3616.000000	98.427365 
3615.000000	98.430802 
3614.000000	98.435892 
3613.000000	98.442831 
3612.000000	98.449999 
3611.000000	98.455036 
3610.000000	98.456829 
3609.000000	98.456049 
3608.000000	98.454262 
3607.000000	98.452683 
3606.000000	98.451080 
3605.000000	98.448854 
3604.000000	98.446221 
3603.000000	98.443722 
3602.000000	98.442008 
3601.000000	98.441603 
3600.000000	98.442980 
3599.000000	98.446168 
3598.000000	98.449877 
3597.000000	98.451945 
3596.000000	98.451786 
3595.000000	98.450970 
3594.000000	98.451679 
3593.000000	98.454749 
3592.000000	98.458643 
3591.000000	98.461023 
3590.000000	98.460672 
3589.000000	98.457948 
3588.000000	98.454368 
3587.000000	98.451773 
3586.000000	98.450551 
3585.000000	98.450003 
3584.000000	98.449895 
3583.000000	98.450450 
3582.000000	98.451449 
3581.000000	98.452171 
3580.000000	98.452237 
3579.000000	98.452045 
3578.000000	98.452262 
3577.000000	98.453126 
3576.000000	98.454356 
3575.000000	98.455508 
3574.000000	98.456113 
3573.000000	98.456007 
3572.000000	98.455429 
3571.000000	98.454856 
3570.000000	98.454772 
3569.000000	98.455131 
3568.000000	98.455215 
3567.000000	98.454562 
3566.000000	98.453404 
3565.000000	98.452141 
3564.000000	98.451091 
3563.000000	98.450390 
3562.000000	98.449817 
3561.000000	98.449107 
3560.000000	98.448279 
3559.000000	98.447650 
3558.000000	98.447370 
3557.000000	98.447191 
3556.000000	98.446798 
3555.000000	98.446306 
3554.000000	98.446133 
3553.000000	98.446461 
3552.000000	98.447016 
3551.000000	98.447328 
3550.000000	98.447235 
3549.000000	98.447077 
3548.000000	98.447240 
3547.000000	98.447699 
3546.000000	98.447914 
3545.000000	98.447360 
3544.000000	98.446146 
3543.000000	98.445072 
3542.000000	98.444833 
3541.000000	98.445352 
3540.000000	98.445806 
3539.000000	98.445425 
3538.000000	98.444292 
3537.000000	98.443230 
3536.000000	98.442998 
3535.000000	98.443551 
3534.000000	98.444328 
3533.000000	98.444981 
3532.000000	98.445513 
3531.000000	98.445885 
3530.000000	98.445943 
3529.000000	98.445888 
3528.000000	98.446272 
3527.000000	98.447275 
3526.000000	98.448250 
3525.000000	98.448379 
3524.000000	98.447626 
3523.000000	98.446822 
3522.000000	98.446713 
3521.000000	98.447279 
3520.000000	98.448048 
3519.000000	98.448693 
3518.000000	98.449190 
3517.000000	98.449532 
3516.000000	98.449709 
3515.000000	98.449886 
3514.000000	98.450452 
3513.000000	98.451722 
3512.000000	98.453573 
3511.000000	98.455481 
3510.000000	98.457037 
3509.000000	98.458190 
3508.000000	98.459008 
3507.000000	98.459490 
3506.000000	98.459707 
3505.000000	98.459950 
3504.000000	98.460495 
3503.000000	98.461255 
3502.000000	98.461858 
3501.000000	98.462077 
3500.000000	98.461964 
3499.000000	98.461645 
3498.000000	98.461268 
3497.000000	98.461135 
3496.000000	98.461588 
3495.000000	98.462622 
3494.000000	98.463741 
3493.000000	98.464352 
3492.000000	98.464299 
3491.000000	98.463860 
3490.000000	98.463434 
3489.000000	98.463263 
3488.000000	98.463383 
3487.000000	98.463695 
3486.000000	98.464009 
3485.000000	98.464141 
3484.000000	98.464052 
3483.000000	98.463868 
3482.000000	98.463768 
3481.000000	98.463823 
3480.000000	98.463963 
3479.000000	98.464085 
3478.000000	98.464148 
3477.000000	98.464180 
3476.000000	98.464203 
3475.000000	98.464190 
3474.000000	98.464087 
3473.000000	98.463886 
3472.000000	98.463636 
3471.000000	98.463394 
3470.000000	98.463179 
3469.000000	98.462979 
3468.000000	98.462770 
3467.000000	98.462531 
3466.000000	98.462262 
3465.000000	98.461979 
3464.000000	98.461699 
3463.000000	98.461426 
3462.000000	98.461158 
3461.000000	98.460886 
3460.000000	98.460606 
3459.000000	98.460318 
3458.000000	98.460026 
3457.000000	98.459737 
3456.000000	98.459456 
3455.000000	98.459182 
3454.000000	98.458914 
3453.000000	98.458666 
3452.000000	98.458445 
3451.000000	98.458234 
3450.000000	98.457995 
3449.000000	98.457704 
3448.000000	98.457378 
3447.000000	98.457085 
3446.000000	98.456872 
3445.000000	98.456694 
3444.000000	98.456455 
3443.000000	98.456145 
3442.000000	98.455856 
3441.000000	98.455660 
3440.000000	98.455521 
3439.000000	98.455341 
3438.000000	98.455060 
3437.000000	98.454699 
3436.000000	98.454344 
3435.000000	98.454068 
3434.000000	98.453898 
3433.000000	98.453828 
3432.000000	98.453868 
3431.000000	98.454041 
3430.000000	98.454245 
3429.000000	98.454245 
3428.000000	98.453882 
3427.000000	98.453309 
3426.000000	98.452847 
3425.000000	98.452579 
3424.000000	98.452246 
3423.000000	98.451608 
3422.000000	98.450761 
3421.000000	98.449994 
3420.000000	98.449412 
3419.000000	98.448835 
3418.000000	98.448180 
3417.000000	98.447729 
3416.000000	98.447815 
3415.000000	98.448397 
3414.000000	98.449089 
3413.000000	98.449586 
3412.000000	98.449885 
3411.000000	98.450064 
3410.000000	98.450097 
3409.000000	98.449974 
3408.000000	98.449786 
3407.000000	98.449569 
3406.000000	98.449244 
3405.000000	98.448907 
3404.000000	98.448964 
3403.000000	98.449673 
3402.000000	98.450712 
3401.000000	98.451392 
3400.000000	98.451383 
3399.000000	98.450980 
3398.000000	98.450733 
3397.000000	98.450888 
3396.000000	98.451274 
3395.000000	98.451631 
3394.000000	98.451919 
3393.000000	98.452276 
3392.000000	98.452762 
3391.000000	98.453250 
3390.000000	98.453577 
3389.000000	98.453730 
3388.000000	98.453822 
3387.000000	98.453971 
3386.000000	98.454258 
3385.000000	98.454771 
3384.000000	98.455595 
3383.000000	98.456670 
3382.000000	98.457751 
3381.000000	98.458587 
3380.000000	98.459133 
3379.000000	98.459526 
3378.000000	98.459877 
3377.000000	98.460181 
3376.000000	98.460378 
3375.000000	98.460454 
3374.000000	98.460504 
3373.000000	98.460747 
3372.000000	98.461396 
3371.000000	98.462448 
3370.000000	98.463652 
3369.000000	98.464737 
3368.000000	98.465584 
3367.000000	98.466080 
3366.000000	98.466026 
3365.000000	98.465459 
3364.000000	98.464991 
3363.000000	98.465407 
3362.000000	98.466868 
3361.000000	98.468725 
3360.000000	98.470245 
3359.000000	98.471333 
3358.000000	98.472286 
3357.000000	98.473145 
3356.000000	98.473620 
3355.000000	98.473589 
3354.000000	98.473355 
3353.000000	98.473402 
3352.000000	98.474043 
3351.000000	98.475317 
3350.000000	98.477029 
3349.000000	98.478861 
3348.000000	98.480569 
3347.000000	98.482148 
3346.000000	98.483745 
3345.000000	98.485346 
3344.000000	98.486636 
3343.000000	98.487242 
3342.000000	98.487079 
3341.000000	98.486413 
3340.000000	98.485587 
3339.000000	98.484757 
3338.000000	98.483988 
3337.000000	98.483527 
3336.000000	98.483777 
3335.000000	98.484905 
3334.000000	98.486552 
3333.000000	98.488030 
3332.000000	98.488748 
3331.000000	98.488409 
3330.000000	98.487001 
3329.000000	98.484954 
3328.000000	98.483262 
3327.000000	98.483002 
3326.000000	98.484475 
3325.000000	98.486857 
3324.000000	98.488827 
3323.000000	98.489695 
3322.000000	98.489850 
3321.000000	98.490245 
3320.000000	98.491576 
3319.000000	98.493799 
3318.000000	98.496209 
3317.000000	98.497956 
3316.000000	98.498695 
3315.000000	98.498919 
3314.000000	98.499588 
3313.000000	98.501252 
3312.000000	98.503445 
3311.000000	98.505027 
3310.000000	98.505233 
3309.000000	98.504292 
3308.000000	98.503088 
3307.000000	98.502287 
3306.000000	98.501860 
3305.000000	98.501398 
3304.000000	98.500677 
3303.000000	98.499874 
3302.000000	98.499419 
3301.000000	98.499673 
3300.000000	98.500661 
3299.000000	98.501989 
3298.000000	98.503097 
3297.000000	98.503654 
3296.000000	98.503749 
3295.000000	98.503741 
3294.000000	98.503984 
3293.000000	98.504618 
3292.000000	98.505433 
3291.000000	98.505961 
3290.000000	98.505912 
3289.000000	98.505592 
3288.000000	98.505678 
3287.000000	98.506456 
3286.000000	98.507486 
3285.000000	98.508129 
3284.000000	98.508268 
3283.000000	98.508344 
3282.000000	98.508799 
3281.000000	98.509680 
3280.000000	98.510716 
3279.000000	98.511612 
3278.000000	98.512251 
3277.000000	98.512670 
3276.000000	98.512911 
3275.000000	98.512891 
3274.000000	98.512497 
3273.000000	98.511799 
3272.000000	98.511077 
3271.000000	98.510614 
3270.000000	98.510546 
3269.000000	98.510917 
3268.000000	98.511737 
3267.000000	98.512863 
3266.000000	98.513920 
3265.000000	98.514556 
3264.000000	98.514747 
3263.000000	98.514781 
3262.000000	98.514906 
3261.000000	98.515082 
3260.000000	98.515135 
3259.000000	98.515015 
3258.000000	98.514874 
3257.000000	98.514943 
3256.000000	98.515360 
3255.000000	98.516054 
3254.000000	98.516744 
3253.000000	98.517171 
3252.000000	98.517347 
3251.000000	98.517484 
3250.000000	98.517728 
3249.000000	98.518045 
3248.000000	98.518395 
3247.000000	98.518850 
3246.000000	98.519438 
3245.000000	98.520009 
3244.000000	98.520376 
3243.000000	98.520536 
3242.000000	98.520650 
3241.000000	98.520842 
3240.000000	98.521113 
3239.000000	98.521449 
3238.000000	98.521913 
3237.000000	98.522589 
3236.000000	98.523484 
3235.000000	98.524495 
3234.000000	98.525431 
3233.000000	98.526083 
3232.000000	98.526347 
3231.000000	98.526293 
3230.000000	98.526129 
3229.000000	98.526057 
3228.000000	98.526165 
3227.000000	98.526438 
3226.000000	98.526856 
3225.000000	98.527435 
3224.000000	98.528182 
3223.000000	98.529013 
3222.000000	98.529739 
3221.000000	98.530213 
3220.000000	98.530474 
3219.000000	98.530730 
3218.000000	98.531169 
3217.000000	98.531798 
3216.000000	98.532488 
3215.000000	98.533122 
3214.000000	98.533680 
3213.000000	98.534200 
3212.000000	98.534721 
3211.000000	98.535285 
3210.000000	98.535893 
3209.000000	98.536453 
3208.000000	98.536827 
3207.000000	98.536966 
3206.000000	98.536990 
3205.000000	98.537113 
3204.000000	98.537474 
3203.000000	98.538070 
3202.000000	98.538818 
3201.000000	98.539641 
3200.000000	98.540476 
3199.000000	98.541229 
3198.000000	98.541789 
3197.000000	98.542110 
3196.000000	98.542266 
3195.000000	98.542432 
3194.000000	98.542772 
3193.000000	98.543322 
3192.000000	98.544004 
3191.000000	98.544711 
3190.000000	98.545413 
3189.000000	98.546134 
3188.000000	98.546873 
3187.000000	98.547560 
3186.000000	98.548098 
3185.000000	98.548467 
3184.000000	98.548771 
3183.000000	98.549184 
3182.000000	98.549788 
3181.000000	98.550520 
3180.000000	98.551230 
3179.000000	98.551828 
3178.000000	98.552347 
3177.000000	98.552882 
3176.000000	98.553474 
3175.000000	98.554058 
3174.000000	98.554512 
3173.000000	98.554745 
3172.000000	98.554804 
3171.000000	98.554893 
3170.000000	98.555244 
3169.000000	98.555913 
3168.000000	98.556717 
3167.000000	98.557402 
3166.000000	98.557883 
3165.000000	98.558289 
3164.000000	98.558810 
3163.000000	98.559486 
3162.000000	98.560167 
3161.000000	98.560658 
3160.000000	98.560922 
3159.000000	98.561157 
3158.000000	98.561644 
3157.000000	98.562490 
3156.000000	98.563498 
3155.000000	98.564324 
3154.000000	98.564810 
3153.000000	98.565133 
3152.000000	98.565577 
3151.000000	98.566167 
3150.000000	98.566596 
3149.000000	98.566569 
3148.000000	98.566165 
3147.000000	98.565836 
3146.000000	98.565993 
3145.000000	98.566722 
3144.000000	98.567889 
3143.000000	98.569371 
3142.000000	98.571052 
3141.000000	98.572683 
3140.000000	98.573958 
3139.000000	98.574755 
3138.000000	98.575218 
3137.000000	98.575561 
3136.000000	98.575917 
3135.000000	98.576383 
3134.000000	98.577060 
3133.000000	98.577903 
3132.000000	98.578621 
3131.000000	98.578892 
3130.000000	98.578690 
3129.000000	98.578381 
3128.000000	98.578452 
3127.000000	98.579136 
3126.000000	98.580322 
3125.000000	98.581695 
3124.000000	98.582932 
3123.000000	98.583829 
3122.000000	98.584324 
3121.000000	98.584464 
3120.000000	98.584397 
3119.000000	98.584344 
3118.000000	98.584506 
3117.000000	98.584964 
3116.000000	98.585655 
3115.000000	98.586442 
3114.000000	98.587239 
3113.000000	98.588053 
3112.000000	98.588926 
3111.000000	98.589851 
3110.000000	98.590754 
3109.000000	98.591525 
3108.000000	98.592085 
3107.000000	98.592457 
3106.000000	98.592780 
3105.000000	98.593201 
3104.000000	98.593730 
3103.000000	98.594240 
3102.000000	98.594623 
3101.000000	98.594943 
3100.000000	98.595392 
3099.000000	98.596058 
3098.000000	98.596782 
3097.000000	98.597296 
3096.000000	98.597520 
3095.000000	98.597671 
3094.000000	98.598048 
3093.000000	98.598742 
3092.000000	98.599561 
3091.000000	98.600150 
3090.000000	98.600230 
3089.000000	98.599852 
3088.000000	98.599528 
3087.000000	98.599914 
3086.000000	98.601253 
3085.000000	98.603166 
3084.000000	98.605026 
3083.000000	98.606458 
3082.000000	98.607305 
3081.000000	98.607470 
3080.000000	98.607182 
3079.000000	98.607119 
3078.000000	98.607705 
3077.000000	98.608387 
3076.000000	98.608242 
3075.000000	98.607318 
3074.000000	98.606824 
3073.000000	98.607640 
3072.000000	98.609037 
3071.000000	98.609388 
3070.000000	98.608059 
3069.000000	98.606162 
3068.000000	98.605163 
3067.000000	98.605081 
3066.000000	98.604803 
3065.000000	98.604154 
3064.000000	98.604540 
3063.000000	98.606732 
3062.000000	98.608877 
3061.000000	98.608284 
3060.000000	98.605097 
3059.000000	98.602608 
3058.000000	98.603162 
3057.000000	98.604940 
3056.000000	98.604225 
3055.000000	98.600127 
3054.000000	98.595594 
3053.000000	98.593796 
3052.000000	98.594799 
3051.000000	98.596279 
3050.000000	98.596360 
3049.000000	98.594939 
3048.000000	98.592889 
3047.000000	98.590991 
3046.000000	98.589670 
3045.000000	98.589017 
3044.000000	98.588723 
3043.000000	98.588346 
3042.000000	98.587624 
3041.000000	98.586261 
3040.000000	98.583458 
3039.000000	98.578391 
3038.000000	98.571477 
3037.000000	98.564511 
3036.000000	98.558911 
3035.000000	98.554195 
3034.000000	98.548983 
3033.000000	98.543214 
3032.000000	98.538228 
3031.000000	98.534439 
3030.000000	98.529973 
3029.000000	98.522647 
3028.000000	98.512776 
3027.000000	98.503010 
3026.000000	98.495229 
3025.000000	98.488432 
3024.000000	98.480070 
3023.000000	98.468929 
3022.000000	98.456261 
3021.000000	98.444447 
3020.000000	98.434898 
3019.000000	98.427025 
3018.000000	98.418827 
3017.000000	98.408441 
3016.000000	98.395371 
3015.000000	98.380540 
3014.000000	98.365388 
3013.000000	98.350984 
3012.000000	98.337656 
3011.000000	98.325086 
3010.000000	98.312780 
3009.000000	98.300607 
3008.000000	98.288709 
3007.000000	98.276786 
3006.000000	98.263937 
3005.000000	98.249774 
3004.000000	98.235291 
3003.000000	98.221761 
3002.000000	98.208905 
3001.000000	98.195157 
3000.000000	98.180004 
2999.000000	98.165151 
2998.000000	98.152893 
2997.000000	98.144154 
2996.000000	98.138328 
2995.000000	98.133635 
2994.000000	98.126582 
2993.000000	98.112488 
2992.000000	98.089204 
2991.000000	98.060938 
2990.000000	98.036669 
2989.000000	98.023423 
2988.000000	98.021538 
2987.000000	98.026308 
2986.000000	98.032766 
2985.000000	98.038227 
2984.000000	98.041649 
2983.000000	98.042943 
2982.000000	98.043271 
2981.000000	98.044445 
2980.000000	98.047075 
2979.000000	98.049868 
2978.000000	98.051180 
2977.000000	98.050665 
2976.000000	98.048951 
2975.000000	98.046504 
2974.000000	98.043879 
2973.000000	98.042896 
2972.000000	98.046362 
2971.000000	98.055864 
2970.000000	98.069999 
2969.000000	98.085176 
2968.000000	98.098387 
2967.000000	98.109409 
2966.000000	98.120505 
2965.000000	98.134102 
2964.000000	98.150487 
2963.000000	98.167324 
2962.000000	98.181346 
2961.000000	98.190833 
2960.000000	98.196833 
2959.000000	98.202274 
2958.000000	98.209839 
2957.000000	98.220323 
2956.000000	98.232396 
2955.000000	98.243591 
2954.000000	98.251858 
2953.000000	98.256976 
2952.000000	98.260891 
2951.000000	98.266356 
2950.000000	98.274664 
2949.000000	98.284581 
2948.000000	98.293695 
2947.000000	98.300692 
2946.000000	98.306136 
2945.000000	98.311170 
2944.000000	98.316073 
2943.000000	98.320457 
2942.000000	98.324408 
2941.000000	98.328755 
2940.000000	98.334267 
2939.000000	98.341030 
2938.000000	98.348754 
2937.000000	98.357383 
2936.000000	98.367228 
2935.000000	98.378582 
2934.000000	98.391203 
2933.000000	98.403952 
2932.000000	98.414870 
2931.000000	98.421960 
2930.000000	98.424360 
2929.000000	98.423063 
2928.000000	98.420552 
2927.000000	98.419472 
2926.000000	98.421190 
2925.000000	98.425084 
2924.000000	98.429120 
2923.000000	98.431390 
2922.000000	98.431261 
2921.000000	98.428941 
2920.000000	98.424051 
2919.000000	98.415288 
2918.000000	98.401984 
2917.000000	98.385677 
2916.000000	98.369479 
2915.000000	98.355765 
2914.000000	98.344753 
2913.000000	98.335293 
2912.000000	98.326471 
2911.000000	98.318200 
2910.000000	98.310787 
2909.000000	98.304509 
2908.000000	98.299623 
2907.000000	98.296004 
2906.000000	98.292276 
2905.000000	98.285694 
2904.000000	98.274203 
2903.000000	98.259566 
2902.000000	98.248247 
2901.000000	98.247227 
2900.000000	98.258268 
2899.000000	98.276180 
2898.000000	98.292284 
2897.000000	98.301004 
2896.000000	98.302645 
2895.000000	98.301015 
2894.000000	98.299454 
2893.000000	98.299089 
2892.000000	98.299662 
2891.000000	98.300866 
2890.000000	98.302682 
2889.000000	98.304881 
2888.000000	98.306710 
2887.000000	98.307434 
2886.000000	98.307321 
2885.000000	98.307905 
2884.000000	98.310933 
2883.000000	98.317000 
2882.000000	98.325316 
2881.000000	98.334728 
2880.000000	98.344729 
2879.000000	98.355518 
2878.000000	98.367281 
2877.000000	98.379414 
2876.000000	98.390460 
2875.000000	98.399179 
2874.000000	98.405918 
2873.000000	98.412476 
2872.000000	98.419992 
2871.000000	98.427263 
2870.000000	98.432079 
2869.000000	98.434263 
2868.000000	98.436553 
2867.000000	98.442156 
2866.000000	98.452118 
2865.000000	98.465366 
2864.000000	98.480465 
2863.000000	98.496578 
2862.000000	98.513272 
2861.000000	98.530405 
2860.000000	98.548355 
2859.000000	98.567690 
2858.000000	98.588117 
2857.000000	98.607830 
2856.000000	98.624092 
2855.000000	98.634867 
2854.000000	98.640475 
2853.000000	98.643521 
2852.000000	98.646418 
2851.000000	98.648885 
2850.000000	98.648594 
2849.000000	98.644243 
2848.000000	98.637288 
2847.000000	98.630660 
2846.000000	98.626569 
2845.000000	98.625777 
2844.000000	98.627906 
2843.000000	98.631634 
2842.000000	98.635171 
2841.000000	98.637300 
2840.000000	98.637775 
2839.000000	98.636628 
2838.000000	98.633947 
2837.000000	98.630746 
2836.000000	98.628892 
2835.000000	98.629238 
2834.000000	98.630695 
2833.000000	98.632105 
2832.000000	98.634076 
2831.000000	98.637522 
2830.000000	98.641166 
2829.000000	98.642455 
2828.000000	98.640956 
2827.000000	98.639094 
2826.000000	98.639134 
2825.000000	98.640956 
2824.000000	98.643438 
2823.000000	98.646498 
2822.000000	98.650586 
2821.000000	98.655061 
2820.000000	98.658349 
2819.000000	98.659427 
2818.000000	98.658342 
2817.000000	98.655632 
2816.000000	98.652106 
2815.000000	98.649051 
2814.000000	98.647793 
2813.000000	98.648817 
2812.000000	98.651549 
2811.000000	98.654935 
2810.000000	98.657987 
2809.000000	98.659987 
2808.000000	98.660675 
2807.000000	98.660372 
2806.000000	98.659708 
2805.000000	98.659177 
2804.000000	98.658976 
2803.000000	98.659146 
2802.000000	98.659662 
2801.000000	98.660425 
2800.000000	98.661268 
2799.000000	98.662062 
2798.000000	98.662799 
2797.000000	98.663548 
2796.000000	98.664345 
2795.000000	98.665126 
2794.000000	98.665792 
2793.000000	98.666333 
2792.000000	98.666828 
2791.000000	98.667305 
2790.000000	98.667699 
2789.000000	98.668003 
2788.000000	98.668359 
2787.000000	98.668906 
2786.000000	98.669606 
2785.000000	98.670309 
2784.000000	98.670958 
2783.000000	98.671585 
2782.000000	98.672130 
2781.000000	98.672446 
2780.000000	98.672546 
2779.000000	98.672745 
2778.000000	98.673382 
2777.000000	98.674493 
2776.000000	98.675762 
2775.000000	98.676793 
2774.000000	98.677465 
2773.000000	98.677993 
2772.000000	98.678703 
2771.000000	98.679676 
2770.000000	98.680632 
2769.000000	98.681225 
2768.000000	98.681406 
2767.000000	98.681429 
2766.000000	98.681531 
2765.000000	98.681695 
2764.000000	98.681783 
2763.000000	98.681824 
2762.000000	98.682095 
2761.000000	98.682856 
2760.000000	98.684050 
2759.000000	98.685272 
2758.000000	98.686122 
2757.000000	98.686585 
2756.000000	98.687016 
2755.000000	98.687718 
2754.000000	98.688596 
2753.000000	98.689342 
2752.000000	98.689905 
2751.000000	98.690563 
2750.000000	98.691480 
2749.000000	98.692428 
2748.000000	98.693096 
2747.000000	98.693523 
2746.000000	98.693972 
2745.000000	98.694495 
2744.000000	98.694915 
2743.000000	98.695207 
2742.000000	98.695588 
2741.000000	98.696142 
2740.000000	98.696643 
2739.000000	98.696940 
2738.000000	98.697298 
2737.000000	98.698121 
2736.000000	98.699405 
2735.000000	98.700644 
2734.000000	98.701291 
2733.000000	98.701191 
2732.000000	98.700614 
2731.000000	98.700079 
2730.000000	98.700105 
2729.000000	98.700987 
2728.000000	98.702670 
2727.000000	98.704756 
2726.000000	98.706699 
2725.000000	98.708067 
2724.000000	98.708740 
2723.000000	98.708950 
2722.000000	98.709113 
2721.000000	98.709424 
2720.000000	98.709608 
2719.000000	98.709227 
2718.000000	98.708272 
2717.000000	98.707319 
2716.000000	98.706942 
2715.000000	98.707056 
2714.000000	98.707003 
2713.000000	98.706291 
2712.000000	98.705164 
2711.000000	98.704360 
2710.000000	98.704339 
2709.000000	98.704919 
2708.000000	98.705618 
2707.000000	98.706163 
2706.000000	98.706496 
2705.000000	98.706417 
2704.000000	98.705624 
2703.000000	98.704336 
2702.000000	98.703549 
2701.000000	98.704219 
2700.000000	98.706231 
2699.000000	98.708427 
2698.000000	98.709744 
2697.000000	98.710027 
2696.000000	98.709634 
2695.000000	98.708849 
2694.000000	98.708026 
2693.000000	98.707780 
2692.000000	98.708393 
2691.000000	98.709241 
2690.000000	98.709458 
2689.000000	98.709077 
2688.000000	98.708815 
2687.000000	98.708847 
2686.000000	98.708549 
2685.000000	98.707587 
2684.000000	98.706465 
2683.000000	98.705658 
2682.000000	98.704891 
2681.000000	98.703752 
2680.000000	98.702473 
2679.000000	98.701570 
2678.000000	98.701161 
2677.000000	98.701171 
2676.000000	98.701824 
2675.000000	98.703191 
2674.000000	98.704459 
2673.000000	98.704392 
2672.000000	98.702615 
2671.000000	98.699965 
2670.000000	98.697597 
2669.000000	98.696088 
2668.000000	98.695378 
2667.000000	98.695021 
2666.000000	98.694385 
2665.000000	98.693006 
2664.000000	98.690900 
2663.000000	98.688330 
2662.000000	98.685404 
2661.000000	98.682291 
2660.000000	98.679717 
2659.000000	98.678523 
2658.000000	98.678513 
2657.000000	98.678224 
2656.000000	98.676283 
2655.000000	98.672731 
2654.000000	98.668853 
2653.000000	98.666016 
2652.000000	98.664913 
2651.000000	98.665492 
2650.000000	98.666927 
2649.000000	98.667756 
2648.000000	98.666796 
2647.000000	98.664178 
2646.000000	98.661330 
2645.000000	98.659752 
2644.000000	98.659910 
2643.000000	98.661230 
2642.000000	98.662714 
2641.000000	98.663467 
2640.000000	98.663031 
2639.000000	98.661659 
2638.000000	98.660251 
2637.000000	98.659620 
2636.000000	98.659742 
2635.000000	98.659969 
2634.000000	98.660007 
2633.000000	98.660328 
2632.000000	98.661413 
2631.000000	98.662888 
2630.000000	98.663791 
2629.000000	98.663666 
2628.000000	98.663028 
2627.000000	98.662685 
2626.000000	98.662856 
2625.000000	98.663104 
2624.000000	98.662995 
2623.000000	98.662647 
2622.000000	98.662615 
2621.000000	98.663308 
2620.000000	98.664538 
2619.000000	98.665635 
2618.000000	98.666023 
2617.000000	98.665608 
2616.000000	98.664676 
2615.000000	98.663629 
2614.000000	98.662858 
2613.000000	98.662660 
2612.000000	98.663023 
2611.000000	98.663609 
2610.000000	98.664105 
2609.000000	98.664475 
2608.000000	98.664830 
2607.000000	98.665229 
2606.000000	98.665763 
2605.000000	98.666621 
2604.000000	98.667806 
2603.000000	98.669005 
2602.000000	98.669929 
2601.000000	98.670601 
2600.000000	98.671183 
2599.000000	98.671719 
2598.000000	98.672176 
2597.000000	98.672622 
2596.000000	98.673190 
2595.000000	98.673907 
2594.000000	98.674688 
2593.000000	98.675444 
2592.000000	98.676147 
2591.000000	98.676808 
2590.000000	98.677451 
2589.000000	98.678108 
2588.000000	98.678800 
2587.000000	98.679518 
2586.000000	98.680242 
2585.000000	98.680960 
2584.000000	98.681667 
2583.000000	98.682368 
2582.000000	98.683064 
2581.000000	98.683758 
2580.000000	98.684455 
2579.000000	98.685158 
2578.000000	98.685873 
2577.000000	98.686600 
2576.000000	98.687341 
2575.000000	98.688093 
2574.000000	98.688849 
2573.000000	98.689604 
2572.000000	98.690353 
2571.000000	98.691093 
2570.000000	98.691820 
2569.000000	98.692538 
2568.000000	98.693254 
2567.000000	98.693970 
2566.000000	98.694677 
2565.000000	98.695360 
2564.000000	98.696011 
2563.000000	98.696634 
2562.000000	98.697238 
2561.000000	98.697829 
2560.000000	98.698413 
2559.000000	98.698988 
2558.000000	98.699550 
2557.000000	98.700090 
2556.000000	98.700600 
2555.000000	98.701086 
2554.000000	98.701547 
2553.000000	98.701984 
2552.000000	98.702412 
2551.000000	98.702851 
2550.000000	98.703296 
2549.000000	98.703710 
2548.000000	98.704072 
2547.000000	98.704398 
2546.000000	98.704719 
2545.000000	98.705039 
2544.000000	98.705344 
2543.000000	98.705638 
2542.000000	98.705942 
2541.000000	98.706273 
2540.000000	98.706632 
2539.000000	98.706993 
2538.000000	98.707295 
2537.000000	98.707495 
2536.000000	98.707619 
2535.000000	98.707749 
2534.000000	98.707921 
2533.000000	98.708082 
2532.000000	98.708171 
2531.000000	98.708169 
2530.000000	98.708096 
2529.000000	98.707992 
2528.000000	98.707925 
2527.000000	98.707951 
2526.000000	98.708051 
2525.000000	98.708131 
2524.000000	98.708127 
2523.000000	98.708097 
2522.000000	98.708153 
2521.000000	98.708324 
2520.000000	98.708550 
2519.000000	98.708759 
2518.000000	98.708906 
2517.000000	98.708973 
2516.000000	98.708987 
2515.000000	98.709047 
2514.000000	98.709266 
2513.000000	98.709685 
2512.000000	98.710212 
2511.000000	98.710661 
2510.000000	98.710885 
2509.000000	98.710877 
2508.000000	98.710814 
2507.000000	98.710897 
2506.000000	98.711119 
2505.000000	98.711275 
2504.000000	98.711237 
2503.000000	98.711120 
2502.000000	98.711076 
2501.000000	98.711041 
2500.000000	98.710912 
2499.000000	98.710847 
2498.000000	98.711127 
2497.000000	98.711753 
2496.000000	98.712388 
2495.000000	98.712685 
2494.000000	98.712546 
2493.000000	98.712189 
2492.000000	98.712139 
2491.000000	98.712968 
2490.000000	98.714756 
2489.000000	98.716799 
2488.000000	98.718159 
2487.000000	98.718540 
2486.000000	98.718385 
2485.000000	98.718177 
2484.000000	98.717907 
2483.000000	98.717287 
2482.000000	98.716233 
2481.000000	98.715166 
2480.000000	98.714926 
2479.000000	98.716187 
2478.000000	98.718716 
2477.000000	98.721311 
2476.000000	98.722800 
2475.000000	98.722914 
2474.000000	98.722095 
2473.000000	98.720875 
2472.000000	98.719726 
2471.000000	98.719089 
2470.000000	98.719003 
2469.000000	98.718920 
2468.000000	98.718310 
2467.000000	98.717167 
2466.000000	98.715615 
2465.000000	98.713522 
2464.000000	98.711006 
2463.000000	98.708893 
2462.000000	98.708118 
2461.000000	98.708850 
2460.000000	98.710438 
2459.000000	98.711859 
2458.000000	98.712095 
2457.000000	98.710673 
2456.000000	98.708320 
2455.000000	98.706592 
2454.000000	98.706236 
2453.000000	98.706389 
2452.000000	98.705904 
2451.000000	98.705028 
2450.000000	98.704980 
2449.000000	98.706313 
2448.000000	98.708493 
2447.000000	98.710742 
2446.000000	98.712582 
2445.000000	98.713708 
2444.000000	98.714126 
2443.000000	98.714295 
2442.000000	98.714488 
2441.000000	98.714263 
2440.000000	98.713241 
2439.000000	98.712126 
2438.000000	98.712069 
2437.000000	98.713078 
2436.000000	98.713886 
2435.000000	98.713626 
2434.000000	98.712855 
2433.000000	98.712670 
2432.000000	98.713450 
2431.000000	98.714781 
2430.000000	98.716098 
2429.000000	98.717048 
2428.000000	98.717561 
2427.000000	98.717914 
2426.000000	98.718603 
2425.000000	98.719882 
2424.000000	98.721436 
2423.000000	98.722654 
2422.000000	98.723261 
2421.000000	98.723602 
2420.000000	98.724239 
2419.000000	98.725253 
2418.000000	98.726076 
2417.000000	98.726168 
2416.000000	98.725778 
2415.000000	98.725816 
2414.000000	98.726854 
2413.000000	98.728499 
2412.000000	98.729920 
2411.000000	98.730754 
2410.000000	98.731246 
2409.000000	98.731713 
2408.000000	98.732214 
2407.000000	98.732648 
2406.000000	98.732827 
2405.000000	98.732438 
2404.000000	98.731297 
2403.000000	98.729737 
2402.000000	98.728481 
2401.000000	98.727990 
2400.000000	98.728178 
2399.000000	98.728873 
2398.000000	98.730157 
2397.000000	98.731962 
2396.000000	98.733615 
2395.000000	98.734262 
2394.000000	98.733764 
2393.000000	98.732880 
2392.000000	98.732461 
2391.000000	98.732608 
2390.000000	98.732830 
2389.000000	98.732784 
2388.000000	98.732627 
2387.000000	98.732743 
2386.000000	98.733380 
2385.000000	98.734501 
2384.000000	98.735709 
2383.000000	98.736289 
2382.000000	98.735643 
2381.000000	98.733751 
2380.000000	98.731273 
2379.000000	98.729026 
2378.000000	98.727352 
2377.000000	98.726142 
2376.000000	98.725258 
2375.000000	98.724741 
2374.000000	98.724614 
2373.000000	98.724680 
2372.000000	98.724580 
2371.000000	98.723951 
2370.000000	98.722662 
2369.000000	98.720956 
2368.000000	98.719293 
2367.000000	98.717948 
2366.000000	98.716797 
2365.000000	98.715601 
2364.000000	98.714328 
2363.000000	98.713030 
2362.000000	98.711617 
2361.000000	98.709969 
2360.000000	98.708242 
2359.000000	98.706814 
2358.000000	98.705761 
2357.000000	98.704747 
2356.000000	98.703542 
2355.000000	98.702190 
2354.000000	98.700565 
2353.000000	98.698462 
2352.000000	98.696128 
2351.000000	98.694047 
2350.000000	98.692289 
2349.000000	98.690596 
2348.000000	98.688791 
2347.000000	98.686832 
2346.000000	98.684719 
2345.000000	98.682613 
2344.000000	98.680817 
2343.000000	98.679360 
2342.000000	98.677854 
2341.000000	98.675914 
2340.000000	98.673537 
2339.000000	98.671156 
2338.000000	98.669177 
2337.000000	98.667560 
2336.000000	98.665963 
2335.000000	98.664140 
2334.000000	98.662114 
2333.000000	98.660158 
2332.000000	98.658731 
2331.000000	98.658013 
2330.000000	98.657407 
2329.000000	98.655925 
2328.000000	98.652987 
2327.000000	98.648617 
2326.000000	98.643275 
2325.000000	98.637918 
2324.000000	98.633964 
2323.000000	98.632371 
2322.000000	98.632615 
2321.000000	98.633113 
2320.000000	98.633066 
2319.000000	98.633017 
2318.000000	98.633485 
2317.000000	98.633859 
2316.000000	98.632890 
2315.000000	98.629837 
2314.000000	98.624943 
2313.000000	98.619389 
2312.000000	98.614882 
2311.000000	98.612638 
2310.000000	98.612417 
2309.000000	98.612975 
2308.000000	98.613501 
2307.000000	98.614237 
2306.000000	98.615535 
2305.000000	98.617026 
2304.000000	98.617846 
2303.000000	98.617206 
2302.000000	98.614738 
2301.000000	98.610952 
2300.000000	98.607359 
2299.000000	98.605214 
2298.000000	98.604092 
2297.000000	98.602472 
2296.000000	98.599883 
2295.000000	98.597275 
2294.000000	98.594991 
2293.000000	98.591807 
2292.000000	98.586807 
2291.000000	98.580955 
2290.000000	98.575648 
2289.000000	98.570755 
2288.000000	98.565183 
2287.000000	98.558958 
2286.000000	98.553757 
2285.000000	98.551686 
2284.000000	98.553929 
2283.000000	98.559974 
2282.000000	98.567374 
2281.000000	98.573163 
2280.000000	98.576286 
2279.000000	98.577710 
2278.000000	98.578099 
2277.000000	98.577213 
2276.000000	98.576006 
2275.000000	98.576849 
2274.000000	98.580304 
2273.000000	98.583625 
2272.000000	98.584176 
2271.000000	98.582900 
2270.000000	98.582767 
2269.000000	98.585023 
2268.000000	98.588396 
2267.000000	98.590902 
2266.000000	98.591178 
2265.000000	98.589138 
2264.000000	98.586382 
2263.000000	98.584903 
2262.000000	98.584625 
2261.000000	98.583422 
2260.000000	98.580157 
2259.000000	98.576201 
2258.000000	98.573186 
2257.000000	98.570855 
2256.000000	98.568387 
2255.000000	98.566469 
2254.000000	98.566496 
2253.000000	98.568446 
2252.000000	98.570905 
2251.000000	98.572736 
2250.000000	98.573808 
2249.000000	98.574367 
2248.000000	98.574564 
2247.000000	98.574214 
2246.000000	98.572697 
2245.000000	98.569623 
2244.000000	98.565677 
2243.000000	98.562354 
2242.000000	98.560467 
2241.000000	98.559515 
2240.000000	98.558744 
2239.000000	98.558150 
2238.000000	98.557753 
2237.000000	98.556587 
2236.000000	98.553651 
2235.000000	98.549678 
2234.000000	98.546928 
2233.000000	98.546932 
2232.000000	98.549209 
2231.000000	98.551864 
2230.000000	98.552980 
2229.000000	98.551641 
2228.000000	98.548168 
2227.000000	98.543630 
2226.000000	98.538842 
2225.000000	98.534168 
2224.000000	98.530563 
2223.000000	98.529639 
2222.000000	98.531873 
2221.000000	98.535339 
2220.000000	98.537269 
2219.000000	98.536925 
2218.000000	98.535741 
2217.000000	98.534971 
2216.000000	98.534366 
2215.000000	98.533352 
2214.000000	98.532275 
2213.000000	98.531792 
2212.000000	98.531786 
2211.000000	98.531532 
2210.000000	98.530665 
2209.000000	98.529588 
2208.000000	98.529029 
2207.000000	98.529261 
2206.000000	98.529896 
2205.000000	98.530583 
2204.000000	98.531650 
2203.000000	98.533422 
2202.000000	98.534934 
2201.000000	98.534263 
2200.000000	98.530188 
2199.000000	98.523273 
2198.000000	98.515113 
2197.000000	98.507208 
2196.000000	98.501325 
2195.000000	98.499174 
2194.000000	98.500414 
2193.000000	98.501889 
2192.000000	98.500112 
2191.000000	98.494389 
2190.000000	98.487014 
2189.000000	98.480816 
2188.000000	98.477017 
2187.000000	98.475339 
2186.000000	98.475599 
2185.000000	98.478586 
2184.000000	98.484569 
2183.000000	98.490950 
2182.000000	98.493071 
2181.000000	98.488773 
2180.000000	98.480972 
2179.000000	98.474195 
2178.000000	98.470159 
2177.000000	98.468994 
2176.000000	98.472638 
2175.000000	98.482970 
2174.000000	98.496758 
2173.000000	98.506480 
2172.000000	98.507490 
2171.000000	98.501280 
2170.000000	98.491357 
2169.000000	98.479634 
2168.000000	98.468147 
2167.000000	98.460395 
2166.000000	98.457753 
2165.000000	98.456518 
2164.000000	98.451542 
2163.000000	98.442534 
2162.000000	98.435669 
2161.000000	98.440184 
2160.000000	98.463183 
2159.000000	98.503766 
2158.000000	98.549339 
2157.000000	98.582877 
2156.000000	98.597320 
2155.000000	98.598213 
2154.000000	98.594264 
2153.000000	98.589246 
2152.000000	98.582989 
2151.000000	98.575843 
2150.000000	98.569380 
2149.000000	98.565364 
2148.000000	98.566361 
2147.000000	98.575059 
2146.000000	98.590635 
2145.000000	98.607652 
2144.000000	98.621059 
2143.000000	98.630528 
2142.000000	98.637759 
2141.000000	98.642035 
2140.000000	98.641569 
2139.000000	98.637905 
2138.000000	98.635822 
2137.000000	98.638711 
2136.000000	98.645720 
2135.000000	98.653325 
2134.000000	98.658443 
2133.000000	98.660476 
2132.000000	98.661424 
2131.000000	98.663483 
2130.000000	98.665849 
2129.000000	98.664842 
2128.000000	98.657922 
2127.000000	98.646724 
2126.000000	98.635705 
2125.000000	98.628447 
2124.000000	98.625516 
2123.000000	98.624945 
2122.000000	98.624079 
2121.000000	98.621543 
2120.000000	98.617741 
2119.000000	98.613114 
2118.000000	98.606658 
2117.000000	98.597631 
2116.000000	98.588120 
2115.000000	98.581707 
2114.000000	98.579805 
2113.000000	98.581050 
2112.000000	98.584447 
2111.000000	98.590277 
2110.000000	98.596709 
2109.000000	98.599274 
2108.000000	98.596065 
2107.000000	98.590830 
2106.000000	98.588533 
2105.000000	98.589319 
2104.000000	98.589045 
2103.000000	98.584817 
2102.000000	98.577849 
2101.000000	98.571344 
2100.000000	98.567365 
2099.000000	98.566011 
2098.000000	98.566614 
2097.000000	98.569038 
2096.000000	98.573463 
2095.000000	98.578716 
2094.000000	98.581762 
2093.000000	98.580172 
2092.000000	98.574612 
2091.000000	98.568148 
2090.000000	98.563177 
2089.000000	98.559578 
2088.000000	98.555908 
2087.000000	98.551328 
2086.000000	98.546262 
2085.000000	98.541928 
2084.000000	98.539515 
2083.000000	98.539330 
2082.000000	98.540222 
2081.000000	98.540150 
2080.000000	98.537911 
2079.000000	98.533973 
2078.000000	98.529642 
2077.000000	98.525891 
2076.000000	98.523126 
2075.000000	98.521290 
2074.000000	98.519628 
2073.000000	98.517037 
2072.000000	98.513423 
2071.000000	98.510319 
2070.000000	98.509402 
2069.000000	98.510596 
2068.000000	98.512088 
2067.000000	98.512126 
2066.000000	98.510385 
2065.000000	98.507788 
2064.000000	98.505522 
2063.000000	98.504034 
2062.000000	98.502590 
2061.000000	98.499916 
2060.000000	98.495486 
2059.000000	98.490106 
2058.000000	98.485318 
2057.000000	98.482437 
2056.000000	98.481785 
2055.000000	98.482068 
2054.000000	98.480597 
2053.000000	98.475207 
2052.000000	98.466128 
2051.000000	98.455969 
2050.000000	98.447793 
2049.000000	98.443147 
2048.000000	98.442105 
2047.000000	98.444013 
2046.000000	98.447511 
2045.000000	98.450526 
2044.000000	98.451345 
2043.000000	98.449651 
2042.000000	98.446301 
2041.000000	98.442554 
2040.000000	98.439511 
2039.000000	98.437707 
2038.000000	98.436994 
2037.000000	98.437010 
2036.000000	98.437612 
2035.000000	98.438456 
2034.000000	98.438602 
2033.000000	98.437505 
2032.000000	98.435981 
2031.000000	98.435037 
2030.000000	98.434171 
2029.000000	98.432252 
2028.000000	98.429782 
2027.000000	98.428572 
2026.000000	98.428954 
2025.000000	98.428930 
2024.000000	98.426732 
2023.000000	98.423093 
2022.000000	98.420303 
2021.000000	98.419531 
2020.000000	98.419753 
2019.000000	98.419050 
2018.000000	98.416407 
2017.000000	98.412549 
2016.000000	98.409757 
2015.000000	98.410361 
2014.000000	98.414760 
2013.000000	98.420805 
2012.000000	98.425388 
2011.000000	98.426435 
2010.000000	98.423857 
2009.000000	98.420149 
2008.000000	98.419137 
2007.000000	98.421749 
2006.000000	98.423897 
2005.000000	98.421566 
2004.000000	98.416767 
2003.000000	98.414439 
2002.000000	98.414227 
2001.000000	98.410942 
2000.000000	98.403533 
1999.000000	98.397321 
1998.000000	98.395700 
1997.000000	98.395658 
1996.000000	98.394006 
1995.000000	98.392425 
1994.000000	98.392610 
1993.000000	98.391179 
1992.000000	98.384675 
1991.000000	98.376459 
1990.000000	98.372859 
1989.000000	98.374726 
1988.000000	98.377318 
1987.000000	98.376525 
1986.000000	98.372123 
1985.000000	98.366252 
1984.000000	98.361377 
1983.000000	98.358470 
1982.000000	98.355573 
1981.000000	98.350523 
1980.000000	98.346371 
1979.000000	98.350168 
1978.000000	98.364336 
1977.000000	98.382956 
1976.000000	98.399065 
1975.000000	98.411923 
1974.000000	98.423077 
1973.000000	98.430687 
1972.000000	98.432331 
1971.000000	98.429483 
1970.000000	98.425245 
1969.000000	98.420378 
1968.000000	98.414939 
1967.000000	98.411289 
1966.000000	98.411725 
1965.000000	98.414975 
1964.000000	98.418299 
1963.000000	98.421641 
1962.000000	98.427093 
1961.000000	98.435120 
1960.000000	98.443263 
1959.000000	98.448318 
1958.000000	98.448970 
1957.000000	98.447021 
1956.000000	98.446585 
1955.000000	98.450560 
1954.000000	98.457479 
1953.000000	98.462760 
1952.000000	98.463735 
1951.000000	98.462051 
1950.000000	98.461150 
1949.000000	98.462753 
1948.000000	98.466481 
1947.000000	98.471213 
1946.000000	98.475614 
1945.000000	98.478699 
1944.000000	98.480710 
1943.000000	98.482732 
1942.000000	98.485077 
1941.000000	98.487032 
1940.000000	98.488326 
1939.000000	98.489544 
1938.000000	98.491162 
1937.000000	98.493051 
1936.000000	98.494913 
1935.000000	98.496600 
1934.000000	98.498082 
1933.000000	98.499335 
1932.000000	98.500401 
1931.000000	98.501453 
1930.000000	98.502611 
1929.000000	98.503748 
1928.000000	98.504698 
1927.000000	98.505575 
1926.000000	98.506650 
1925.000000	98.507869 
1924.000000	98.508927 
1923.000000	98.509901 
1922.000000	98.511151 
1921.000000	98.512548 
1920.000000	98.513544 
1919.000000	98.513877 
1918.000000	98.513569 
1917.000000	98.512590 
1916.000000	98.511366 
1915.000000	98.511032 
1914.000000	98.512123 
1913.000000	98.513618 
1912.000000	98.514221 
1911.000000	98.514190 
1910.000000	98.514209 
1909.000000	98.513632 
1908.000000	98.511713 
1907.000000	98.509157 
1906.000000	98.507294 
1905.000000	98.506372 
1904.000000	98.506012 
1903.000000	98.506311 
1902.000000	98.506885 
1901.000000	98.506541 
1900.000000	98.505176 
1899.000000	98.504404 
1898.000000	98.505263 
1897.000000	98.506370 
1896.000000	98.505754 
1895.000000	98.503678 
1894.000000	98.501870 
1893.000000	98.500950 
1892.000000	98.500321 
1891.000000	98.499631 
1890.000000	98.499066 
1889.000000	98.498915 
1888.000000	98.499692 
1887.000000	98.501678 
1886.000000	98.503840 
1885.000000	98.504249 
1884.000000	98.502340 
1883.000000	98.499974 
1882.000000	98.499198 
1881.000000	98.500074 
1880.000000	98.501551 
1879.000000	98.503026 
1878.000000	98.504378 
1877.000000	98.505543 
1876.000000	98.507064 
1875.000000	98.510073 
1874.000000	98.514353 
1873.000000	98.517528 
1872.000000	98.517819 
1871.000000	98.516251 
1870.000000	98.514858 
1869.000000	98.513837 
1868.000000	98.513015 
1867.000000	98.513838 
1866.000000	98.516877 
1865.000000	98.520385 
1864.000000	98.522923 
1863.000000	98.525407 
1862.000000	98.528909 
1861.000000	98.531968 
1860.000000	98.532795 
1859.000000	98.532689 
1858.000000	98.534034 
1857.000000	98.536321 
1856.000000	98.537379 
1855.000000	98.537384 
1854.000000	98.538395 
1853.000000	98.540940 
1852.000000	98.544038 
1851.000000	98.547484 
1850.000000	98.551947 
1849.000000	98.557362 
1848.000000	98.562880 
1847.000000	98.568153 
1846.000000	98.572954 
1845.000000	98.575828 
1844.000000	98.576028 
1843.000000	98.575697 
1842.000000	98.576475 
1841.000000	98.577264 
1840.000000	98.576747 
1839.000000	98.575118 
1838.000000	98.573710 
1837.000000	98.573255 
1836.000000	98.573878 
1835.000000	98.576053 
1834.000000	98.579582 
1833.000000	98.582758 
1832.000000	98.583543 
1831.000000	98.581256 
1830.000000	98.577502 
1829.000000	98.574796 
1828.000000	98.573819 
1827.000000	98.574154 
1826.000000	98.575969 
1825.000000	98.578711 
1824.000000	98.580859 
1823.000000	98.582151 
1822.000000	98.583700 
1821.000000	98.585972 
1820.000000	98.588400 
1819.000000	98.591107 
1818.000000	98.594667 
1817.000000	98.597395 
1816.000000	98.596856 
1815.000000	98.593646 
1814.000000	98.590519 
1813.000000	98.588579 
1812.000000	98.586696 
1811.000000	98.584990 
1810.000000	98.584912 
1809.000000	98.585638 
1808.000000	98.585230 
1807.000000	98.583997 
1806.000000	98.583269 
1805.000000	98.582778 
1804.000000	98.581762 
1803.000000	98.581076 
1802.000000	98.581858 
1801.000000	98.583189 
1800.000000	98.583343 
1799.000000	98.582766 
1798.000000	98.582872 
1797.000000	98.583401 
1796.000000	98.583712 
1795.000000	98.584595 
1794.000000	98.586960 
1793.000000	98.589298 
1792.000000	98.589107 
1791.000000	98.587345 
1790.000000	98.586725 
1789.000000	98.587161 
1788.000000	98.587060 
1787.000000	98.586474 
1786.000000	98.586909 
1785.000000	98.588530 
1784.000000	98.589958 
1783.000000	98.590596 
1782.000000	98.590999 
1781.000000	98.591805 
1780.000000	98.592973 
1779.000000	98.594313 
1778.000000	98.595800 
1777.000000	98.597135 
1776.000000	98.598016 
1775.000000	98.598327 
1774.000000	98.598346 
1773.000000	98.598561 
1772.000000	98.598870 
1771.000000	98.599483 
1770.000000	98.601805 
1769.000000	98.606465 
1768.000000	98.611724 
1767.000000	98.615122 
1766.000000	98.616307 
1765.000000	98.616553 
1764.000000	98.616476 
1763.000000	98.615783 
1762.000000	98.615291 
1761.000000	98.616839 
1760.000000	98.620255 
1759.000000	98.624000 
1758.000000	98.627619 
1757.000000	98.631678 
1756.000000	98.635877 
1755.000000	98.638935 
1754.000000	98.641315 
1753.000000	98.645353 
1752.000000	98.651286 
1751.000000	98.655522 
1750.000000	98.656005 
1749.000000	98.654898 
1748.000000	98.654322 
1747.000000	98.653796 
1746.000000	98.653064 
1745.000000	98.653561 
1744.000000	98.655472 
1743.000000	98.656908 
1742.000000	98.657044 
1741.000000	98.657010 
1740.000000	98.657655 
1739.000000	98.658639 
1738.000000	98.659318 
1737.000000	98.659461 
1736.000000	98.659611 
1735.000000	98.660459 
1734.000000	98.661789 
1733.000000	98.662918 
1732.000000	98.663411 
1731.000000	98.663435 
1730.000000	98.663742 
1729.000000	98.664646 
1728.000000	98.665696 
1727.000000	98.666338 
1726.000000	98.666529 
1725.000000	98.666593 
1724.000000	98.666683 
1723.000000	98.666811 
1722.000000	98.666962 
1721.000000	98.667085 
1720.000000	98.667151 
1719.000000	98.667185 
1718.000000	98.667172 
1717.000000	98.667074 
1716.000000	98.666952 
1715.000000	98.666843 
1714.000000	98.666729 
1713.000000	98.666610 
1712.000000	98.666474 
1711.000000	98.666319 
1710.000000	98.666147 
1709.000000	98.665968 
1708.000000	98.665787 
1707.000000	98.665608 
1706.000000	98.665433 
1705.000000	98.665260 
1704.000000	98.665090 
1703.000000	98.664935 
1702.000000	98.664809 
1701.000000	98.664716 
1700.000000	98.664642 
1699.000000	98.664578 
1698.000000	98.664521 
1697.000000	98.664470 
1696.000000	98.664426 
1695.000000	98.664389 
1694.000000	98.664358 
1693.000000	98.664330 
1692.000000	98.664308 
1691.000000	98.664299 
1690.000000	98.664303 
1689.000000	98.664317 
1688.000000	98.664331 
1687.000000	98.664342 
1686.000000	98.664352 
1685.000000	98.664367 
1684.000000	98.664395 
1683.000000	98.664447 
1682.000000	98.664525 
1681.000000	98.664625 
1680.000000	98.664747 
1679.000000	98.664885 
1678.000000	98.665035 
1677.000000	98.665197 
1676.000000	98.665371 
1675.000000	98.665550 
1674.000000	98.665722 
1673.000000	98.665877 
1672.000000	98.666013 
1671.000000	98.666131 
1670.000000	98.666240 
1669.000000	98.666351 
1668.000000	98.666468 
1667.000000	98.666586 
1666.000000	98.666693 
1665.000000	98.666787 
1664.000000	98.666870 
1663.000000	98.666946 
1662.000000	98.667020 
1661.000000	98.667091 
1660.000000	98.667158 
1659.000000	98.667219 
1658.000000	98.667270 
1657.000000	98.667308 
1656.000000	98.667334 
1655.000000	98.667365 
1654.000000	98.667395 
1653.000000	98.667406 
1652.000000	98.667440 
1651.000000	98.667496 
1650.000000	98.667528 
1649.000000	98.667571 
1648.000000	98.667661 
1647.000000	98.667766 
1646.000000	98.667869 
1645.000000	98.667995 
1644.000000	98.668158 
1643.000000	98.668369 
1642.000000	98.668633 
1641.000000	98.668928 
1640.000000	98.669229 
1639.000000	98.669516 
1638.000000	98.669792 
1637.000000	98.670076 
1636.000000	98.670386 
1635.000000	98.670706 
1634.000000	98.671020 
1633.000000	98.671368 
1632.000000	98.671818 
1631.000000	98.672387 
1630.000000	98.673005 
1629.000000	98.673587 
1628.000000	98.674131 
1627.000000	98.674696 
1626.000000	98.675310 
1625.000000	98.675986 
1624.000000	98.676780 
1623.000000	98.677722 
1622.000000	98.678730 
1621.000000	98.679717 
1620.000000	98.680723 
1619.000000	98.681839 
1618.000000	98.683056 
1617.000000	98.684250 
1616.000000	98.685454 
1615.000000	98.686610 
1614.000000	98.687441 
1613.000000	98.688136 
1612.000000	98.689342 
1611.000000	98.691302 
1610.000000	98.693298 
1609.000000	98.694621 
1608.000000	98.695703 
1607.000000	98.697163 
1606.000000	98.698592 
1605.000000	98.699565 
1604.000000	98.700642 
1603.000000	98.702208 
1602.000000	98.703744 
1601.000000	98.705053 
1600.000000	98.706684 
1599.000000	98.708497 
1598.000000	98.709516 
1597.000000	98.709728 
1596.000000	98.710445 
1595.000000	98.712261 
1594.000000	98.714038 
1593.000000	98.714952 
1592.000000	98.715872 
1591.000000	98.717504 
1590.000000	98.718979 
1589.000000	98.719677 
1588.000000	98.720612 
1587.000000	98.722520 
1586.000000	98.724293 
1585.000000	98.725109 
1584.000000	98.726369 
1583.000000	98.729096 
1582.000000	98.731719 
1581.000000	98.733006 
1580.000000	98.733930 
1579.000000	98.734895 
1578.000000	98.734559 
1577.000000	98.732705 
1576.000000	98.732102 
1575.000000	98.733079 
1574.000000	98.731940 
1573.000000	98.728302 
1572.000000	98.725477 
1571.000000	98.725445 
1570.000000	98.726501 
1569.000000	98.727698 
1568.000000	98.730375 
1567.000000	98.732628 
1566.000000	98.731587 
1565.000000	98.728500 
1564.000000	98.726537 
1563.000000	98.725792 
1562.000000	98.724405 
1561.000000	98.724526 
1560.000000	98.731948 
1559.000000	98.738059 
1558.000000	98.732256 
1557.000000	98.722091 
1556.000000	98.714852 
1555.000000	98.710880 
1554.000000	98.707980 
1553.000000	98.704407 
1552.000000	98.701170 
1551.000000	98.699343 
1550.000000	98.699020 
1549.000000	98.698561 
1548.000000	98.696949 
1547.000000	98.694513 
1546.000000	98.691370 
1545.000000	98.686772 
1544.000000	98.681206 
1543.000000	98.676855 
1542.000000	98.674954 
1541.000000	98.671415 
1540.000000	98.663736 
1539.000000	98.657261 
1538.000000	98.651979 
1537.000000	98.642869 
1536.000000	98.630776 
1535.000000	98.619818 
1534.000000	98.610880 
1533.000000	98.602441 
1532.000000	98.594985 
1531.000000	98.590323 
1530.000000	98.587344 
1529.000000	98.582022 
1528.000000	98.572316 
1527.000000	98.560967 
1526.000000	98.551375 
1525.000000	98.542719 
1524.000000	98.532947 
1523.000000	98.523277 
1522.000000	98.515205 
1521.000000	98.507003 
1520.000000	98.496723 
1519.000000	98.484970 
1518.000000	98.473857 
1517.000000	98.464672 
1516.000000	98.457130 
1515.000000	98.450737 
1514.000000	98.445439 
1513.000000	98.440627 
1512.000000	98.433518 
1511.000000	98.423120 
1510.000000	98.412137 
1509.000000	98.402823 
1508.000000	98.392879 
1507.000000	98.380854 
1506.000000	98.371689 
1505.000000	98.364773 
1504.000000	98.355203 
1503.000000	98.343001 
1502.000000	98.330495 
1501.000000	98.318407 
1500.000000	98.305494 
1499.000000	98.291999 
1498.000000	98.282041 
1497.000000	98.277714 
1496.000000	98.275121 
1495.000000	98.271489 
1494.000000	98.268079 
1493.000000	98.265133 
1492.000000	98.260453 
1491.000000	98.251804 
1490.000000	98.239738 
1489.000000	98.225917 
1488.000000	98.211480 
1487.000000	98.199815 
1486.000000	98.192290 
1485.000000	98.185824 
1484.000000	98.178696 
1483.000000	98.171863 
1482.000000	98.166458 
1481.000000	98.161160 
1480.000000	98.154176 
1479.000000	98.146929 
1478.000000	98.141916 
1477.000000	98.138110 
1476.000000	98.133091 
1475.000000	98.128820 
1474.000000	98.127186 
1473.000000	98.124064 
1472.000000	98.115772 
1471.000000	98.106885 
1470.000000	98.102265 
1469.000000	98.099920 
1468.000000	98.095978 
1467.000000	98.090452 
1466.000000	98.085545 
1465.000000	98.080821 
1464.000000	98.074910 
1463.000000	98.068489 
1462.000000	98.063011 
1461.000000	98.057605 
1460.000000	98.050158 
1459.000000	98.040225 
1458.000000	98.031712 
1457.000000	98.029615 
1456.000000	98.030123 
1455.000000	98.025180 
1454.000000	98.015484 
1453.000000	98.007283 
1452.000000	98.002923 
1451.000000	98.000870 
1450.000000	98.001438 
1449.000000	98.005389 
1448.000000	98.009071 
1447.000000	98.009080 
1446.000000	98.006937 
1445.000000	98.006363 
1444.000000	98.008114 
1443.000000	98.010021 
1442.000000	98.012087 
1441.000000	98.016469 
1440.000000	98.021799 
1439.000000	98.023898 
1438.000000	98.023977 
1437.000000	98.027803 
1436.000000	98.035963 
1435.000000	98.043561 
1434.000000	98.049263 
1433.000000	98.054783 
1432.000000	98.060015 
1431.000000	98.062332 
1430.000000	98.062492 
1429.000000	98.064873 
1428.000000	98.069891 
1427.000000	98.074460 
1426.000000	98.077577 
1425.000000	98.082800 
1424.000000	98.091130 
1423.000000	98.097384 
1422.000000	98.099112 
1421.000000	98.100248 
1420.000000	98.103271 
1419.000000	98.104599 
1418.000000	98.103848 
1417.000000	98.104413 
1416.000000	98.105323 
1415.000000	98.104001 
1414.000000	98.100643 
1413.000000	98.098085 
1412.000000	98.098105 
1411.000000	98.099809 
1410.000000	98.103310 
1409.000000	98.109553 
1408.000000	98.117330 
1407.000000	98.124982 
1406.000000	98.133144 
1405.000000	98.144493 
1404.000000	98.159112 
1403.000000	98.173436 
1402.000000	98.185911 
1401.000000	98.198511 
1400.000000	98.212531 
1399.000000	98.225248 
1398.000000	98.232701 
1397.000000	98.233462 
1396.000000	98.229262 
1395.000000	98.225527 
1394.000000	98.229796 
1393.000000	98.245735 
1392.000000	98.269135 
1391.000000	98.292004 
1390.000000	98.309484 
1389.000000	98.321219 
1388.000000	98.328826 
1387.000000	98.334173 
1386.000000	98.339313 
1385.000000	98.345972 
1384.000000	98.354341 
1383.000000	98.363162 
1382.000000	98.371591 
1381.000000	98.380088 
1380.000000	98.389582 
1379.000000	98.400093 
1378.000000	98.410755 
1377.000000	98.421180 
1376.000000	98.431903 
1375.000000	98.443229 
1374.000000	98.454777 
1373.000000	98.466301 
1372.000000	98.477560 
1371.000000	98.487934 
1370.000000	98.497048 
1369.000000	98.506277 
1368.000000	98.517439 
1367.000000	98.529879 
1366.000000	98.541224 
1365.000000	98.550104 
1364.000000	98.557080 
1363.000000	98.563735 
1362.000000	98.571438 
1361.000000	98.580455 
1360.000000	98.589902 
1359.000000	98.598637 
1358.000000	98.606483 
1357.000000	98.614681 
1356.000000	98.624231 
1355.000000	98.633962 
1354.000000	98.642034 
1353.000000	98.648224 
1352.000000	98.653921 
1351.000000	98.660341 
1350.000000	98.666554 
1349.000000	98.671894 
1348.000000	98.676494 
1347.000000	98.679608 
1346.000000	98.680905 
1345.000000	98.682335 
1344.000000	98.686357 
1343.000000	98.692463 
1342.000000	98.697768 
1341.000000	98.700704 
1340.000000	98.702013 
1339.000000	98.702415 
1338.000000	98.702211 
1337.000000	98.702735 
1336.000000	98.705215 
1335.000000	98.708848 
1334.000000	98.712194 
1333.000000	98.715656 
1332.000000	98.720315 
1331.000000	98.724587 
1330.000000	98.725113 
1329.000000	98.721484 
1328.000000	98.717172 
1327.000000	98.715024 
1326.000000	98.714378 
1325.000000	98.714143 
1324.000000	98.714604 
1323.000000	98.715481 
1322.000000	98.715553 
1321.000000	98.714675 
1320.000000	98.714147 
1319.000000	98.714883 
1318.000000	98.716879 
1317.000000	98.719986 
1316.000000	98.723722 
1315.000000	98.726880 
1314.000000	98.728890 
1313.000000	98.730746 
1312.000000	98.733197 
1311.000000	98.735078 
1310.000000	98.735244 
1309.000000	98.734810 
1308.000000	98.735522 
1307.000000	98.736870 
1306.000000	98.736728 
1305.000000	98.735028 
1304.000000	98.733811 
1303.000000	98.733969 
1302.000000	98.734327 
1301.000000	98.733764 
1300.000000	98.732399 
1299.000000	98.730796 
1298.000000	98.729665 
1297.000000	98.730028 
1296.000000	98.732261 
1295.000000	98.734932 
1294.000000	98.736066 
1293.000000	98.735343 
1292.000000	98.733798 
1291.000000	98.731911 
1290.000000	98.729239 
1289.000000	98.725598 
1288.000000	98.721427 
1287.000000	98.717123 
1286.000000	98.712995 
1285.000000	98.709710 
1284.000000	98.707900 
1283.000000	98.707533 
1282.000000	98.707921 
1281.000000	98.707969 
1280.000000	98.706508 
1279.000000	98.703039 
1278.000000	98.698708 
1277.000000	98.695567 
1276.000000	98.694229 
1275.000000	98.693057 
1274.000000	98.690328 
1273.000000	98.686297 
1272.000000	98.682248 
1271.000000	98.678552 
1270.000000	98.674721 
1269.000000	98.670581 
1268.000000	98.666213 
1267.000000	98.661411 
1266.000000	98.656312 
1265.000000	98.651522 
1264.000000	98.646768 
1263.000000	98.640687 
1262.000000	98.632732 
1261.000000	98.624057 
1260.000000	98.615621 
1259.000000	98.606552 
1258.000000	98.595906 
1257.000000	98.584816 
1256.000000	98.575407 
1255.000000	98.568253 
1254.000000	98.561827 
1253.000000	98.553950 
1252.000000	98.543401 
1251.000000	98.531020 
1250.000000	98.519734 
1249.000000	98.512518 
1248.000000	98.509693 
1247.000000	98.508861 
1246.000000	98.507279 
1245.000000	98.502641 
1244.000000	98.492360 
1243.000000	98.475678 
1242.000000	98.457150 
1241.000000	98.444253 
1240.000000	98.439323 
1239.000000	98.436465 
1238.000000	98.428460 
1237.000000	98.414172 
1236.000000	98.397015 
1235.000000	98.378821 
1234.000000	98.358588 
1233.000000	98.336110 
1232.000000	98.313493 
1231.000000	98.292872 
1230.000000	98.274341 
1229.000000	98.255768 
1228.000000	98.233412 
1227.000000	98.203774 
1226.000000	98.166662 
1225.000000	98.125902 
1224.000000	98.085525 
1223.000000	98.045667 
1222.000000	98.003494 
1221.000000	97.957325 
1220.000000	97.907975 
1219.000000	97.856312 
1218.000000	97.801394 
1217.000000	97.741547 
1216.000000	97.676223 
1215.000000	97.606410 
1214.000000	97.533851 
1213.000000	97.460135 
1212.000000	97.386011 
1211.000000	97.311240 
1210.000000	97.235049 
1209.000000	97.156827 
1208.000000	97.076792 
1207.000000	96.996464 
1206.000000	96.918275 
1205.000000	96.843842 
1204.000000	96.772165 
1203.000000	96.700013 
1202.000000	96.624846 
1201.000000	96.547361 
1200.000000	96.470546 
1199.000000	96.396326 
1198.000000	96.324212 
1197.000000	96.253445 
1196.000000	96.184836 
1195.000000	96.119142 
1194.000000	96.054452 
1193.000000	95.987044 
1192.000000	95.914892 
1191.000000	95.839150 
1190.000000	95.762249 
1189.000000	95.685808 
1188.000000	95.610438 
1187.000000	95.536042 
1186.000000	95.461605 
1185.000000	95.385716 
1184.000000	95.307945 
1183.000000	95.228877 
1182.000000	95.148381 
1181.000000	95.065026 
1180.000000	94.977963 
1179.000000	94.888340 
1178.000000	94.797860 
1177.000000	94.706453 
1176.000000	94.612023 
1175.000000	94.512044 
1174.000000	94.405172 
1173.000000	94.292171 
1172.000000	94.175647 
1171.000000	94.058223 
1170.000000	93.940732 
1169.000000	93.822901 
1168.000000	93.705893 
1167.000000	93.593497 
1166.000000	93.491325 
1165.000000	93.406307 
1164.000000	93.346317 
1163.000000	93.317490 
1162.000000	93.320317 
1161.000000	93.348499 
1160.000000	93.390691 
1159.000000	93.432420 
1158.000000	93.459054 
1157.000000	93.460690 
1156.000000	93.434779 
1155.000000	93.383894 
1154.000000	93.312676 
1153.000000	93.227681 
1152.000000	93.137023 
1151.000000	93.046338 
1150.000000	92.955560 
1149.000000	92.862416 
1148.000000	92.768139 
1147.000000	92.676483 
1146.000000	92.587818 
1145.000000	92.498137 
1144.000000	92.404305 
1143.000000	92.306974 
1142.000000	92.208045 
1141.000000	92.108436 
1140.000000	92.008984 
1139.000000	91.910687 
1138.000000	91.813275 
1137.000000	91.715606 
1136.000000	91.617474 
1135.000000	91.519224 
1134.000000	91.420653 
1133.000000	91.322630 
1132.000000	91.227918 
1131.000000	91.136968 
1130.000000	91.044934 
1129.000000	90.947277 
1128.000000	90.846357 
1127.000000	90.747438 
1126.000000	90.650010 
1125.000000	90.549237 
1124.000000	90.444767 
1123.000000	90.341079 
1122.000000	90.239293 
1121.000000	90.135915 
1120.000000	90.030472 
1119.000000	89.927263 
1118.000000	89.827959 
1117.000000	89.728912 
1116.000000	89.627281 
1115.000000	89.523824 
1114.000000	89.418620 
1113.000000	89.310258 
1112.000000	89.200447 
1111.000000	89.093339 
1110.000000	88.989753 
1109.000000	88.888056 
1108.000000	88.789498 
1107.000000	88.696141 
1106.000000	88.604457 
1105.000000	88.509027 
1104.000000	88.412438 
1103.000000	88.322955 
1102.000000	88.241756 
1101.000000	88.161886 
1100.000000	88.079544 
1099.000000	87.999490 
1098.000000	87.925622 
1097.000000	87.855301 
1096.000000	87.785734 
1095.000000	87.717829 
1094.000000	87.651884 
1093.000000	87.586343 
1092.000000	87.522633 
1091.000000	87.464419 
1090.000000	87.411238 
1089.000000	87.360106 
1088.000000	87.313738 
1087.000000	87.278905 
1086.000000	87.255811 
1085.000000	87.237211 
1084.000000	87.218840 
1083.000000	87.202767 
1082.000000	87.190233 
1081.000000	87.179838 
1080.000000	87.173368 
1079.000000	87.174741 
1078.000000	87.182549 
1077.000000	87.191978 
1076.000000	87.203613 
1075.000000	87.220722 
1074.000000	87.238141 
1073.000000	87.244205 
1072.000000	87.233313 
1071.000000	87.205499 
1070.000000	87.153974 
1069.000000	87.067037 
1068.000000	86.946859 
1067.000000	86.816055 
1066.000000	86.698850 
1065.000000	86.601592 
1064.000000	86.515888 
1063.000000	86.430892 
1062.000000	86.336868 
1061.000000	86.227142 
1060.000000	86.105810 
1059.000000	85.988960 
1058.000000	85.891627 
1057.000000	85.815784 
1056.000000	85.752998 
1055.000000	85.693165 
1054.000000	85.628684 
1053.000000	85.557433 
1052.000000	85.485760 
1051.000000	85.422824 
1050.000000	85.368784 
1049.000000	85.314448 
1048.000000	85.253984 
1047.000000	85.190619 
1046.000000	85.129251 
1045.000000	85.071477 
1044.000000	85.018164 
1043.000000	84.968877 
1042.000000	84.918156 
1041.000000	84.860019 
1040.000000	84.797321 
1039.000000	84.740043 
1038.000000	84.694133 
1037.000000	84.658752 
1036.000000	84.633487 
1035.000000	84.619710 
1034.000000	84.614485 
1033.000000	84.610944 
1032.000000	84.604876 
1031.000000	84.594561 
1030.000000	84.576988 
1029.000000	84.553692 
1028.000000	84.538188 
1027.000000	84.545843 
1026.000000	84.575122 
1025.000000	84.608331 
1024.000000	84.631502 
1023.000000	84.644202 
1022.000000	84.650763 
1021.000000	84.653580 
1020.000000	84.656410 
1019.000000	84.663641 
1018.000000	84.673399 
1017.000000	84.679502 
1016.000000	84.681644 
1015.000000	84.685632 
1014.000000	84.693338 
1013.000000	84.701462 
1012.000000	84.710717 
1011.000000	84.726697 
1010.000000	84.750243 
1009.000000	84.775688 
1008.000000	84.800330 
1007.000000	84.827849 
1006.000000	84.861340 
1005.000000	84.900407 
1004.000000	84.945619 
1003.000000	84.998371 
1002.000000	85.055937 
1001.000000	85.113672 
1000.000000	85.171864 
999.000000	 85.233661 
998.000000	 85.297710 
997.000000	 85.360421 
996.000000	 85.423894 
995.000000	 85.493327 
994.000000	 85.568034 
993.000000	 85.643483 
992.000000	 85.720778 
991.000000	 85.805347 
990.000000	 85.897283 
989.000000	 85.991426 
988.000000	 86.085968 
987.000000	 86.182954 
986.000000	 86.281938 
985.000000	 86.381655 
984.000000	 86.485964 
983.000000	 86.599143 
982.000000	 86.717398 
981.000000	 86.834096 
980.000000	 86.951486 
979.000000	 87.077526 
978.000000	 87.212633 
977.000000	 87.349585 
976.000000	 87.485656 
975.000000	 87.624843 
974.000000	 87.768258 
973.000000	 87.912004 
972.000000	 88.054950 
971.000000	 88.199842 
970.000000	 88.346433 
969.000000	 88.491635 
968.000000	 88.636248 
967.000000	 88.783388 
966.000000	 88.930580 
965.000000	 89.071660 
964.000000	 89.206474 
963.000000	 89.340848 
962.000000	 89.476990 
961.000000	 89.611459 
960.000000	 89.742433 
959.000000	 89.871412 
958.000000	 89.998064 
957.000000	 90.121040 
956.000000	 90.243684 
955.000000	 90.370929 
954.000000	 90.499855 
953.000000	 90.620974 
952.000000	 90.729886 
951.000000	 90.830929 
950.000000	 90.929034 
949.000000	 91.024911 
948.000000	 91.119461 
947.000000	 91.216048 
946.000000	 91.315808 
945.000000	 91.415509 
944.000000	 91.511789 
943.000000	 91.603885 
942.000000	 91.692046 
941.000000	 91.777139 
940.000000	 91.861521 
939.000000	 91.946495 
938.000000	 92.029873 
937.000000	 92.109945 
936.000000	 92.189940 
935.000000	 92.274038 
934.000000	 92.361119 
933.000000	 92.447662 
932.000000	 92.534309 
931.000000	 92.623346 
930.000000	 92.711647 
929.000000	 92.793056 
928.000000	 92.866891 
927.000000	 92.937891 
926.000000	 93.008644 
925.000000	 93.078243 
924.000000	 93.147571 
923.000000	 93.218870 
922.000000	 93.289631 
921.000000	 93.353483 
920.000000	 93.408490 
919.000000	 93.459604 
918.000000	 93.512326 
917.000000	 93.568506 
916.000000	 93.628295 
915.000000	 93.690755 
914.000000	 93.751979 
913.000000	 93.808428 
912.000000	 93.863857 
911.000000	 93.928164 
910.000000	 94.007227 
909.000000	 94.097282 
908.000000	 94.190358 
907.000000	 94.281748 
906.000000	 94.370873 
905.000000	 94.458409 
904.000000	 94.545274 
903.000000	 94.633433 
902.000000	 94.726045 
901.000000	 94.825770 
900.000000	 94.931159 
899.000000	 95.034996 
898.000000	 95.129350 
897.000000	 95.214090 
896.000000	 95.296941 
895.000000	 95.383333 
894.000000	 95.470423 
893.000000	 95.554115 
892.000000	 95.636931 
891.000000	 95.723285 
890.000000	 95.809815 
889.000000	 95.886208 
888.000000	 95.944475 
887.000000	 95.983662 
886.000000	 96.007944 
885.000000	 96.024406 
884.000000	 96.040359 
883.000000	 96.057735 
882.000000	 96.071566 
881.000000	 96.079092 
880.000000	 96.088818 
879.000000	 96.114355 
878.000000	 96.159792 
877.000000	 96.217401 
876.000000	 96.279730 
875.000000	 96.347784 
874.000000	 96.426780 
873.000000	 96.520068 
872.000000	 96.628073 
871.000000	 96.747259 
870.000000	 96.868634 
869.000000	 96.982318 
868.000000	 97.085324 
867.000000	 97.181788 
866.000000	 97.275252 
865.000000	 97.364179 
864.000000	 97.445826 
863.000000	 97.521180 
862.000000	 97.594120 
861.000000	 97.667358 
860.000000	 97.740787 
859.000000	 97.813158 
858.000000	 97.884042 
857.000000	 97.953371 
856.000000	 98.019117 
855.000000	 98.077283 
854.000000	 98.126322 
853.000000	 98.170209 
852.000000	 98.213888 
851.000000	 98.256573 
850.000000	 98.293987 
849.000000	 98.327124 
848.000000	 98.362986 
847.000000	 98.404528 
846.000000	 98.445378 
845.000000	 98.478210 
844.000000	 98.503947 
843.000000	 98.528557 
842.000000	 98.554500 
841.000000	 98.580111 
840.000000	 98.604585 
839.000000	 98.628284 
838.000000	 98.649393 
837.000000	 98.664508 
836.000000	 98.672238 
835.000000	 98.673844 
834.000000	 98.672064 
833.000000	 98.671773 
832.000000	 98.678919 
831.000000	 98.694350 
830.000000	 98.710406 
829.000000	 98.718643 
828.000000	 98.720242 
827.000000	 98.724001 
826.000000	 98.734698 
825.000000	 98.748640 
824.000000	 98.760099 
823.000000	 98.765085 
822.000000	 98.757934 
821.000000	 98.731995 
820.000000	 98.687442 
819.000000	 98.634144 
818.000000	 98.583500 
817.000000	 98.538403 
816.000000	 98.491168 
815.000000	 98.428270 
814.000000	 98.335947 
813.000000	 98.203871 
812.000000	 98.026126 
811.000000	 97.799342 
810.000000	 97.520175 
809.000000	 97.185952 
808.000000	 96.798314 
807.000000	 96.364680 
806.000000	 95.895272 
805.000000	 95.401388 
804.000000	 94.898835 
803.000000	 94.410170 
802.000000	 93.960520 
801.000000	 93.572918 
800.000000	 93.267086 
799.000000	 93.055169 
798.000000	 92.935499 
797.000000	 92.896514 
796.000000	 92.927583 
795.000000	 93.018388 
794.000000	 93.148241 
793.000000	 93.287162 
792.000000	 93.411291 
791.000000	 93.510689 
790.000000	 93.581201 
789.000000	 93.616340 
788.000000	 93.609086 
787.000000	 93.554718 
786.000000	 93.449207 
785.000000	 93.291179 
784.000000	 93.089723 
783.000000	 92.866463 
782.000000	 92.646904 
781.000000	 92.452796 
780.000000	 92.303276 
779.000000	 92.215605 
778.000000	 92.199693 
777.000000	 92.255654 
776.000000	 92.377729 
775.000000	 92.554572 
774.000000	 92.765564 
773.000000	 92.985668 
772.000000	 93.198128 
771.000000	 93.399002 
770.000000	 93.589206 
769.000000	 93.766741 
768.000000	 93.927218 
767.000000	 94.068115 
766.000000	 94.191853 
765.000000	 94.306613 
764.000000	 94.422364 
763.000000	 94.543034 
762.000000	 94.664370 
761.000000	 94.782285 
760.000000	 94.900076 
759.000000	 95.023167 
758.000000	 95.150170 
757.000000	 95.274451 
756.000000	 95.391609 
755.000000	 95.499956 
754.000000	 95.597050 
753.000000	 95.682723 
752.000000	 95.763421 
751.000000	 95.846440 
750.000000	 95.930058 
749.000000	 96.005227 
748.000000	 96.067228 
747.000000	 96.120816 
746.000000	 96.173884 
745.000000	 96.230643 
744.000000	 96.291499 
743.000000	 96.355913 
742.000000	 96.424729 
741.000000	 96.501286 
740.000000	 96.588056 
739.000000	 96.679738 
738.000000	 96.763227 
737.000000	 96.828820 
736.000000	 96.878653 
735.000000	 96.919913 
734.000000	 96.953591 
733.000000	 96.975227 
732.000000	 96.983469 
731.000000	 96.982640 
730.000000	 96.979295 
729.000000	 96.981134 
728.000000	 96.995285 
727.000000	 97.022304 
726.000000	 97.055490 
725.000000	 97.090061 
724.000000	 97.129449 
723.000000	 97.178363 
722.000000	 97.234358 
721.000000	 97.292071 
720.000000	 97.351325 
719.000000	 97.413593 
718.000000	 97.473702 
717.000000	 97.523257 
716.000000	 97.561094 
715.000000	 97.593988 
714.000000	 97.628404 
713.000000	 97.667404 
712.000000	 97.713620 
711.000000	 97.768740 
710.000000	 97.830236 
709.000000	 97.893168 
708.000000	 97.952552 
707.000000	 97.999122 
706.000000	 98.019089 
705.000000	 98.004917 
704.000000	 97.962052 
703.000000	 97.897876 
702.000000	 97.805826 
701.000000	 97.669263 
700.000000	 97.481676 
699.000000	 97.254534 
698.000000	 97.009685 
697.000000	 96.775710 
696.000000	 96.590066 
695.000000	 96.489803 
694.000000	 96.489187 
693.000000	 96.572170 
692.000000	 96.710167 
691.000000	 96.879497 
690.000000	 97.062808 
689.000000	 97.244152 
688.000000	 97.410699 
687.000000	 97.556944 
686.000000	 97.680606 
685.000000	 97.779449 
684.000000	 97.857189 
683.000000	 97.924585 
682.000000	 97.989985 
681.000000	 98.053637 
680.000000	 98.114390 
679.000000	 98.174469 
678.000000	 98.233167 
677.000000	 98.285525 
676.000000	 98.328076 
675.000000	 98.361558 
674.000000	 98.387604 
673.000000	 98.404967 
672.000000	 98.410835 
671.000000	 98.404953 
670.000000	 98.392462 
669.000000	 98.386916 
668.000000	 98.423012 
667.000000	 98.509741 
666.000000	 98.583867 
665.000000	 98.624175 
664.000000	 98.655562 
663.000000	 98.691009 
662.000000	 98.726440 
661.000000	 98.756553 
660.000000	 98.784358 
659.000000	 98.812447 
658.000000	 98.835718 
657.000000	 98.848863 
656.000000	 98.847972 
655.000000	 98.826384 
654.000000	 98.782077 
653.000000	 98.724973 
652.000000	 98.670161 
651.000000	 98.632201 
650.000000	 98.627012 

