4000.000000	99.768526 
3999.000000	99.768353 
3998.000000	99.768513 
3997.000000	99.768874 
3996.000000	99.769050 
3995.000000	99.768817 
3994.000000	99.768283 
3993.000000	99.767844 
3992.000000	99.767811 
3991.000000	99.768159 
3990.000000	99.768653 
3989.000000	99.769106 
3988.000000	99.769438 
3987.000000	99.769587 
3986.000000	99.769462 
3985.000000	99.769013 
3984.000000	99.768376 
3983.000000	99.767802 
3982.000000	99.767423 
3981.000000	99.767228 
3980.000000	99.767116 
3979.000000	99.766987 
3978.000000	99.766793 
3977.000000	99.766536 
3976.000000	99.766234 
3975.000000	99.765900 
3974.000000	99.765557 
3973.000000	99.765232 
3972.000000	99.764931 
3971.000000	99.764638 
3970.000000	99.764334 
3969.000000	99.764019 
3968.000000	99.763701 
3967.000000	99.763389 
3966.000000	99.763080 
3965.000000	99.762764 
3964.000000	99.762440 
3963.000000	99.762107 
3962.000000	99.761765 
3961.000000	99.761412 
3960.000000	99.761044 
3959.000000	99.760664 
3958.000000	99.760274 
3957.000000	99.759874 
3956.000000	99.759465 
3955.000000	99.759048 
3954.000000	99.758626 
3953.000000	99.758204 
3952.000000	99.757790 
3951.000000	99.757390 
3950.000000	99.757006 
3949.000000	99.756634 
3948.000000	99.756265 
3947.000000	99.755889 
3946.000000	99.755499 
3945.000000	99.755094 
3944.000000	99.754683 
3943.000000	99.754277 
3942.000000	99.753887 
3941.000000	99.753512 
3940.000000	99.753143 
3939.000000	99.752768 
3938.000000	99.752383 
3937.000000	99.751990 
3936.000000	99.751596 
3935.000000	99.751213 
3934.000000	99.750848 
3933.000000	99.750505 
3932.000000	99.750182 
3931.000000	99.749869 
3930.000000	99.749556 
3929.000000	99.749231 
3928.000000	99.748888 
3927.000000	99.748525 
3926.000000	99.748151 
3925.000000	99.747777 
3924.000000	99.747413 
3923.000000	99.747057 
3922.000000	99.746704 
3921.000000	99.746345 
3920.000000	99.745984 
3919.000000	99.745628 
3918.000000	99.745284 
3917.000000	99.744955 
3916.000000	99.744639 
3915.000000	99.744334 
3914.000000	99.744039 
3913.000000	99.743749 
3912.000000	99.743458 
3911.000000	99.743156 
3910.000000	99.742840 
3909.000000	99.742509 
3908.000000	99.742163 
3907.000000	99.741805 
3906.000000	99.741444 
3905.000000	99.741092 
3904.000000	99.740761 
3903.000000	99.740456 
3902.000000	99.740170 
3901.000000	99.739889 
3900.000000	99.739594 
3899.000000	99.739278 
3898.000000	99.738946 
3897.000000	99.738611 
3896.000000	99.738288 
3895.000000	99.737981 
3894.000000	99.737683 
3893.000000	99.737387 
3892.000000	99.737083 
3891.000000	99.736763 
3890.000000	99.736425 
3889.000000	99.736074 
3888.000000	99.735718 
3887.000000	99.735362 
3886.000000	99.735016 
3885.000000	99.734686 
3884.000000	99.734374 
3883.000000	99.734073 
3882.000000	99.733773 
3881.000000	99.733470 
3880.000000	99.733170 
3879.000000	99.732881 
3878.000000	99.732603 
3877.000000	99.732329 
3876.000000	99.732047 
3875.000000	99.731752 
3874.000000	99.731446 
3873.000000	99.731135 
3872.000000	99.730824 
3871.000000	99.730517 
3870.000000	99.730221 
3869.000000	99.729946 
3868.000000	99.729697 
3867.000000	99.729466 
3866.000000	99.729245 
3865.000000	99.729032 
3864.000000	99.728832 
3863.000000	99.728636 
3862.000000	99.728435 
3861.000000	99.728223 
3860.000000	99.728010 
3859.000000	99.727809 
3858.000000	99.727627 
3857.000000	99.727469 
3856.000000	99.727338 
3855.000000	99.727226 
3854.000000	99.727114 
3853.000000	99.726984 
3852.000000	99.726841 
3851.000000	99.726704 
3850.000000	99.726578 
3849.000000	99.726464 
3848.000000	99.726368 
3847.000000	99.726294 
3846.000000	99.726241 
3845.000000	99.726204 
3844.000000	99.726174 
3843.000000	99.726140 
3842.000000	99.726094 
3841.000000	99.726036 
3840.000000	99.725966 
3839.000000	99.725881 
3838.000000	99.725780 
3837.000000	99.725659 
3836.000000	99.725522 
3835.000000	99.725371 
3834.000000	99.725211 
3833.000000	99.725045 
3832.000000	99.724877 
3831.000000	99.724711 
3830.000000	99.724548 
3829.000000	99.724384 
3828.000000	99.724210 
3827.000000	99.724020 
3826.000000	99.723809 
3825.000000	99.723580 
3824.000000	99.723339 
3823.000000	99.723084 
3822.000000	99.722805 
3821.000000	99.722497 
3820.000000	99.722172 
3819.000000	99.721844 
3818.000000	99.721513 
3817.000000	99.721167 
3816.000000	99.720804 
3815.000000	99.720431 
3814.000000	99.720055 
3813.000000	99.719673 
3812.000000	99.719280 
3811.000000	99.718885 
3810.000000	99.718496 
3809.000000	99.718107 
3808.000000	99.717703 
3807.000000	99.717278 
3806.000000	99.716836 
3805.000000	99.716382 
3804.000000	99.715914 
3803.000000	99.715429 
3802.000000	99.714932 
3801.000000	99.714435 
3800.000000	99.713951 
3799.000000	99.713483 
3798.000000	99.713018 
3797.000000	99.712551 
3796.000000	99.712088 
3795.000000	99.711636 
3794.000000	99.711199 
3793.000000	99.710775 
3792.000000	99.710363 
3791.000000	99.709962 
3790.000000	99.709574 
3789.000000	99.709194 
3788.000000	99.708818 
3787.000000	99.708438 
3786.000000	99.708050 
3785.000000	99.707657 
3784.000000	99.707273 
3783.000000	99.706909 
3782.000000	99.706561 
3781.000000	99.706219 
3780.000000	99.705878 
3779.000000	99.705540 
3778.000000	99.705209 
3777.000000	99.704885 
3776.000000	99.704568 
3775.000000	99.704266 
3774.000000	99.703981 
3773.000000	99.703707 
3772.000000	99.703432 
3771.000000	99.703147 
3770.000000	99.702852 
3769.000000	99.702523 
3768.000000	99.702146 
3767.000000	99.701790 
3766.000000	99.701391 
3765.000000	99.700924 
3764.000000	99.700764 
3763.000000	99.701330 
3762.000000	99.702248 
3761.000000	99.702641 
3760.000000	99.702274 
3759.000000	99.701438 
3758.000000	99.700105 
3757.000000	99.697990 
3756.000000	99.695451 
3755.000000	99.693235 
3754.000000	99.691782 
3753.000000	99.691555 
3752.000000	99.692990 
3751.000000	99.694604 
3750.000000	99.694069 
3749.000000	99.692878 
3748.000000	99.694192 
3747.000000	99.696811 
3746.000000	99.696986 
3745.000000	99.693093 
3744.000000	99.687329 
3743.000000	99.687694 
3742.000000	99.695277 
3741.000000	99.698650 
3740.000000	99.693511 
3739.000000	99.686205 
3738.000000	99.681896 
3737.000000	99.680065 
3736.000000	99.680268 
3735.000000	99.685351 
3734.000000	99.694590 
3733.000000	99.700378 
3732.000000	99.697807 
3731.000000	99.691006 
3730.000000	99.685038 
3729.000000	99.678487 
3728.000000	99.668732 
3727.000000	99.659188 
3726.000000	99.656039 
3725.000000	99.659866 
3724.000000	99.663596 
3723.000000	99.661020 
3722.000000	99.653532 
3721.000000	99.646656 
3720.000000	99.643407 
3719.000000	99.642021 
3718.000000	99.639661 
3717.000000	99.635767 
3716.000000	99.631751 
3715.000000	99.627787 
3714.000000	99.622245 
3713.000000	99.613642 
3712.000000	99.601059 
3711.000000	99.585012 
3710.000000	99.569394 
3709.000000	99.557985 
3708.000000	99.550711 
3707.000000	99.544864 
3706.000000	99.537469 
3705.000000	99.526364 
3704.000000	99.510554 
3703.000000	99.490570 
3702.000000	99.467877 
3701.000000	99.444728 
3700.000000	99.423694 
3699.000000	99.404791 
3698.000000	99.385067 
3697.000000	99.363168 
3696.000000	99.341527 
3695.000000	99.323061 
3694.000000	99.307904 
3693.000000	99.295069 
3692.000000	99.285183 
3691.000000	99.278365 
3690.000000	99.270890 
3689.000000	99.257717 
3688.000000	99.240708 
3687.000000	99.227214 
3686.000000	99.219476 
3685.000000	99.214441 
3684.000000	99.212316 
3683.000000	99.216617 
3682.000000	99.226155 
3681.000000	99.231857 
3680.000000	99.224045 
3679.000000	99.202632 
3678.000000	99.175512 
3677.000000	99.151103 
3676.000000	99.133240 
3675.000000	99.124004 
3674.000000	99.128882 
3673.000000	99.144070 
3672.000000	99.154842 
3671.000000	99.155951 
3670.000000	99.152251 
3669.000000	99.148883 
3668.000000	99.148393 
3667.000000	99.147218 
3666.000000	99.141245 
3665.000000	99.132118 
3664.000000	99.124241 
3663.000000	99.120417 
3662.000000	99.120932 
3661.000000	99.124818 
3660.000000	99.131347 
3659.000000	99.140555 
3658.000000	99.151978 
3657.000000	99.164329 
3656.000000	99.176571 
3655.000000	99.190512 
3654.000000	99.206121 
3653.000000	99.218644 
3652.000000	99.226321 
3651.000000	99.234239 
3650.000000	99.245840 
3649.000000	99.257032 
3648.000000	99.264007 
3647.000000	99.269183 
3646.000000	99.276751 
3645.000000	99.287343 
3644.000000	99.298629 
3643.000000	99.308726 
3642.000000	99.318338 
3641.000000	99.328995 
3640.000000	99.340482 
3639.000000	99.351000 
3638.000000	99.360154 
3637.000000	99.369967 
3636.000000	99.381154 
3635.000000	99.391133 
3634.000000	99.397310 
3633.000000	99.400656 
3632.000000	99.403364 
3631.000000	99.405859 
3630.000000	99.408086 
3629.000000	99.409669 
3628.000000	99.412967 
3627.000000	99.422303 
3626.000000	99.432543 
3625.000000	99.436641 
3624.000000	99.437216 
3623.000000	99.440254 
3622.000000	99.446928 
3621.000000	99.453737 
3620.000000	99.457250 
3619.000000	99.457165 
3618.000000	99.456519 
3617.000000	99.458304 
3616.000000	99.461939 
3615.000000	99.465052 
3614.000000	99.466523 
3613.000000	99.467121 
3612.000000	99.468559 
3611.000000	99.471740 
3610.000000	99.476181 
3609.000000	99.481483 
3608.000000	99.487709 
3607.000000	99.494497 
3606.000000	99.500481 
3605.000000	99.503954 
3604.000000	99.504603 
3603.000000	99.503963 
3602.000000	99.504012 
3601.000000	99.505938 
3600.000000	99.509574 
3599.000000	99.513316 
3598.000000	99.514967 
3597.000000	99.514081 
3596.000000	99.512453 
3595.000000	99.512310 
3594.000000	99.514094 
3593.000000	99.516480 
3592.000000	99.517865 
3591.000000	99.517847 
3590.000000	99.517539 
3589.000000	99.518664 
3588.000000	99.521864 
3587.000000	99.526161 
3586.000000	99.530074 
3585.000000	99.532394 
3584.000000	99.532700 
3583.000000	99.531961 
3582.000000	99.531896 
3581.000000	99.533468 
3580.000000	99.536087 
3579.000000	99.538310 
3578.000000	99.539067 
3577.000000	99.538389 
3576.000000	99.537126 
3575.000000	99.536141 
3574.000000	99.535805 
3573.000000	99.535983 
3572.000000	99.536292 
3571.000000	99.536351 
3570.000000	99.536117 
3569.000000	99.535988 
3568.000000	99.536468 
3567.000000	99.537578 
3566.000000	99.539024 
3565.000000	99.540552 
3564.000000	99.541839 
3563.000000	99.543003 
3562.000000	99.544687 
3561.000000	99.547158 
3560.000000	99.549846 
3559.000000	99.552000 
3558.000000	99.553478 
3557.000000	99.554591 
3556.000000	99.555324 
3555.000000	99.554907 
3554.000000	99.552588 
3553.000000	99.548751 
3552.000000	99.545020 
3551.000000	99.542754 
3550.000000	99.541676 
3549.000000	99.540620 
3548.000000	99.539509 
3547.000000	99.539573 
3546.000000	99.541469 
3545.000000	99.544129 
3544.000000	99.545995 
3543.000000	99.546710 
3542.000000	99.547106 
3541.000000	99.547980 
3540.000000	99.549420 
3539.000000	99.551030 
3538.000000	99.552472 
3537.000000	99.553666 
3536.000000	99.554536 
3535.000000	99.554807 
3534.000000	99.554094 
3533.000000	99.552371 
3532.000000	99.550177 
3531.000000	99.548369 
3530.000000	99.547464 
3529.000000	99.547405 
3528.000000	99.547874 
3527.000000	99.548636 
3526.000000	99.549548 
3525.000000	99.550459 
3524.000000	99.551313 
3523.000000	99.552159 
3522.000000	99.552993 
3521.000000	99.553631 
3520.000000	99.553841 
3519.000000	99.553621 
3518.000000	99.553326 
3517.000000	99.553460 
3516.000000	99.554264 
3515.000000	99.555539 
3514.000000	99.556791 
3513.000000	99.557565 
3512.000000	99.557683 
3511.000000	99.557311 
3510.000000	99.556828 
3509.000000	99.556547 
3508.000000	99.556494 
3507.000000	99.556500 
3506.000000	99.556433 
3505.000000	99.556344 
3504.000000	99.556389 
3503.000000	99.556678 
3502.000000	99.557215 
3501.000000	99.557879 
3500.000000	99.558431 
3499.000000	99.558611 
3498.000000	99.558322 
3497.000000	99.557723 
3496.000000	99.557168 
3495.000000	99.556932 
3494.000000	99.557056 
3493.000000	99.557425 
3492.000000	99.557902 
3491.000000	99.558368 
3490.000000	99.558722 
3489.000000	99.558915 
3488.000000	99.559004 
3487.000000	99.559091 
3486.000000	99.559179 
3485.000000	99.559129 
3484.000000	99.558806 
3483.000000	99.558257 
3482.000000	99.557737 
3481.000000	99.557539 
3480.000000	99.557743 
3479.000000	99.558085 
3478.000000	99.558144 
3477.000000	99.557752 
3476.000000	99.557154 
3475.000000	99.556757 
3474.000000	99.556752 
3473.000000	99.557056 
3472.000000	99.557484 
3471.000000	99.557904 
3470.000000	99.558236 
3469.000000	99.558430 
3468.000000	99.558458 
3467.000000	99.558245 
3466.000000	99.557622 
3465.000000	99.556418 
3464.000000	99.554707 
3463.000000	99.552962 
3462.000000	99.551824 
3461.000000	99.551609 
3460.000000	99.552073 
3459.000000	99.552672 
3458.000000	99.553100 
3457.000000	99.553445 
3456.000000	99.553829 
3455.000000	99.554121 
3454.000000	99.554027 
3453.000000	99.553346 
3452.000000	99.552087 
3451.000000	99.550539 
3450.000000	99.549261 
3449.000000	99.548827 
3448.000000	99.549398 
3447.000000	99.550545 
3446.000000	99.551588 
3445.000000	99.552147 
3444.000000	99.552357 
3443.000000	99.552692 
3442.000000	99.553567 
3441.000000	99.554900 
3440.000000	99.555971 
3439.000000	99.555910 
3438.000000	99.554468 
3437.000000	99.552287 
3436.000000	99.550341 
3435.000000	99.549155 
3434.000000	99.548634 
3433.000000	99.548402 
3432.000000	99.548081 
3431.000000	99.547401 
3430.000000	99.546333 
3429.000000	99.545202 
3428.000000	99.544451 
3427.000000	99.544189 
3426.000000	99.544095 
3425.000000	99.543793 
3424.000000	99.543232 
3423.000000	99.542623 
3422.000000	99.542122 
3421.000000	99.541673 
3420.000000	99.541134 
3419.000000	99.540495 
3418.000000	99.539952 
3417.000000	99.539729 
3416.000000	99.539817 
3415.000000	99.539942 
3414.000000	99.539806 
3413.000000	99.539387 
3412.000000	99.538908 
3411.000000	99.538591 
3410.000000	99.538463 
3409.000000	99.538404 
3408.000000	99.538281 
3407.000000	99.538049 
3406.000000	99.537743 
3405.000000	99.537429 
3404.000000	99.537161 
3403.000000	99.536946 
3402.000000	99.536759 
3401.000000	99.536573 
3400.000000	99.536383 
3399.000000	99.536200 
3398.000000	99.536032 
3397.000000	99.535889 
3396.000000	99.535775 
3395.000000	99.535691 
3394.000000	99.535631 
3393.000000	99.535591 
3392.000000	99.535564 
3391.000000	99.535543 
3390.000000	99.535520 
3389.000000	99.535489 
3388.000000	99.535453 
3387.000000	99.535429 
3386.000000	99.535434 
3385.000000	99.535476 
3384.000000	99.535540 
3383.000000	99.535600 
3382.000000	99.535632 
3381.000000	99.535646 
3380.000000	99.535684 
3379.000000	99.535786 
3378.000000	99.535954 
3377.000000	99.536163 
3376.000000	99.536395 
3375.000000	99.536645 
3374.000000	99.536893 
3373.000000	99.537100 
3372.000000	99.537243 
3371.000000	99.537347 
3370.000000	99.537449 
3369.000000	99.537551 
3368.000000	99.537616 
3367.000000	99.537615 
3366.000000	99.537551 
3365.000000	99.537465 
3364.000000	99.537427 
3363.000000	99.537493 
3362.000000	99.537668 
3361.000000	99.537908 
3360.000000	99.538140 
3359.000000	99.538315 
3358.000000	99.538457 
3357.000000	99.538639 
3356.000000	99.538901 
3355.000000	99.539171 
3354.000000	99.539321 
3353.000000	99.539318 
3352.000000	99.539234 
3351.000000	99.539162 
3350.000000	99.539132 
3349.000000	99.539147 
3348.000000	99.539227 
3347.000000	99.539393 
3346.000000	99.539616 
3345.000000	99.539805 
3344.000000	99.539878 
3343.000000	99.539819 
3342.000000	99.539676 
3341.000000	99.539555 
3340.000000	99.539574 
3339.000000	99.539803 
3338.000000	99.540140 
3337.000000	99.540334 
3336.000000	99.540230 
3335.000000	99.539951 
3334.000000	99.539737 
3333.000000	99.539573 
3332.000000	99.539197 
3331.000000	99.538475 
3330.000000	99.537649 
3329.000000	99.537122 
3328.000000	99.537032 
3327.000000	99.537119 
3326.000000	99.537025 
3325.000000	99.536651 
3324.000000	99.536167 
3323.000000	99.535750 
3322.000000	99.535445 
3321.000000	99.535256 
3320.000000	99.535252 
3319.000000	99.535523 
3318.000000	99.536004 
3317.000000	99.536350 
3316.000000	99.536065 
3315.000000	99.534890 
3314.000000	99.533186 
3313.000000	99.531827 
3312.000000	99.531490 
3311.000000	99.532150 
3310.000000	99.533263 
3309.000000	99.534287 
3308.000000	99.534926 
3307.000000	99.534937 
3306.000000	99.534099 
3305.000000	99.532454 
3304.000000	99.530347 
3303.000000	99.528094 
3302.000000	99.525810 
3301.000000	99.523674 
3300.000000	99.522071 
3299.000000	99.521288 
3298.000000	99.521266 
3297.000000	99.521780 
3296.000000	99.522711 
3295.000000	99.523936 
3294.000000	99.525067 
3293.000000	99.525578 
3292.000000	99.525274 
3291.000000	99.524537 
3290.000000	99.524084 
3289.000000	99.524385 
3288.000000	99.525221 
3287.000000	99.525766 
3286.000000	99.525271 
3285.000000	99.523715 
3284.000000	99.521803 
3283.000000	99.520338 
3282.000000	99.519602 
3281.000000	99.519345 
3280.000000	99.519202 
3279.000000	99.519040 
3278.000000	99.518938 
3277.000000	99.518900 
3276.000000	99.518630 
3275.000000	99.517741 
3274.000000	99.516245 
3273.000000	99.514763 
3272.000000	99.514052 
3271.000000	99.514336 
3270.000000	99.515211 
3269.000000	99.516053 
3268.000000	99.516416 
3267.000000	99.516036 
3266.000000	99.514752 
3265.000000	99.512701 
3264.000000	99.510420 
3263.000000	99.508487 
3262.000000	99.507103 
3261.000000	99.506170 
3260.000000	99.505617 
3259.000000	99.505451 
3258.000000	99.505513 
3257.000000	99.505408 
3256.000000	99.504787 
3255.000000	99.503640 
3254.000000	99.502280 
3253.000000	99.501076 
3252.000000	99.500179 
3251.000000	99.499414 
3250.000000	99.498454 
3249.000000	99.497195 
3248.000000	99.495965 
3247.000000	99.495275 
3246.000000	99.495319 
3245.000000	99.495834 
3244.000000	99.496440 
3243.000000	99.496972 
3242.000000	99.497402 
3241.000000	99.497543 
3240.000000	99.497046 
3239.000000	99.495890 
3238.000000	99.494697 
3237.000000	99.494165 
3236.000000	99.494106 
3235.000000	99.493443 
3234.000000	99.491420 
3233.000000	99.488535 
3232.000000	99.485975 
3231.000000	99.484207 
3230.000000	99.482570 
3229.000000	99.480284 
3228.000000	99.477481 
3227.000000	99.475147 
3226.000000	99.474264 
3225.000000	99.475001 
3224.000000	99.476455 
3223.000000	99.477275 
3222.000000	99.476912 
3221.000000	99.476152 
3220.000000	99.476143 
3219.000000	99.477034 
3218.000000	99.477934 
3217.000000	99.478087 
3216.000000	99.477676 
3215.000000	99.477395 
3214.000000	99.477665 
3213.000000	99.478402 
3212.000000	99.479328 
3211.000000	99.480269 
3210.000000	99.481153 
3209.000000	99.481776 
3208.000000	99.481676 
3207.000000	99.480491 
3206.000000	99.478610 
3205.000000	99.477254 
3204.000000	99.477443 
3203.000000	99.479064 
3202.000000	99.481128 
3201.000000	99.482839 
3200.000000	99.484178 
3199.000000	99.485321 
3198.000000	99.486034 
3197.000000	99.485920 
3196.000000	99.485008 
3195.000000	99.483848 
3194.000000	99.483101 
3193.000000	99.483120 
3192.000000	99.483796 
3191.000000	99.484627 
3190.000000	99.485038 
3189.000000	99.484827 
3188.000000	99.484293 
3187.000000	99.483937 
3186.000000	99.484069 
3185.000000	99.484672 
3184.000000	99.485468 
3183.000000	99.486051 
3182.000000	99.486138 
3181.000000	99.485842 
3180.000000	99.485655 
3179.000000	99.486020 
3178.000000	99.486936 
3177.000000	99.488039 
3176.000000	99.488948 
3175.000000	99.489495 
3174.000000	99.489727 
3173.000000	99.489908 
3172.000000	99.490457 
3171.000000	99.491670 
3170.000000	99.493369 
3169.000000	99.494876 
3168.000000	99.495433 
3167.000000	99.494690 
3166.000000	99.492905 
3165.000000	99.490794 
3164.000000	99.489119 
3163.000000	99.488289 
3162.000000	99.488235 
3161.000000	99.488547 
3160.000000	99.488716 
3159.000000	99.488500 
3158.000000	99.488140 
3157.000000	99.488147 
3156.000000	99.488740 
3155.000000	99.489581 
3154.000000	99.490154 
3153.000000	99.490300 
3152.000000	99.490180 
3151.000000	99.489902 
3150.000000	99.489513 
3149.000000	99.489268 
3148.000000	99.489534 
3147.000000	99.490405 
3146.000000	99.491714 
3145.000000	99.493379 
3144.000000	99.495356 
3143.000000	99.497201 
3142.000000	99.498127 
3141.000000	99.497720 
3140.000000	99.496309 
3139.000000	99.494589 
3138.000000	99.493127 
3137.000000	99.492281 
3136.000000	99.492246 
3135.000000	99.492886 
3134.000000	99.493734 
3133.000000	99.494366 
3132.000000	99.494624 
3131.000000	99.494492 
3130.000000	99.494114 
3129.000000	99.494021 
3128.000000	99.494915 
3127.000000	99.496965 
3126.000000	99.499500 
3125.000000	99.501554 
3124.000000	99.502691 
3123.000000	99.503178 
3122.000000	99.503564 
3121.000000	99.504215 
3120.000000	99.505051 
3119.000000	99.505587 
3118.000000	99.505375 
3117.000000	99.504490 
3116.000000	99.503474 
3115.000000	99.502807 
3114.000000	99.502696 
3113.000000	99.503303 
3112.000000	99.504665 
3111.000000	99.506240 
3110.000000	99.507084 
3109.000000	99.506855 
3108.000000	99.506261 
3107.000000	99.506200 
3106.000000	99.506729 
3105.000000	99.507313 
3104.000000	99.507714 
3103.000000	99.508055 
3102.000000	99.508228 
3101.000000	99.507893 
3100.000000	99.506921 
3099.000000	99.505320 
3098.000000	99.503061 
3097.000000	99.500612 
3096.000000	99.499230 
3095.000000	99.499815 
3094.000000	99.501707 
3093.000000	99.503476 
3092.000000	99.504602 
3091.000000	99.505285 
3090.000000	99.505100 
3089.000000	99.503525 
3088.000000	99.501694 
3087.000000	99.501815 
3086.000000	99.504329 
3085.000000	99.507189 
3084.000000	99.508662 
3083.000000	99.509504 
3082.000000	99.511458 
3081.000000	99.514674 
3080.000000	99.517668 
3079.000000	99.519235 
3078.000000	99.519437 
3077.000000	99.518823 
3076.000000	99.517342 
3075.000000	99.514321 
3074.000000	99.509487 
3073.000000	99.504009 
3072.000000	99.500086 
3071.000000	99.499017 
3070.000000	99.499978 
3069.000000	99.501255 
3068.000000	99.502228 
3067.000000	99.503207 
3066.000000	99.503672 
3065.000000	99.502129 
3064.000000	99.498089 
3063.000000	99.493125 
3062.000000	99.489446 
3061.000000	99.488024 
3060.000000	99.488304 
3059.000000	99.489057 
3058.000000	99.489262 
3057.000000	99.488784 
3056.000000	99.488346 
3055.000000	99.488280 
3054.000000	99.487347 
3053.000000	99.483785 
3052.000000	99.477796 
3051.000000	99.471902 
3050.000000	99.468074 
3049.000000	99.465221 
3048.000000	99.460470 
3047.000000	99.452618 
3046.000000	99.443318 
3045.000000	99.434792 
3044.000000	99.427105 
3043.000000	99.418209 
3042.000000	99.406491 
3041.000000	99.392604 
3040.000000	99.378502 
3039.000000	99.365090 
3038.000000	99.351555 
3037.000000	99.336933 
3036.000000	99.321202 
3035.000000	99.304451 
3034.000000	99.285923 
3033.000000	99.264208 
3032.000000	99.238522 
3031.000000	99.209770 
3030.000000	99.179723 
3029.000000	99.149685 
3028.000000	99.120550 
3027.000000	99.092940 
3026.000000	99.066449 
3025.000000	99.039360 
3024.000000	99.009737 
3023.000000	98.976730 
3022.000000	98.940874 
3021.000000	98.903666 
3020.000000	98.866990 
3019.000000	98.832061 
3018.000000	98.798111 
3017.000000	98.762305 
3016.000000	98.721730 
3015.000000	98.675798 
3014.000000	98.626757 
3013.000000	98.577982 
3012.000000	98.531671 
3011.000000	98.487650 
3010.000000	98.443898 
3009.000000	98.398357 
3008.000000	98.350729 
3007.000000	98.302764 
3006.000000	98.256667 
3005.000000	98.213015 
3004.000000	98.170007 
3003.000000	98.124746 
3002.000000	98.075688 
3001.000000	98.024411 
3000.000000	97.974938 
2999.000000	97.930818 
2998.000000	97.893002 
2997.000000	97.861039 
2996.000000	97.835025 
2995.000000	97.813176 
2994.000000	97.786243 
2993.000000	97.738457 
2992.000000	97.660361 
2991.000000	97.562765 
2990.000000	97.474334 
2989.000000	97.421341 
2988.000000	97.410115 
2987.000000	97.428248 
2986.000000	97.458389 
2985.000000	97.488649 
2984.000000	97.512595 
2983.000000	97.526542 
2982.000000	97.530402 
2981.000000	97.528187 
2980.000000	97.524315 
2979.000000	97.519947 
2978.000000	97.514143 
2977.000000	97.506858 
2976.000000	97.498917 
2975.000000	97.490463 
2974.000000	97.481966 
2973.000000	97.476290 
2972.000000	97.477584 
2971.000000	97.488038 
2970.000000	97.507245 
2969.000000	97.534368 
2968.000000	97.568908 
2967.000000	97.609099 
2966.000000	97.651402 
2965.000000	97.692554 
2964.000000	97.731136 
2963.000000	97.766688 
2962.000000	97.798473 
2961.000000	97.825877 
2960.000000	97.849343 
2959.000000	97.870488 
2958.000000	97.891764 
2957.000000	97.915748 
2956.000000	97.943368 
2955.000000	97.972442 
2954.000000	97.999279 
2953.000000	98.022661 
2952.000000	98.045368 
2951.000000	98.070881 
2950.000000	98.099010 
2949.000000	98.125402 
2948.000000	98.144942 
2947.000000	98.155160 
2946.000000	98.157767 
2945.000000	98.158115 
2944.000000	98.162022 
2943.000000	98.172092 
2942.000000	98.186969 
2941.000000	98.203795 
2940.000000	98.220675 
2939.000000	98.236618 
2938.000000	98.250211 
2937.000000	98.259946 
2936.000000	98.266012 
2935.000000	98.270668 
2934.000000	98.276193 
2933.000000	98.282741 
2932.000000	98.288293 
2931.000000	98.290519 
2930.000000	98.288766 
2929.000000	98.284668 
2928.000000	98.280937 
2927.000000	98.279106 
2926.000000	98.278131 
2925.000000	98.275244 
2924.000000	98.268470 
2923.000000	98.258501 
2922.000000	98.248124 
2921.000000	98.239672 
2920.000000	98.233047 
2919.000000	98.226156 
2918.000000	98.216796 
2917.000000	98.203419 
2916.000000	98.184393 
2915.000000	98.158100 
2914.000000	98.125241 
2913.000000	98.090722 
2912.000000	98.061656 
2911.000000	98.042380 
2910.000000	98.031535 
2909.000000	98.024145 
2908.000000	98.016072 
2907.000000	98.005652 
2906.000000	97.991075 
2905.000000	97.968023 
2904.000000	97.932926 
2903.000000	97.890680 
2902.000000	97.857545 
2901.000000	97.851965 
2900.000000	97.880158 
2899.000000	97.930169 
2898.000000	97.980414 
2897.000000	98.015430 
2896.000000	98.033506 
2895.000000	98.041799 
2894.000000	98.047992 
2893.000000	98.056359 
2892.000000	98.067876 
2891.000000	98.080989 
2890.000000	98.092787 
2889.000000	98.101221 
2888.000000	98.106568 
2887.000000	98.110707 
2886.000000	98.115745 
2885.000000	98.123820 
2884.000000	98.137183 
2883.000000	98.157099 
2882.000000	98.182754 
2881.000000	98.212055 
2880.000000	98.243493 
2879.000000	98.276696 
2878.000000	98.311175 
2877.000000	98.345211 
2876.000000	98.376324 
2875.000000	98.402747 
2874.000000	98.424386 
2873.000000	98.442478 
2872.000000	98.458465 
2871.000000	98.473413 
2870.000000	98.488662 
2869.000000	98.506513 
2868.000000	98.529393 
2867.000000	98.558043 
2866.000000	98.590942 
2865.000000	98.625736 
2864.000000	98.660992 
2863.000000	98.696589 
2862.000000	98.732913 
2861.000000	98.770062 
2860.000000	98.807761 
2859.000000	98.845841 
2858.000000	98.884541 
2857.000000	98.923916 
2856.000000	98.962489 
2855.000000	98.996853 
2854.000000	99.023930 
2853.000000	99.043695 
2852.000000	99.058607 
2851.000000	99.070935 
2850.000000	99.081735 
2849.000000	99.091794 
2848.000000	99.101921 
2847.000000	99.112059 
2846.000000	99.121333 
2845.000000	99.129412 
2844.000000	99.136960 
2843.000000	99.144659 
2842.000000	99.152701 
2841.000000	99.161237 
2840.000000	99.170113 
2839.000000	99.178038 
2838.000000	99.183553 
2837.000000	99.187480 
2836.000000	99.192986 
2835.000000	99.202148 
2834.000000	99.213360 
2833.000000	99.223127 
2832.000000	99.229771 
2831.000000	99.234475 
2830.000000	99.239366 
2829.000000	99.245506 
2828.000000	99.252428 
2827.000000	99.258832 
2826.000000	99.263738 
2825.000000	99.267272 
2824.000000	99.270146 
2823.000000	99.272477 
2822.000000	99.273847 
2821.000000	99.274580 
2820.000000	99.275942 
2819.000000	99.278653 
2818.000000	99.282120 
2817.000000	99.285526 
2816.000000	99.288730 
2815.000000	99.291640 
2814.000000	99.293813 
2813.000000	99.295383 
2812.000000	99.297364 
2811.000000	99.300171 
2810.000000	99.302813 
2809.000000	99.304595 
2808.000000	99.306678 
2807.000000	99.310638 
2806.000000	99.315979 
2805.000000	99.320412 
2804.000000	99.322533 
2803.000000	99.323170 
2802.000000	99.324092 
2801.000000	99.326187 
2800.000000	99.328984 
2799.000000	99.331308 
2798.000000	99.332246 
2797.000000	99.331968 
2796.000000	99.331816 
2795.000000	99.333269 
2794.000000	99.336606 
2793.000000	99.340553 
2792.000000	99.343248 
2791.000000	99.343706 
2790.000000	99.342584 
2789.000000	99.341639 
2788.000000	99.342236 
2787.000000	99.344301 
2786.000000	99.346821 
2785.000000	99.349074 
2784.000000	99.351073 
2783.000000	99.353017 
2782.000000	99.354836 
2781.000000	99.356301 
2780.000000	99.357210 
2779.000000	99.357456 
2778.000000	99.357216 
2777.000000	99.357060 
2776.000000	99.357487 
2775.000000	99.358336 
2774.000000	99.359056 
2773.000000	99.359562 
2772.000000	99.360391 
2771.000000	99.361934 
2770.000000	99.363923 
2769.000000	99.365813 
2768.000000	99.367320 
2767.000000	99.368390 
2766.000000	99.368964 
2765.000000	99.369092 
2764.000000	99.369102 
2763.000000	99.369393 
2762.000000	99.370139 
2761.000000	99.371317 
2760.000000	99.372813 
2759.000000	99.374395 
2758.000000	99.375745 
2757.000000	99.376753 
2756.000000	99.377678 
2755.000000	99.378835 
2754.000000	99.380197 
2753.000000	99.381434 
2752.000000	99.382348 
2751.000000	99.383094 
2750.000000	99.383970 
2749.000000	99.385114 
2748.000000	99.386413 
2747.000000	99.387604 
2746.000000	99.388491 
2745.000000	99.389134 
2744.000000	99.389840 
2743.000000	99.390852 
2742.000000	99.392128 
2741.000000	99.393446 
2740.000000	99.394691 
2739.000000	99.395928 
2738.000000	99.397250 
2737.000000	99.398671 
2736.000000	99.400091 
2735.000000	99.401282 
2734.000000	99.402006 
2733.000000	99.402347 
2732.000000	99.402799 
2731.000000	99.403795 
2730.000000	99.405233 
2729.000000	99.406658 
2728.000000	99.407874 
2727.000000	99.409159 
2726.000000	99.410862 
2725.000000	99.412998 
2724.000000	99.415246 
2723.000000	99.417171 
2722.000000	99.418438 
2721.000000	99.419020 
2720.000000	99.419269 
2719.000000	99.419642 
2718.000000	99.420337 
2717.000000	99.421219 
2716.000000	99.421996 
2715.000000	99.422406 
2714.000000	99.422402 
2713.000000	99.422305 
2712.000000	99.422680 
2711.000000	99.423897 
2710.000000	99.425827 
2709.000000	99.427994 
2708.000000	99.429970 
2707.000000	99.431517 
2706.000000	99.432511 
2705.000000	99.432957 
2704.000000	99.433008 
2703.000000	99.432878 
2702.000000	99.432759 
2701.000000	99.432811 
2700.000000	99.433102 
2699.000000	99.433531 
2698.000000	99.433930 
2697.000000	99.434219 
2696.000000	99.434258 
2695.000000	99.433669 
2694.000000	99.432201 
2693.000000	99.430388 
2692.000000	99.429427 
2691.000000	99.430117 
2690.000000	99.432186 
2689.000000	99.434704 
2688.000000	99.436871 
2687.000000	99.438221 
2686.000000	99.438443 
2685.000000	99.437546 
2684.000000	99.435970 
2683.000000	99.434219 
2682.000000	99.432399 
2681.000000	99.430453 
2680.000000	99.428810 
2679.000000	99.428275 
2678.000000	99.429180 
2677.000000	99.430892 
2676.000000	99.432281 
2675.000000	99.432701 
2674.000000	99.432396 
2673.000000	99.431980 
2672.000000	99.431679 
2671.000000	99.431256 
2670.000000	99.430582 
2669.000000	99.429865 
2668.000000	99.429130 
2667.000000	99.427849 
2666.000000	99.425575 
2665.000000	99.422779 
2664.000000	99.420562 
2663.000000	99.419460 
2662.000000	99.418948 
2661.000000	99.418165 
2660.000000	99.416763 
2659.000000	99.414932 
2658.000000	99.412949 
2657.000000	99.411027 
2656.000000	99.409438 
2655.000000	99.408491 
2654.000000	99.408306 
2653.000000	99.408653 
2652.000000	99.409004 
2651.000000	99.408880 
2650.000000	99.408290 
2649.000000	99.407642 
2648.000000	99.407036 
2647.000000	99.405937 
2646.000000	99.404004 
2645.000000	99.402009 
2644.000000	99.401226 
2643.000000	99.401826 
2642.000000	99.402435 
2641.000000	99.401548 
2640.000000	99.399001 
2639.000000	99.395860 
2638.000000	99.393324 
2637.000000	99.391948 
2636.000000	99.391649 
2635.000000	99.391928 
2634.000000	99.392229 
2633.000000	99.392487 
2632.000000	99.393122 
2631.000000	99.394319 
2630.000000	99.395642 
2629.000000	99.396505 
2628.000000	99.396704 
2627.000000	99.396264 
2626.000000	99.395188 
2625.000000	99.393687 
2624.000000	99.392340 
2623.000000	99.391618 
2622.000000	99.391416 
2621.000000	99.391378 
2620.000000	99.391442 
2619.000000	99.391713 
2618.000000	99.392062 
2617.000000	99.392249 
2616.000000	99.392313 
2615.000000	99.392458 
2614.000000	99.392624 
2613.000000	99.392509 
2612.000000	99.391987 
2611.000000	99.391263 
2610.000000	99.390650 
2609.000000	99.390375 
2608.000000	99.390507 
2607.000000	99.390924 
2606.000000	99.391352 
2605.000000	99.391567 
2604.000000	99.391568 
2603.000000	99.391501 
2602.000000	99.391493 
2601.000000	99.391582 
2600.000000	99.391733 
2599.000000	99.391859 
2598.000000	99.391900 
2597.000000	99.391897 
2596.000000	99.391930 
2595.000000	99.392009 
2594.000000	99.392088 
2593.000000	99.392138 
2592.000000	99.392166 
2591.000000	99.392184 
2590.000000	99.392201 
2589.000000	99.392221 
2588.000000	99.392254 
2587.000000	99.392318 
2586.000000	99.392431 
2585.000000	99.392586 
2584.000000	99.392750 
2583.000000	99.392900 
2582.000000	99.393048 
2581.000000	99.393236 
2580.000000	99.393502 
2579.000000	99.393812 
2578.000000	99.394051 
2577.000000	99.394123 
2576.000000	99.394055 
2575.000000	99.394003 
2574.000000	99.394086 
2573.000000	99.394281 
2572.000000	99.394468 
2571.000000	99.394557 
2570.000000	99.394582 
2569.000000	99.394654 
2568.000000	99.394820 
2567.000000	99.394950 
2566.000000	99.394803 
2565.000000	99.394278 
2564.000000	99.393625 
2563.000000	99.393282 
2562.000000	99.393450 
2561.000000	99.393968 
2560.000000	99.394615 
2559.000000	99.395273 
2558.000000	99.395713 
2557.000000	99.395695 
2556.000000	99.395381 
2555.000000	99.395240 
2554.000000	99.395377 
2553.000000	99.395447 
2552.000000	99.395400 
2551.000000	99.395786 
2550.000000	99.396993 
2549.000000	99.398649 
2548.000000	99.400074 
2547.000000	99.401002 
2546.000000	99.401461 
2545.000000	99.401345 
2544.000000	99.400534 
2543.000000	99.399258 
2542.000000	99.397949 
2541.000000	99.396894 
2540.000000	99.396247 
2539.000000	99.396108 
2538.000000	99.396370 
2537.000000	99.396680 
2536.000000	99.396767 
2535.000000	99.396617 
2534.000000	99.396205 
2533.000000	99.395326 
2532.000000	99.393944 
2531.000000	99.392558 
2530.000000	99.391924 
2529.000000	99.392482 
2528.000000	99.394104 
2527.000000	99.396203 
2526.000000	99.398009 
2525.000000	99.399015 
2524.000000	99.399347 
2523.000000	99.399588 
2522.000000	99.400013 
2521.000000	99.400045 
2520.000000	99.398781 
2519.000000	99.396041 
2518.000000	99.392703 
2517.000000	99.390083 
2516.000000	99.388901 
2515.000000	99.388891 
2514.000000	99.389213 
2513.000000	99.389148 
2512.000000	99.388492 
2511.000000	99.387474 
2510.000000	99.386519 
2509.000000	99.386032 
2508.000000	99.386162 
2507.000000	99.386620 
2506.000000	99.386813 
2505.000000	99.386299 
2504.000000	99.385115 
2503.000000	99.383717 
2502.000000	99.382666 
2501.000000	99.382277 
2500.000000	99.382484 
2499.000000	99.382947 
2498.000000	99.383302 
2497.000000	99.383354 
2496.000000	99.383059 
2495.000000	99.382490 
2494.000000	99.381901 
2493.000000	99.381642 
2492.000000	99.381861 
2491.000000	99.382333 
2490.000000	99.382654 
2489.000000	99.382622 
2488.000000	99.382312 
2487.000000	99.381880 
2486.000000	99.381434 
2485.000000	99.381045 
2484.000000	99.380755 
2483.000000	99.380559 
2482.000000	99.380423 
2481.000000	99.380333 
2480.000000	99.380274 
2479.000000	99.380197 
2478.000000	99.380042 
2477.000000	99.379785 
2476.000000	99.379465 
2475.000000	99.379159 
2474.000000	99.378901 
2473.000000	99.378676 
2472.000000	99.378470 
2471.000000	99.378276 
2470.000000	99.378071 
2469.000000	99.377885 
2468.000000	99.377828 
2467.000000	99.377941 
2466.000000	99.378062 
2465.000000	99.377979 
2464.000000	99.377663 
2463.000000	99.377245 
2462.000000	99.376859 
2461.000000	99.376659 
2460.000000	99.376846 
2459.000000	99.377437 
2458.000000	99.378041 
2457.000000	99.378185 
2456.000000	99.377792 
2455.000000	99.377120 
2454.000000	99.376379 
2453.000000	99.375768 
2452.000000	99.375758 
2451.000000	99.376661 
2450.000000	99.377862 
2449.000000	99.378171 
2448.000000	99.377180 
2447.000000	99.375597 
2446.000000	99.374189 
2445.000000	99.372939 
2444.000000	99.371646 
2443.000000	99.370597 
2442.000000	99.370148 
2441.000000	99.370134 
2440.000000	99.370157 
2439.000000	99.370042 
2438.000000	99.369714 
2437.000000	99.369132 
2436.000000	99.368600 
2435.000000	99.368600 
2434.000000	99.369075 
2433.000000	99.369412 
2432.000000	99.369420 
2431.000000	99.369754 
2430.000000	99.371010 
2429.000000	99.372914 
2428.000000	99.374683 
2427.000000	99.375862 
2426.000000	99.376528 
2425.000000	99.376922 
2424.000000	99.377152 
2423.000000	99.377158 
2422.000000	99.376899 
2421.000000	99.376603 
2420.000000	99.376744 
2419.000000	99.377641 
2418.000000	99.379177 
2417.000000	99.380913 
2416.000000	99.382329 
2415.000000	99.382925 
2414.000000	99.382456 
2413.000000	99.381307 
2412.000000	99.380289 
2411.000000	99.379838 
2410.000000	99.379625 
2409.000000	99.379130 
2408.000000	99.378288 
2407.000000	99.377390 
2406.000000	99.376767 
2405.000000	99.376740 
2404.000000	99.377394 
2403.000000	99.378303 
2402.000000	99.378819 
2401.000000	99.378884 
2400.000000	99.379119 
2399.000000	99.379990 
2398.000000	99.381401 
2397.000000	99.383182 
2396.000000	99.385224 
2395.000000	99.386890 
2394.000000	99.387082 
2393.000000	99.385471 
2392.000000	99.383416 
2391.000000	99.382780 
2390.000000	99.383805 
2389.000000	99.385049 
2388.000000	99.385262 
2387.000000	99.384364 
2386.000000	99.382638 
2385.000000	99.380294 
2384.000000	99.378099 
2383.000000	99.377313 
2382.000000	99.378498 
2381.000000	99.380942 
2380.000000	99.383544 
2379.000000	99.385908 
2378.000000	99.388311 
2377.000000	99.390949 
2376.000000	99.393302 
2375.000000	99.394396 
2374.000000	99.393989 
2373.000000	99.393174 
2372.000000	99.393282 
2371.000000	99.394049 
2370.000000	99.393783 
2369.000000	99.391699 
2368.000000	99.388964 
2367.000000	99.387152 
2366.000000	99.386779 
2365.000000	99.387555 
2364.000000	99.388426 
2363.000000	99.386896 
2362.000000	99.381603 
2361.000000	99.375228 
2360.000000	99.370936 
2359.000000	99.369394 
2358.000000	99.369013 
2357.000000	99.369646 
2356.000000	99.372456 
2355.000000	99.376352 
2354.000000	99.381048 
2353.000000	99.385905 
2352.000000	99.390167 
2351.000000	99.392131 
2350.000000	99.388479 
2349.000000	99.379096 
2348.000000	99.366893 
2347.000000	99.358578 
2346.000000	99.356124 
2345.000000	99.354317 
2344.000000	99.349443 
2343.000000	99.342220 
2342.000000	99.337947 
2341.000000	99.337484 
2340.000000	99.338792 
2339.000000	99.340078 
2338.000000	99.341659 
2337.000000	99.343078 
2336.000000	99.341480 
2335.000000	99.334896 
2334.000000	99.326660 
2333.000000	99.321162 
2332.000000	99.319062 
2331.000000	99.318381 
2330.000000	99.316363 
2329.000000	99.313476 
2328.000000	99.306888 
2327.000000	99.295903 
2326.000000	99.281485 
2325.000000	99.267263 
2324.000000	99.258004 
2323.000000	99.254941 
2322.000000	99.257555 
2321.000000	99.261148 
2320.000000	99.263010 
2319.000000	99.263516 
2318.000000	99.265107 
2317.000000	99.269169 
2316.000000	99.274730 
2315.000000	99.280589 
2314.000000	99.284557 
2313.000000	99.285516 
2312.000000	99.283361 
2311.000000	99.280641 
2310.000000	99.278913 
2309.000000	99.277843 
2308.000000	99.276273 
2307.000000	99.275297 
2306.000000	99.276766 
2305.000000	99.280269 
2304.000000	99.283225 
2303.000000	99.283790 
2302.000000	99.282277 
2301.000000	99.279881 
2300.000000	99.277287 
2299.000000	99.275525 
2298.000000	99.275590 
2297.000000	99.277966 
2296.000000	99.281138 
2295.000000	99.283027 
2294.000000	99.282262 
2293.000000	99.279390 
2292.000000	99.275993 
2291.000000	99.273401 
2290.000000	99.271683 
2289.000000	99.270016 
2288.000000	99.267957 
2287.000000	99.266071 
2286.000000	99.265515 
2285.000000	99.266773 
2284.000000	99.269086 
2283.000000	99.270878 
2282.000000	99.271212 
2281.000000	99.270519 
2280.000000	99.269792 
2279.000000	99.269479 
2278.000000	99.269432 
2277.000000	99.269418 
2276.000000	99.269334 
2275.000000	99.269176 
2274.000000	99.268969 
2273.000000	99.268737 
2272.000000	99.268493 
2271.000000	99.268242 
2270.000000	99.267983 
2269.000000	99.267718 
2268.000000	99.267452 
2267.000000	99.267190 
2266.000000	99.266932 
2265.000000	99.266668 
2264.000000	99.266388 
2263.000000	99.266087 
2262.000000	99.265775 
2261.000000	99.265462 
2260.000000	99.265157 
2259.000000	99.264863 
2258.000000	99.264581 
2257.000000	99.264307 
2256.000000	99.264037 
2255.000000	99.263760 
2254.000000	99.263465 
2253.000000	99.263153 
2252.000000	99.262836 
2251.000000	99.262528 
2250.000000	99.262238 
2249.000000	99.261960 
2248.000000	99.261681 
2247.000000	99.261391 
2246.000000	99.261086 
2245.000000	99.260762 
2244.000000	99.260420 
2243.000000	99.260060 
2242.000000	99.259690 
2241.000000	99.259328 
2240.000000	99.258991 
2239.000000	99.258681 
2238.000000	99.258379 
2237.000000	99.258054 
2236.000000	99.257686 
2235.000000	99.257267 
2234.000000	99.256806 
2233.000000	99.256316 
2232.000000	99.255806 
2231.000000	99.255280 
2230.000000	99.254744 
2229.000000	99.254202 
2228.000000	99.253662 
2227.000000	99.253128 
2226.000000	99.252589 
2225.000000	99.252035 
2224.000000	99.251460 
2223.000000	99.250875 
2222.000000	99.250293 
2221.000000	99.249724 
2220.000000	99.249162 
2219.000000	99.248596 
2218.000000	99.248016 
2217.000000	99.247427 
2216.000000	99.246847 
2215.000000	99.246294 
2214.000000	99.245779 
2213.000000	99.245297 
2212.000000	99.244837 
2211.000000	99.244383 
2210.000000	99.243922 
2209.000000	99.243447 
2208.000000	99.242955 
2207.000000	99.242451 
2206.000000	99.241942 
2205.000000	99.241429 
2204.000000	99.240907 
2203.000000	99.240386 
2202.000000	99.239888 
2201.000000	99.239424 
2200.000000	99.239097 
2199.000000	99.239069 
2198.000000	99.239252 
2197.000000	99.239139 
2196.000000	99.238195 
2195.000000	99.236625 
2194.000000	99.235375 
2193.000000	99.235004 
2192.000000	99.235244 
2191.000000	99.235711 
2190.000000	99.236350 
2189.000000	99.237068 
2188.000000	99.237704 
2187.000000	99.238333 
2186.000000	99.238967 
2185.000000	99.239211 
2184.000000	99.238915 
2183.000000	99.238852 
2182.000000	99.239802 
2181.000000	99.241117 
2180.000000	99.241291 
2179.000000	99.240118 
2178.000000	99.239333 
2177.000000	99.240783 
2176.000000	99.244575 
2175.000000	99.249164 
2174.000000	99.252709 
2173.000000	99.253978 
2172.000000	99.252377 
2171.000000	99.248112 
2170.000000	99.242935 
2169.000000	99.240043 
2168.000000	99.241895 
2167.000000	99.247637 
2166.000000	99.253204 
2165.000000	99.254894 
2164.000000	99.252576 
2163.000000	99.249022 
2162.000000	99.247368 
2161.000000	99.250138 
2160.000000	99.259137 
2159.000000	99.273870 
2158.000000	99.290185 
2157.000000	99.303016 
2156.000000	99.310588 
2155.000000	99.314027 
2154.000000	99.314259 
2153.000000	99.311363 
2152.000000	99.305838 
2151.000000	99.298774 
2150.000000	99.291549 
2149.000000	99.286465 
2148.000000	99.286415 
2147.000000	99.292109 
2146.000000	99.300380 
2145.000000	99.307231 
2144.000000	99.312098 
2143.000000	99.316774 
2142.000000	99.320910 
2141.000000	99.321737 
2140.000000	99.318519 
2139.000000	99.314408 
2138.000000	99.312846 
2137.000000	99.314044 
2136.000000	99.316029 
2135.000000	99.317375 
2134.000000	99.317711 
2133.000000	99.317021 
2132.000000	99.315740 
2131.000000	99.314785 
2130.000000	99.314527 
2129.000000	99.314126 
2128.000000	99.312451 
2127.000000	99.309423 
2126.000000	99.306284 
2125.000000	99.304766 
2124.000000	99.305735 
2123.000000	99.308229 
2122.000000	99.309914 
2121.000000	99.309094 
2120.000000	99.306009 
2119.000000	99.301748 
2118.000000	99.296655 
2117.000000	99.290731 
2116.000000	99.285212 
2115.000000	99.282311 
2114.000000	99.282993 
2113.000000	99.285726 
2112.000000	99.287745 
2111.000000	99.287352 
2110.000000	99.284907 
2109.000000	99.282265 
2108.000000	99.281347 
2107.000000	99.282597 
2106.000000	99.284600 
2105.000000	99.285408 
2104.000000	99.284443 
2103.000000	99.282691 
2102.000000	99.281330 
2101.000000	99.280726 
2100.000000	99.280629 
2099.000000	99.280653 
2098.000000	99.280360 
2097.000000	99.279462 
2096.000000	99.278316 
2095.000000	99.277836 
2094.000000	99.278512 
2093.000000	99.279682 
2092.000000	99.280070 
2091.000000	99.279021 
2090.000000	99.276992 
2089.000000	99.275009 
2088.000000	99.273627 
2087.000000	99.272534 
2086.000000	99.271188 
2085.000000	99.269641 
2084.000000	99.268584 
2083.000000	99.268535 
2082.000000	99.269201 
2081.000000	99.269679 
2080.000000	99.269251 
2079.000000	99.267810 
2078.000000	99.265607 
2077.000000	99.263050 
2076.000000	99.260568 
2075.000000	99.258437 
2074.000000	99.256785 
2073.000000	99.255785 
2072.000000	99.255699 
2071.000000	99.256395 
2070.000000	99.257018 
2069.000000	99.256669 
2068.000000	99.255346 
2067.000000	99.253819 
2066.000000	99.252531 
2065.000000	99.251145 
2064.000000	99.249382 
2063.000000	99.247560 
2062.000000	99.246016 
2061.000000	99.244536 
2060.000000	99.242672 
2059.000000	99.240294 
2058.000000	99.237653 
2057.000000	99.235212 
2056.000000	99.233531 
2055.000000	99.232942 
2054.000000	99.233074 
2053.000000	99.232891 
2052.000000	99.231571 
2051.000000	99.229175 
2050.000000	99.226421 
2049.000000	99.224070 
2048.000000	99.222647 
2047.000000	99.222378 
2046.000000	99.222915 
2045.000000	99.223257 
2044.000000	99.222472 
2043.000000	99.220507 
2042.000000	99.218064 
2041.000000	99.215870 
2040.000000	99.214130 
2039.000000	99.212335 
2038.000000	99.209532 
2037.000000	99.205438 
2036.000000	99.201609 
2035.000000	99.200426 
2034.000000	99.202430 
2033.000000	99.205339 
2032.000000	99.206431 
2031.000000	99.205563 
2030.000000	99.204484 
2029.000000	99.204094 
2028.000000	99.203565 
2027.000000	99.202142 
2026.000000	99.200751 
2025.000000	99.201280 
2024.000000	99.204730 
2023.000000	99.210168 
2022.000000	99.215035 
2021.000000	99.216926 
2020.000000	99.215360 
2019.000000	99.211917 
2018.000000	99.208687 
2017.000000	99.206542 
2016.000000	99.205002 
2015.000000	99.203090 
2014.000000	99.200032 
2013.000000	99.195759 
2012.000000	99.191302 
2011.000000	99.188361 
2010.000000	99.188204 
2009.000000	99.191050 
2008.000000	99.196190 
2007.000000	99.202041 
2006.000000	99.206213 
2005.000000	99.206807 
2004.000000	99.204150 
2003.000000	99.200740 
2002.000000	99.199042 
2001.000000	99.199667 
2000.000000	99.201845 
1999.000000	99.204680 
1998.000000	99.207461 
1997.000000	99.209454 
1996.000000	99.210207 
1995.000000	99.209831 
1994.000000	99.208660 
1993.000000	99.206946 
1992.000000	99.205014 
1991.000000	99.203161 
1990.000000	99.201132 
1989.000000	99.198568 
1988.000000	99.196169 
1987.000000	99.195372 
1986.000000	99.196528 
1985.000000	99.198205 
1984.000000	99.198837 
1983.000000	99.198348 
1982.000000	99.197629 
1981.000000	99.197269 
1980.000000	99.197381 
1979.000000	99.197745 
1978.000000	99.197528 
1977.000000	99.196091 
1976.000000	99.194806 
1975.000000	99.196410 
1974.000000	99.201613 
1973.000000	99.207543 
1972.000000	99.210567 
1971.000000	99.209899 
1970.000000	99.207487 
1969.000000	99.205613 
1968.000000	99.205272 
1967.000000	99.206120 
1966.000000	99.207053 
1965.000000	99.207460 
1964.000000	99.208501 
1963.000000	99.212199 
1962.000000	99.218521 
1961.000000	99.224484 
1960.000000	99.227525 
1959.000000	99.228266 
1958.000000	99.228955 
1957.000000	99.230206 
1956.000000	99.230731 
1955.000000	99.229666 
1954.000000	99.227664 
1953.000000	99.226115 
1952.000000	99.226135 
1951.000000	99.227949 
1950.000000	99.230357 
1949.000000	99.231127 
1948.000000	99.228983 
1947.000000	99.225010 
1946.000000	99.221552 
1945.000000	99.219753 
1944.000000	99.218868 
1943.000000	99.217814 
1942.000000	99.216629 
1941.000000	99.216206 
1940.000000	99.217091 
1939.000000	99.219042 
1938.000000	99.221358 
1937.000000	99.223230 
1936.000000	99.224020 
1935.000000	99.223517 
1934.000000	99.222094 
1933.000000	99.220652 
1932.000000	99.220100 
1931.000000	99.220688 
1930.000000	99.221760 
1929.000000	99.222256 
1928.000000	99.221686 
1927.000000	99.220459 
1926.000000	99.219283 
1925.000000	99.218338 
1924.000000	99.217075 
1923.000000	99.214876 
1922.000000	99.211865 
1921.000000	99.209073 
1920.000000	99.207654 
1919.000000	99.207957 
1918.000000	99.209371 
1917.000000	99.210784 
1916.000000	99.211473 
1915.000000	99.211299 
1914.000000	99.210302 
1913.000000	99.208698 
1912.000000	99.207051 
1911.000000	99.205994 
1910.000000	99.205655 
1909.000000	99.205589 
1908.000000	99.205373 
1907.000000	99.205060 
1906.000000	99.204882 
1905.000000	99.204762 
1904.000000	99.204412 
1903.000000	99.203775 
1902.000000	99.203043 
1901.000000	99.202345 
1900.000000	99.201704 
1899.000000	99.201241 
1898.000000	99.201173 
1897.000000	99.201574 
1896.000000	99.202221 
1895.000000	99.202762 
1894.000000	99.202940 
1893.000000	99.202758 
1892.000000	99.202509 
1891.000000	99.202477 
1890.000000	99.202481 
1889.000000	99.201986 
1888.000000	99.200885 
1887.000000	99.199792 
1886.000000	99.199412 
1885.000000	99.200013 
1884.000000	99.201511 
1883.000000	99.203723 
1882.000000	99.206258 
1881.000000	99.208513 
1880.000000	99.210215 
1879.000000	99.211639 
1878.000000	99.213043 
1877.000000	99.214092 
1876.000000	99.214171 
1875.000000	99.213189 
1874.000000	99.211760 
1873.000000	99.210721 
1872.000000	99.210545 
1871.000000	99.211109 
1870.000000	99.211941 
1869.000000	99.212757 
1868.000000	99.213877 
1867.000000	99.215572 
1866.000000	99.217172 
1865.000000	99.217589 
1864.000000	99.216317 
1863.000000	99.213518 
1862.000000	99.209882 
1861.000000	99.206850 
1860.000000	99.206253 
1859.000000	99.208870 
1858.000000	99.213485 
1857.000000	99.217866 
1856.000000	99.221020 
1855.000000	99.223421 
1854.000000	99.225208 
1853.000000	99.225739 
1852.000000	99.225270 
1851.000000	99.225275 
1850.000000	99.226509 
1849.000000	99.227986 
1848.000000	99.228471 
1847.000000	99.228107 
1846.000000	99.227905 
1845.000000	99.228327 
1844.000000	99.229041 
1843.000000	99.229854 
1842.000000	99.230561 
1841.000000	99.230600 
1840.000000	99.229831 
1839.000000	99.228591 
1838.000000	99.227163 
1837.000000	99.225813 
1836.000000	99.225338 
1835.000000	99.226623 
1834.000000	99.229047 
1833.000000	99.230755 
1832.000000	99.231115 
1831.000000	99.231306 
1830.000000	99.232052 
1829.000000	99.232488 
1828.000000	99.231714 
1827.000000	99.229868 
1826.000000	99.227468 
1825.000000	99.224563 
1824.000000	99.221347 
1823.000000	99.219037 
1822.000000	99.218613 
1821.000000	99.219965 
1820.000000	99.223054 
1819.000000	99.228360 
1818.000000	99.235122 
1817.000000	99.239833 
1816.000000	99.239730 
1815.000000	99.236959 
1814.000000	99.235729 
1813.000000	99.237055 
1812.000000	99.238413 
1811.000000	99.238004 
1810.000000	99.236744 
1809.000000	99.235535 
1808.000000	99.234649 
1807.000000	99.235268 
1806.000000	99.238022 
1805.000000	99.240913 
1804.000000	99.241796 
1803.000000	99.242139 
1802.000000	99.244927 
1801.000000	99.249908 
1800.000000	99.253753 
1799.000000	99.255444 
1798.000000	99.257300 
1797.000000	99.260277 
1796.000000	99.263305 
1795.000000	99.266615 
1794.000000	99.272125 
1793.000000	99.279512 
1792.000000	99.284980 
1791.000000	99.287033 
1790.000000	99.288039 
1789.000000	99.289814 
1788.000000	99.292956 
1787.000000	99.297941 
1786.000000	99.304754 
1785.000000	99.312096 
1784.000000	99.319096 
1783.000000	99.327402 
1782.000000	99.338583 
1781.000000	99.351654 
1780.000000	99.363670 
1779.000000	99.373118 
1778.000000	99.381550 
1777.000000	99.390818 
1776.000000	99.401385 
1775.000000	99.412566 
1774.000000	99.423404 
1773.000000	99.432345 
1772.000000	99.438072 
1771.000000	99.443322 
1770.000000	99.453067 
1769.000000	99.469853 
1768.000000	99.493049 
1767.000000	99.518475 
1766.000000	99.541435 
1765.000000	99.561044 
1764.000000	99.579233 
1763.000000	99.597806 
1762.000000	99.616756 
1761.000000	99.635764 
1760.000000	99.655243 
1759.000000	99.675626 
1758.000000	99.696312 
1757.000000	99.715004 
1756.000000	99.729870 
1755.000000	99.742044 
1754.000000	99.754311 
1753.000000	99.767636 
1752.000000	99.779479 
1751.000000	99.785336 
1750.000000	99.784304 
1749.000000	99.779395 
1748.000000	99.773095 
1747.000000	99.766720 
1746.000000	99.761510 
1745.000000	99.757979 
1744.000000	99.753066 
1743.000000	99.741174 
1742.000000	99.719469 
1741.000000	99.690127 
1740.000000	99.658029 
1739.000000	99.628568 
1738.000000	99.604080 
1737.000000	99.581855 
1736.000000	99.558589 
1735.000000	99.533548 
1734.000000	99.506381 
1733.000000	99.480634 
1732.000000	99.460330 
1731.000000	99.444194 
1730.000000	99.430668 
1729.000000	99.418547 
1728.000000	99.407081 
1727.000000	99.397923 
1726.000000	99.393493 
1725.000000	99.393746 
1724.000000	99.394273 
1723.000000	99.390574 
1722.000000	99.382478 
1721.000000	99.372811 
1720.000000	99.364824 
1719.000000	99.361069 
1718.000000	99.360395 
1717.000000	99.357074 
1716.000000	99.349157 
1715.000000	99.342052 
1714.000000	99.340081 
1713.000000	99.341162 
1712.000000	99.341470 
1711.000000	99.341730 
1710.000000	99.344767 
1709.000000	99.349147 
1708.000000	99.350458 
1707.000000	99.348076 
1706.000000	99.346304 
1705.000000	99.346584 
1704.000000	99.345544 
1703.000000	99.341162 
1702.000000	99.337035 
1701.000000	99.336845 
1700.000000	99.335825 
1699.000000	99.333284 
1698.000000	99.333213 
1697.000000	99.333706 
1696.000000	99.331576 
1695.000000	99.326782 
1694.000000	99.322669 
1693.000000	99.320910 
1692.000000	99.321582 
1691.000000	99.325479 
1690.000000	99.331162 
1689.000000	99.335313 
1688.000000	99.336885 
1687.000000	99.337592 
1686.000000	99.340691 
1685.000000	99.346103 
1684.000000	99.348362 
1683.000000	99.348717 
1682.000000	99.350243 
1681.000000	99.350883 
1680.000000	99.350624 
1679.000000	99.350036 
1678.000000	99.348897 
1677.000000	99.348077 
1676.000000	99.348716 
1675.000000	99.350116 
1674.000000	99.351035 
1673.000000	99.351824 
1672.000000	99.352904 
1671.000000	99.354311 
1670.000000	99.355351 
1669.000000	99.356189 
1668.000000	99.358442 
1667.000000	99.361733 
1666.000000	99.364188 
1665.000000	99.365337 
1664.000000	99.366291 
1663.000000	99.368021 
1662.000000	99.369857 
1661.000000	99.370840 
1660.000000	99.371301 
1659.000000	99.372153 
1658.000000	99.373584 
1657.000000	99.375103 
1656.000000	99.376612 
1655.000000	99.378656 
1654.000000	99.381667 
1653.000000	99.383544 
1652.000000	99.384521 
1651.000000	99.386125 
1650.000000	99.387122 
1649.000000	99.387442 
1648.000000	99.388093 
1647.000000	99.389157 
1646.000000	99.390422 
1645.000000	99.392143 
1644.000000	99.394437 
1643.000000	99.397216 
1642.000000	99.400316 
1641.000000	99.403291 
1640.000000	99.405640 
1639.000000	99.407202 
1638.000000	99.408373 
1637.000000	99.410000 
1636.000000	99.412249 
1635.000000	99.414212 
1634.000000	99.415519 
1633.000000	99.416396 
1632.000000	99.417476 
1631.000000	99.419770 
1630.000000	99.423266 
1629.000000	99.426855 
1628.000000	99.429803 
1627.000000	99.432428 
1626.000000	99.434992 
1625.000000	99.437384 
1624.000000	99.439751 
1623.000000	99.442238 
1622.000000	99.444546 
1621.000000	99.446453 
1620.000000	99.448417 
1619.000000	99.451134 
1618.000000	99.454591 
1617.000000	99.457485 
1616.000000	99.460037 
1615.000000	99.463901 
1614.000000	99.468326 
1613.000000	99.471749 
1612.000000	99.474491 
1611.000000	99.477365 
1610.000000	99.479973 
1609.000000	99.481941 
1608.000000	99.484266 
1607.000000	99.487472 
1606.000000	99.490057 
1605.000000	99.491115 
1604.000000	99.492293 
1603.000000	99.495251 
1602.000000	99.499246 
1601.000000	99.502686 
1600.000000	99.505595 
1599.000000	99.508601 
1598.000000	99.511212 
1597.000000	99.512894 
1596.000000	99.514386 
1595.000000	99.516465 
1594.000000	99.518432 
1593.000000	99.519589 
1592.000000	99.521082 
1591.000000	99.524350 
1590.000000	99.528531 
1589.000000	99.531457 
1588.000000	99.532745 
1587.000000	99.533866 
1586.000000	99.535448 
1585.000000	99.536556 
1584.000000	99.537084 
1583.000000	99.537929 
1582.000000	99.539167 
1581.000000	99.540260 
1580.000000	99.541382 
1579.000000	99.542721 
1578.000000	99.543753 
1577.000000	99.543880 
1576.000000	99.543296 
1575.000000	99.543708 
1574.000000	99.544968 
1573.000000	99.545499 
1572.000000	99.546023 
1571.000000	99.547900 
1570.000000	99.549249 
1569.000000	99.548567 
1568.000000	99.549029 
1567.000000	99.552307 
1566.000000	99.556241 
1565.000000	99.558608 
1564.000000	99.559161 
1563.000000	99.557621 
1562.000000	99.554349 
1561.000000	99.551203 
1560.000000	99.553507 
1559.000000	99.553350 
1558.000000	99.544897 
1557.000000	99.538705 
1556.000000	99.538043 
1555.000000	99.541267 
1554.000000	99.545655 
1553.000000	99.547381 
1552.000000	99.546787 
1551.000000	99.546103 
1550.000000	99.546115 
1549.000000	99.545464 
1548.000000	99.544464 
1547.000000	99.545262 
1546.000000	99.547637 
1545.000000	99.548149 
1544.000000	99.544442 
1543.000000	99.538438 
1542.000000	99.533083 
1541.000000	99.526599 
1540.000000	99.514613 
1539.000000	99.502411 
1538.000000	99.496186 
1537.000000	99.491723 
1536.000000	99.485591 
1535.000000	99.479807 
1534.000000	99.474804 
1533.000000	99.467941 
1532.000000	99.458915 
1531.000000	99.450107 
1530.000000	99.442765 
1529.000000	99.436272 
1528.000000	99.429844 
1527.000000	99.423957 
1526.000000	99.418221 
1525.000000	99.410555 
1524.000000	99.400605 
1523.000000	99.391463 
1522.000000	99.385506 
1521.000000	99.380121 
1520.000000	99.372096 
1519.000000	99.362284 
1518.000000	99.353450 
1517.000000	99.346436 
1516.000000	99.338928 
1515.000000	99.329002 
1514.000000	99.317283 
1513.000000	99.305016 
1512.000000	99.292183 
1511.000000	99.278446 
1510.000000	99.265375 
1509.000000	99.255240 
1508.000000	99.249742 
1507.000000	99.245443 
1506.000000	99.237176 
1505.000000	99.225878 
1504.000000	99.214152 
1503.000000	99.202790 
1502.000000	99.192592 
1501.000000	99.182798 
1500.000000	99.171535 
1499.000000	99.158846 
1498.000000	99.147390 
1497.000000	99.138640 
1496.000000	99.130397 
1495.000000	99.121084 
1494.000000	99.111502 
1493.000000	99.102664 
1492.000000	99.095533 
1491.000000	99.091099 
1490.000000	99.088327 
1489.000000	99.083184 
1488.000000	99.072645 
1487.000000	99.058911 
1486.000000	99.045726 
1485.000000	99.033296 
1484.000000	99.020670 
1483.000000	99.008204 
1482.000000	98.996605 
1481.000000	98.985233 
1480.000000	98.973182 
1479.000000	98.961390 
1478.000000	98.951400 
1477.000000	98.942781 
1476.000000	98.934230 
1475.000000	98.927412 
1474.000000	98.925614 
1473.000000	98.928579 
1472.000000	98.931619 
1471.000000	98.931739 
1470.000000	98.929596 
1469.000000	98.925725 
1468.000000	98.919943 
1467.000000	98.913132 
1466.000000	98.907416 
1465.000000	98.904034 
1464.000000	98.902602 
1463.000000	98.901921 
1462.000000	98.900601 
1461.000000	98.897062 
1460.000000	98.890738 
1459.000000	98.882995 
1458.000000	98.875730 
1457.000000	98.865948 
1456.000000	98.848911 
1455.000000	98.826665 
1454.000000	98.805737 
1453.000000	98.791307 
1452.000000	98.783620 
1451.000000	98.779468 
1450.000000	98.778899 
1449.000000	98.785637 
1448.000000	98.798644 
1447.000000	98.809911 
1446.000000	98.813556 
1445.000000	98.812129 
1444.000000	98.810775 
1443.000000	98.810271 
1442.000000	98.808483 
1441.000000	98.804722 
1440.000000	98.800772 
1439.000000	98.799353 
1438.000000	98.804259 
1437.000000	98.816501 
1436.000000	98.828881 
1435.000000	98.833440 
1434.000000	98.831461 
1433.000000	98.829074 
1432.000000	98.829859 
1431.000000	98.832448 
1430.000000	98.833823 
1429.000000	98.833118 
1428.000000	98.830137 
1427.000000	98.824449 
1426.000000	98.816605 
1425.000000	98.808828 
1424.000000	98.801714 
1423.000000	98.791725 
1422.000000	98.775798 
1421.000000	98.755580 
1420.000000	98.735366 
1419.000000	98.716222 
1418.000000	98.695293 
1417.000000	98.670485 
1416.000000	98.642589 
1415.000000	98.613859 
1414.000000	98.585788 
1413.000000	98.559229 
1412.000000	98.535576 
1411.000000	98.515856 
1410.000000	98.499699 
1409.000000	98.486755 
1408.000000	98.478585 
1407.000000	98.478273 
1406.000000	98.487778 
1405.000000	98.507334 
1404.000000	98.535558 
1403.000000	98.568443 
1402.000000	98.601605 
1401.000000	98.633880 
1400.000000	98.665802 
1399.000000	98.692639 
1398.000000	98.701987 
1397.000000	98.682727 
1396.000000	98.638005 
1395.000000	98.593540 
1394.000000	98.584184 
1393.000000	98.622423 
1392.000000	98.689768 
1391.000000	98.756950 
1390.000000	98.805632 
1389.000000	98.833771 
1388.000000	98.848004 
1387.000000	98.854404 
1386.000000	98.856143 
1385.000000	98.856780 
1384.000000	98.860802 
1383.000000	98.870289 
1382.000000	98.883938 
1381.000000	98.899957 
1380.000000	98.918445 
1379.000000	98.939783 
1378.000000	98.962676 
1377.000000	98.985898 
1376.000000	99.010684 
1375.000000	99.039186 
1374.000000	99.070859 
1373.000000	99.102666 
1372.000000	99.132745 
1371.000000	99.161744 
1370.000000	99.190556 
1369.000000	99.218738 
1368.000000	99.245323 
1367.000000	99.270137 
1366.000000	99.294166 
1365.000000	99.318761 
1364.000000	99.344100 
1363.000000	99.368116 
1362.000000	99.387805 
1361.000000	99.402318 
1360.000000	99.413812 
1359.000000	99.425272 
1358.000000	99.438608 
1357.000000	99.454496 
1356.000000	99.472648 
1355.000000	99.491717 
1354.000000	99.509837 
1353.000000	99.525973 
1352.000000	99.539779 
1351.000000	99.550694 
1350.000000	99.559143 
1349.000000	99.567508 
1348.000000	99.577514 
1347.000000	99.588515 
1346.000000	99.598566 
1345.000000	99.606288 
1344.000000	99.611829 
1343.000000	99.616503 
1342.000000	99.621731 
1341.000000	99.627924 
1340.000000	99.634017 
1339.000000	99.638661 
1338.000000	99.642382 
1337.000000	99.647345 
1336.000000	99.654164 
1335.000000	99.660449 
1334.000000	99.663666 
1333.000000	99.664359 
1332.000000	99.665314 
1331.000000	99.668384 
1330.000000	99.673490 
1329.000000	99.680044 
1328.000000	99.687376 
1327.000000	99.693938 
1326.000000	99.698114 
1325.000000	99.700457 
1324.000000	99.703613 
1323.000000	99.709102 
1322.000000	99.715456 
1321.000000	99.720312 
1320.000000	99.723194 
1319.000000	99.725301 
1318.000000	99.727445 
1317.000000	99.729574 
1316.000000	99.732098 
1315.000000	99.736278 
1314.000000	99.742597 
1313.000000	99.749296 
1312.000000	99.753486 
1311.000000	99.754114 
1310.000000	99.753439 
1309.000000	99.755014 
1308.000000	99.760109 
1307.000000	99.766475 
1306.000000	99.770617 
1305.000000	99.770889 
1304.000000	99.768370 
1303.000000	99.765516 
1302.000000	99.764536 
1301.000000	99.766175 
1300.000000	99.769188 
1299.000000	99.771297 
1298.000000	99.771352 
1297.000000	99.770259 
1296.000000	99.769498 
1295.000000	99.769578 
1294.000000	99.770465 
1293.000000	99.772318 
1292.000000	99.774553 
1291.000000	99.775154 
1290.000000	99.772599 
1289.000000	99.768031 
1288.000000	99.763920 
1287.000000	99.760972 
1286.000000	99.758218 
1285.000000	99.755705 
1284.000000	99.754804 
1283.000000	99.755805 
1282.000000	99.756735 
1281.000000	99.755443 
1280.000000	99.752010 
1279.000000	99.747707 
1278.000000	99.742631 
1277.000000	99.736145 
1276.000000	99.728451 
1275.000000	99.720037 
1274.000000	99.710203 
1273.000000	99.697712 
1272.000000	99.682823 
1271.000000	99.667392 
1270.000000	99.652828 
1269.000000	99.638907 
1268.000000	99.624567 
1267.000000	99.608769 
1266.000000	99.590616 
1265.000000	99.569963 
1264.000000	99.548232 
1263.000000	99.527619 
1262.000000	99.509252 
1261.000000	99.493063 
1260.000000	99.479375 
1259.000000	99.468818 
1258.000000	99.460258 
1257.000000	99.450840 
1256.000000	99.439207 
1255.000000	99.427037 
1254.000000	99.416060 
1253.000000	99.405316 
1252.000000	99.393629 
1251.000000	99.383703 
1250.000000	99.380983 
1249.000000	99.388443 
1248.000000	99.404431 
1247.000000	99.424576 
1246.000000	99.442573 
1245.000000	99.449607 
1244.000000	99.438891 
1243.000000	99.415322 
1242.000000	99.397657 
1241.000000	99.403973 
1240.000000	99.433812 
1239.000000	99.467352 
1238.000000	99.484061 
1237.000000	99.479571 
1236.000000	99.462965 
1235.000000	99.443357 
1234.000000	99.423372 
1233.000000	99.403395 
1232.000000	99.385821 
1231.000000	99.373106 
1230.000000	99.365040 
1229.000000	99.360178 
1228.000000	99.358061 
1227.000000	99.358370 
1226.000000	99.359437 
1225.000000	99.359328 
1224.000000	99.357546 
1223.000000	99.354557 
1222.000000	99.350543 
1221.000000	99.345546 
1220.000000	99.339735 
1219.000000	99.332422 
1218.000000	99.321957 
1217.000000	99.307949 
1216.000000	99.292589 
1215.000000	99.278086 
1214.000000	99.263262 
1213.000000	99.244505 
1212.000000	99.219993 
1211.000000	99.191345 
1210.000000	99.161010 
1209.000000	99.129807 
1208.000000	99.097774 
1207.000000	99.065692 
1206.000000	99.034085 
1205.000000	99.001455 
1204.000000	98.965429 
1203.000000	98.926250 
1202.000000	98.888109 
1201.000000	98.855785 
1200.000000	98.829616 
1199.000000	98.804420 
1198.000000	98.774235 
1197.000000	98.737983 
1196.000000	98.699361 
1195.000000	98.662064 
1194.000000	98.626817 
1193.000000	98.592578 
1192.000000	98.558519 
1191.000000	98.523852 
1190.000000	98.487537 
1189.000000	98.449832 
1188.000000	98.412709 
1187.000000	98.376838 
1186.000000	98.339392 
1185.000000	98.297194 
1184.000000	98.251300 
1183.000000	98.206036 
1182.000000	98.163662 
1181.000000	98.122196 
1180.000000	98.078541 
1179.000000	98.031583 
1178.000000	97.981945 
1177.000000	97.930678 
1176.000000	97.878665 
1175.000000	97.825567 
1174.000000	97.769105 
1173.000000	97.707241 
1172.000000	97.641616 
1171.000000	97.577150 
1170.000000	97.517638 
1169.000000	97.462977 
1168.000000	97.410736 
1167.000000	97.358912 
1166.000000	97.307643 
1165.000000	97.260803 
1164.000000	97.226184 
1163.000000	97.211342 
1162.000000	97.217585 
1161.000000	97.238456 
1160.000000	97.263632 
1159.000000	97.283033 
1158.000000	97.288658 
1157.000000	97.276121 
1156.000000	97.245639 
1155.000000	97.200278 
1154.000000	97.143283 
1153.000000	97.078419 
1152.000000	97.011721 
1151.000000	96.949346 
1150.000000	96.892789 
1149.000000	96.838839 
1148.000000	96.784701 
1147.000000	96.730368 
1146.000000	96.675727 
1145.000000	96.619086 
1144.000000	96.560356 
1143.000000	96.503044 
1142.000000	96.451137 
1141.000000	96.405470 
1140.000000	96.363935 
1139.000000	96.323194 
1138.000000	96.279561 
1137.000000	96.230542 
1136.000000	96.176540 
1135.000000	96.119706 
1134.000000	96.061159 
1133.000000	96.001120 
1132.000000	95.941198 
1131.000000	95.883525 
1130.000000	95.827461 
1129.000000	95.770000 
1128.000000	95.709390 
1127.000000	95.645553 
1126.000000	95.577749 
1125.000000	95.505777 
1124.000000	95.433154 
1123.000000	95.364527 
1122.000000	95.299359 
1121.000000	95.232451 
1120.000000	95.161238 
1119.000000	95.088036 
1118.000000	95.014483 
1117.000000	94.938924 
1116.000000	94.860818 
1115.000000	94.783047 
1114.000000	94.707835 
1113.000000	94.634199 
1112.000000	94.560917 
1111.000000	94.488115 
1110.000000	94.415121 
1109.000000	94.341338 
1108.000000	94.269276 
1107.000000	94.202353 
1106.000000	94.140117 
1105.000000	94.079033 
1104.000000	94.017510 
1103.000000	93.956926 
1102.000000	93.897796 
1101.000000	93.838767 
1100.000000	93.779538 
1099.000000	93.721472 
1098.000000	93.664907 
1097.000000	93.608530 
1096.000000	93.551675 
1095.000000	93.494141 
1094.000000	93.432841 
1093.000000	93.361899 
1092.000000	93.278335 
1091.000000	93.186269 
1090.000000	93.094134 
1089.000000	93.008327 
1088.000000	92.930020 
1087.000000	92.855827 
1086.000000	92.780197 
1085.000000	92.699314 
1084.000000	92.614031 
1083.000000	92.527839 
1082.000000	92.442371 
1081.000000	92.357660 
1080.000000	92.276170 
1079.000000	92.202182 
1078.000000	92.137039 
1077.000000	92.079535 
1076.000000	92.030858 
1075.000000	91.993552 
1074.000000	91.965533 
1073.000000	91.941032 
1072.000000	91.915908 
1071.000000	91.882797 
1070.000000	91.821962 
1069.000000	91.712151 
1068.000000	91.559107 
1067.000000	91.405553 
1066.000000	91.299965 
1065.000000	91.256792 
1064.000000	91.252197 
1063.000000	91.248740 
1062.000000	91.217031 
1061.000000	91.141455 
1060.000000	91.023257 
1059.000000	90.885207 
1058.000000	90.762419 
1057.000000	90.677974 
1056.000000	90.627801 
1055.000000	90.589667 
1054.000000	90.544522 
1053.000000	90.489304 
1052.000000	90.432982 
1051.000000	90.384383 
1050.000000	90.344652 
1049.000000	90.309531 
1048.000000	90.275718 
1047.000000	90.242989 
1046.000000	90.212233 
1045.000000	90.184844 
1044.000000	90.163579 
1043.000000	90.150412 
1042.000000	90.142290 
1041.000000	90.131410 
1040.000000	90.112353 
1039.000000	90.089857 
1038.000000	90.078775 
1037.000000	90.093625 
1036.000000	90.135377 
1035.000000	90.189209 
1034.000000	90.238392 
1033.000000	90.277927 
1032.000000	90.307655 
1031.000000	90.315871 
1030.000000	90.285958 
1029.000000	90.226450 
1028.000000	90.180826 
1027.000000	90.191381 
1026.000000	90.257294 
1025.000000	90.338791 
1024.000000	90.399603 
1023.000000	90.433470 
1022.000000	90.451908 
1021.000000	90.463727 
1020.000000	90.471909 
1019.000000	90.478880 
1018.000000	90.486534 
1017.000000	90.495613 
1016.000000	90.508633 
1015.000000	90.529084 
1014.000000	90.556109 
1013.000000	90.584971 
1012.000000	90.613774 
1011.000000	90.644498 
1010.000000	90.677398 
1009.000000	90.710509 
1008.000000	90.744926 
1007.000000	90.784580 
1006.000000	90.830281 
1005.000000	90.879373 
1004.000000	90.930948 
1003.000000	90.985565 
1002.000000	91.040484 
1001.000000	91.091964 
1000.000000	91.142238 
999.000000	 91.197282 
998.000000	 91.257279 
997.000000	 91.316060 
996.000000	 91.370699 
995.000000	 91.424925 
994.000000	 91.482074 
993.000000	 91.541468 
992.000000	 91.603203 
991.000000	 91.669510 
990.000000	 91.739178 
989.000000	 91.806994 
988.000000	 91.871126 
987.000000	 91.935546 
986.000000	 92.003342 
985.000000	 92.073625 
984.000000	 92.145918 
983.000000	 92.221146 
982.000000	 92.298646 
981.000000	 92.376745 
980.000000	 92.456194 
979.000000	 92.539825 
978.000000	 92.628021 
977.000000	 92.718693 
976.000000	 92.811936 
975.000000	 92.909942 
974.000000	 93.012475 
973.000000	 93.117266 
972.000000	 93.224278 
971.000000	 93.334409 
970.000000	 93.444660 
969.000000	 93.550137 
968.000000	 93.650581 
967.000000	 93.749833 
966.000000	 93.849468 
965.000000	 93.948174 
964.000000	 94.046461 
963.000000	 94.145986 
962.000000	 94.244504 
961.000000	 94.337565 
960.000000	 94.425376 
959.000000	 94.512276 
958.000000	 94.599111 
957.000000	 94.681995 
956.000000	 94.759776 
955.000000	 94.837315 
954.000000	 94.919416 
953.000000	 95.005119 
952.000000	 95.089128 
951.000000	 95.165836 
950.000000	 95.232366 
949.000000	 95.291511 
948.000000	 95.351220 
947.000000	 95.416848 
946.000000	 95.484043 
945.000000	 95.543811 
944.000000	 95.593973 
943.000000	 95.640760 
942.000000	 95.689377 
941.000000	 95.738387 
940.000000	 95.784670 
939.000000	 95.828973 
938.000000	 95.874448 
937.000000	 95.922921 
936.000000	 95.974012 
935.000000	 96.025401 
934.000000	 96.073784 
933.000000	 96.118396 
932.000000	 96.162808 
931.000000	 96.210052 
930.000000	 96.257068 
929.000000	 96.298253 
928.000000	 96.334094 
927.000000	 96.371432 
926.000000	 96.414319 
925.000000	 96.459009 
924.000000	 96.499584 
923.000000	 96.534631 
922.000000	 96.566271 
921.000000	 96.595573 
920.000000	 96.621439 
919.000000	 96.642867 
918.000000	 96.660918 
917.000000	 96.678727 
916.000000	 96.699827 
915.000000	 96.726066 
914.000000	 96.757095 
913.000000	 96.791563 
912.000000	 96.827522 
911.000000	 96.862013 
910.000000	 96.893283 
909.000000	 96.924453 
908.000000	 96.961508 
907.000000	 97.005565 
906.000000	 97.050350 
905.000000	 97.090153 
904.000000	 97.127459 
903.000000	 97.169779 
902.000000	 97.221648 
901.000000	 97.282426 
900.000000	 97.348807 
899.000000	 97.416137 
898.000000	 97.479907 
897.000000	 97.538965 
896.000000	 97.594331 
895.000000	 97.643256 
894.000000	 97.680534 
893.000000	 97.709794 
892.000000	 97.746884 
891.000000	 97.804088 
890.000000	 97.874094 
889.000000	 97.936808 
888.000000	 97.979121 
887.000000	 98.001027 
886.000000	 98.006957 
885.000000	 98.000742 
884.000000	 97.987643 
883.000000	 97.971517 
882.000000	 97.949395 
881.000000	 97.918425 
880.000000	 97.889480 
879.000000	 97.882965 
878.000000	 97.907096 
877.000000	 97.949403 
876.000000	 97.993816 
875.000000	 98.038160 
874.000000	 98.089642 
873.000000	 98.151877 
872.000000	 98.223937 
871.000000	 98.305920 
870.000000	 98.397292 
869.000000	 98.492129 
868.000000	 98.581825 
867.000000	 98.662338 
866.000000	 98.736163 
865.000000	 98.807597 
864.000000	 98.877385 
863.000000	 98.941653 
862.000000	 98.996370 
861.000000	 99.043698 
860.000000	 99.092087 
859.000000	 99.147451 
858.000000	 99.206061 
857.000000	 99.260139 
856.000000	 99.308816 
855.000000	 99.358300 
854.000000	 99.411738 
853.000000	 99.464455 
852.000000	 99.509806 
851.000000	 99.544718 
850.000000	 99.569142 
849.000000	 99.585867 
848.000000	 99.602267 
847.000000	 99.626183 
846.000000	 99.656853 
845.000000	 99.684380 
844.000000	 99.700918 
843.000000	 99.708770 
842.000000	 99.715816 
841.000000	 99.726987 
840.000000	 99.742261 
839.000000	 99.758644 
838.000000	 99.771112 
837.000000	 99.775024 
836.000000	 99.770520 
835.000000	 99.762373 
834.000000	 99.754195 
833.000000	 99.746233 
832.000000	 99.740245 
831.000000	 99.741115 
830.000000	 99.749464 
829.000000	 99.756973 
828.000000	 99.754967 
827.000000	 99.746099 
826.000000	 99.742405 
825.000000	 99.751902 
824.000000	 99.770835 
823.000000	 99.788527 
822.000000	 99.796181 
821.000000	 99.791468 
820.000000	 99.778240 
819.000000	 99.762567 
818.000000	 99.747071 
817.000000	 99.728298 
816.000000	 99.699915 
815.000000	 99.657793 
814.000000	 99.601387 
813.000000	 99.530550 
812.000000	 99.441148 
811.000000	 99.323567 
810.000000	 99.166976 
809.000000	 98.967672 
808.000000	 98.733370 
807.000000	 98.477050 
806.000000	 98.206715 
805.000000	 97.924849 
804.000000	 97.637978 
803.000000	 97.360672 
802.000000	 97.107642 
801.000000	 96.888024 
800.000000	 96.710299 
799.000000	 96.584955 
798.000000	 96.516592 
797.000000	 96.498826 
796.000000	 96.521079 
795.000000	 96.574860 
794.000000	 96.650271 
793.000000	 96.733194 
792.000000	 96.810936 
791.000000	 96.876689 
790.000000	 96.925976 
789.000000	 96.953781 
788.000000	 96.957944 
787.000000	 96.940014 
786.000000	 96.898926 
785.000000	 96.828497 
784.000000	 96.725970 
783.000000	 96.600275 
782.000000	 96.468670 
781.000000	 96.348757 
780.000000	 96.256242 
779.000000	 96.204001 
778.000000	 96.196861 
777.000000	 96.230309 
776.000000	 96.297786 
775.000000	 96.394904 
774.000000	 96.513604 
773.000000	 96.638696 
772.000000	 96.756416 
771.000000	 96.863601 
770.000000	 96.964452 
769.000000	 97.061697 
768.000000	 97.155339 
767.000000	 97.246613 
766.000000	 97.336835 
765.000000	 97.422736 
764.000000	 97.497900 
763.000000	 97.559867 
762.000000	 97.613222 
761.000000	 97.665471 
760.000000	 97.721971 
759.000000	 97.784355 
758.000000	 97.851102 
757.000000	 97.919260 
756.000000	 97.987153 
755.000000	 98.055425 
754.000000	 98.124286 
753.000000	 98.190446 
752.000000	 98.248686 
751.000000	 98.296366 
750.000000	 98.335153 
749.000000	 98.369135 
748.000000	 98.402606 
747.000000	 98.438610 
746.000000	 98.477421 
745.000000	 98.516614 
744.000000	 98.554606 
743.000000	 98.593906 
742.000000	 98.638414 
741.000000	 98.687517 
740.000000	 98.736160 
739.000000	 98.781616 
738.000000	 98.826624 
737.000000	 98.873459 
736.000000	 98.917764 
735.000000	 98.952448 
734.000000	 98.976040 
733.000000	 98.992947 
732.000000	 99.006452 
731.000000	 99.016233 
730.000000	 99.023008 
729.000000	 99.030218 
728.000000	 99.041416 
727.000000	 99.058251 
726.000000	 99.079907 
725.000000	 99.104093 
724.000000	 99.128214 
723.000000	 99.151152 
722.000000	 99.175001 
721.000000	 99.203101 
720.000000	 99.234477 
719.000000	 99.261211 
718.000000	 99.274036 
717.000000	 99.271291 
716.000000	 99.260434 
715.000000	 99.251668 
714.000000	 99.251690 
713.000000	 99.262193 
712.000000	 99.282104 
711.000000	 99.309300 
710.000000	 99.341526 
709.000000	 99.376515 
708.000000	 99.410462 
707.000000	 99.438359 
706.000000	 99.454074 
705.000000	 99.452346 
704.000000	 99.432037 
703.000000	 99.394993 
702.000000	 99.343427 
701.000000	 99.277161 
700.000000	 99.190825 
699.000000	 99.078044 
698.000000	 98.939677 
697.000000	 98.791610 
696.000000	 98.663873 
695.000000	 98.585471 
694.000000	 98.571102 
693.000000	 98.617012 
692.000000	 98.704060 
691.000000	 98.809504 
690.000000	 98.917712 
689.000000	 99.022710 
688.000000	 99.120462 
687.000000	 99.201234 
686.000000	 99.257574 
685.000000	 99.293336 
684.000000	 99.317521 
683.000000	 99.335463 
682.000000	 99.349620 
681.000000	 99.364171 
680.000000	 99.381914 
679.000000	 99.401655 
678.000000	 99.421833 
677.000000	 99.439302 
676.000000	 99.452008 
675.000000	 99.462037 
674.000000	 99.477061 
673.000000	 99.506355 
672.000000	 99.557622 
671.000000	 99.636055 
670.000000	 99.745987 
669.000000	 99.869061 
668.000000	 99.924957 
667.000000	 99.873345 
666.000000	 99.786859 
665.000000	 99.719019 
664.000000	 99.683984 
663.000000	 99.686234 
662.000000	 99.712955 
661.000000	 99.739369 
660.000000	 99.754177 
659.000000	 99.764703 
658.000000	 99.772574 
657.000000	 99.764964 
656.000000	 99.742761 
655.000000	 99.729501 
654.000000	 99.737940 
653.000000	 99.753743 
652.000000	 99.762576 
651.000000	 99.764738 
650.000000	 99.759416 

