4000.000000	99.551017 
3999.000000	99.549664 
3998.000000	99.549139 
3997.000000	99.549516 
3996.000000	99.550425 
3995.000000	99.551282 
3994.000000	99.551831 
3993.000000	99.552236 
3992.000000	99.552719 
3991.000000	99.553209 
3990.000000	99.553433 
3989.000000	99.553302 
3988.000000	99.552998 
3987.000000	99.552608 
3986.000000	99.551945 
3985.000000	99.550925 
3984.000000	99.549890 
3983.000000	99.549360 
3982.000000	99.549516 
3981.000000	99.550019 
3980.000000	99.550359 
3979.000000	99.550325 
3978.000000	99.550116 
3977.000000	99.550084 
3976.000000	99.550399 
3975.000000	99.550941 
3974.000000	99.551446 
3973.000000	99.551716 
3972.000000	99.551715 
3971.000000	99.551500 
3970.000000	99.551133 
3969.000000	99.550673 
3968.000000	99.550251 
3967.000000	99.550060 
3966.000000	99.550210 
3965.000000	99.550618 
3964.000000	99.551038 
3963.000000	99.551224 
3962.000000	99.551101 
3961.000000	99.550775 
3960.000000	99.550432 
3959.000000	99.550201 
3958.000000	99.550085 
3957.000000	99.550007 
3956.000000	99.549891 
3955.000000	99.549710 
3954.000000	99.549490 
3953.000000	99.549274 
3952.000000	99.549090 
3951.000000	99.548938 
3950.000000	99.548805 
3949.000000	99.548675 
3948.000000	99.548537 
3947.000000	99.548389 
3946.000000	99.548232 
3945.000000	99.548068 
3944.000000	99.547907 
3943.000000	99.547762 
3942.000000	99.547649 
3941.000000	99.547565 
3940.000000	99.547487 
3939.000000	99.547387 
3938.000000	99.547250 
3937.000000	99.547081 
3936.000000	99.546914 
3935.000000	99.546791 
3934.000000	99.546734 
3933.000000	99.546737 
3932.000000	99.546768 
3931.000000	99.546788 
3930.000000	99.546759 
3929.000000	99.546650 
3928.000000	99.546456 
3927.000000	99.546209 
3926.000000	99.545961 
3925.000000	99.545747 
3924.000000	99.545577 
3923.000000	99.545440 
3922.000000	99.545317 
3921.000000	99.545184 
3920.000000	99.545032 
3919.000000	99.544868 
3918.000000	99.544703 
3917.000000	99.544531 
3916.000000	99.544340 
3915.000000	99.544129 
3914.000000	99.543915 
3913.000000	99.543707 
3912.000000	99.543504 
3911.000000	99.543297 
3910.000000	99.543067 
3909.000000	99.542801 
3908.000000	99.542502 
3907.000000	99.542188 
3906.000000	99.541880 
3905.000000	99.541588 
3904.000000	99.541318 
3903.000000	99.541068 
3902.000000	99.540832 
3901.000000	99.540599 
3900.000000	99.540358 
3899.000000	99.540096 
3898.000000	99.539812 
3897.000000	99.539513 
3896.000000	99.539211 
3895.000000	99.538914 
3894.000000	99.538627 
3893.000000	99.538346 
3892.000000	99.538066 
3891.000000	99.537782 
3890.000000	99.537495 
3889.000000	99.537209 
3888.000000	99.536934 
3887.000000	99.536672 
3886.000000	99.536423 
3885.000000	99.536181 
3884.000000	99.535945 
3883.000000	99.535716 
3882.000000	99.535493 
3881.000000	99.535274 
3880.000000	99.535051 
3879.000000	99.534821 
3878.000000	99.534589 
3877.000000	99.534364 
3876.000000	99.534153 
3875.000000	99.533956 
3874.000000	99.533772 
3873.000000	99.533595 
3872.000000	99.533425 
3871.000000	99.533270 
3870.000000	99.533140 
3869.000000	99.533025 
3868.000000	99.532923 
3867.000000	99.532865 
3866.000000	99.532886 
3865.000000	99.532981 
3864.000000	99.533097 
3863.000000	99.533158 
3862.000000	99.533104 
3861.000000	99.532904 
3860.000000	99.532589 
3859.000000	99.532240 
3858.000000	99.531944 
3857.000000	99.531770 
3856.000000	99.531747 
3855.000000	99.531878 
3854.000000	99.532089 
3853.000000	99.532196 
3852.000000	99.532094 
3851.000000	99.531888 
3850.000000	99.531719 
3849.000000	99.531605 
3848.000000	99.531495 
3847.000000	99.531363 
3846.000000	99.531224 
3845.000000	99.531094 
3844.000000	99.530977 
3843.000000	99.530846 
3842.000000	99.530689 
3841.000000	99.530543 
3840.000000	99.530474 
3839.000000	99.530489 
3838.000000	99.530519 
3837.000000	99.530496 
3836.000000	99.530398 
3835.000000	99.530251 
3834.000000	99.530087 
3833.000000	99.529936 
3832.000000	99.529780 
3831.000000	99.529543 
3830.000000	99.529212 
3829.000000	99.528918 
3828.000000	99.528827 
3827.000000	99.528890 
3826.000000	99.528778 
3825.000000	99.528229 
3824.000000	99.527401 
3823.000000	99.526697 
3822.000000	99.526274 
3821.000000	99.525742 
3820.000000	99.524710 
3819.000000	99.523640 
3818.000000	99.523391 
3817.000000	99.524216 
3816.000000	99.525388 
3815.000000	99.525855 
3814.000000	99.525460 
3813.000000	99.524818 
3812.000000	99.524265 
3811.000000	99.523693 
3810.000000	99.523161 
3809.000000	99.523110 
3808.000000	99.523700 
3807.000000	99.524124 
3806.000000	99.523242 
3805.000000	99.521042 
3804.000000	99.518788 
3803.000000	99.517673 
3802.000000	99.517779 
3801.000000	99.517993 
3800.000000	99.517665 
3799.000000	99.517729 
3798.000000	99.519141 
3797.000000	99.521627 
3796.000000	99.523995 
3795.000000	99.525395 
3794.000000	99.525997 
3793.000000	99.526410 
3792.000000	99.526861 
3791.000000	99.527153 
3790.000000	99.527069 
3789.000000	99.526579 
3788.000000	99.525780 
3787.000000	99.524841 
3786.000000	99.523990 
3785.000000	99.523461 
3784.000000	99.523397 
3783.000000	99.523855 
3782.000000	99.524794 
3781.000000	99.525938 
3780.000000	99.526882 
3779.000000	99.527332 
3778.000000	99.527354 
3777.000000	99.527278 
3776.000000	99.527271 
3775.000000	99.527017 
3774.000000	99.526071 
3773.000000	99.524426 
3772.000000	99.522579 
3771.000000	99.520980 
3770.000000	99.519684 
3769.000000	99.518812 
3768.000000	99.519077 
3767.000000	99.521089 
3766.000000	99.524210 
3765.000000	99.526648 
3764.000000	99.527194 
3763.000000	99.526565 
3762.000000	99.526417 
3761.000000	99.527291 
3760.000000	99.528308 
3759.000000	99.528239 
3758.000000	99.526351 
3757.000000	99.522410 
3756.000000	99.517017 
3755.000000	99.511556 
3754.000000	99.506901 
3753.000000	99.502874 
3752.000000	99.499798 
3751.000000	99.499543 
3750.000000	99.502739 
3749.000000	99.506625 
3748.000000	99.508696 
3747.000000	99.509874 
3746.000000	99.512386 
3745.000000	99.516221 
3744.000000	99.517855 
3743.000000	99.515646 
3742.000000	99.513397 
3741.000000	99.513682 
3740.000000	99.514619 
3739.000000	99.513741 
3738.000000	99.511407 
3737.000000	99.510156 
3736.000000	99.511638 
3735.000000	99.515377 
3734.000000	99.519777 
3733.000000	99.523331 
3732.000000	99.524691 
3731.000000	99.523249 
3730.000000	99.519760 
3729.000000	99.515595 
3728.000000	99.511798 
3727.000000	99.508793 
3726.000000	99.506422 
3725.000000	99.504358 
3724.000000	99.502190 
3723.000000	99.499581 
3722.000000	99.496770 
3721.000000	99.494461 
3720.000000	99.492930 
3719.000000	99.491350 
3718.000000	99.488273 
3717.000000	99.482414 
3716.000000	99.473713 
3715.000000	99.463136 
3714.000000	99.451401 
3713.000000	99.438812 
3712.000000	99.426267 
3711.000000	99.415353 
3710.000000	99.407053 
3709.000000	99.400908 
3708.000000	99.395186 
3707.000000	99.387439 
3706.000000	99.375842 
3705.000000	99.360440 
3704.000000	99.342947 
3703.000000	99.325459 
3702.000000	99.309064 
3701.000000	99.293784 
3700.000000	99.279736 
3699.000000	99.267760 
3698.000000	99.258197 
3697.000000	99.249686 
3696.000000	99.240472 
3695.000000	99.230783 
3694.000000	99.222921 
3693.000000	99.218865 
3692.000000	99.218595 
3691.000000	99.220393 
3690.000000	99.221974 
3689.000000	99.221397 
3688.000000	99.217913 
3687.000000	99.212490 
3686.000000	99.206950 
3685.000000	99.202010 
3684.000000	99.196802 
3683.000000	99.190487 
3682.000000	99.183431 
3681.000000	99.176067 
3680.000000	99.166958 
3679.000000	99.154022 
3678.000000	99.137193 
3677.000000	99.118867 
3676.000000	99.101302 
3675.000000	99.084445 
3674.000000	99.068565 
3673.000000	99.056197 
3672.000000	99.048196 
3671.000000	99.041406 
3670.000000	99.031233 
3669.000000	99.016070 
3668.000000	98.998453 
3667.000000	98.980920 
3666.000000	98.963480 
3665.000000	98.945464 
3664.000000	98.927422 
3663.000000	98.910492 
3662.000000	98.894709 
3661.000000	98.878911 
3660.000000	98.862360 
3659.000000	98.845732 
3658.000000	98.829654 
3657.000000	98.813243 
3656.000000	98.794897 
3655.000000	98.775267 
3654.000000	98.757513 
3653.000000	98.743433 
3652.000000	98.730596 
3651.000000	98.714254 
3650.000000	98.692496 
3649.000000	98.669106 
3648.000000	98.649638 
3647.000000	98.635973 
3646.000000	98.626524 
3645.000000	98.618944 
3644.000000	98.611363 
3643.000000	98.602495 
3642.000000	98.592115 
3641.000000	98.581023 
3640.000000	98.570207 
3639.000000	98.559810 
3638.000000	98.549113 
3637.000000	98.537541 
3636.000000	98.524970 
3635.000000	98.511376 
3634.000000	98.496894 
3633.000000	98.482334 
3632.000000	98.468213 
3631.000000	98.452616 
3630.000000	98.432335 
3629.000000	98.408175 
3628.000000	98.386764 
3627.000000	98.374198 
3626.000000	98.370200 
3625.000000	98.369413 
3624.000000	98.367057 
3623.000000	98.362537 
3622.000000	98.358235 
3621.000000	98.356285 
3620.000000	98.357217 
3619.000000	98.361262 
3618.000000	98.369337 
3617.000000	98.382303 
3616.000000	98.399614 
3615.000000	98.418768 
3614.000000	98.435989 
3613.000000	98.448345 
3612.000000	98.455831 
3611.000000	98.461140 
3610.000000	98.467279 
3609.000000	98.475899 
3608.000000	98.487118 
3607.000000	98.500218 
3606.000000	98.514218 
3605.000000	98.527586 
3604.000000	98.538243 
3603.000000	98.545011 
3602.000000	98.549115 
3601.000000	98.553799 
3600.000000	98.561405 
3599.000000	98.571196 
3598.000000	98.580177 
3597.000000	98.586537 
3596.000000	98.591774 
3595.000000	98.598971 
3594.000000	98.608714 
3593.000000	98.617991 
3592.000000	98.623418 
3591.000000	98.624555 
3590.000000	98.624356 
3589.000000	98.627004 
3588.000000	98.634517 
3587.000000	98.644495 
3586.000000	98.652371 
3585.000000	98.655616 
3584.000000	98.655043 
3583.000000	98.653418 
3582.000000	98.653641 
3581.000000	98.656935 
3580.000000	98.662005 
3579.000000	98.666302 
3578.000000	98.668245 
3577.000000	98.668227 
3576.000000	98.667642 
3575.000000	98.667351 
3574.000000	98.667305 
3573.000000	98.667301 
3572.000000	98.667706 
3571.000000	98.669323 
3570.000000	98.672765 
3569.000000	98.677783 
3568.000000	98.683005 
3567.000000	98.686520 
3566.000000	98.687454 
3565.000000	98.686982 
3564.000000	98.687173 
3563.000000	98.688985 
3562.000000	98.691586 
3561.000000	98.693199 
3560.000000	98.692701 
3559.000000	98.690702 
3558.000000	98.689072 
3557.000000	98.688986 
3556.000000	98.689513 
3555.000000	98.688429 
3554.000000	98.684591 
3553.000000	98.679250 
3552.000000	98.674862 
3551.000000	98.672727 
3550.000000	98.672337 
3549.000000	98.672709 
3548.000000	98.673675 
3547.000000	98.675624 
3546.000000	98.678293 
3545.000000	98.680377 
3544.000000	98.680736 
3543.000000	98.679519 
3542.000000	98.677872 
3541.000000	98.676781 
3540.000000	98.676428 
3539.000000	98.676477 
3538.000000	98.676653 
3537.000000	98.676885 
3536.000000	98.677027 
3535.000000	98.676752 
3534.000000	98.675760 
3533.000000	98.674044 
3532.000000	98.671878 
3531.000000	98.669691 
3530.000000	98.667926 
3529.000000	98.666916 
3528.000000	98.666766 
3527.000000	98.667301 
3526.000000	98.668169 
3525.000000	98.669019 
3524.000000	98.669586 
3523.000000	98.669671 
3522.000000	98.669112 
3521.000000	98.667831 
3520.000000	98.665952 
3519.000000	98.663854 
3518.000000	98.662053 
3517.000000	98.660984 
3516.000000	98.660817 
3515.000000	98.661374 
3514.000000	98.662105 
3513.000000	98.662256 
3512.000000	98.661256 
3511.000000	98.659146 
3510.000000	98.656646 
3509.000000	98.654599 
3508.000000	98.653323 
3507.000000	98.652584 
3506.000000	98.652040 
3505.000000	98.651418 
3504.000000	98.650392 
3503.000000	98.648688 
3502.000000	98.646500 
3501.000000	98.644482 
3500.000000	98.642983 
3499.000000	98.641503 
3498.000000	98.639208 
3497.000000	98.635942 
3496.000000	98.632490 
3495.000000	98.629835 
3494.000000	98.628462 
3493.000000	98.628446 
3492.000000	98.629714 
3491.000000	98.631854 
3490.000000	98.633855 
3489.000000	98.634546 
3488.000000	98.633470 
3487.000000	98.631206 
3486.000000	98.628746 
3485.000000	98.626497 
3484.000000	98.624051 
3483.000000	98.620938 
3482.000000	98.617431 
3481.000000	98.614393 
3480.000000	98.612299 
3479.000000	98.610649 
3478.000000	98.608517 
3477.000000	98.605540 
3476.000000	98.602197 
3475.000000	98.599255 
3474.000000	98.597140 
3473.000000	98.595845 
3472.000000	98.595130 
3471.000000	98.594604 
3470.000000	98.593747 
3469.000000	98.592097 
3468.000000	98.589507 
3467.000000	98.586154 
3466.000000	98.582317 
3465.000000	98.578171 
3464.000000	98.573829 
3463.000000	98.569572 
3462.000000	98.565895 
3461.000000	98.563141 
3460.000000	98.561126 
3459.000000	98.559324 
3458.000000	98.557533 
3457.000000	98.556084 
3456.000000	98.555169 
3455.000000	98.554220 
3454.000000	98.552301 
3453.000000	98.549054 
3452.000000	98.545047 
3451.000000	98.541270 
3450.000000	98.538453 
3449.000000	98.536792 
3448.000000	98.536012 
3447.000000	98.535611 
3446.000000	98.535143 
3445.000000	98.534364 
3444.000000	98.533196 
3443.000000	98.531680 
3442.000000	98.529997 
3441.000000	98.528305 
3440.000000	98.526402 
3439.000000	98.523777 
3438.000000	98.520202 
3437.000000	98.516167 
3436.000000	98.512497 
3435.000000	98.509616 
3434.000000	98.507378 
3433.000000	98.505460 
3432.000000	98.503619 
3431.000000	98.501645 
3430.000000	98.499439 
3429.000000	98.497219 
3428.000000	98.495394 
3427.000000	98.494096 
3426.000000	98.493009 
3425.000000	98.491736 
3424.000000	98.490202 
3423.000000	98.488559 
3422.000000	98.486817 
3421.000000	98.484752 
3420.000000	98.482199 
3419.000000	98.479390 
3418.000000	98.476948 
3417.000000	98.475461 
3416.000000	98.474950 
3415.000000	98.474682 
3414.000000	98.473656 
3413.000000	98.471490 
3412.000000	98.468809 
3411.000000	98.466722 
3410.000000	98.465874 
3409.000000	98.466020 
3408.000000	98.466265 
3407.000000	98.465701 
3406.000000	98.463991 
3405.000000	98.461559 
3404.000000	98.459260 
3403.000000	98.457625 
3402.000000	98.456444 
3401.000000	98.455217 
3400.000000	98.453910 
3399.000000	98.453006 
3398.000000	98.452813 
3397.000000	98.453003 
3396.000000	98.452951 
3395.000000	98.452353 
3394.000000	98.451425 
3393.000000	98.450627 
3392.000000	98.450287 
3391.000000	98.450344 
3390.000000	98.450326 
3389.000000	98.449655 
3388.000000	98.448135 
3387.000000	98.446183 
3386.000000	98.444532 
3385.000000	98.443679 
3384.000000	98.443565 
3383.000000	98.443741 
3382.000000	98.443875 
3381.000000	98.444137 
3380.000000	98.445019 
3379.000000	98.446716 
3378.000000	98.448785 
3377.000000	98.450500 
3376.000000	98.451510 
3375.000000	98.451994 
3374.000000	98.452238 
3373.000000	98.452336 
3372.000000	98.452270 
3371.000000	98.452052 
3370.000000	98.451733 
3369.000000	98.451369 
3368.000000	98.451089 
3367.000000	98.451068 
3366.000000	98.451340 
3365.000000	98.451767 
3364.000000	98.452253 
3363.000000	98.452894 
3362.000000	98.453851 
3361.000000	98.455133 
3360.000000	98.456571 
3359.000000	98.457996 
3358.000000	98.459328 
3357.000000	98.460513 
3356.000000	98.461420 
3355.000000	98.461909 
3354.000000	98.462036 
3353.000000	98.462065 
3352.000000	98.462269 
3351.000000	98.462759 
3350.000000	98.463474 
3349.000000	98.464308 
3348.000000	98.465184 
3347.000000	98.466051 
3346.000000	98.466875 
3345.000000	98.467651 
3344.000000	98.468399 
3343.000000	98.469134 
3342.000000	98.469860 
3341.000000	98.470572 
3340.000000	98.471272 
3339.000000	98.471956 
3338.000000	98.472623 
3337.000000	98.473275 
3336.000000	98.473917 
3335.000000	98.474558 
3334.000000	98.475204 
3333.000000	98.475854 
3332.000000	98.476498 
3331.000000	98.477127 
3330.000000	98.477738 
3329.000000	98.478349 
3328.000000	98.478983 
3327.000000	98.479652 
3326.000000	98.480342 
3325.000000	98.481027 
3324.000000	98.481690 
3323.000000	98.482327 
3322.000000	98.482936 
3321.000000	98.483532 
3320.000000	98.484160 
3319.000000	98.484872 
3318.000000	98.485665 
3317.000000	98.486433 
3316.000000	98.487029 
3315.000000	98.487389 
3314.000000	98.487639 
3313.000000	98.488043 
3312.000000	98.488795 
3311.000000	98.489883 
3310.000000	98.491067 
3309.000000	98.492073 
3308.000000	98.492776 
3307.000000	98.493197 
3306.000000	98.493398 
3305.000000	98.493427 
3304.000000	98.493343 
3303.000000	98.493250 
3302.000000	98.493277 
3301.000000	98.493526 
3300.000000	98.494012 
3299.000000	98.494641 
3298.000000	98.495295 
3297.000000	98.495987 
3296.000000	98.496887 
3295.000000	98.498128 
3294.000000	98.499595 
3293.000000	98.500938 
3292.000000	98.501867 
3291.000000	98.502435 
3290.000000	98.503001 
3289.000000	98.503875 
3288.000000	98.504991 
3287.000000	98.505981 
3286.000000	98.506553 
3285.000000	98.506743 
3284.000000	98.506799 
3283.000000	98.506934 
3282.000000	98.507263 
3281.000000	98.507899 
3280.000000	98.508941 
3279.000000	98.510350 
3278.000000	98.511870 
3277.000000	98.513130 
3276.000000	98.513856 
3275.000000	98.514013 
3274.000000	98.513859 
3273.000000	98.513862 
3272.000000	98.514415 
3271.000000	98.515569 
3270.000000	98.517062 
3269.000000	98.518531 
3268.000000	98.519760 
3267.000000	98.520686 
3266.000000	98.521279 
3265.000000	98.521560 
3264.000000	98.521664 
3263.000000	98.521796 
3262.000000	98.522107 
3261.000000	98.522650 
3260.000000	98.523449 
3259.000000	98.524526 
3258.000000	98.525814 
3257.000000	98.527084 
3256.000000	98.528082 
3255.000000	98.528751 
3254.000000	98.529299 
3253.000000	98.529968 
3252.000000	98.530749 
3251.000000	98.531367 
3250.000000	98.531580 
3249.000000	98.531481 
3248.000000	98.531513 
3247.000000	98.532228 
3246.000000	98.533954 
3245.000000	98.536583 
3244.000000	98.539616 
3243.000000	98.542452 
3242.000000	98.544677 
3241.000000	98.546093 
3240.000000	98.546634 
3239.000000	98.546509 
3238.000000	98.546353 
3237.000000	98.546867 
3236.000000	98.548127 
3235.000000	98.549500 
3234.000000	98.550468 
3233.000000	98.551301 
3232.000000	98.552614 
3231.000000	98.554395 
3230.000000	98.555901 
3229.000000	98.556520 
3228.000000	98.556439 
3227.000000	98.556394 
3226.000000	98.557008 
3225.000000	98.558388 
3224.000000	98.560132 
3223.000000	98.561657 
3222.000000	98.562757 
3221.000000	98.563910 
3220.000000	98.565810 
3219.000000	98.568577 
3218.000000	98.571604 
3217.000000	98.574175 
3216.000000	98.576074 
3215.000000	98.577599 
3214.000000	98.579276 
3213.000000	98.581606 
3212.000000	98.584822 
3211.000000	98.588653 
3210.000000	98.592361 
3209.000000	98.595154 
3208.000000	98.596628 
3207.000000	98.596913 
3206.000000	98.596674 
3205.000000	98.596921 
3204.000000	98.598467 
3203.000000	98.601448 
3202.000000	98.605365 
3201.000000	98.609605 
3200.000000	98.613852 
3199.000000	98.617895 
3198.000000	98.621341 
3197.000000	98.623819 
3196.000000	98.625434 
3195.000000	98.626838 
3194.000000	98.628748 
3193.000000	98.631385 
3192.000000	98.634387 
3191.000000	98.637173 
3190.000000	98.639429 
3189.000000	98.641290 
3188.000000	98.643101 
3187.000000	98.645091 
3186.000000	98.647348 
3185.000000	98.650005 
3184.000000	98.653181 
3183.000000	98.656661 
3182.000000	98.659875 
3181.000000	98.662407 
3180.000000	98.664432 
3179.000000	98.666564 
3178.000000	98.669257 
3177.000000	98.672478 
3176.000000	98.675879 
3175.000000	98.679177 
3174.000000	98.682337 
3173.000000	98.685494 
3172.000000	98.688769 
3171.000000	98.692153 
3170.000000	98.695516 
3169.000000	98.698689 
3168.000000	98.701494 
3167.000000	98.703753 
3166.000000	98.705409 
3165.000000	98.706758 
3164.000000	98.708421 
3163.000000	98.710898 
3162.000000	98.714146 
3161.000000	98.717586 
3160.000000	98.720568 
3159.000000	98.722912 
3158.000000	98.724983 
3157.000000	98.727277 
3156.000000	98.729924 
3155.000000	98.732656 
3154.000000	98.735222 
3153.000000	98.737691 
3152.000000	98.740234 
3151.000000	98.742784 
3150.000000	98.745129 
3149.000000	98.747314 
3148.000000	98.749701 
3147.000000	98.752604 
3146.000000	98.756076 
3145.000000	98.760057 
3144.000000	98.764438 
3143.000000	98.768832 
3142.000000	98.772540 
3141.000000	98.775039 
3140.000000	98.776467 
3139.000000	98.777613 
3138.000000	98.779352 
3137.000000	98.782016 
3136.000000	98.785298 
3135.000000	98.788559 
3134.000000	98.791327 
3133.000000	98.793627 
3132.000000	98.795861 
3131.000000	98.798389 
3130.000000	98.801347 
3129.000000	98.804815 
3128.000000	98.808912 
3127.000000	98.813583 
3126.000000	98.818434 
3125.000000	98.822924 
3124.000000	98.826688 
3123.000000	98.829656 
3122.000000	98.832018 
3121.000000	98.834148 
3120.000000	98.836428 
3119.000000	98.838989 
3118.000000	98.841692 
3117.000000	98.844382 
3116.000000	98.847047 
3115.000000	98.849725 
3114.000000	98.852485 
3113.000000	98.855554 
3112.000000	98.859167 
3111.000000	98.863115 
3110.000000	98.866711 
3109.000000	98.869459 
3108.000000	98.871614 
3107.000000	98.873901 
3106.000000	98.876777 
3105.000000	98.880135 
3104.000000	98.883592 
3103.000000	98.886803 
3102.000000	98.889591 
3101.000000	98.891984 
3100.000000	98.894152 
3099.000000	98.896194 
3098.000000	98.898094 
3097.000000	98.899994 
3096.000000	98.902280 
3095.000000	98.905180 
3094.000000	98.908393 
3093.000000	98.911354 
3092.000000	98.913820 
3091.000000	98.915945 
3090.000000	98.917911 
3089.000000	98.919800 
3088.000000	98.921838 
3087.000000	98.924421 
3086.000000	98.927716 
3085.000000	98.931389 
3084.000000	98.934916 
3083.000000	98.938046 
3082.000000	98.940793 
3081.000000	98.943176 
3080.000000	98.945226 
3079.000000	98.947192 
3078.000000	98.949474 
3077.000000	98.952280 
3076.000000	98.955373 
3075.000000	98.958214 
3074.000000	98.960416 
3073.000000	98.962123 
3072.000000	98.963834 
3071.000000	98.965738 
3070.000000	98.967471 
3069.000000	98.968809 
3068.000000	98.970365 
3067.000000	98.973011 
3066.000000	98.976533 
3065.000000	98.979445 
3064.000000	98.980512 
3063.000000	98.980194 
3062.000000	98.980289 
3061.000000	98.982206 
3060.000000	98.985746 
3059.000000	98.989491 
3058.000000	98.992340 
3057.000000	98.994632 
3056.000000	98.997540 
3055.000000	99.001223 
3054.000000	99.004080 
3053.000000	99.004505 
3052.000000	99.003245 
3051.000000	99.003197 
3050.000000	99.006308 
3049.000000	99.011195 
3048.000000	99.014564 
3047.000000	99.014824 
3046.000000	99.013483 
3045.000000	99.012994 
3044.000000	99.013850 
3043.000000	99.014430 
3042.000000	99.013473 
3041.000000	99.011745 
3040.000000	99.010914 
3039.000000	99.011353 
3038.000000	99.011862 
3037.000000	99.011386 
3036.000000	99.010142 
3035.000000	99.008840 
3034.000000	99.007584 
3033.000000	99.006062 
3032.000000	99.004253 
3031.000000	99.002275 
3030.000000	98.999918 
3029.000000	98.997153 
3028.000000	98.994900 
3027.000000	98.994400 
3026.000000	98.995590 
3025.000000	98.996748 
3024.000000	98.996056 
3023.000000	98.993098 
3022.000000	98.988773 
3021.000000	98.984425 
3020.000000	98.981291 
3019.000000	98.979930 
3018.000000	98.979374 
3017.000000	98.977139 
3016.000000	98.971005 
3015.000000	98.961123 
3014.000000	98.950236 
3013.000000	98.941691 
3012.000000	98.937102 
3011.000000	98.935610 
3010.000000	98.934786 
3009.000000	98.932363 
3008.000000	98.927741 
3007.000000	98.922341 
3006.000000	98.918314 
3005.000000	98.916435 
3004.000000	98.915108 
3003.000000	98.911743 
3002.000000	98.905312 
3001.000000	98.897438 
3000.000000	98.890825 
2999.000000	98.886810 
2998.000000	98.884716 
2997.000000	98.883295 
2996.000000	98.882044 
2995.000000	98.880746 
2994.000000	98.878256 
2993.000000	98.872640 
2992.000000	98.862918 
2991.000000	98.850563 
2990.000000	98.839107 
2989.000000	98.832106 
2988.000000	98.831221 
2987.000000	98.835802 
2986.000000	98.843801 
2985.000000	98.852979 
2984.000000	98.861450 
2983.000000	98.867740 
2982.000000	98.871116 
2981.000000	98.872074 
2980.000000	98.872085 
2979.000000	98.872478 
2978.000000	98.873650 
2977.000000	98.875352 
2976.000000	98.877303 
2975.000000	98.879285 
2974.000000	98.881018 
2973.000000	98.882442 
2972.000000	98.884028 
2971.000000	98.886546 
2970.000000	98.890542 
2969.000000	98.896118 
2968.000000	98.902981 
2967.000000	98.910544 
2966.000000	98.918308 
2965.000000	98.926416 
2964.000000	98.935488 
2963.000000	98.945522 
2962.000000	98.955242 
2961.000000	98.963070 
2960.000000	98.968584 
2959.000000	98.972771 
2958.000000	98.977053 
2957.000000	98.982402 
2956.000000	98.988920 
2955.000000	98.995657 
2954.000000	99.001102 
2953.000000	99.004636 
2952.000000	99.007484 
2951.000000	99.011614 
2950.000000	99.017593 
2949.000000	99.023953 
2948.000000	99.028645 
2947.000000	99.030652 
2946.000000	99.030434 
2945.000000	99.029568 
2944.000000	99.030074 
2943.000000	99.033384 
2942.000000	99.039511 
2941.000000	99.047387 
2940.000000	99.055875 
2939.000000	99.064030 
2938.000000	99.070589 
2937.000000	99.074295 
2936.000000	99.075330 
2935.000000	99.075892 
2934.000000	99.078551 
2933.000000	99.084056 
2932.000000	99.090980 
2931.000000	99.097338 
2930.000000	99.102232 
2929.000000	99.106158 
2928.000000	99.110166 
2927.000000	99.114801 
2926.000000	99.119649 
2925.000000	99.123763 
2924.000000	99.126425 
2923.000000	99.127446 
2922.000000	99.126899 
2921.000000	99.124889 
2920.000000	99.121655 
2919.000000	99.117719 
2918.000000	99.113713 
2917.000000	99.109896 
2916.000000	99.105657 
2915.000000	99.099717 
2914.000000	99.091438 
2913.000000	99.082156 
2912.000000	99.074646 
2911.000000	99.070661 
2910.000000	99.069379 
2909.000000	99.068720 
2908.000000	99.067721 
2907.000000	99.066636 
2906.000000	99.064989 
2905.000000	99.061007 
2904.000000	99.053790 
2903.000000	99.045385 
2902.000000	99.039766 
2901.000000	99.039754 
2900.000000	99.045056 
2899.000000	99.052947 
2898.000000	99.060313 
2897.000000	99.065371 
2896.000000	99.067970 
2895.000000	99.068817 
2894.000000	99.068717 
2893.000000	99.068474 
2892.000000	99.068982 
2891.000000	99.070769 
2890.000000	99.073473 
2889.000000	99.076233 
2888.000000	99.078641 
2887.000000	99.080857 
2886.000000	99.082859 
2885.000000	99.084344 
2884.000000	99.085596 
2883.000000	99.087702 
2882.000000	99.091414 
2881.000000	99.096327 
2880.000000	99.101755 
2879.000000	99.107977 
2878.000000	99.115741 
2877.000000	99.124675 
2876.000000	99.133092 
2875.000000	99.139764 
2874.000000	99.145364 
2873.000000	99.151602 
2872.000000	99.159073 
2871.000000	99.166396 
2870.000000	99.171698 
2869.000000	99.174688 
2868.000000	99.176935 
2867.000000	99.180102 
2866.000000	99.184331 
2865.000000	99.188750 
2864.000000	99.193163 
2863.000000	99.198430 
2862.000000	99.205011 
2861.000000	99.211992 
2860.000000	99.218270 
2859.000000	99.224308 
2858.000000	99.231843 
2857.000000	99.241691 
2856.000000	99.252335 
2855.000000	99.261055 
2854.000000	99.266193 
2853.000000	99.268095 
2852.000000	99.268146 
2851.000000	99.267377 
2850.000000	99.266215 
2849.000000	99.265220 
2848.000000	99.265362 
2847.000000	99.267153 
2846.000000	99.269771 
2845.000000	99.271504 
2844.000000	99.271237 
2843.000000	99.269333 
2842.000000	99.267116 
2841.000000	99.265641 
2840.000000	99.264974 
2839.000000	99.264454 
2838.000000	99.263634 
2837.000000	99.263074 
2836.000000	99.264117 
2835.000000	99.267541 
2834.000000	99.272373 
2833.000000	99.276384 
2832.000000	99.278043 
2831.000000	99.277819 
2830.000000	99.277528 
2829.000000	99.278603 
2828.000000	99.281125 
2827.000000	99.284190 
2826.000000	99.286776 
2825.000000	99.288304 
2824.000000	99.288693 
2823.000000	99.288224 
2822.000000	99.287434 
2821.000000	99.287048 
2820.000000	99.287717 
2819.000000	99.289536 
2818.000000	99.291809 
2817.000000	99.293557 
2816.000000	99.294318 
2815.000000	99.294350 
2814.000000	99.294146 
2813.000000	99.294033 
2812.000000	99.294230 
2811.000000	99.294919 
2810.000000	99.296085 
2809.000000	99.297511 
2808.000000	99.299003 
2807.000000	99.300464 
2806.000000	99.301779 
2805.000000	99.302808 
2804.000000	99.303555 
2803.000000	99.304210 
2802.000000	99.304986 
2801.000000	99.305943 
2800.000000	99.306987 
2799.000000	99.307970 
2798.000000	99.308843 
2797.000000	99.309701 
2796.000000	99.310676 
2795.000000	99.311809 
2794.000000	99.312993 
2793.000000	99.314000 
2792.000000	99.314638 
2791.000000	99.314915 
2790.000000	99.315084 
2789.000000	99.315469 
2788.000000	99.316174 
2787.000000	99.317065 
2786.000000	99.317968 
2785.000000	99.318865 
2784.000000	99.319842 
2783.000000	99.320911 
2782.000000	99.321962 
2781.000000	99.322862 
2780.000000	99.323536 
2779.000000	99.323977 
2778.000000	99.324264 
2777.000000	99.324572 
2776.000000	99.325052 
2775.000000	99.325696 
2774.000000	99.326378 
2773.000000	99.327040 
2772.000000	99.327771 
2771.000000	99.328657 
2770.000000	99.329641 
2769.000000	99.330582 
2768.000000	99.331401 
2767.000000	99.332108 
2766.000000	99.332745 
2765.000000	99.333347 
2764.000000	99.333961 
2763.000000	99.334645 
2762.000000	99.335436 
2761.000000	99.336315 
2760.000000	99.337196 
2759.000000	99.337966 
2758.000000	99.338578 
2757.000000	99.339124 
2756.000000	99.339780 
2755.000000	99.340619 
2754.000000	99.341551 
2753.000000	99.342420 
2752.000000	99.343163 
2751.000000	99.343832 
2750.000000	99.344490 
2749.000000	99.345149 
2748.000000	99.345804 
2747.000000	99.346455 
2746.000000	99.347108 
2745.000000	99.347774 
2744.000000	99.348471 
2743.000000	99.349209 
2742.000000	99.349962 
2741.000000	99.350696 
2740.000000	99.351429 
2739.000000	99.352210 
2738.000000	99.353059 
2737.000000	99.353921 
2736.000000	99.354725 
2735.000000	99.355447 
2734.000000	99.356129 
2733.000000	99.356842 
2732.000000	99.357634 
2731.000000	99.358509 
2730.000000	99.359416 
2729.000000	99.360273 
2728.000000	99.361036 
2727.000000	99.361756 
2726.000000	99.362535 
2725.000000	99.363400 
2724.000000	99.364254 
2723.000000	99.364987 
2722.000000	99.365564 
2721.000000	99.365996 
2720.000000	99.366337 
2719.000000	99.366724 
2718.000000	99.367340 
2717.000000	99.368226 
2716.000000	99.369176 
2715.000000	99.369890 
2714.000000	99.370265 
2713.000000	99.370469 
2712.000000	99.370746 
2711.000000	99.371205 
2710.000000	99.371843 
2709.000000	99.372644 
2708.000000	99.373562 
2707.000000	99.374484 
2706.000000	99.375294 
2705.000000	99.375949 
2704.000000	99.376429 
2703.000000	99.376718 
2702.000000	99.376919 
2701.000000	99.377286 
2700.000000	99.377962 
2699.000000	99.378733 
2698.000000	99.379221 
2697.000000	99.379311 
2696.000000	99.379191 
2695.000000	99.378986 
2694.000000	99.378620 
2693.000000	99.378143 
2692.000000	99.377963 
2691.000000	99.378468 
2690.000000	99.379544 
2689.000000	99.380643 
2688.000000	99.381355 
2687.000000	99.381710 
2686.000000	99.381872 
2685.000000	99.381792 
2684.000000	99.381289 
2683.000000	99.380366 
2682.000000	99.379244 
2681.000000	99.378176 
2680.000000	99.377451 
2679.000000	99.377377 
2678.000000	99.378091 
2677.000000	99.379279 
2676.000000	99.380211 
2675.000000	99.380318 
2674.000000	99.379626 
2673.000000	99.378640 
2672.000000	99.377836 
2671.000000	99.377354 
2670.000000	99.377108 
2669.000000	99.376954 
2668.000000	99.376691 
2667.000000	99.376074 
2666.000000	99.374978 
2665.000000	99.373547 
2664.000000	99.372153 
2663.000000	99.371155 
2662.000000	99.370677 
2661.000000	99.370535 
2660.000000	99.370367 
2659.000000	99.369940 
2658.000000	99.369381 
2657.000000	99.369016 
2656.000000	99.368991 
2655.000000	99.369149 
2654.000000	99.369272 
2653.000000	99.369283 
2652.000000	99.369133 
2651.000000	99.368700 
2650.000000	99.367985 
2649.000000	99.367236 
2648.000000	99.366676 
2647.000000	99.366211 
2646.000000	99.365680 
2645.000000	99.365284 
2644.000000	99.365413 
2643.000000	99.365980 
2642.000000	99.366220 
2641.000000	99.365366 
2640.000000	99.363417 
2639.000000	99.361274 
2638.000000	99.360080 
2637.000000	99.360340 
2636.000000	99.361596 
2635.000000	99.362741 
2634.000000	99.363045 
2633.000000	99.362868 
2632.000000	99.363131 
2631.000000	99.364220 
2630.000000	99.365699 
2629.000000	99.367029 
2628.000000	99.368144 
2627.000000	99.369079 
2626.000000	99.369498 
2625.000000	99.369073 
2624.000000	99.368074 
2623.000000	99.367185 
2622.000000	99.366783 
2621.000000	99.366818 
2620.000000	99.367217 
2619.000000	99.367934 
2618.000000	99.368699 
2617.000000	99.369179 
2616.000000	99.369472 
2615.000000	99.370008 
2614.000000	99.370867 
2613.000000	99.371577 
2612.000000	99.371740 
2611.000000	99.371536 
2610.000000	99.371447 
2609.000000	99.371690 
2608.000000	99.372109 
2607.000000	99.372470 
2606.000000	99.372669 
2605.000000	99.372755 
2604.000000	99.372892 
2603.000000	99.373277 
2602.000000	99.373992 
2601.000000	99.374928 
2600.000000	99.375871 
2599.000000	99.376655 
2598.000000	99.377246 
2597.000000	99.377752 
2596.000000	99.378333 
2595.000000	99.379050 
2594.000000	99.379821 
2593.000000	99.380532 
2592.000000	99.381144 
2591.000000	99.381692 
2590.000000	99.382221 
2589.000000	99.382744 
2588.000000	99.383266 
2587.000000	99.383812 
2586.000000	99.384402 
2585.000000	99.385030 
2584.000000	99.385676 
2583.000000	99.386330 
2582.000000	99.386999 
2581.000000	99.387682 
2580.000000	99.388371 
2579.000000	99.389039 
2578.000000	99.389660 
2577.000000	99.390225 
2576.000000	99.390760 
2575.000000	99.391315 
2574.000000	99.391923 
2573.000000	99.392576 
2572.000000	99.393225 
2571.000000	99.393822 
2570.000000	99.394356 
2569.000000	99.394848 
2568.000000	99.395322 
2567.000000	99.395786 
2566.000000	99.396243 
2565.000000	99.396713 
2564.000000	99.397231 
2563.000000	99.397827 
2562.000000	99.398491 
2561.000000	99.399193 
2560.000000	99.399991 
2559.000000	99.400983 
2558.000000	99.402076 
2557.000000	99.402957 
2556.000000	99.403414 
2555.000000	99.403572 
2554.000000	99.403675 
2553.000000	99.403796 
2552.000000	99.404017 
2551.000000	99.404668 
2550.000000	99.406003 
2549.000000	99.407668 
2548.000000	99.408868 
2547.000000	99.409190 
2546.000000	99.408985 
2545.000000	99.408852 
2544.000000	99.408948 
2543.000000	99.408957 
2542.000000	99.408531 
2541.000000	99.407573 
2540.000000	99.406259 
2539.000000	99.405022 
2538.000000	99.404432 
2537.000000	99.404877 
2536.000000	99.406264 
2535.000000	99.408052 
2534.000000	99.409557 
2533.000000	99.410247 
2532.000000	99.409866 
2531.000000	99.408577 
2530.000000	99.407147 
2529.000000	99.406753 
2528.000000	99.408214 
2527.000000	99.411198 
2526.000000	99.414334 
2525.000000	99.416497 
2524.000000	99.417962 
2523.000000	99.419908 
2522.000000	99.422649 
2521.000000	99.424756 
2520.000000	99.424454 
2519.000000	99.421562 
2518.000000	99.417799 
2517.000000	99.415288 
2516.000000	99.414833 
2515.000000	99.415707 
2514.000000	99.416537 
2513.000000	99.416233 
2512.000000	99.414475 
2511.000000	99.411774 
2510.000000	99.409185 
2509.000000	99.407646 
2508.000000	99.407388 
2507.000000	99.407857 
2506.000000	99.408236 
2505.000000	99.408080 
2504.000000	99.407537 
2503.000000	99.407111 
2502.000000	99.407283 
2501.000000	99.408289 
2500.000000	99.410090 
2499.000000	99.412406 
2498.000000	99.414707 
2497.000000	99.416363 
2496.000000	99.416942 
2495.000000	99.416471 
2494.000000	99.415393 
2493.000000	99.414260 
2492.000000	99.413436 
2491.000000	99.413062 
2490.000000	99.413129 
2489.000000	99.413543 
2488.000000	99.414206 
2487.000000	99.415098 
2486.000000	99.416193 
2485.000000	99.417247 
2484.000000	99.417854 
2483.000000	99.417859 
2482.000000	99.417642 
2481.000000	99.417807 
2480.000000	99.418539 
2479.000000	99.419409 
2478.000000	99.419794 
2477.000000	99.419378 
2476.000000	99.418311 
2475.000000	99.417064 
2474.000000	99.416150 
2473.000000	99.415775 
2472.000000	99.415659 
2471.000000	99.415437 
2470.000000	99.415303 
2469.000000	99.415934 
2468.000000	99.417598 
2467.000000	99.419575 
2466.000000	99.420769 
2465.000000	99.420879 
2464.000000	99.420500 
2463.000000	99.420219 
2462.000000	99.420006 
2461.000000	99.419704 
2460.000000	99.419618 
2459.000000	99.420170 
2458.000000	99.421179 
2457.000000	99.421904 
2456.000000	99.421779 
2455.000000	99.420830 
2454.000000	99.419571 
2453.000000	99.418803 
2452.000000	99.419309 
2451.000000	99.421194 
2450.000000	99.423387 
2449.000000	99.424450 
2448.000000	99.424092 
2447.000000	99.423338 
2446.000000	99.423030 
2445.000000	99.422688 
2444.000000	99.421374 
2443.000000	99.419102 
2442.000000	99.416805 
2441.000000	99.415245 
2440.000000	99.414470 
2439.000000	99.414167 
2438.000000	99.413991 
2437.000000	99.413680 
2436.000000	99.413375 
2435.000000	99.413786 
2434.000000	99.415509 
2433.000000	99.418072 
2432.000000	99.420174 
2431.000000	99.421050 
2430.000000	99.421145 
2429.000000	99.421360 
2428.000000	99.421991 
2427.000000	99.422698 
2426.000000	99.423239 
2425.000000	99.423827 
2424.000000	99.424772 
2423.000000	99.426055 
2422.000000	99.427403 
2421.000000	99.428652 
2420.000000	99.429923 
2419.000000	99.431465 
2418.000000	99.433326 
2417.000000	99.435091 
2416.000000	99.436008 
2415.000000	99.435593 
2414.000000	99.434149 
2413.000000	99.432593 
2412.000000	99.431660 
2411.000000	99.431370 
2410.000000	99.431316 
2409.000000	99.431178 
2408.000000	99.430849 
2407.000000	99.430389 
2406.000000	99.430122 
2405.000000	99.430524 
2404.000000	99.431644 
2403.000000	99.432779 
2402.000000	99.433085 
2401.000000	99.432518 
2400.000000	99.431883 
2399.000000	99.431984 
2398.000000	99.432971 
2397.000000	99.434502 
2396.000000	99.436071 
2395.000000	99.437095 
2394.000000	99.437076 
2393.000000	99.436032 
2392.000000	99.434780 
2391.000000	99.434361 
2390.000000	99.435021 
2389.000000	99.435982 
2388.000000	99.436261 
2387.000000	99.435545 
2386.000000	99.434178 
2385.000000	99.432697 
2384.000000	99.431616 
2383.000000	99.431371 
2382.000000	99.432145 
2381.000000	99.433690 
2380.000000	99.435451 
2379.000000	99.436931 
2378.000000	99.437962 
2377.000000	99.438668 
2376.000000	99.439202 
2375.000000	99.439556 
2374.000000	99.439761 
2373.000000	99.439995 
2372.000000	99.440258 
2371.000000	99.440037 
2370.000000	99.438838 
2369.000000	99.436989 
2368.000000	99.435342 
2367.000000	99.434256 
2366.000000	99.433598 
2365.000000	99.433369 
2364.000000	99.433481 
2363.000000	99.432965 
2362.000000	99.430963 
2361.000000	99.428433 
2360.000000	99.426875 
2359.000000	99.426418 
2358.000000	99.426310 
2357.000000	99.426527 
2356.000000	99.427835 
2355.000000	99.429319 
2354.000000	99.430372 
2353.000000	99.430376 
2352.000000	99.428897 
2351.000000	99.425962 
2350.000000	99.421629 
2349.000000	99.416925 
2348.000000	99.412952 
2347.000000	99.411370 
2346.000000	99.412219 
2345.000000	99.412365 
2344.000000	99.409999 
2343.000000	99.405659 
2342.000000	99.402561 
2341.000000	99.401531 
2340.000000	99.401295 
2339.000000	99.400726 
2338.000000	99.400078 
2337.000000	99.400267 
2336.000000	99.399886 
2335.000000	99.397569 
2334.000000	99.393337 
2333.000000	99.389616 
2332.000000	99.387069 
2331.000000	99.386640 
2330.000000	99.387130 
2329.000000	99.388236 
2328.000000	99.386448 
2327.000000	99.380449 
2326.000000	99.370648 
2325.000000	99.360126 
2324.000000	99.352146 
2323.000000	99.348368 
2322.000000	99.348846 
2321.000000	99.351812 
2320.000000	99.354985 
2319.000000	99.357650 
2318.000000	99.359529 
2317.000000	99.361731 
2316.000000	99.364449 
2315.000000	99.368865 
2314.000000	99.373639 
2313.000000	99.377205 
2312.000000	99.377195 
2311.000000	99.374665 
2310.000000	99.371258 
2309.000000	99.368862 
2308.000000	99.367298 
2307.000000	99.367065 
2306.000000	99.368286 
2305.000000	99.370613 
2304.000000	99.372057 
2303.000000	99.371714 
2302.000000	99.369936 
2301.000000	99.368259 
2300.000000	99.367164 
2299.000000	99.367157 
2298.000000	99.368406 
2297.000000	99.370995 
2296.000000	99.373370 
2295.000000	99.373975 
2294.000000	99.372539 
2293.000000	99.370721 
2292.000000	99.370011 
2291.000000	99.370403 
2290.000000	99.370765 
2289.000000	99.370298 
2288.000000	99.369225 
2287.000000	99.368457 
2286.000000	99.369034 
2285.000000	99.371342 
2284.000000	99.374718 
2283.000000	99.377686 
2282.000000	99.379304 
2281.000000	99.379797 
2280.000000	99.379967 
2279.000000	99.380306 
2278.000000	99.380898 
2277.000000	99.381786 
2276.000000	99.383018 
2275.000000	99.384422 
2274.000000	99.385661 
2273.000000	99.386683 
2272.000000	99.387802 
2271.000000	99.389190 
2270.000000	99.390529 
2269.000000	99.391463 
2268.000000	99.392181 
2267.000000	99.393177 
2266.000000	99.394534 
2265.000000	99.395821 
2264.000000	99.396758 
2263.000000	99.397639 
2262.000000	99.398886 
2261.000000	99.400388 
2260.000000	99.401616 
2259.000000	99.402310 
2258.000000	99.402842 
2257.000000	99.403790 
2256.000000	99.405323 
2255.000000	99.407008 
2254.000000	99.408205 
2253.000000	99.408718 
2252.000000	99.408922 
2251.000000	99.409387 
2250.000000	99.410240 
2249.000000	99.411137 
2248.000000	99.411731 
2247.000000	99.412020 
2246.000000	99.412242 
2245.000000	99.412621 
2244.000000	99.413194 
2243.000000	99.413874 
2242.000000	99.414565 
2241.000000	99.415233 
2240.000000	99.415900 
2239.000000	99.416568 
2238.000000	99.417208 
2237.000000	99.417791 
2236.000000	99.418323 
2235.000000	99.418829 
2234.000000	99.419329 
2233.000000	99.419826 
2232.000000	99.420312 
2231.000000	99.420778 
2230.000000	99.421221 
2229.000000	99.421650 
2228.000000	99.422077 
2227.000000	99.422511 
2226.000000	99.422950 
2225.000000	99.423387 
2224.000000	99.423822 
2223.000000	99.424251 
2222.000000	99.424675 
2221.000000	99.425100 
2220.000000	99.425537 
2219.000000	99.425991 
2218.000000	99.426461 
2217.000000	99.426937 
2216.000000	99.427418 
2215.000000	99.427911 
2214.000000	99.428431 
2213.000000	99.428987 
2212.000000	99.429580 
2211.000000	99.430205 
2210.000000	99.430849 
2209.000000	99.431466 
2208.000000	99.431996 
2207.000000	99.432439 
2206.000000	99.432836 
2205.000000	99.433208 
2204.000000	99.433638 
2203.000000	99.434312 
2202.000000	99.435332 
2201.000000	99.436630 
2200.000000	99.438158 
2199.000000	99.439910 
2198.000000	99.441535 
2197.000000	99.442236 
2196.000000	99.441437 
2195.000000	99.439867 
2194.000000	99.439300 
2193.000000	99.440619 
2192.000000	99.442733 
2191.000000	99.444008 
2190.000000	99.444136 
2189.000000	99.443962 
2188.000000	99.444702 
2187.000000	99.447708 
2186.000000	99.453534 
2185.000000	99.460658 
2184.000000	99.466365 
2183.000000	99.469468 
2182.000000	99.470816 
2181.000000	99.470952 
2180.000000	99.469227 
2179.000000	99.466244 
2178.000000	99.465020 
2177.000000	99.467816 
2176.000000	99.472961 
2175.000000	99.476683 
2174.000000	99.477401 
2173.000000	99.476211 
2172.000000	99.473821 
2171.000000	99.469663 
2170.000000	99.464486 
2169.000000	99.461448 
2168.000000	99.463165 
2167.000000	99.468932 
2166.000000	99.475842 
2165.000000	99.481579 
2164.000000	99.485268 
2163.000000	99.487222 
2162.000000	99.489829 
2161.000000	99.497308 
2160.000000	99.511509 
2159.000000	99.528070 
2158.000000	99.540156 
2157.000000	99.546409 
2156.000000	99.551251 
2155.000000	99.557517 
2154.000000	99.563020 
2153.000000	99.564651 
2152.000000	99.561388 
2151.000000	99.552620 
2150.000000	99.538378 
2149.000000	99.523212 
2148.000000	99.515520 
2147.000000	99.519070 
2146.000000	99.527985 
2145.000000	99.533473 
2144.000000	99.533858 
2143.000000	99.533595 
2142.000000	99.534202 
2141.000000	99.531812 
2140.000000	99.524141 
2139.000000	99.514580 
2138.000000	99.507593 
2137.000000	99.503780 
2136.000000	99.501579 
2135.000000	99.500730 
2134.000000	99.501361 
2133.000000	99.501825 
2132.000000	99.500311 
2131.000000	99.497410 
2130.000000	99.494861 
2129.000000	99.492575 
2128.000000	99.488943 
2127.000000	99.483871 
2126.000000	99.479795 
2125.000000	99.479061 
2124.000000	99.481105 
2123.000000	99.482753 
2122.000000	99.481126 
2121.000000	99.476204 
2120.000000	99.470540 
2119.000000	99.466433 
2118.000000	99.463729 
2117.000000	99.460748 
2116.000000	99.456939 
2115.000000	99.453624 
2114.000000	99.451963 
2113.000000	99.451361 
2112.000000	99.450421 
2111.000000	99.448662 
2110.000000	99.446802 
2109.000000	99.445741 
2108.000000	99.445789 
2107.000000	99.446598 
2106.000000	99.447324 
2105.000000	99.447022 
2104.000000	99.445434 
2103.000000	99.443334 
2102.000000	99.441812 
2101.000000	99.441265 
2100.000000	99.441215 
2099.000000	99.440926 
2098.000000	99.440029 
2097.000000	99.438678 
2096.000000	99.437407 
2095.000000	99.436813 
2094.000000	99.437085 
2093.000000	99.437676 
2092.000000	99.437644 
2091.000000	99.436530 
2090.000000	99.434767 
2089.000000	99.433256 
2088.000000	99.432397 
2087.000000	99.431865 
2086.000000	99.431248 
2085.000000	99.430649 
2084.000000	99.430558 
2083.000000	99.431291 
2082.000000	99.432686 
2081.000000	99.434129 
2080.000000	99.434885 
2079.000000	99.434554 
2078.000000	99.433319 
2077.000000	99.431867 
2076.000000	99.430808 
2075.000000	99.430214 
2074.000000	99.429929 
2073.000000	99.430081 
2072.000000	99.430978 
2071.000000	99.432519 
2070.000000	99.434048 
2069.000000	99.434968 
2068.000000	99.435334 
2067.000000	99.435660 
2066.000000	99.436288 
2065.000000	99.437063 
2064.000000	99.437620 
2063.000000	99.437810 
2062.000000	99.437774 
2061.000000	99.437752 
2060.000000	99.437869 
2059.000000	99.438052 
2058.000000	99.438170 
2057.000000	99.438346 
2056.000000	99.439010 
2055.000000	99.440467 
2054.000000	99.442489 
2053.000000	99.444415 
2052.000000	99.445692 
2051.000000	99.446184 
2050.000000	99.446094 
2049.000000	99.445921 
2048.000000	99.446382 
2047.000000	99.447999 
2046.000000	99.450632 
2045.000000	99.453402 
2044.000000	99.455328 
2043.000000	99.456099 
2042.000000	99.456148 
2041.000000	99.456144 
2040.000000	99.456343 
2039.000000	99.456417 
2038.000000	99.455912 
2037.000000	99.454978 
2036.000000	99.454597 
2035.000000	99.455744 
2034.000000	99.458372 
2033.000000	99.461334 
2032.000000	99.463483 
2031.000000	99.464687 
2030.000000	99.465454 
2029.000000	99.465924 
2028.000000	99.465595 
2027.000000	99.464189 
2026.000000	99.462621 
2025.000000	99.462670 
2024.000000	99.465465 
2023.000000	99.470426 
2022.000000	99.475463 
2021.000000	99.478669 
2020.000000	99.479611 
2019.000000	99.479028 
2018.000000	99.477840 
2017.000000	99.476685 
2016.000000	99.475814 
2015.000000	99.474771 
2014.000000	99.472590 
2013.000000	99.468950 
2012.000000	99.464991 
2011.000000	99.462446 
2010.000000	99.462134 
2009.000000	99.463781 
2008.000000	99.466730 
2007.000000	99.470041 
2006.000000	99.472144 
2005.000000	99.471657 
2004.000000	99.468965 
2003.000000	99.466221 
2002.000000	99.465381 
2001.000000	99.466734 
2000.000000	99.469368 
1999.000000	99.472302 
1998.000000	99.474884 
1997.000000	99.476547 
1996.000000	99.476937 
1995.000000	99.476266 
1994.000000	99.475245 
1993.000000	99.474536 
1992.000000	99.474135 
1991.000000	99.473196 
1990.000000	99.470877 
1989.000000	99.467771 
1988.000000	99.466001 
1987.000000	99.467120 
1986.000000	99.470174 
1985.000000	99.472527 
1984.000000	99.472675 
1983.000000	99.471313 
1982.000000	99.469774 
1981.000000	99.468782 
1980.000000	99.468981 
1979.000000	99.471145 
1978.000000	99.474993 
1977.000000	99.479027 
1976.000000	99.482641 
1975.000000	99.486948 
1974.000000	99.492510 
1973.000000	99.497596 
1972.000000	99.499786 
1971.000000	99.498358 
1970.000000	99.494436 
1969.000000	99.489812 
1968.000000	99.486040 
1967.000000	99.483596 
1966.000000	99.481511 
1965.000000	99.479170 
1964.000000	99.478696 
1963.000000	99.483623 
1962.000000	99.494277 
1961.000000	99.505755 
1960.000000	99.512410 
1959.000000	99.513191 
1958.000000	99.511029 
1957.000000	99.508556 
1956.000000	99.505964 
1955.000000	99.502557 
1954.000000	99.498543 
1953.000000	99.495115 
1952.000000	99.493429 
1951.000000	99.493386 
1950.000000	99.492889 
1949.000000	99.489143 
1948.000000	99.481579 
1947.000000	99.472929 
1946.000000	99.466555 
1945.000000	99.463131 
1944.000000	99.460910 
1943.000000	99.458576 
1942.000000	99.456646 
1941.000000	99.456113 
1940.000000	99.457216 
1939.000000	99.459924 
1938.000000	99.464203 
1937.000000	99.469257 
1936.000000	99.473248 
1935.000000	99.474370 
1934.000000	99.472102 
1933.000000	99.467517 
1932.000000	99.462642 
1931.000000	99.459202 
1930.000000	99.457401 
1929.000000	99.455967 
1928.000000	99.453619 
1927.000000	99.450391 
1926.000000	99.447279 
1925.000000	99.444639 
1924.000000	99.441729 
1923.000000	99.437897 
1922.000000	99.433652 
1921.000000	99.430125 
1920.000000	99.427951 
1919.000000	99.427129 
1918.000000	99.427468 
1917.000000	99.428332 
1916.000000	99.428353 
1915.000000	99.426267 
1914.000000	99.421937 
1913.000000	99.416629 
1912.000000	99.412281 
1911.000000	99.409861 
1910.000000	99.408771 
1909.000000	99.407671 
1908.000000	99.405867 
1907.000000	99.403676 
1906.000000	99.401613 
1905.000000	99.399646 
1904.000000	99.397477 
1903.000000	99.395118 
1902.000000	99.392899 
1901.000000	99.391041 
1900.000000	99.389455 
1899.000000	99.387927 
1898.000000	99.386428 
1897.000000	99.385126 
1896.000000	99.384180 
1895.000000	99.383468 
1894.000000	99.382542 
1893.000000	99.380986 
1892.000000	99.378861 
1891.000000	99.376693 
1890.000000	99.374907 
1889.000000	99.373262 
1888.000000	99.371122 
1887.000000	99.368438 
1886.000000	99.366047 
1885.000000	99.364837 
1884.000000	99.364870 
1883.000000	99.365499 
1882.000000	99.366142 
1881.000000	99.366640 
1880.000000	99.366975 
1879.000000	99.367053 
1878.000000	99.366816 
1877.000000	99.366124 
1876.000000	99.364589 
1875.000000	99.362053 
1874.000000	99.359295 
1873.000000	99.357591 
1872.000000	99.357265 
1871.000000	99.357178 
1870.000000	99.356297 
1869.000000	99.355515 
1868.000000	99.356589 
1867.000000	99.359417 
1866.000000	99.362051 
1865.000000	99.362852 
1864.000000	99.361544 
1863.000000	99.358656 
1862.000000	99.354983 
1861.000000	99.351739 
1860.000000	99.350423 
1859.000000	99.351886 
1858.000000	99.355722 
1857.000000	99.360590 
1856.000000	99.365012 
1855.000000	99.367935 
1854.000000	99.368969 
1853.000000	99.368683 
1852.000000	99.368476 
1851.000000	99.369224 
1850.000000	99.370430 
1849.000000	99.370894 
1848.000000	99.370116 
1847.000000	99.368643 
1846.000000	99.367383 
1845.000000	99.367068 
1844.000000	99.367879 
1843.000000	99.369077 
1842.000000	99.369599 
1841.000000	99.369142 
1840.000000	99.368156 
1839.000000	99.367059 
1838.000000	99.365886 
1837.000000	99.364692 
1836.000000	99.364006 
1835.000000	99.364218 
1834.000000	99.364832 
1833.000000	99.365047 
1832.000000	99.364895 
1831.000000	99.365183 
1830.000000	99.366321 
1829.000000	99.367324 
1828.000000	99.366779 
1827.000000	99.364364 
1826.000000	99.360985 
1825.000000	99.358118 
1824.000000	99.356628 
1823.000000	99.356002 
1822.000000	99.355250 
1821.000000	99.354440 
1820.000000	99.354848 
1819.000000	99.357330 
1818.000000	99.360898 
1817.000000	99.363426 
1816.000000	99.364087 
1815.000000	99.363944 
1814.000000	99.363992 
1813.000000	99.363924 
1812.000000	99.362969 
1811.000000	99.361246 
1810.000000	99.359293 
1809.000000	99.357181 
1808.000000	99.355225 
1807.000000	99.354633 
1806.000000	99.356266 
1805.000000	99.358990 
1804.000000	99.360348 
1803.000000	99.359186 
1802.000000	99.356983 
1801.000000	99.356466 
1800.000000	99.358210 
1799.000000	99.360095 
1798.000000	99.360139 
1797.000000	99.359020 
1796.000000	99.359232 
1795.000000	99.362224 
1794.000000	99.366623 
1793.000000	99.369383 
1792.000000	99.368775 
1791.000000	99.366101 
1790.000000	99.363437 
1789.000000	99.361673 
1788.000000	99.360957 
1787.000000	99.361479 
1786.000000	99.363253 
1785.000000	99.365663 
1784.000000	99.367939 
1783.000000	99.370063 
1782.000000	99.372641 
1781.000000	99.376564 
1780.000000	99.381507 
1779.000000	99.386417 
1778.000000	99.390838 
1777.000000	99.395477 
1776.000000	99.400995 
1775.000000	99.406539 
1774.000000	99.410419 
1773.000000	99.412164 
1772.000000	99.413053 
1771.000000	99.413550 
1770.000000	99.413012 
1769.000000	99.412935 
1768.000000	99.417581 
1767.000000	99.429407 
1766.000000	99.445220 
1765.000000	99.459693 
1764.000000	99.470403 
1763.000000	99.478636 
1762.000000	99.486732 
1761.000000	99.495596 
1760.000000	99.504509 
1759.000000	99.513335 
1758.000000	99.522007 
1757.000000	99.530257 
1756.000000	99.538115 
1755.000000	99.545813 
1754.000000	99.552961 
1753.000000	99.557885 
1752.000000	99.558864 
1751.000000	99.556427 
1750.000000	99.553378 
1749.000000	99.551240 
1748.000000	99.549934 
1747.000000	99.549041 
1746.000000	99.548206 
1745.000000	99.546984 
1744.000000	99.544593 
1743.000000	99.540365 
1742.000000	99.533405 
1741.000000	99.523120 
1740.000000	99.511133 
1739.000000	99.501187 
1738.000000	99.494073 
1737.000000	99.486159 
1736.000000	99.473165 
1735.000000	99.454699 
1734.000000	99.437184 
1733.000000	99.426354 
1732.000000	99.419212 
1731.000000	99.411721 
1730.000000	99.403199 
1729.000000	99.394626 
1728.000000	99.387206 
1727.000000	99.381787 
1726.000000	99.378642 
1725.000000	99.376807 
1724.000000	99.374034 
1723.000000	99.369151 
1722.000000	99.362693 
1721.000000	99.355664 
1720.000000	99.348445 
1719.000000	99.341027 
1718.000000	99.333662 
1717.000000	99.326326 
1716.000000	99.318821 
1715.000000	99.312344 
1714.000000	99.308179 
1713.000000	99.305435 
1712.000000	99.302506 
1711.000000	99.299517 
1710.000000	99.297670 
1709.000000	99.296917 
1708.000000	99.295294 
1707.000000	99.291067 
1706.000000	99.285306 
1705.000000	99.280380 
1704.000000	99.276297 
1703.000000	99.270702 
1702.000000	99.261861 
1701.000000	99.250844 
1700.000000	99.241930 
1699.000000	99.236289 
1698.000000	99.230576 
1697.000000	99.222702 
1696.000000	99.213254 
1695.000000	99.203969 
1694.000000	99.195439 
1693.000000	99.187343 
1692.000000	99.179395 
1691.000000	99.171737 
1690.000000	99.164768 
1689.000000	99.159083 
1688.000000	99.155031 
1687.000000	99.151747 
1686.000000	99.147136 
1685.000000	99.138917 
1684.000000	99.128940 
1683.000000	99.121309 
1682.000000	99.115039 
1681.000000	99.107799 
1680.000000	99.099975 
1679.000000	99.093481 
1678.000000	99.088590 
1677.000000	99.082984 
1676.000000	99.074630 
1675.000000	99.065256 
1674.000000	99.057917 
1673.000000	99.052196 
1672.000000	99.044904 
1671.000000	99.034114 
1670.000000	99.021313 
1669.000000	99.010724 
1668.000000	99.004598 
1667.000000	99.001358 
1666.000000	98.997841 
1665.000000	98.991288 
1664.000000	98.981172 
1663.000000	98.970583 
1662.000000	98.962620 
1661.000000	98.956152 
1660.000000	98.948463 
1659.000000	98.940207 
1658.000000	98.934654 
1657.000000	98.933352 
1656.000000	98.933825 
1655.000000	98.931905 
1654.000000	98.926508 
1653.000000	98.922834 
1652.000000	98.921299 
1651.000000	98.916685 
1650.000000	98.908239 
1649.000000	98.895671 
1648.000000	98.879826 
1647.000000	98.865270 
1646.000000	98.857188 
1645.000000	98.854885 
1644.000000	98.855091 
1643.000000	98.855770 
1642.000000	98.855599 
1641.000000	98.854756 
1640.000000	98.854451 
1639.000000	98.855071 
1638.000000	98.855423 
1637.000000	98.854265 
1636.000000	98.853593 
1635.000000	98.856133 
1634.000000	98.859972 
1633.000000	98.862191 
1632.000000	98.863594 
1631.000000	98.866642 
1630.000000	98.872598 
1629.000000	98.880567 
1628.000000	98.888956 
1627.000000	98.897032 
1626.000000	98.904437 
1625.000000	98.910972 
1624.000000	98.917204 
1623.000000	98.925052 
1622.000000	98.935416 
1621.000000	98.947145 
1620.000000	98.958991 
1619.000000	98.970423 
1618.000000	98.981343 
1617.000000	98.992499 
1616.000000	99.005687 
1615.000000	99.021266 
1614.000000	99.037213 
1613.000000	99.050735 
1612.000000	99.060310 
1611.000000	99.066822 
1610.000000	99.072919 
1609.000000	99.080954 
1608.000000	99.091142 
1607.000000	99.101609 
1606.000000	99.109804 
1605.000000	99.115211 
1604.000000	99.120057 
1603.000000	99.127453 
1602.000000	99.138248 
1601.000000	99.150010 
1600.000000	99.159860 
1599.000000	99.167126 
1598.000000	99.173000 
1597.000000	99.178734 
1596.000000	99.184908 
1595.000000	99.191691 
1594.000000	99.198694 
1593.000000	99.205182 
1592.000000	99.211078 
1591.000000	99.217144 
1590.000000	99.223460 
1589.000000	99.228835 
1588.000000	99.232637 
1587.000000	99.236246 
1586.000000	99.241135 
1585.000000	99.246441 
1584.000000	99.250320 
1583.000000	99.252550 
1582.000000	99.255190 
1581.000000	99.259789 
1580.000000	99.265514 
1579.000000	99.270378 
1578.000000	99.273551 
1577.000000	99.275683 
1576.000000	99.278082 
1575.000000	99.281258 
1574.000000	99.284605 
1573.000000	99.287673 
1572.000000	99.290216 
1571.000000	99.292474 
1570.000000	99.295385 
1569.000000	99.299369 
1568.000000	99.303209 
1567.000000	99.305849 
1566.000000	99.308030 
1565.000000	99.311027 
1564.000000	99.315278 
1563.000000	99.319679 
1562.000000	99.322978 
1561.000000	99.324458 
1560.000000	99.324220 
1559.000000	99.325874 
1558.000000	99.331524 
1557.000000	99.335623 
1556.000000	99.337441 
1555.000000	99.339424 
1554.000000	99.342612 
1553.000000	99.346166 
1552.000000	99.348755 
1551.000000	99.350455 
1550.000000	99.352881 
1549.000000	99.357244 
1548.000000	99.363111 
1547.000000	99.368913 
1546.000000	99.373274 
1545.000000	99.375814 
1544.000000	99.377421 
1543.000000	99.379377 
1542.000000	99.382030 
1541.000000	99.384491 
1540.000000	99.386152 
1539.000000	99.387287 
1538.000000	99.388266 
1537.000000	99.389416 
1536.000000	99.390737 
1535.000000	99.392192 
1534.000000	99.394067 
1533.000000	99.396555 
1532.000000	99.398896 
1531.000000	99.400497 
1530.000000	99.401744 
1529.000000	99.403179 
1528.000000	99.405009 
1527.000000	99.407282 
1526.000000	99.409949 
1525.000000	99.412725 
1524.000000	99.415133 
1523.000000	99.417048 
1522.000000	99.419048 
1521.000000	99.421673 
1520.000000	99.424200 
1519.000000	99.425795 
1518.000000	99.426822 
1517.000000	99.428210 
1516.000000	99.430217 
1515.000000	99.431966 
1514.000000	99.432654 
1513.000000	99.432308 
1512.000000	99.431401 
1511.000000	99.430597 
1510.000000	99.430354 
1509.000000	99.430964 
1508.000000	99.432971 
1507.000000	99.437456 
1506.000000	99.443392 
1505.000000	99.447240 
1504.000000	99.448604 
1503.000000	99.448950 
1502.000000	99.449198 
1501.000000	99.449658 
1500.000000	99.450302 
1499.000000	99.450961 
1498.000000	99.451621 
1497.000000	99.452389 
1496.000000	99.453240 
1495.000000	99.454073 
1494.000000	99.454781 
1493.000000	99.455185 
1492.000000	99.455089 
1491.000000	99.454964 
1490.000000	99.455927 
1489.000000	99.458085 
1488.000000	99.459773 
1487.000000	99.460025 
1486.000000	99.459568 
1485.000000	99.459172 
1484.000000	99.458560 
1483.000000	99.456911 
1482.000000	99.454542 
1481.000000	99.452806 
1480.000000	99.452379 
1479.000000	99.452319 
1478.000000	99.451352 
1477.000000	99.449194 
1476.000000	99.446602 
1475.000000	99.444454 
1474.000000	99.443245 
1473.000000	99.443783 
1472.000000	99.446290 
1471.000000	99.449336 
1470.000000	99.451636 
1469.000000	99.453097 
1468.000000	99.453510 
1467.000000	99.452146 
1466.000000	99.448747 
1465.000000	99.445035 
1464.000000	99.443312 
1463.000000	99.443530 
1462.000000	99.444007 
1461.000000	99.443360 
1460.000000	99.440970 
1459.000000	99.436683 
1458.000000	99.431478 
1457.000000	99.427702 
1456.000000	99.425945 
1455.000000	99.424137 
1454.000000	99.421462 
1453.000000	99.418371 
1452.000000	99.415174 
1451.000000	99.411802 
1450.000000	99.408293 
1449.000000	99.405264 
1448.000000	99.403205 
1447.000000	99.401354 
1446.000000	99.398167 
1445.000000	99.393718 
1444.000000	99.389168 
1443.000000	99.385237 
1442.000000	99.381859 
1441.000000	99.379025 
1440.000000	99.377069 
1439.000000	99.375841 
1438.000000	99.374695 
1437.000000	99.373260 
1436.000000	99.371818 
1435.000000	99.369885 
1434.000000	99.367259 
1433.000000	99.365035 
1432.000000	99.364434 
1431.000000	99.365336 
1430.000000	99.366372 
1429.000000	99.366296 
1428.000000	99.364610 
1427.000000	99.361039 
1426.000000	99.355689 
1425.000000	99.350600 
1424.000000	99.348667 
1423.000000	99.349850 
1422.000000	99.350466 
1421.000000	99.347494 
1420.000000	99.341715 
1419.000000	99.336695 
1418.000000	99.334128 
1417.000000	99.332369 
1416.000000	99.330633 
1415.000000	99.329391 
1414.000000	99.328239 
1413.000000	99.326235 
1412.000000	99.323550 
1411.000000	99.321139 
1410.000000	99.319064 
1409.000000	99.316783 
1408.000000	99.314963 
1407.000000	99.315347 
1406.000000	99.318667 
1405.000000	99.324437 
1404.000000	99.332008 
1403.000000	99.340740 
1402.000000	99.349660 
1401.000000	99.357966 
1400.000000	99.365459 
1399.000000	99.371504 
1398.000000	99.373899 
1397.000000	99.370641 
1396.000000	99.363481 
1395.000000	99.358814 
1394.000000	99.362872 
1393.000000	99.375798 
1392.000000	99.392568 
1391.000000	99.408057 
1390.000000	99.419792 
1389.000000	99.427918 
1388.000000	99.433838 
1387.000000	99.438497 
1386.000000	99.441718 
1385.000000	99.443697 
1384.000000	99.445856 
1383.000000	99.449298 
1382.000000	99.453355 
1381.000000	99.456544 
1380.000000	99.458762 
1379.000000	99.461246 
1378.000000	99.464612 
1377.000000	99.468312 
1376.000000	99.472319 
1375.000000	99.477816 
1374.000000	99.485241 
1373.000000	99.492763 
1372.000000	99.498407 
1371.000000	99.502519 
1370.000000	99.506550 
1369.000000	99.511002 
1368.000000	99.515416 
1367.000000	99.519685 
1366.000000	99.524189 
1365.000000	99.528800 
1364.000000	99.532682 
1363.000000	99.535138 
1362.000000	99.535903 
1361.000000	99.534679 
1360.000000	99.531677 
1359.000000	99.528481 
1358.000000	99.527230 
1357.000000	99.528799 
1356.000000	99.532226 
1355.000000	99.535976 
1354.000000	99.539218 
1353.000000	99.541865 
1352.000000	99.544149 
1351.000000	99.546611 
1350.000000	99.549550 
1349.000000	99.552221 
1348.000000	99.553321 
1347.000000	99.552786 
1346.000000	99.552016 
1345.000000	99.551947 
1344.000000	99.551934 
1343.000000	99.551038 
1342.000000	99.549348 
1341.000000	99.547424 
1340.000000	99.545410 
1339.000000	99.543589 
1338.000000	99.543086 
1337.000000	99.544816 
1336.000000	99.548029 
1335.000000	99.550764 
1334.000000	99.551728 
1333.000000	99.551158 
1332.000000	99.550024 
1331.000000	99.549187 
1330.000000	99.549330 
1329.000000	99.550809 
1328.000000	99.553013 
1327.000000	99.554449 
1326.000000	99.554104 
1325.000000	99.552662 
1324.000000	99.551840 
1323.000000	99.552437 
1322.000000	99.553405 
1321.000000	99.553166 
1320.000000	99.551554 
1319.000000	99.549978 
1318.000000	99.549601 
1317.000000	99.549993 
1316.000000	99.550172 
1315.000000	99.550254 
1314.000000	99.551110 
1313.000000	99.552568 
1312.000000	99.553139 
1311.000000	99.552027 
1310.000000	99.550509 
1309.000000	99.550623 
1308.000000	99.552844 
1307.000000	99.555647 
1306.000000	99.557055 
1305.000000	99.556167 
1304.000000	99.553494 
1303.000000	99.550642 
1302.000000	99.549402 
1301.000000	99.550322 
1300.000000	99.552140 
1299.000000	99.553120 
1298.000000	99.552870 
1297.000000	99.552290 
1296.000000	99.552018 
1295.000000	99.551920 
1294.000000	99.552131 
1293.000000	99.553289 
1292.000000	99.555116 
1291.000000	99.555818 
1290.000000	99.553942 
1289.000000	99.550208 
1288.000000	99.546628 
1287.000000	99.544173 
1286.000000	99.542504 
1285.000000	99.541734 
1284.000000	99.542891 
1283.000000	99.546110 
1282.000000	99.549592 
1281.000000	99.551458 
1280.000000	99.551881 
1279.000000	99.552339 
1278.000000	99.553385 
1277.000000	99.554320 
1276.000000	99.554698 
1275.000000	99.554717 
1274.000000	99.554150 
1273.000000	99.552275 
1272.000000	99.549380 
1271.000000	99.547301 
1270.000000	99.547721 
1269.000000	99.550377 
1268.000000	99.553393 
1267.000000	99.554999 
1266.000000	99.554732 
1265.000000	99.553376 
1264.000000	99.551943 
1263.000000	99.550665 
1262.000000	99.549247 
1261.000000	99.548226 
1260.000000	99.549208 
1259.000000	99.552750 
1258.000000	99.556611 
1257.000000	99.557489 
1256.000000	99.554434 
1255.000000	99.549527 
1254.000000	99.545384 
1253.000000	99.543152 
1252.000000	99.542809 
1251.000000	99.543696 
1250.000000	99.544336 
1249.000000	99.543476 
1248.000000	99.542291 
1247.000000	99.544098 
1246.000000	99.550429 
1245.000000	99.558139 
1244.000000	99.561855 
1243.000000	99.559305 
1242.000000	99.553629 
1241.000000	99.550523 
1240.000000	99.553294 
1239.000000	99.560146 
1238.000000	99.565834 
1237.000000	99.566323 
1236.000000	99.561973 
1235.000000	99.556029 
1234.000000	99.550629 
1233.000000	99.545621 
1232.000000	99.541030 
1231.000000	99.538288 
1230.000000	99.537807 
1229.000000	99.537122 
1228.000000	99.533054 
1227.000000	99.524571 
1226.000000	99.512235 
1225.000000	99.496185 
1224.000000	99.476609 
1223.000000	99.455333 
1222.000000	99.434575 
1221.000000	99.413937 
1220.000000	99.390182 
1219.000000	99.360201 
1218.000000	99.323324 
1217.000000	99.281197 
1216.000000	99.236560 
1215.000000	99.191722 
1214.000000	99.146886 
1213.000000	99.100161 
1212.000000	99.050109 
1211.000000	98.997503 
1210.000000	98.943608 
1209.000000	98.888009 
1208.000000	98.829859 
1207.000000	98.770132 
1206.000000	98.710451 
1205.000000	98.650222 
1204.000000	98.587158 
1203.000000	98.520797 
1202.000000	98.453995 
1201.000000	98.390470 
1200.000000	98.331548 
1199.000000	98.275187 
1198.000000	98.217475 
1197.000000	98.155444 
1196.000000	98.089026 
1195.000000	98.020301 
1194.000000	97.951104 
1193.000000	97.882084 
1192.000000	97.813495 
1191.000000	97.745179 
1190.000000	97.675793 
1189.000000	97.603980 
1188.000000	97.530406 
1187.000000	97.456635 
1186.000000	97.381949 
1185.000000	97.303894 
1184.000000	97.222451 
1183.000000	97.140898 
1182.000000	97.061540 
1181.000000	96.983022 
1180.000000	96.902877 
1179.000000	96.820171 
1178.000000	96.734632 
1177.000000	96.645716 
1176.000000	96.553700 
1175.000000	96.459292 
1174.000000	96.361324 
1173.000000	96.257654 
1172.000000	96.149374 
1171.000000	96.041175 
1170.000000	95.936380 
1169.000000	95.834514 
1168.000000	95.734867 
1167.000000	95.639503 
1166.000000	95.552368 
1165.000000	95.479422 
1164.000000	95.430332 
1163.000000	95.414674 
1162.000000	95.433188 
1161.000000	95.474888 
1160.000000	95.523446 
1159.000000	95.563598 
1158.000000	95.582599 
1157.000000	95.572153 
1156.000000	95.532102 
1155.000000	95.469216 
1154.000000	95.390574 
1153.000000	95.300573 
1152.000000	95.204505 
1151.000000	95.109579 
1150.000000	95.019478 
1149.000000	94.931858 
1148.000000	94.843705 
1147.000000	94.755321 
1146.000000	94.667127 
1145.000000	94.577091 
1144.000000	94.484156 
1143.000000	94.390426 
1142.000000	94.297539 
1141.000000	94.204509 
1140.000000	94.110998 
1139.000000	94.018442 
1138.000000	93.925869 
1137.000000	93.829185 
1136.000000	93.727011 
1135.000000	93.622975 
1134.000000	93.519871 
1133.000000	93.415853 
1132.000000	93.308784 
1131.000000	93.200063 
1130.000000	93.091824 
1129.000000	92.984201 
1128.000000	92.876879 
1127.000000	92.769120 
1126.000000	92.657423 
1125.000000	92.538447 
1124.000000	92.415348 
1123.000000	92.295541 
1122.000000	92.180959 
1121.000000	92.066718 
1120.000000	91.950414 
1119.000000	91.835334 
1118.000000	91.722847 
1117.000000	91.610016 
1116.000000	91.497553 
1115.000000	91.391953 
1114.000000	91.296206 
1113.000000	91.205984 
1112.000000	91.117953 
1111.000000	91.033621 
1110.000000	90.952082 
1109.000000	90.867741 
1108.000000	90.778585 
1107.000000	90.688570 
1106.000000	90.598649 
1105.000000	90.503983 
1104.000000	90.403475 
1103.000000	90.303406 
1102.000000	90.207826 
1101.000000	90.113680 
1100.000000	90.018965 
1099.000000	89.926841 
1098.000000	89.838029 
1097.000000	89.747622 
1096.000000	89.653389 
1095.000000	89.558930 
1094.000000	89.465124 
1093.000000	89.367229 
1092.000000	89.264350 
1091.000000	89.163434 
1090.000000	89.070120 
1089.000000	88.983451 
1088.000000	88.902174 
1087.000000	88.827265 
1086.000000	88.755369 
1085.000000	88.678981 
1084.000000	88.596184 
1083.000000	88.511864 
1082.000000	88.427672 
1081.000000	88.340071 
1080.000000	88.249486 
1079.000000	88.160934 
1078.000000	88.074158 
1077.000000	87.983982 
1076.000000	87.891146 
1075.000000	87.800159 
1074.000000	87.705217 
1073.000000	87.592227 
1072.000000	87.456880 
1071.000000	87.306531 
1070.000000	87.141620 
1069.000000	86.951089 
1068.000000	86.732248 
1067.000000	86.500865 
1066.000000	86.274068 
1065.000000	86.054833 
1064.000000	85.839802 
1063.000000	85.628559 
1062.000000	85.417031 
1061.000000	85.194826 
1060.000000	84.958555 
1059.000000	84.718118 
1058.000000	84.482779 
1057.000000	84.250269 
1056.000000	84.014591 
1055.000000	83.773217 
1054.000000	83.521553 
1053.000000	83.252897 
1052.000000	82.970621 
1051.000000	82.688348 
1050.000000	82.411332 
1049.000000	82.131173 
1048.000000	81.844398 
1047.000000	81.559962 
1046.000000	81.283452 
1045.000000	81.010566 
1044.000000	80.740237 
1043.000000	80.477689 
1042.000000	80.220191 
1041.000000	79.956306 
1040.000000	79.685252 
1039.000000	79.421641 
1038.000000	79.175107 
1037.000000	78.940400 
1036.000000	78.712716 
1035.000000	78.496765 
1034.000000	78.294953 
1033.000000	78.102482 
1032.000000	77.919628 
1031.000000	77.753364 
1030.000000	77.602401 
1029.000000	77.457098 
1028.000000	77.318506 
1027.000000	77.199954 
1026.000000	77.104602 
1025.000000	77.018606 
1024.000000	76.931397 
1023.000000	76.845602 
1022.000000	76.762386 
1021.000000	76.675219 
1020.000000	76.583629 
1019.000000	76.495814 
1018.000000	76.412397 
1017.000000	76.324361 
1016.000000	76.231445 
1015.000000	76.145124 
1014.000000	76.068899 
1013.000000	75.993050 
1012.000000	75.913215 
1011.000000	75.836697 
1010.000000	75.766459 
1009.000000	75.696988 
1008.000000	75.630275 
1007.000000	75.577912 
1006.000000	75.543070 
1005.000000	75.517787 
1004.000000	75.500956 
1003.000000	75.500404 
1002.000000	75.514327 
1001.000000	75.530730 
1000.000000	75.549235 
999.000000	 75.583189 
998.000000	 75.635192 
997.000000	 75.690338 
996.000000	 75.739362 
995.000000	 75.789643 
994.000000	 75.847600 
993.000000	 75.909097 
992.000000	 75.973325 
991.000000	 76.048027 
990.000000	 76.134381 
989.000000	 76.223245 
988.000000	 76.311827 
987.000000	 76.408116 
986.000000	 76.514817 
985.000000	 76.625743 
984.000000	 76.741686 
983.000000	 76.872520 
982.000000	 77.019691 
981.000000	 77.173899 
980.000000	 77.333770 
979.000000	 77.509276 
978.000000	 77.702868 
977.000000	 77.904935 
976.000000	 78.112112 
975.000000	 78.332725 
974.000000	 78.569667 
973.000000	 78.814691 
972.000000	 79.063939 
971.000000	 79.322887 
970.000000	 79.591923 
969.000000	 79.862969 
968.000000	 80.133937 
967.000000	 80.410793 
966.000000	 80.692187 
965.000000	 80.968026 
964.000000	 81.236286 
963.000000	 81.505148 
962.000000	 81.775341 
961.000000	 82.036809 
960.000000	 82.286629 
959.000000	 82.533813 
958.000000	 82.781664 
957.000000	 83.021218 
956.000000	 83.247858 
955.000000	 83.469567 
954.000000	 83.692336 
953.000000	 83.910225 
952.000000	 84.115704 
951.000000	 84.308069 
950.000000	 84.487509 
949.000000	 84.652602 
948.000000	 84.807255 
947.000000	 84.958042 
946.000000	 85.101140 
945.000000	 85.224416 
944.000000	 85.326198 
943.000000	 85.419377 
942.000000	 85.512885 
941.000000	 85.601751 
940.000000	 85.680684 
939.000000	 85.754984 
938.000000	 85.831805 
937.000000	 85.911214 
936.000000	 85.991405 
935.000000	 86.072933 
934.000000	 86.153584 
933.000000	 86.229018 
932.000000	 86.301908 
931.000000	 86.380129 
930.000000	 86.463140 
929.000000	 86.541405 
928.000000	 86.612104 
927.000000	 86.683145 
926.000000	 86.757805 
925.000000	 86.827653 
924.000000	 86.885778 
923.000000	 86.935819 
922.000000	 86.982695 
921.000000	 87.024746 
920.000000	 87.060272 
919.000000	 87.092359 
918.000000	 87.122525 
917.000000	 87.148618 
916.000000	 87.173222 
915.000000	 87.205757 
914.000000	 87.253045 
913.000000	 87.316125 
912.000000	 87.397966 
911.000000	 87.504543 
910.000000	 87.636606 
909.000000	 87.790330 
908.000000	 87.966603 
907.000000	 88.168292 
906.000000	 88.388026 
905.000000	 88.611811 
904.000000	 88.837003 
903.000000	 89.074731 
902.000000	 89.332508 
901.000000	 89.605293 
900.000000	 89.884358 
899.000000	 90.163253 
898.000000	 90.433971 
897.000000	 90.688969 
896.000000	 90.929093 
895.000000	 91.160355 
894.000000	 91.383180 
893.000000	 91.594444 
892.000000	 91.798167 
891.000000	 92.002000 
890.000000	 92.203588 
889.000000	 92.393204 
888.000000	 92.570615 
887.000000	 92.746555 
886.000000	 92.925749 
885.000000	 93.100847 
884.000000	 93.265920 
883.000000	 93.424174 
882.000000	 93.579304 
881.000000	 93.730696 
880.000000	 93.880868 
879.000000	 94.036641 
878.000000	 94.198756 
877.000000	 94.360311 
876.000000	 94.518827 
875.000000	 94.679568 
874.000000	 94.844025 
873.000000	 95.005806 
872.000000	 95.161722 
871.000000	 95.317468 
870.000000	 95.478732 
869.000000	 95.644389 
868.000000	 95.810878 
867.000000	 95.976217 
866.000000	 96.138281 
865.000000	 96.295295 
864.000000	 96.447989 
863.000000	 96.595600 
862.000000	 96.732325 
861.000000	 96.855563 
860.000000	 96.974584 
859.000000	 97.100973 
858.000000	 97.231998 
857.000000	 97.354457 
856.000000	 97.464185 
855.000000	 97.569723 
854.000000	 97.675815 
853.000000	 97.775233 
852.000000	 97.860143 
851.000000	 97.930884 
850.000000	 97.990212 
849.000000	 98.038934 
848.000000	 98.081144 
847.000000	 98.124209 
846.000000	 98.168392 
845.000000	 98.204187 
844.000000	 98.224090 
843.000000	 98.229918 
842.000000	 98.225802 
841.000000	 98.212155 
840.000000	 98.190215 
839.000000	 98.164390 
838.000000	 98.135578 
837.000000	 98.099048 
836.000000	 98.053156 
835.000000	 98.003903 
834.000000	 97.957849 
833.000000	 97.917693 
832.000000	 97.887959 
831.000000	 97.876135 
830.000000	 97.882482 
829.000000	 97.896397 
828.000000	 97.909280 
827.000000	 97.924863 
826.000000	 97.951514 
825.000000	 97.990996 
824.000000	 98.039898 
823.000000	 98.094360 
822.000000	 98.147982 
821.000000	 98.193084 
820.000000	 98.229018 
819.000000	 98.262243 
818.000000	 98.294682 
817.000000	 98.318130 
816.000000	 98.322824 
815.000000	 98.305627 
814.000000	 98.266445 
813.000000	 98.200787 
812.000000	 98.098623 
811.000000	 97.947583 
810.000000	 97.737148 
809.000000	 97.464929 
808.000000	 97.139910 
807.000000	 96.774644 
806.000000	 96.374527 
805.000000	 95.942459 
804.000000	 95.494448 
803.000000	 95.059627 
802.000000	 94.661572 
801.000000	 94.311024 
800.000000	 94.019937 
799.000000	 93.806920 
798.000000	 93.681035 
797.000000	 93.633015 
796.000000	 93.648814 
795.000000	 93.718724 
794.000000	 93.827659 
793.000000	 93.951348 
792.000000	 94.070835 
791.000000	 94.180321 
790.000000	 94.275473 
789.000000	 94.345602 
788.000000	 94.382896 
787.000000	 94.387618 
786.000000	 94.357387 
785.000000	 94.282162 
784.000000	 94.158304 
783.000000	 93.999972 
782.000000	 93.830371 
781.000000	 93.669960 
780.000000	 93.538431 
779.000000	 93.456497 
778.000000	 93.435666 
777.000000	 93.472902 
776.000000	 93.560340 
775.000000	 93.691033 
774.000000	 93.850977 
773.000000	 94.017551 
772.000000	 94.173962 
771.000000	 94.317638 
770.000000	 94.449915 
769.000000	 94.566990 
768.000000	 94.666758 
767.000000	 94.754972 
766.000000	 94.836525 
765.000000	 94.907051 
764.000000	 94.960453 
763.000000	 95.000084 
762.000000	 95.036746 
761.000000	 95.079401 
760.000000	 95.131479 
759.000000	 95.191306 
758.000000	 95.252919 
757.000000	 95.311862 
756.000000	 95.372839 
755.000000	 95.446073 
754.000000	 95.534033 
753.000000	 95.627448 
752.000000	 95.715538 
751.000000	 95.793689 
750.000000	 95.861151 
749.000000	 95.920102 
748.000000	 95.978737 
747.000000	 96.046440 
746.000000	 96.123029 
745.000000	 96.200844 
744.000000	 96.279785 
743.000000	 96.370907 
742.000000	 96.481272 
741.000000	 96.604404 
740.000000	 96.730706 
739.000000	 96.858999 
738.000000	 96.991861 
737.000000	 97.125637 
736.000000	 97.250844 
735.000000	 97.359415 
734.000000	 97.448967 
733.000000	 97.523492 
732.000000	 97.590728 
731.000000	 97.654576 
730.000000	 97.709972 
729.000000	 97.749726 
728.000000	 97.777139 
727.000000	 97.804990 
726.000000	 97.840529 
725.000000	 97.880580 
724.000000	 97.922324 
723.000000	 97.969074 
722.000000	 98.022970 
721.000000	 98.080824 
720.000000	 98.140270 
719.000000	 98.201637 
718.000000	 98.261102 
717.000000	 98.312037 
716.000000	 98.356006 
715.000000	 98.403193 
714.000000	 98.457808 
713.000000	 98.510532 
712.000000	 98.550071 
711.000000	 98.574411 
710.000000	 98.587493 
709.000000	 98.592608 
708.000000	 98.593220 
707.000000	 98.593800 
706.000000	 98.591516 
705.000000	 98.574346 
704.000000	 98.533348 
703.000000	 98.468596 
702.000000	 98.379837 
701.000000	 98.258398 
700.000000	 98.092462 
699.000000	 97.878709 
698.000000	 97.627369 
697.000000	 97.366199 
696.000000	 97.142035 
695.000000	 97.002216 
694.000000	 96.967246 
693.000000	 97.023309 
692.000000	 97.139835 
691.000000	 97.290179 
690.000000	 97.453699 
689.000000	 97.612486 
688.000000	 97.755996 
687.000000	 97.882397 
686.000000	 97.991822 
685.000000	 98.080984 
684.000000	 98.147162 
683.000000	 98.194953 
682.000000	 98.234537 
681.000000	 98.275573 
680.000000	 98.323550 
679.000000	 98.379595 
678.000000	 98.441576 
677.000000	 98.503437 
676.000000	 98.562553 
675.000000	 98.624480 
674.000000	 98.694296 
673.000000	 98.770613 
672.000000	 98.855768 
671.000000	 98.962033 
670.000000	 99.099577 
669.000000	 99.247342 
668.000000	 99.331031 
667.000000	 99.315332 
666.000000	 99.273809 
665.000000	 99.259611 
664.000000	 99.282535 
663.000000	 99.340225 
662.000000	 99.416337 
661.000000	 99.482993 
660.000000	 99.524080 
659.000000	 99.542504 
658.000000	 99.543643 
657.000000	 99.525309 
656.000000	 99.496398 
655.000000	 99.483492 
654.000000	 99.498857 
653.000000	 99.524445 
652.000000	 99.541920 
651.000000	 99.549272 
650.000000	 99.541888 

