4000.000000	98.917797 
3999.000000	98.917080 
3998.000000	98.916566 
3997.000000	98.916323 
3996.000000	98.916189 
3995.000000	98.915993 
3994.000000	98.915714 
3993.000000	98.915441 
3992.000000	98.915271 
3991.000000	98.915221 
3990.000000	98.915215 
3989.000000	98.915226 
3988.000000	98.915282 
3987.000000	98.915336 
3986.000000	98.915302 
3985.000000	98.915168 
3984.000000	98.914996 
3983.000000	98.914851 
3982.000000	98.914758 
3981.000000	98.914696 
3980.000000	98.914601 
3979.000000	98.914419 
3978.000000	98.914177 
3977.000000	98.913972 
3976.000000	98.913851 
3975.000000	98.913736 
3974.000000	98.913511 
3973.000000	98.913180 
3972.000000	98.912876 
3971.000000	98.912713 
3970.000000	98.912706 
3969.000000	98.912832 
3968.000000	98.913091 
3967.000000	98.913434 
3966.000000	98.913734 
3965.000000	98.913834 
3964.000000	98.913665 
3963.000000	98.913341 
3962.000000	98.913135 
3961.000000	98.913275 
3960.000000	98.913731 
3959.000000	98.914175 
3958.000000	98.914219 
3957.000000	98.913806 
3956.000000	98.913283 
3955.000000	98.913076 
3954.000000	98.913329 
3953.000000	98.913805 
3952.000000	98.914061 
3951.000000	98.913779 
3950.000000	98.913089 
3949.000000	98.912622 
3948.000000	98.912895 
3947.000000	98.913699 
3946.000000	98.914235 
3945.000000	98.913850 
3944.000000	98.912501 
3943.000000	98.910749 
3942.000000	98.909330 
3941.000000	98.908585 
3940.000000	98.908341 
3939.000000	98.908336 
3938.000000	98.908549 
3937.000000	98.909112 
3936.000000	98.910052 
3935.000000	98.911150 
3934.000000	98.912146 
3933.000000	98.912876 
3932.000000	98.913217 
3931.000000	98.912974 
3930.000000	98.912024 
3929.000000	98.910546 
3928.000000	98.908872 
3927.000000	98.907380 
3926.000000	98.906477 
3925.000000	98.906390 
3924.000000	98.907159 
3923.000000	98.908500 
3922.000000	98.909720 
3921.000000	98.910343 
3920.000000	98.910520 
3919.000000	98.910731 
3918.000000	98.911121 
3917.000000	98.911347 
3916.000000	98.911141 
3915.000000	98.910664 
3914.000000	98.910295 
3913.000000	98.910258 
3912.000000	98.910553 
3911.000000	98.911083 
3910.000000	98.911663 
3909.000000	98.912082 
3908.000000	98.912280 
3907.000000	98.912297 
3906.000000	98.912258 
3905.000000	98.912236 
3904.000000	98.912196 
3903.000000	98.912031 
3902.000000	98.911619 
3901.000000	98.911027 
3900.000000	98.910497 
3899.000000	98.910213 
3898.000000	98.910151 
3897.000000	98.910155 
3896.000000	98.910083 
3895.000000	98.909890 
3894.000000	98.909590 
3893.000000	98.909215 
3892.000000	98.908823 
3891.000000	98.908463 
3890.000000	98.908131 
3889.000000	98.907779 
3888.000000	98.907425 
3887.000000	98.907171 
3886.000000	98.907109 
3885.000000	98.907203 
3884.000000	98.907245 
3883.000000	98.906934 
3882.000000	98.906155 
3881.000000	98.905332 
3880.000000	98.905140 
3879.000000	98.905698 
3878.000000	98.906356 
3877.000000	98.906488 
3876.000000	98.906139 
3875.000000	98.905678 
3874.000000	98.905205 
3873.000000	98.904590 
3872.000000	98.903872 
3871.000000	98.903296 
3870.000000	98.903025 
3869.000000	98.903080 
3868.000000	98.903093 
3867.000000	98.902369 
3866.000000	98.900674 
3865.000000	98.898611 
3864.000000	98.897518 
3863.000000	98.897929 
3862.000000	98.898778 
3861.000000	98.899432 
3860.000000	98.900580 
3859.000000	98.901914 
3858.000000	98.901652 
3857.000000	98.898503 
3856.000000	98.894090 
3855.000000	98.890976 
3854.000000	98.888635 
3853.000000	98.886435 
3852.000000	98.885937 
3851.000000	98.886953 
3850.000000	98.888118 
3849.000000	98.889659 
3848.000000	98.892669 
3847.000000	98.897406 
3846.000000	98.902194 
3845.000000	98.905201 
3844.000000	98.906819 
3843.000000	98.907904 
3842.000000	98.907912 
3841.000000	98.906676 
3840.000000	98.905215 
3839.000000	98.904588 
3838.000000	98.905213 
3837.000000	98.906082 
3836.000000	98.906000 
3835.000000	98.904325 
3834.000000	98.901557 
3833.000000	98.899395 
3832.000000	98.899221 
3831.000000	98.900997 
3830.000000	98.903447 
3829.000000	98.904973 
3828.000000	98.905459 
3827.000000	98.906275 
3826.000000	98.908082 
3825.000000	98.910230 
3824.000000	98.911875 
3823.000000	98.912298 
3822.000000	98.911332 
3821.000000	98.910037 
3820.000000	98.909716 
3819.000000	98.909372 
3818.000000	98.907584 
3817.000000	98.905001 
3816.000000	98.903196 
3815.000000	98.902646 
3814.000000	98.902514 
3813.000000	98.901910 
3812.000000	98.900863 
3811.000000	98.900462 
3810.000000	98.901533 
3809.000000	98.903686 
3808.000000	98.905889 
3807.000000	98.907467 
3806.000000	98.908322 
3805.000000	98.908233 
3804.000000	98.906748 
3803.000000	98.904393 
3802.000000	98.902621 
3801.000000	98.902144 
3800.000000	98.902273 
3799.000000	98.901487 
3798.000000	98.899298 
3797.000000	98.897119 
3796.000000	98.896525 
3795.000000	98.897356 
3794.000000	98.898054 
3793.000000	98.897560 
3792.000000	98.896234 
3791.000000	98.895251 
3790.000000	98.895155 
3789.000000	98.895464 
3788.000000	98.895665 
3787.000000	98.895915 
3786.000000	98.896579 
3785.000000	98.897620 
3784.000000	98.898572 
3783.000000	98.899064 
3782.000000	98.899000 
3781.000000	98.898412 
3780.000000	98.897542 
3779.000000	98.896889 
3778.000000	98.896720 
3777.000000	98.896984 
3776.000000	98.897858 
3775.000000	98.899419 
3774.000000	98.901225 
3773.000000	98.902642 
3772.000000	98.903676 
3771.000000	98.904768 
3770.000000	98.906051 
3769.000000	98.907166 
3768.000000	98.907227 
3767.000000	98.905781 
3766.000000	98.903977 
3765.000000	98.903328 
3764.000000	98.904142 
3763.000000	98.905543 
3762.000000	98.906423 
3761.000000	98.906508 
3760.000000	98.906510 
3759.000000	98.907819 
3758.000000	98.910622 
3757.000000	98.913127 
3756.000000	98.914432 
3755.000000	98.915226 
3754.000000	98.916429 
3753.000000	98.918058 
3752.000000	98.919494 
3751.000000	98.921036 
3750.000000	98.922425 
3749.000000	98.921206 
3748.000000	98.915528 
3747.000000	98.907209 
3746.000000	98.901137 
3745.000000	98.899411 
3744.000000	98.900492 
3743.000000	98.903063 
3742.000000	98.905362 
3741.000000	98.905525 
3740.000000	98.904580 
3739.000000	98.906714 
3738.000000	98.914015 
3737.000000	98.921521 
3736.000000	98.923566 
3735.000000	98.919931 
3734.000000	98.913572 
3733.000000	98.905879 
3732.000000	98.897952 
3731.000000	98.892653 
3730.000000	98.890522 
3729.000000	98.889009 
3728.000000	98.886454 
3727.000000	98.883698 
3726.000000	98.882216 
3725.000000	98.881671 
3724.000000	98.880232 
3723.000000	98.876871 
3722.000000	98.872562 
3721.000000	98.868505 
3720.000000	98.863688 
3719.000000	98.858159 
3718.000000	98.854136 
3717.000000	98.852322 
3716.000000	98.852167 
3715.000000	98.853282 
3714.000000	98.855556 
3713.000000	98.857481 
3712.000000	98.855659 
3711.000000	98.847869 
3710.000000	98.834611 
3709.000000	98.818964 
3708.000000	98.805070 
3707.000000	98.795018 
3706.000000	98.788150 
3705.000000	98.782182 
3704.000000	98.774598 
3703.000000	98.763945 
3702.000000	98.750684 
3701.000000	98.736602 
3700.000000	98.722484 
3699.000000	98.708234 
3698.000000	98.695152 
3697.000000	98.684939 
3696.000000	98.678126 
3695.000000	98.673964 
3694.000000	98.670025 
3693.000000	98.663560 
3692.000000	98.653740 
3691.000000	98.641938 
3690.000000	98.629632 
3689.000000	98.617658 
3688.000000	98.606762 
3687.000000	98.597106 
3686.000000	98.589479 
3685.000000	98.585599 
3684.000000	98.587227 
3683.000000	98.594446 
3682.000000	98.604024 
3681.000000	98.609700 
3680.000000	98.606266 
3679.000000	98.593526 
3678.000000	98.577058 
3677.000000	98.563544 
3676.000000	98.555125 
3675.000000	98.552995 
3674.000000	98.555450 
3673.000000	98.555979 
3672.000000	98.551233 
3671.000000	98.543649 
3670.000000	98.536717 
3669.000000	98.531716 
3668.000000	98.527241 
3667.000000	98.521976 
3666.000000	98.518463 
3665.000000	98.519998 
3664.000000	98.525243 
3663.000000	98.529628 
3662.000000	98.530041 
3661.000000	98.526968 
3660.000000	98.523692 
3659.000000	98.523104 
3658.000000	98.526364 
3657.000000	98.533237 
3656.000000	98.542953 
3655.000000	98.554668 
3654.000000	98.565974 
3653.000000	98.574692 
3652.000000	98.581449 
3651.000000	98.587856 
3650.000000	98.593125 
3649.000000	98.594629 
3648.000000	98.592076 
3647.000000	98.588638 
3646.000000	98.588125 
3645.000000	98.592028 
3644.000000	98.599358 
3643.000000	98.608778 
3642.000000	98.618353 
3641.000000	98.625861 
3640.000000	98.630705 
3639.000000	98.634203 
3638.000000	98.638196 
3637.000000	98.643095 
3636.000000	98.648380 
3635.000000	98.653904 
3634.000000	98.659658 
3633.000000	98.665217 
3632.000000	98.669576 
3631.000000	98.672034 
3630.000000	98.671950 
3629.000000	98.669985 
3628.000000	98.669115 
3627.000000	98.670784 
3626.000000	98.673450 
3625.000000	98.676389 
3624.000000	98.680048 
3623.000000	98.683545 
3622.000000	98.685261 
3621.000000	98.684721 
3620.000000	98.683627 
3619.000000	98.684824 
3618.000000	98.689012 
3617.000000	98.693727 
3616.000000	98.697379 
3615.000000	98.700957 
3614.000000	98.706048 
3613.000000	98.712944 
3612.000000	98.720231 
3611.000000	98.725961 
3610.000000	98.729445 
3609.000000	98.731451 
3608.000000	98.733013 
3607.000000	98.734532 
3606.000000	98.735437 
3605.000000	98.735260 
3604.000000	98.734387 
3603.000000	98.733254 
3602.000000	98.732325 
3601.000000	98.732327 
3600.000000	98.734180 
3599.000000	98.738174 
3598.000000	98.742914 
3597.000000	98.745909 
3596.000000	98.746222 
3595.000000	98.745225 
3594.000000	98.745210 
3593.000000	98.747535 
3592.000000	98.751381 
3591.000000	98.754960 
3590.000000	98.757189 
3589.000000	98.757937 
3588.000000	98.757470 
3587.000000	98.756307 
3586.000000	98.754583 
3585.000000	98.752308 
3584.000000	98.750351 
3583.000000	98.749926 
3582.000000	98.751196 
3581.000000	98.753002 
3580.000000	98.754109 
3579.000000	98.754538 
3578.000000	98.755386 
3577.000000	98.757580 
3576.000000	98.760982 
3575.000000	98.764622 
3574.000000	98.767331 
3573.000000	98.768729 
3572.000000	98.769363 
3571.000000	98.770033 
3570.000000	98.771179 
3569.000000	98.772292 
3568.000000	98.772144 
3567.000000	98.770449 
3566.000000	98.768401 
3565.000000	98.767156 
3564.000000	98.766948 
3563.000000	98.767356 
3562.000000	98.767616 
3561.000000	98.767220 
3560.000000	98.766242 
3559.000000	98.765199 
3558.000000	98.764421 
3557.000000	98.763810 
3556.000000	98.763234 
3555.000000	98.763004 
3554.000000	98.763586 
3553.000000	98.764919 
3552.000000	98.766320 
3551.000000	98.767099 
3550.000000	98.767268 
3549.000000	98.767513 
3548.000000	98.768326 
3547.000000	98.769410 
3546.000000	98.769923 
3545.000000	98.769383 
3544.000000	98.768187 
3543.000000	98.767298 
3542.000000	98.767370 
3541.000000	98.768284 
3540.000000	98.769293 
3539.000000	98.769660 
3538.000000	98.769292 
3537.000000	98.768661 
3536.000000	98.768329 
3535.000000	98.768449 
3534.000000	98.768910 
3533.000000	98.769680 
3532.000000	98.770734 
3531.000000	98.771770 
3530.000000	98.772339 
3529.000000	98.772375 
3528.000000	98.772314 
3527.000000	98.772599 
3526.000000	98.773151 
3525.000000	98.773521 
3524.000000	98.773453 
3523.000000	98.773169 
3522.000000	98.773069 
3521.000000	98.773327 
3520.000000	98.773870 
3519.000000	98.774591 
3518.000000	98.775449 
3517.000000	98.776378 
3516.000000	98.777307 
3515.000000	98.778221 
3514.000000	98.779191 
3513.000000	98.780299 
3512.000000	98.781522 
3511.000000	98.782722 
3510.000000	98.783758 
3509.000000	98.784535 
3508.000000	98.784970 
3507.000000	98.785058 
3506.000000	98.784993 
3505.000000	98.785140 
3504.000000	98.785725 
3503.000000	98.786602 
3502.000000	98.787366 
3501.000000	98.787748 
3500.000000	98.787837 
3499.000000	98.787952 
3498.000000	98.788396 
3497.000000	98.789307 
3496.000000	98.790625 
3495.000000	98.792023 
3494.000000	98.793029 
3493.000000	98.793382 
3492.000000	98.793192 
3491.000000	98.792840 
3490.000000	98.792665 
3489.000000	98.792784 
3488.000000	98.793143 
3487.000000	98.793606 
3486.000000	98.794016 
3485.000000	98.794284 
3484.000000	98.794431 
3483.000000	98.794558 
3482.000000	98.794757 
3481.000000	98.795045 
3480.000000	98.795357 
3479.000000	98.795619 
3478.000000	98.795820 
3477.000000	98.796010 
3476.000000	98.796222 
3475.000000	98.796416 
3474.000000	98.796515 
3473.000000	98.796501 
3472.000000	98.796435 
3471.000000	98.796397 
3470.000000	98.796416 
3469.000000	98.796481 
3468.000000	98.796559 
3467.000000	98.796589 
3466.000000	98.796503 
3465.000000	98.796294 
3464.000000	98.796067 
3463.000000	98.795975 
3462.000000	98.796071 
3461.000000	98.796257 
3460.000000	98.796385 
3459.000000	98.796417 
3458.000000	98.796406 
3457.000000	98.796404 
3456.000000	98.796419 
3455.000000	98.796446 
3454.000000	98.796510 
3453.000000	98.796635 
3452.000000	98.796803 
3451.000000	98.796944 
3450.000000	98.796983 
3449.000000	98.796899 
3448.000000	98.796741 
3447.000000	98.796610 
3446.000000	98.796567 
3445.000000	98.796579 
3444.000000	98.796583 
3443.000000	98.796582 
3442.000000	98.796629 
3441.000000	98.796755 
3440.000000	98.796925 
3439.000000	98.797055 
3438.000000	98.797070 
3437.000000	98.796964 
3436.000000	98.796815 
3435.000000	98.796734 
3434.000000	98.796775 
3433.000000	98.796914 
3432.000000	98.797095 
3431.000000	98.797282 
3430.000000	98.797447 
3429.000000	98.797545 
3428.000000	98.797539 
3427.000000	98.797447 
3426.000000	98.797318 
3425.000000	98.797179 
3424.000000	98.797035 
3423.000000	98.796919 
3422.000000	98.796896 
3421.000000	98.796987 
3420.000000	98.797128 
3419.000000	98.797214 
3418.000000	98.797194 
3417.000000	98.797112 
3416.000000	98.797057 
3415.000000	98.797075 
3414.000000	98.797148 
3413.000000	98.797243 
3412.000000	98.797342 
3411.000000	98.797443 
3410.000000	98.797541 
3409.000000	98.797643 
3408.000000	98.797746 
3407.000000	98.797830 
3406.000000	98.797870 
3405.000000	98.797906 
3404.000000	98.798039 
3403.000000	98.798320 
3402.000000	98.798692 
3401.000000	98.799027 
3400.000000	98.799246 
3399.000000	98.799359 
3398.000000	98.799419 
3397.000000	98.799475 
3396.000000	98.799558 
3395.000000	98.799710 
3394.000000	98.799977 
3393.000000	98.800377 
3392.000000	98.800857 
3391.000000	98.801312 
3390.000000	98.801663 
3389.000000	98.801910 
3388.000000	98.802101 
3387.000000	98.802283 
3386.000000	98.802483 
3385.000000	98.802749 
3384.000000	98.803175 
3383.000000	98.803828 
3382.000000	98.804632 
3381.000000	98.805375 
3380.000000	98.805880 
3379.000000	98.806127 
3378.000000	98.806243 
3377.000000	98.806382 
3376.000000	98.806595 
3375.000000	98.806838 
3374.000000	98.807114 
3373.000000	98.807581 
3372.000000	98.808397 
3371.000000	98.809457 
3370.000000	98.810427 
3369.000000	98.811124 
3368.000000	98.811676 
3367.000000	98.812182 
3366.000000	98.812449 
3365.000000	98.812316 
3364.000000	98.812117 
3363.000000	98.812469 
3362.000000	98.813555 
3361.000000	98.814922 
3360.000000	98.816049 
3359.000000	98.816917 
3358.000000	98.817859 
3357.000000	98.819042 
3356.000000	98.820252 
3355.000000	98.821118 
3354.000000	98.821423 
3353.000000	98.821266 
3352.000000	98.821050 
3351.000000	98.821256 
3350.000000	98.822096 
3349.000000	98.823370 
3348.000000	98.824637 
3347.000000	98.825580 
3346.000000	98.826233 
3345.000000	98.826849 
3344.000000	98.827562 
3343.000000	98.828181 
3342.000000	98.828381 
3341.000000	98.828069 
3340.000000	98.827444 
3339.000000	98.826708 
3338.000000	98.825926 
3337.000000	98.825271 
3336.000000	98.825163 
3335.000000	98.825912 
3334.000000	98.827296 
3333.000000	98.828637 
3332.000000	98.829383 
3331.000000	98.829492 
3330.000000	98.829247 
3329.000000	98.828915 
3328.000000	98.828676 
3327.000000	98.828709 
3326.000000	98.829117 
3325.000000	98.829725 
3324.000000	98.830135 
3323.000000	98.830116 
3322.000000	98.829882 
3321.000000	98.829917 
3320.000000	98.830504 
3319.000000	98.831513 
3318.000000	98.832552 
3317.000000	98.833287 
3316.000000	98.833629 
3315.000000	98.833705 
3314.000000	98.833739 
3313.000000	98.833917 
3312.000000	98.834255 
3311.000000	98.834604 
3310.000000	98.834813 
3309.000000	98.834906 
3308.000000	98.835015 
3307.000000	98.835168 
3306.000000	98.835229 
3305.000000	98.835084 
3304.000000	98.834819 
3303.000000	98.834653 
3302.000000	98.834734 
3301.000000	98.835043 
3300.000000	98.835453 
3299.000000	98.835829 
3298.000000	98.836117 
3297.000000	98.836338 
3296.000000	98.836544 
3295.000000	98.836770 
3294.000000	98.837021 
3293.000000	98.837253 
3292.000000	98.837364 
3291.000000	98.837247 
3290.000000	98.836919 
3289.000000	98.836598 
3288.000000	98.836543 
3287.000000	98.836783 
3286.000000	98.837084 
3285.000000	98.837191 
3284.000000	98.837079 
3283.000000	98.836924 
3282.000000	98.836902 
3281.000000	98.837061 
3280.000000	98.837348 
3279.000000	98.837666 
3278.000000	98.837917 
3277.000000	98.838020 
3276.000000	98.837922 
3275.000000	98.837590 
3274.000000	98.837048 
3273.000000	98.836451 
3272.000000	98.836015 
3271.000000	98.835837 
3270.000000	98.835836 
3269.000000	98.835906 
3268.000000	98.836067 
3267.000000	98.836373 
3266.000000	98.836724 
3265.000000	98.836895 
3264.000000	98.836743 
3263.000000	98.836316 
3262.000000	98.835760 
3261.000000	98.835213 
3260.000000	98.834796 
3259.000000	98.834638 
3258.000000	98.834828 
3257.000000	98.835336 
3256.000000	98.835993 
3255.000000	98.836535 
3254.000000	98.836737 
3253.000000	98.836565 
3252.000000	98.836209 
3251.000000	98.835946 
3250.000000	98.835923 
3249.000000	98.836115 
3248.000000	98.836435 
3247.000000	98.836802 
3246.000000	98.837085 
3245.000000	98.837123 
3244.000000	98.836870 
3243.000000	98.836505 
3242.000000	98.836307 
3241.000000	98.836419 
3240.000000	98.836745 
3239.000000	98.837089 
3238.000000	98.837378 
3237.000000	98.837723 
3236.000000	98.838261 
3235.000000	98.838962 
3234.000000	98.839603 
3233.000000	98.839924 
3232.000000	98.839840 
3231.000000	98.839481 
3230.000000	98.839066 
3229.000000	98.838753 
3228.000000	98.838587 
3227.000000	98.838564 
3226.000000	98.838709 
3225.000000	98.839090 
3224.000000	98.839739 
3223.000000	98.840565 
3222.000000	98.841321 
3221.000000	98.841745 
3220.000000	98.841740 
3219.000000	98.841423 
3218.000000	98.841023 
3217.000000	98.840736 
3216.000000	98.840644 
3215.000000	98.840748 
3214.000000	98.841013 
3213.000000	98.841400 
3212.000000	98.841867 
3211.000000	98.842361 
3210.000000	98.842793 
3209.000000	98.843030 
3208.000000	98.842933 
3207.000000	98.842473 
3206.000000	98.841865 
3205.000000	98.841510 
3204.000000	98.841690 
3203.000000	98.842335 
3202.000000	98.843119 
3201.000000	98.843797 
3200.000000	98.844360 
3199.000000	98.844827 
3198.000000	98.845069 
3197.000000	98.844946 
3196.000000	98.844543 
3195.000000	98.844195 
3194.000000	98.844209 
3193.000000	98.844658 
3192.000000	98.845407 
3191.000000	98.846270 
3190.000000	98.847134 
3189.000000	98.847961 
3188.000000	98.848715 
3187.000000	98.849265 
3186.000000	98.849414 
3185.000000	98.849133 
3184.000000	98.848780 
3183.000000	98.848893 
3182.000000	98.849678 
3181.000000	98.850793 
3180.000000	98.851702 
3179.000000	98.852216 
3178.000000	98.852535 
3177.000000	98.852873 
3176.000000	98.853198 
3175.000000	98.853356 
3174.000000	98.853258 
3173.000000	98.852910 
3172.000000	98.852426 
3171.000000	98.852049 
3170.000000	98.852004 
3169.000000	98.852243 
3168.000000	98.852478 
3167.000000	98.852576 
3166.000000	98.852796 
3165.000000	98.853514 
3164.000000	98.854755 
3163.000000	98.856121 
3162.000000	98.857160 
3161.000000	98.857733 
3160.000000	98.858098 
3159.000000	98.858713 
3158.000000	98.859878 
3157.000000	98.861409 
3156.000000	98.862662 
3155.000000	98.863054 
3154.000000	98.862640 
3153.000000	98.862083 
3152.000000	98.861940 
3151.000000	98.862004 
3150.000000	98.861498 
3149.000000	98.859968 
3148.000000	98.857913 
3147.000000	98.856476 
3146.000000	98.856451 
3145.000000	98.857748 
3144.000000	98.859789 
3143.000000	98.862221 
3142.000000	98.865051 
3141.000000	98.868058 
3140.000000	98.870458 
3139.000000	98.871469 
3138.000000	98.871080 
3137.000000	98.870041 
3136.000000	98.869178 
3135.000000	98.868831 
3134.000000	98.868911 
3133.000000	98.869124 
3132.000000	98.869066 
3131.000000	98.868458 
3130.000000	98.867555 
3129.000000	98.867130 
3128.000000	98.867770 
3127.000000	98.869320 
3126.000000	98.871132 
3125.000000	98.872721 
3124.000000	98.873996 
3123.000000	98.874924 
3122.000000	98.875317 
3121.000000	98.875071 
3120.000000	98.874416 
3119.000000	98.873785 
3118.000000	98.873495 
3117.000000	98.873639 
3116.000000	98.874186 
3115.000000	98.875028 
3114.000000	98.875976 
3113.000000	98.876825 
3112.000000	98.877494 
3111.000000	98.878070 
3110.000000	98.878675 
3109.000000	98.879280 
3108.000000	98.879684 
3107.000000	98.879723 
3106.000000	98.879481 
3105.000000	98.879244 
3104.000000	98.879186 
3103.000000	98.879204 
3102.000000	98.879109 
3101.000000	98.878967 
3100.000000	98.879166 
3099.000000	98.879994 
3098.000000	98.881159 
3097.000000	98.881900 
3096.000000	98.881817 
3095.000000	98.881455 
3094.000000	98.881813 
3093.000000	98.883245 
3092.000000	98.884989 
3091.000000	98.885707 
3090.000000	98.884519 
3089.000000	98.881791 
3088.000000	98.879128 
3087.000000	98.878320 
3086.000000	98.880030 
3085.000000	98.883377 
3084.000000	98.886666 
3083.000000	98.888566 
3082.000000	98.888771 
3081.000000	98.888011 
3080.000000	98.887476 
3079.000000	98.887792 
3078.000000	98.888299 
3077.000000	98.887557 
3076.000000	98.884896 
3075.000000	98.881391 
3074.000000	98.879106 
3073.000000	98.879107 
3072.000000	98.880321 
3071.000000	98.880653 
3070.000000	98.879289 
3069.000000	98.877581 
3068.000000	98.877264 
3067.000000	98.878209 
3066.000000	98.878806 
3065.000000	98.878461 
3064.000000	98.878480 
3063.000000	98.879877 
3062.000000	98.881427 
3061.000000	98.881147 
3060.000000	98.879133 
3059.000000	98.877541 
3058.000000	98.877555 
3057.000000	98.877495 
3056.000000	98.874747 
3055.000000	98.868995 
3054.000000	98.862800 
3053.000000	98.859020 
3052.000000	98.858071 
3051.000000	98.857921 
3050.000000	98.856379 
3049.000000	98.853017 
3048.000000	98.848915 
3047.000000	98.845122 
3046.000000	98.841888 
3045.000000	98.839173 
3044.000000	98.837111 
3043.000000	98.835617 
3042.000000	98.833704 
3041.000000	98.829624 
3040.000000	98.821899 
3039.000000	98.810534 
3038.000000	98.797390 
3037.000000	98.784853 
3036.000000	98.773611 
3035.000000	98.762180 
3034.000000	98.749117 
3033.000000	98.734851 
3032.000000	98.720587 
3031.000000	98.706080 
3030.000000	98.689573 
3029.000000	98.670210 
3028.000000	98.649492 
3027.000000	98.629627 
3026.000000	98.611072 
3025.000000	98.592572 
3024.000000	98.573105 
3023.000000	98.552852 
3022.000000	98.532390 
3021.000000	98.511797 
3020.000000	98.490664 
3019.000000	98.468575 
3018.000000	98.445447 
3017.000000	98.421539 
3016.000000	98.396987 
3015.000000	98.371298 
3014.000000	98.343768 
3013.000000	98.314553 
3012.000000	98.284720 
3011.000000	98.254896 
3010.000000	98.224578 
3009.000000	98.193315 
3008.000000	98.161850 
3007.000000	98.131282 
3006.000000	98.101569 
3005.000000	98.071778 
3004.000000	98.041448 
3003.000000	98.010731 
3002.000000	97.979488 
3001.000000	97.947483 
3000.000000	97.915626 
2999.000000	97.886013 
2998.000000	97.860538 
2997.000000	97.840229 
2996.000000	97.825324 
2995.000000	97.813621 
2994.000000	97.797917 
2993.000000	97.767978 
2992.000000	97.719008 
2991.000000	97.659016 
2990.000000	97.605534 
2989.000000	97.573075 
2988.000000	97.564074 
2987.000000	97.571004 
2986.000000	97.584511 
2985.000000	97.598558 
2984.000000	97.610085 
2983.000000	97.617795 
2982.000000	97.622344 
2981.000000	97.625492 
2980.000000	97.627620 
2979.000000	97.627137 
2978.000000	97.623116 
2977.000000	97.617152 
2976.000000	97.611345 
2975.000000	97.605678 
2974.000000	97.599430 
2973.000000	97.594798 
2972.000000	97.596882 
2971.000000	97.609171 
2970.000000	97.630057 
2969.000000	97.654390 
2968.000000	97.677851 
2967.000000	97.699586 
2966.000000	97.721442 
2965.000000	97.745475 
2964.000000	97.771774 
2963.000000	97.797878 
2962.000000	97.820333 
2961.000000	97.837277 
2960.000000	97.849834 
2959.000000	97.861307 
2958.000000	97.875205 
2957.000000	97.893496 
2956.000000	97.915541 
2955.000000	97.938228 
2954.000000	97.957963 
2953.000000	97.973445 
2952.000000	97.986493 
2951.000000	97.999954 
2950.000000	98.014980 
2949.000000	98.030428 
2948.000000	98.044311 
2947.000000	98.055243 
2946.000000	98.063083 
2945.000000	98.068895 
2944.000000	98.074173 
2943.000000	98.079921 
2942.000000	98.086447 
2941.000000	98.093742 
2940.000000	98.101692 
2939.000000	98.109864 
2938.000000	98.117528 
2937.000000	98.124327 
2936.000000	98.130843 
2935.000000	98.138332 
2934.000000	98.147983 
2933.000000	98.160056 
2932.000000	98.172855 
2931.000000	98.182512 
2930.000000	98.185114 
2929.000000	98.180265 
2928.000000	98.172334 
2927.000000	98.167171 
2926.000000	98.167320 
2925.000000	98.170628 
2924.000000	98.173111 
2923.000000	98.172372 
2922.000000	98.168451 
2921.000000	98.162429 
2920.000000	98.154801 
2919.000000	98.145041 
2918.000000	98.132477 
2917.000000	98.117382 
2916.000000	98.100896 
2915.000000	98.083884 
2914.000000	98.066422 
2913.000000	98.048843 
2912.000000	98.032742 
2911.000000	98.020099 
2910.000000	98.011448 
2909.000000	98.005463 
2908.000000	98.000394 
2907.000000	97.994833 
2906.000000	97.986605 
2905.000000	97.972082 
2904.000000	97.948977 
2903.000000	97.921218 
2902.000000	97.900150 
2901.000000	97.897775 
2900.000000	97.917481 
2899.000000	97.950897 
2898.000000	97.983435 
2897.000000	98.004809 
2896.000000	98.014045 
2895.000000	98.016385 
2894.000000	98.017604 
2893.000000	98.021111 
2892.000000	98.027866 
2891.000000	98.036704 
2890.000000	98.044927 
2889.000000	98.050080 
2888.000000	98.051829 
2887.000000	98.052041 
2886.000000	98.053330 
2885.000000	98.057992 
2884.000000	98.067778 
2883.000000	98.083327 
2882.000000	98.103290 
2881.000000	98.124704 
2880.000000	98.145033 
2879.000000	98.163993 
2878.000000	98.183045 
2877.000000	98.203103 
2876.000000	98.223050 
2875.000000	98.240792 
2874.000000	98.255675 
2873.000000	98.269303 
2872.000000	98.283492 
2871.000000	98.297703 
2870.000000	98.309430 
2869.000000	98.317517 
2868.000000	98.324528 
2867.000000	98.335189 
2866.000000	98.352586 
2865.000000	98.376203 
2864.000000	98.403266 
2863.000000	98.431325 
2862.000000	98.459535 
2861.000000	98.488147 
2860.000000	98.517499 
2859.000000	98.547521 
2858.000000	98.577594 
2857.000000	98.606379 
2856.000000	98.631731 
2855.000000	98.651485 
2854.000000	98.665305 
2853.000000	98.675533 
2852.000000	98.685087 
2851.000000	98.694539 
2850.000000	98.702014 
2849.000000	98.705757 
2848.000000	98.706013 
2847.000000	98.704606 
2846.000000	98.703766 
2845.000000	98.705474 
2844.000000	98.710692 
2843.000000	98.718537 
2842.000000	98.726836 
2841.000000	98.733919 
2840.000000	98.739343 
2839.000000	98.743030 
2838.000000	98.745046 
2837.000000	98.746632 
2836.000000	98.749848 
2835.000000	98.755122 
2834.000000	98.760456 
2833.000000	98.764295 
2832.000000	98.767934 
2831.000000	98.773338 
2830.000000	98.779468 
2829.000000	98.782980 
2828.000000	98.782544 
2827.000000	98.780565 
2826.000000	98.780300 
2825.000000	98.782782 
2824.000000	98.787185 
2823.000000	98.792656 
2822.000000	98.798693 
2821.000000	98.804519 
2820.000000	98.809169 
2819.000000	98.812048 
2818.000000	98.813012 
2817.000000	98.812337 
2816.000000	98.810965 
2815.000000	98.810280 
2814.000000	98.811168 
2813.000000	98.813518 
2812.000000	98.816799 
2811.000000	98.820667 
2810.000000	98.824758 
2809.000000	98.828394 
2808.000000	98.830997 
2807.000000	98.832563 
2806.000000	98.833369 
2805.000000	98.833432 
2804.000000	98.832602 
2803.000000	98.831140 
2802.000000	98.829842 
2801.000000	98.829460 
2800.000000	98.830173 
2799.000000	98.831663 
2798.000000	98.833557 
2797.000000	98.835589 
2796.000000	98.837404 
2795.000000	98.838561 
2794.000000	98.838970 
2793.000000	98.839199 
2792.000000	98.839967 
2791.000000	98.841346 
2790.000000	98.842734 
2789.000000	98.843638 
2788.000000	98.844166 
2787.000000	98.844708 
2786.000000	98.845491 
2785.000000	98.846612 
2784.000000	98.848149 
2783.000000	98.849941 
2782.000000	98.851438 
2781.000000	98.852175 
2780.000000	98.852322 
2779.000000	98.852560 
2778.000000	98.853410 
2777.000000	98.854824 
2776.000000	98.856377 
2775.000000	98.857655 
2774.000000	98.858524 
2773.000000	98.859140 
2772.000000	98.859791 
2771.000000	98.860628 
2770.000000	98.861544 
2769.000000	98.862343 
2768.000000	98.862987 
2767.000000	98.863581 
2766.000000	98.864172 
2765.000000	98.864668 
2764.000000	98.864975 
2763.000000	98.865173 
2762.000000	98.865540 
2761.000000	98.866342 
2760.000000	98.867606 
2759.000000	98.869064 
2758.000000	98.870356 
2757.000000	98.871356 
2756.000000	98.872198 
2755.000000	98.873035 
2754.000000	98.873838 
2753.000000	98.874507 
2752.000000	98.875116 
2751.000000	98.875867 
2750.000000	98.876791 
2749.000000	98.877673 
2748.000000	98.878342 
2747.000000	98.878936 
2746.000000	98.879724 
2745.000000	98.880747 
2744.000000	98.881816 
2743.000000	98.882819 
2742.000000	98.883855 
2741.000000	98.884999 
2740.000000	98.886069 
2739.000000	98.886800 
2738.000000	98.887182 
2737.000000	98.887521 
2736.000000	98.888130 
2735.000000	98.889012 
2734.000000	98.889923 
2733.000000	98.890672 
2732.000000	98.891296 
2731.000000	98.891971 
2730.000000	98.892857 
2729.000000	98.894039 
2728.000000	98.895496 
2727.000000	98.897058 
2726.000000	98.898449 
2725.000000	98.899471 
2724.000000	98.900128 
2723.000000	98.900567 
2722.000000	98.900929 
2721.000000	98.901283 
2720.000000	98.901644 
2719.000000	98.902031 
2718.000000	98.902523 
2717.000000	98.903264 
2716.000000	98.904288 
2715.000000	98.905313 
2714.000000	98.905856 
2713.000000	98.905681 
2712.000000	98.905082 
2711.000000	98.904666 
2710.000000	98.904846 
2709.000000	98.905667 
2708.000000	98.906997 
2707.000000	98.908618 
2706.000000	98.910129 
2705.000000	98.911028 
2704.000000	98.911097 
2703.000000	98.910674 
2702.000000	98.910444 
2701.000000	98.910928 
2700.000000	98.912151 
2699.000000	98.913685 
2698.000000	98.914905 
2697.000000	98.915366 
2696.000000	98.915079 
2695.000000	98.914460 
2694.000000	98.913924 
2693.000000	98.913487 
2692.000000	98.912792 
2691.000000	98.911580 
2690.000000	98.910182 
2689.000000	98.909398 
2688.000000	98.909684 
2687.000000	98.910603 
2686.000000	98.911300 
2685.000000	98.911550 
2684.000000	98.911949 
2683.000000	98.912926 
2682.000000	98.913983 
2681.000000	98.914270 
2680.000000	98.913625 
2679.000000	98.912648 
2678.000000	98.911893 
2677.000000	98.911429 
2676.000000	98.911145 
2675.000000	98.910996 
2674.000000	98.910823 
2673.000000	98.910336 
2672.000000	98.909472 
2671.000000	98.908570 
2670.000000	98.908006 
2669.000000	98.907758 
2668.000000	98.907446 
2667.000000	98.906708 
2666.000000	98.905445 
2665.000000	98.903777 
2664.000000	98.901791 
2663.000000	98.899365 
2662.000000	98.896335 
2661.000000	98.893024 
2660.000000	98.890430 
2659.000000	98.889521 
2658.000000	98.890310 
2657.000000	98.891723 
2656.000000	98.892457 
2655.000000	98.891879 
2654.000000	98.890058 
2653.000000	98.887397 
2652.000000	98.884574 
2651.000000	98.882558 
2650.000000	98.882061 
2649.000000	98.882776 
2648.000000	98.883395 
2647.000000	98.882774 
2646.000000	98.881073 
2645.000000	98.879544 
2644.000000	98.879219 
2643.000000	98.879973 
2642.000000	98.880759 
2641.000000	98.880619 
2640.000000	98.879490 
2639.000000	98.878205 
2638.000000	98.877791 
2637.000000	98.878631 
2636.000000	98.880201 
2635.000000	98.881597 
2634.000000	98.882348 
2633.000000	98.882641 
2632.000000	98.882805 
2631.000000	98.882813 
2630.000000	98.882428 
2629.000000	98.881627 
2628.000000	98.880693 
2627.000000	98.879933 
2626.000000	98.879407 
2625.000000	98.878943 
2624.000000	98.878410 
2623.000000	98.878014 
2622.000000	98.878260 
2621.000000	98.879427 
2620.000000	98.881081 
2619.000000	98.882291 
2618.000000	98.882510 
2617.000000	98.881989 
2616.000000	98.881310 
2615.000000	98.880765 
2614.000000	98.880363 
2613.000000	98.880204 
2612.000000	98.880419 
2611.000000	98.880871 
2610.000000	98.881309 
2609.000000	98.881701 
2608.000000	98.882180 
2607.000000	98.882739 
2606.000000	98.883282 
2605.000000	98.883905 
2604.000000	98.884753 
2603.000000	98.885707 
2602.000000	98.886506 
2601.000000	98.887067 
2600.000000	98.887497 
2599.000000	98.887894 
2598.000000	98.888286 
2597.000000	98.888721 
2596.000000	98.889265 
2595.000000	98.889923 
2594.000000	98.890623 
2593.000000	98.891269 
2592.000000	98.891811 
2591.000000	98.892260 
2590.000000	98.892684 
2589.000000	98.893172 
2588.000000	98.893752 
2587.000000	98.894386 
2586.000000	98.895000 
2585.000000	98.895553 
2584.000000	98.896055 
2583.000000	98.896537 
2582.000000	98.897016 
2581.000000	98.897505 
2580.000000	98.898010 
2579.000000	98.898522 
2578.000000	98.899029 
2577.000000	98.899533 
2576.000000	98.900046 
2575.000000	98.900568 
2574.000000	98.901088 
2573.000000	98.901600 
2572.000000	98.902099 
2571.000000	98.902581 
2570.000000	98.903042 
2569.000000	98.903485 
2568.000000	98.903922 
2567.000000	98.904357 
2566.000000	98.904781 
2565.000000	98.905181 
2564.000000	98.905544 
2563.000000	98.905875 
2562.000000	98.906199 
2561.000000	98.906547 
2560.000000	98.906933 
2559.000000	98.907336 
2558.000000	98.907712 
2557.000000	98.908018 
2556.000000	98.908271 
2555.000000	98.908519 
2554.000000	98.908749 
2553.000000	98.908922 
2552.000000	98.909085 
2551.000000	98.909320 
2550.000000	98.909591 
2549.000000	98.909770 
2548.000000	98.909823 
2547.000000	98.909838 
2546.000000	98.909870 
2545.000000	98.909874 
2544.000000	98.909833 
2543.000000	98.909816 
2542.000000	98.909896 
2541.000000	98.910080 
2540.000000	98.910318 
2539.000000	98.910507 
2538.000000	98.910494 
2537.000000	98.910235 
2536.000000	98.909980 
2535.000000	98.910084 
2534.000000	98.910575 
2533.000000	98.911057 
2532.000000	98.911160 
2531.000000	98.910879 
2530.000000	98.910391 
2529.000000	98.909823 
2528.000000	98.909323 
2527.000000	98.909069 
2526.000000	98.909010 
2525.000000	98.908780 
2524.000000	98.908122 
2523.000000	98.907266 
2522.000000	98.906711 
2521.000000	98.906700 
2520.000000	98.907090 
2519.000000	98.907566 
2518.000000	98.907781 
2517.000000	98.907540 
2516.000000	98.907075 
2515.000000	98.907030 
2514.000000	98.907918 
2513.000000	98.909613 
2512.000000	98.911321 
2511.000000	98.912141 
2510.000000	98.911714 
2509.000000	98.910473 
2508.000000	98.909395 
2507.000000	98.909093 
2506.000000	98.909196 
2505.000000	98.908838 
2504.000000	98.907749 
2503.000000	98.906572 
2502.000000	98.906001 
2501.000000	98.906022 
2500.000000	98.906219 
2499.000000	98.906495 
2498.000000	98.907142 
2497.000000	98.908361 
2496.000000	98.909927 
2495.000000	98.911209 
2494.000000	98.911559 
2493.000000	98.910969 
2492.000000	98.910349 
2491.000000	98.910798 
2490.000000	98.912485 
2489.000000	98.914514 
2488.000000	98.915892 
2487.000000	98.916420 
2486.000000	98.916539 
2485.000000	98.916694 
2484.000000	98.916965 
2483.000000	98.917043 
2482.000000	98.916456 
2481.000000	98.915106 
2480.000000	98.913671 
2479.000000	98.913151 
2478.000000	98.913907 
2477.000000	98.915366 
2476.000000	98.916601 
2475.000000	98.917044 
2474.000000	98.916623 
2473.000000	98.915600 
2472.000000	98.914434 
2471.000000	98.913532 
2470.000000	98.912947 
2469.000000	98.912461 
2468.000000	98.911953 
2467.000000	98.911413 
2466.000000	98.910682 
2465.000000	98.909581 
2464.000000	98.908374 
2463.000000	98.907695 
2462.000000	98.907872 
2461.000000	98.908563 
2460.000000	98.909086 
2459.000000	98.908973 
2458.000000	98.908161 
2457.000000	98.906923 
2456.000000	98.905784 
2455.000000	98.905212 
2454.000000	98.905218 
2453.000000	98.905343 
2452.000000	98.905128 
2451.000000	98.904577 
2450.000000	98.904054 
2449.000000	98.903869 
2448.000000	98.904082 
2447.000000	98.904529 
2446.000000	98.904939 
2445.000000	98.905077 
2444.000000	98.904909 
2443.000000	98.904589 
2442.000000	98.904268 
2441.000000	98.903967 
2440.000000	98.903672 
2439.000000	98.903442 
2438.000000	98.903349 
2437.000000	98.903333 
2436.000000	98.903236 
2435.000000	98.902979 
2434.000000	98.902646 
2433.000000	98.902443 
2432.000000	98.902566 
2431.000000	98.903064 
2430.000000	98.903758 
2429.000000	98.904339 
2428.000000	98.904621 
2427.000000	98.904681 
2426.000000	98.904753 
2425.000000	98.904989 
2424.000000	98.905348 
2423.000000	98.905659 
2422.000000	98.905801 
2421.000000	98.905892 
2420.000000	98.906240 
2419.000000	98.907025 
2418.000000	98.908018 
2417.000000	98.908740 
2416.000000	98.908964 
2415.000000	98.908944 
2414.000000	98.909126 
2413.000000	98.909692 
2412.000000	98.910528 
2411.000000	98.911394 
2410.000000	98.912031 
2409.000000	98.912243 
2408.000000	98.912072 
2407.000000	98.911792 
2406.000000	98.911621 
2405.000000	98.911509 
2404.000000	98.911304 
2403.000000	98.911040 
2402.000000	98.910909 
2401.000000	98.911006 
2400.000000	98.911270 
2399.000000	98.911637 
2398.000000	98.912079 
2397.000000	98.912490 
2396.000000	98.912685 
2395.000000	98.912536 
2394.000000	98.912113 
2393.000000	98.911717 
2392.000000	98.911727 
2391.000000	98.912276 
2390.000000	98.913051 
2389.000000	98.913462 
2388.000000	98.913206 
2387.000000	98.912607 
2386.000000	98.912340 
2385.000000	98.912769 
2384.000000	98.913563 
2383.000000	98.913950 
2382.000000	98.913396 
2381.000000	98.912009 
2380.000000	98.910429 
2379.000000	98.909270 
2378.000000	98.908627 
2377.000000	98.908124 
2376.000000	98.907356 
2375.000000	98.906241 
2374.000000	98.905022 
2373.000000	98.904037 
2372.000000	98.903478 
2371.000000	98.903265 
2370.000000	98.903035 
2369.000000	98.902429 
2368.000000	98.901402 
2367.000000	98.900189 
2366.000000	98.899001 
2365.000000	98.897798 
2364.000000	98.896395 
2363.000000	98.894697 
2362.000000	98.892733 
2361.000000	98.890710 
2360.000000	98.888949 
2359.000000	98.887598 
2358.000000	98.886584 
2357.000000	98.885644 
2356.000000	98.884572 
2355.000000	98.883334 
2354.000000	98.881792 
2353.000000	98.879770 
2352.000000	98.877375 
2351.000000	98.875162 
2350.000000	98.873496 
2349.000000	98.872113 
2348.000000	98.870643 
2347.000000	98.868910 
2346.000000	98.866942 
2345.000000	98.864853 
2344.000000	98.862955 
2343.000000	98.861530 
2342.000000	98.860183 
2341.000000	98.858420 
2340.000000	98.856225 
2339.000000	98.854085 
2338.000000	98.852405 
2337.000000	98.851027 
2336.000000	98.849464 
2335.000000	98.847459 
2334.000000	98.845249 
2333.000000	98.843435 
2332.000000	98.842531 
2331.000000	98.842598 
2330.000000	98.842935 
2329.000000	98.842251 
2328.000000	98.839810 
2327.000000	98.835488 
2326.000000	98.830024 
2325.000000	98.824671 
2324.000000	98.820735 
2323.000000	98.818961 
2322.000000	98.818756 
2321.000000	98.819203 
2320.000000	98.819945 
2319.000000	98.821269 
2318.000000	98.822777 
2317.000000	98.823293 
2316.000000	98.822028 
2315.000000	98.819232 
2314.000000	98.815883 
2313.000000	98.812795 
2312.000000	98.810528 
2311.000000	98.809164 
2310.000000	98.808442 
2309.000000	98.808005 
2308.000000	98.808063 
2307.000000	98.808967 
2306.000000	98.810411 
2305.000000	98.811478 
2304.000000	98.811661 
2303.000000	98.811118 
2302.000000	98.809877 
2301.000000	98.807681 
2300.000000	98.804831 
2299.000000	98.802253 
2298.000000	98.800504 
2297.000000	98.799212 
2296.000000	98.797960 
2295.000000	98.796619 
2294.000000	98.794884 
2293.000000	98.792148 
2292.000000	98.788493 
2291.000000	98.784760 
2290.000000	98.781287 
2289.000000	98.777537 
2288.000000	98.773395 
2287.000000	98.769902 
2286.000000	98.768034 
2285.000000	98.767752 
2284.000000	98.768756 
2283.000000	98.771190 
2282.000000	98.774714 
2281.000000	98.778041 
2280.000000	98.780128 
2279.000000	98.780945 
2278.000000	98.780503 
2277.000000	98.778652 
2276.000000	98.776299 
2275.000000	98.775261 
2274.000000	98.775997 
2273.000000	98.776828 
2272.000000	98.776426 
2271.000000	98.775795 
2270.000000	98.776732 
2269.000000	98.779280 
2268.000000	98.781673 
2267.000000	98.782209 
2266.000000	98.780400 
2265.000000	98.777004 
2264.000000	98.773760 
2263.000000	98.772225 
2262.000000	98.772256 
2261.000000	98.772016 
2260.000000	98.769979 
2259.000000	98.766497 
2258.000000	98.763134 
2257.000000	98.760965 
2256.000000	98.759899 
2255.000000	98.759368 
2254.000000	98.758987 
2253.000000	98.758649 
2252.000000	98.758390 
2251.000000	98.758260 
2250.000000	98.758212 
2249.000000	98.758063 
2248.000000	98.757642 
2247.000000	98.756842 
2246.000000	98.755652 
2245.000000	98.754223 
2244.000000	98.752830 
2243.000000	98.751649 
2242.000000	98.750603 
2241.000000	98.749483 
2240.000000	98.748238 
2239.000000	98.747087 
2238.000000	98.746222 
2237.000000	98.745455 
2236.000000	98.744393 
2235.000000	98.742920 
2234.000000	98.741368 
2233.000000	98.740181 
2232.000000	98.739453 
2231.000000	98.738928 
2230.000000	98.738228 
2229.000000	98.737180 
2228.000000	98.735833 
2227.000000	98.734300 
2226.000000	98.732565 
2225.000000	98.730566 
2224.000000	98.728539 
2223.000000	98.727021 
2222.000000	98.726298 
2221.000000	98.726006 
2220.000000	98.725398 
2219.000000	98.724171 
2218.000000	98.722728 
2217.000000	98.721632 
2216.000000	98.720943 
2215.000000	98.720264 
2214.000000	98.719280 
2213.000000	98.718031 
2212.000000	98.716598 
2211.000000	98.714812 
2210.000000	98.712539 
2209.000000	98.710161 
2208.000000	98.708515 
2207.000000	98.708195 
2206.000000	98.708975 
2205.000000	98.710012 
2204.000000	98.710761 
2203.000000	98.711389 
2202.000000	98.712031 
2201.000000	98.711957 
2200.000000	98.709707 
2199.000000	98.704227 
2198.000000	98.696252 
2197.000000	98.688589 
2196.000000	98.684801 
2195.000000	98.686299 
2194.000000	98.690424 
2193.000000	98.692243 
2192.000000	98.688520 
2191.000000	98.679563 
2190.000000	98.668304 
2189.000000	98.658590 
2188.000000	98.653194 
2187.000000	98.652165 
2186.000000	98.653567 
2185.000000	98.656529 
2184.000000	98.662035 
2183.000000	98.669309 
2182.000000	98.673784 
2181.000000	98.671848 
2180.000000	98.665917 
2179.000000	98.661156 
2178.000000	98.658492 
2177.000000	98.655264 
2176.000000	98.651927 
2175.000000	98.652855 
2174.000000	98.659453 
2173.000000	98.666955 
2172.000000	98.670032 
2171.000000	98.668081 
2170.000000	98.663139 
2169.000000	98.655977 
2168.000000	98.646649 
2167.000000	98.636517 
2166.000000	98.627275 
2165.000000	98.619132 
2164.000000	98.611429 
2163.000000	98.604251 
2162.000000	98.599512 
2161.000000	98.602246 
2160.000000	98.619517 
2159.000000	98.653403 
2158.000000	98.693644 
2157.000000	98.723075 
2156.000000	98.733937 
2155.000000	98.732526 
2154.000000	98.729332 
2153.000000	98.729402 
2152.000000	98.732257 
2151.000000	98.736234 
2150.000000	98.739645 
2149.000000	98.740724 
2148.000000	98.739994 
2147.000000	98.741351 
2146.000000	98.748359 
2145.000000	98.760457 
2144.000000	98.774326 
2143.000000	98.787314 
2142.000000	98.797437 
2141.000000	98.801787 
2140.000000	98.798195 
2139.000000	98.788692 
2138.000000	98.779596 
2137.000000	98.777061 
2136.000000	98.782420 
2135.000000	98.791713 
2134.000000	98.799391 
2133.000000	98.802880 
2132.000000	98.803811 
2131.000000	98.804914 
2130.000000	98.806312 
2129.000000	98.805579 
2128.000000	98.800990 
2127.000000	98.793729 
2126.000000	98.787011 
2125.000000	98.783582 
2124.000000	98.783679 
2123.000000	98.784913 
2122.000000	98.784510 
2121.000000	98.782053 
2120.000000	98.779413 
2119.000000	98.777647 
2118.000000	98.775313 
2117.000000	98.770875 
2116.000000	98.765601 
2115.000000	98.762211 
2114.000000	98.761638 
2113.000000	98.762976 
2112.000000	98.765876 
2111.000000	98.770278 
2110.000000	98.773755 
2109.000000	98.772641 
2108.000000	98.766587 
2107.000000	98.759476 
2106.000000	98.755015 
2105.000000	98.753116 
2104.000000	98.751558 
2103.000000	98.749262 
2102.000000	98.746633 
2101.000000	98.744100 
2100.000000	98.741807 
2099.000000	98.740145 
2098.000000	98.739679 
2097.000000	98.740712 
2096.000000	98.743031 
2095.000000	98.745512 
2094.000000	98.746336 
2093.000000	98.744525 
2092.000000	98.740945 
2091.000000	98.737362 
2090.000000	98.734769 
2089.000000	98.732884 
2088.000000	98.730941 
2087.000000	98.728463 
2086.000000	98.725483 
2085.000000	98.722441 
2084.000000	98.719909 
2083.000000	98.718208 
2082.000000	98.717164 
2081.000000	98.716260 
2080.000000	98.715128 
2079.000000	98.713721 
2078.000000	98.712002 
2077.000000	98.709822 
2076.000000	98.707232 
2075.000000	98.704548 
2074.000000	98.701940 
2073.000000	98.699306 
2072.000000	98.696700 
2071.000000	98.694538 
2070.000000	98.693134 
2069.000000	98.692227 
2068.000000	98.691147 
2067.000000	98.689312 
2066.000000	98.686518 
2065.000000	98.683134 
2064.000000	98.680087 
2063.000000	98.678226 
2062.000000	98.677473 
2061.000000	98.676759 
2060.000000	98.674978 
2059.000000	98.671932 
2058.000000	98.668428 
2057.000000	98.665759 
2056.000000	98.664782 
2055.000000	98.664921 
2054.000000	98.664045 
2053.000000	98.660160 
2052.000000	98.653148 
2051.000000	98.644858 
2050.000000	98.637614 
2049.000000	98.632830 
2048.000000	98.631094 
2047.000000	98.632349 
2046.000000	98.635389 
2045.000000	98.637980 
2044.000000	98.638294 
2043.000000	98.635815 
2042.000000	98.630976 
2041.000000	98.625048 
2040.000000	98.620258 
2039.000000	98.618583 
2038.000000	98.620200 
2037.000000	98.623884 
2036.000000	98.628577 
2035.000000	98.633342 
2034.000000	98.636281 
2033.000000	98.635971 
2032.000000	98.633885 
2031.000000	98.632760 
2030.000000	98.632332 
2029.000000	98.629812 
2028.000000	98.624934 
2027.000000	98.621028 
2026.000000	98.619965 
2025.000000	98.619235 
2024.000000	98.615804 
2023.000000	98.610399 
2022.000000	98.606040 
2021.000000	98.604188 
2020.000000	98.604052 
2019.000000	98.604109 
2018.000000	98.602972 
2017.000000	98.600504 
2016.000000	98.599379 
2015.000000	98.603404 
2014.000000	98.613115 
2013.000000	98.624501 
2012.000000	98.632743 
2011.000000	98.635771 
2010.000000	98.634200 
2009.000000	98.630651 
2008.000000	98.628623 
2007.000000	98.628711 
2006.000000	98.626770 
2005.000000	98.619585 
2004.000000	98.610868 
2003.000000	98.606902 
2002.000000	98.607200 
2001.000000	98.605303 
2000.000000	98.598910 
1999.000000	98.592957 
1998.000000	98.591326 
1997.000000	98.591780 
1996.000000	98.591339 
1995.000000	98.591122 
1994.000000	98.592292 
1993.000000	98.591793 
1992.000000	98.586871 
1991.000000	98.580785 
1990.000000	98.578930 
1989.000000	98.581452 
1988.000000	98.583708 
1987.000000	98.582280 
1986.000000	98.577859 
1985.000000	98.573285 
1984.000000	98.570850 
1983.000000	98.570548 
1982.000000	98.569657 
1981.000000	98.565655 
1980.000000	98.560457 
1979.000000	98.559320 
1978.000000	98.564831 
1977.000000	98.574865 
1976.000000	98.586748 
1975.000000	98.599633 
1974.000000	98.611320 
1973.000000	98.617513 
1972.000000	98.616640 
1971.000000	98.611881 
1970.000000	98.606844 
1969.000000	98.602046 
1968.000000	98.597489 
1967.000000	98.595205 
1966.000000	98.596581 
1965.000000	98.599948 
1964.000000	98.603226 
1963.000000	98.606877 
1962.000000	98.612138 
1961.000000	98.618200 
1960.000000	98.623001 
1959.000000	98.625519 
1958.000000	98.625869 
1957.000000	98.624757 
1956.000000	98.623991 
1955.000000	98.625724 
1954.000000	98.629905 
1953.000000	98.633708 
1952.000000	98.634724 
1951.000000	98.633726 
1950.000000	98.633349 
1949.000000	98.635112 
1948.000000	98.638797 
1947.000000	98.643576 
1946.000000	98.648375 
1945.000000	98.651992 
1944.000000	98.653898 
1943.000000	98.654628 
1942.000000	98.654904 
1941.000000	98.654938 
1940.000000	98.654941 
1939.000000	98.655419 
1938.000000	98.656611 
1937.000000	98.658199 
1936.000000	98.659772 
1935.000000	98.661183 
1934.000000	98.662434 
1933.000000	98.663497 
1932.000000	98.664388 
1931.000000	98.665250 
1930.000000	98.666203 
1929.000000	98.667215 
1928.000000	98.668209 
1927.000000	98.669151 
1926.000000	98.670024 
1925.000000	98.670811 
1924.000000	98.671542 
1923.000000	98.672282 
1922.000000	98.673045 
1921.000000	98.673786 
1920.000000	98.674429 
1919.000000	98.674944 
1918.000000	98.675352 
1917.000000	98.675713 
1916.000000	98.676096 
1915.000000	98.676545 
1914.000000	98.677050 
1913.000000	98.677529 
1912.000000	98.677905 
1911.000000	98.678210 
1910.000000	98.678524 
1909.000000	98.678829 
1908.000000	98.679059 
1907.000000	98.679203 
1906.000000	98.679306 
1905.000000	98.679406 
1904.000000	98.679530 
1903.000000	98.679693 
1902.000000	98.679891 
1901.000000	98.680112 
1900.000000	98.680353 
1899.000000	98.680616 
1898.000000	98.680910 
1897.000000	98.681219 
1896.000000	98.681492 
1895.000000	98.681701 
1894.000000	98.681879 
1893.000000	98.682068 
1892.000000	98.682289 
1891.000000	98.682585 
1890.000000	98.683003 
1889.000000	98.683542 
1888.000000	98.684179 
1887.000000	98.684877 
1886.000000	98.685524 
1885.000000	98.685960 
1884.000000	98.686149 
1883.000000	98.686351 
1882.000000	98.686861 
1881.000000	98.687658 
1880.000000	98.688512 
1879.000000	98.689339 
1878.000000	98.690174 
1877.000000	98.690975 
1876.000000	98.691794 
1875.000000	98.692928 
1874.000000	98.694475 
1873.000000	98.695947 
1872.000000	98.696859 
1871.000000	98.697407 
1870.000000	98.697994 
1869.000000	98.698450 
1868.000000	98.698628 
1867.000000	98.699172 
1866.000000	98.700583 
1865.000000	98.702459 
1864.000000	98.704163 
1863.000000	98.705759 
1862.000000	98.707602 
1861.000000	98.709356 
1860.000000	98.710426 
1859.000000	98.711012 
1858.000000	98.711648 
1857.000000	98.712153 
1856.000000	98.712187 
1855.000000	98.712394 
1854.000000	98.713663 
1853.000000	98.715691 
1852.000000	98.717438 
1851.000000	98.718643 
1850.000000	98.719962 
1849.000000	98.721962 
1848.000000	98.724628 
1847.000000	98.727651 
1846.000000	98.730443 
1845.000000	98.732079 
1844.000000	98.732521 
1843.000000	98.733150 
1842.000000	98.734463 
1841.000000	98.735303 
1840.000000	98.734796 
1839.000000	98.733458 
1838.000000	98.732708 
1837.000000	98.733272 
1836.000000	98.734876 
1835.000000	98.737069 
1834.000000	98.739276 
1833.000000	98.740683 
1832.000000	98.740653 
1831.000000	98.739171 
1830.000000	98.737192 
1829.000000	98.735940 
1828.000000	98.735624 
1827.000000	98.735914 
1826.000000	98.736706 
1825.000000	98.737611 
1824.000000	98.738121 
1823.000000	98.738601 
1822.000000	98.739812 
1821.000000	98.741702 
1820.000000	98.743548 
1819.000000	98.745257 
1818.000000	98.747234 
1817.000000	98.748734 
1816.000000	98.748632 
1815.000000	98.747428 
1814.000000	98.746624 
1813.000000	98.746553 
1812.000000	98.746231 
1811.000000	98.745528 
1810.000000	98.745398 
1809.000000	98.745754 
1808.000000	98.745732 
1807.000000	98.745389 
1806.000000	98.745288 
1805.000000	98.745298 
1804.000000	98.745075 
1803.000000	98.745011 
1802.000000	98.745592 
1801.000000	98.746304 
1800.000000	98.746297 
1799.000000	98.745902 
1798.000000	98.745964 
1797.000000	98.746324 
1796.000000	98.746552 
1795.000000	98.747083 
1794.000000	98.748436 
1793.000000	98.749629 
1792.000000	98.749214 
1791.000000	98.748028 
1790.000000	98.747853 
1789.000000	98.748284 
1788.000000	98.747922 
1787.000000	98.746947 
1786.000000	98.746926 
1785.000000	98.748212 
1784.000000	98.749490 
1783.000000	98.749932 
1782.000000	98.749952 
1781.000000	98.750396 
1780.000000	98.751526 
1779.000000	98.753069 
1778.000000	98.754561 
1777.000000	98.755314 
1776.000000	98.754917 
1775.000000	98.753547 
1774.000000	98.752129 
1773.000000	98.751950 
1772.000000	98.752955 
1771.000000	98.754004 
1770.000000	98.755439 
1769.000000	98.758335 
1768.000000	98.761951 
1767.000000	98.764232 
1766.000000	98.764505 
1765.000000	98.763864 
1764.000000	98.763240 
1763.000000	98.762732 
1762.000000	98.763094 
1761.000000	98.765580 
1760.000000	98.769595 
1759.000000	98.773548 
1758.000000	98.776848 
1757.000000	98.779977 
1756.000000	98.782998 
1755.000000	98.785151 
1754.000000	98.786942 
1753.000000	98.790284 
1752.000000	98.795370 
1751.000000	98.799176 
1750.000000	98.799675 
1749.000000	98.798401 
1748.000000	98.797472 
1747.000000	98.797066 
1746.000000	98.796991 
1745.000000	98.797946 
1744.000000	98.799738 
1743.000000	98.800915 
1742.000000	98.801010 
1741.000000	98.801021 
1740.000000	98.801670 
1739.000000	98.802684 
1738.000000	98.803477 
1737.000000	98.803865 
1736.000000	98.804208 
1735.000000	98.804919 
1734.000000	98.805919 
1733.000000	98.806783 
1732.000000	98.807359 
1731.000000	98.807870 
1730.000000	98.808525 
1729.000000	98.809257 
1728.000000	98.809918 
1727.000000	98.810466 
1726.000000	98.810956 
1725.000000	98.811424 
1724.000000	98.811860 
1723.000000	98.812262 
1722.000000	98.812631 
1721.000000	98.812970 
1720.000000	98.813278 
1719.000000	98.813551 
1718.000000	98.813786 
1717.000000	98.813984 
1716.000000	98.814154 
1715.000000	98.814318 
1714.000000	98.814491 
1713.000000	98.814673 
1712.000000	98.814856 
1711.000000	98.815032 
1710.000000	98.815201 
1709.000000	98.815370 
1708.000000	98.815545 
1707.000000	98.815734 
1706.000000	98.815937 
1705.000000	98.816149 
1704.000000	98.816369 
1703.000000	98.816603 
1702.000000	98.816867 
1701.000000	98.817162 
1700.000000	98.817475 
1699.000000	98.817793 
1698.000000	98.818116 
1697.000000	98.818447 
1696.000000	98.818786 
1695.000000	98.819135 
1694.000000	98.819494 
1693.000000	98.819865 
1692.000000	98.820250 
1691.000000	98.820655 
1690.000000	98.821080 
1689.000000	98.821518 
1688.000000	98.821961 
1687.000000	98.822405 
1686.000000	98.822853 
1685.000000	98.823311 
1684.000000	98.823784 
1683.000000	98.824278 
1682.000000	98.824796 
1681.000000	98.825338 
1680.000000	98.825907 
1679.000000	98.826496 
1678.000000	98.827101 
1677.000000	98.827720 
1676.000000	98.828352 
1675.000000	98.828993 
1674.000000	98.829631 
1673.000000	98.830258 
1672.000000	98.830871 
1671.000000	98.831473 
1670.000000	98.832072 
1669.000000	98.832676 
1668.000000	98.833287 
1667.000000	98.833899 
1666.000000	98.834503 
1665.000000	98.835096 
1664.000000	98.835684 
1663.000000	98.836273 
1662.000000	98.836870 
1661.000000	98.837476 
1660.000000	98.838090 
1659.000000	98.838708 
1658.000000	98.839328 
1657.000000	98.839957 
1656.000000	98.840598 
1655.000000	98.841251 
1654.000000	98.841917 
1653.000000	98.842603 
1652.000000	98.843315 
1651.000000	98.844048 
1650.000000	98.844795 
1649.000000	98.845556 
1648.000000	98.846335 
1647.000000	98.847130 
1646.000000	98.847941 
1645.000000	98.848776 
1644.000000	98.849637 
1643.000000	98.850527 
1642.000000	98.851450 
1641.000000	98.852397 
1640.000000	98.853358 
1639.000000	98.854327 
1638.000000	98.855308 
1637.000000	98.856315 
1636.000000	98.857356 
1635.000000	98.858371 
1634.000000	98.859288 
1633.000000	98.860176 
1632.000000	98.861213 
1631.000000	98.862497 
1630.000000	98.863880 
1629.000000	98.865094 
1628.000000	98.866130 
1627.000000	98.867170 
1626.000000	98.868242 
1625.000000	98.869334 
1624.000000	98.870691 
1623.000000	98.872512 
1622.000000	98.874443 
1621.000000	98.876103 
1620.000000	98.877684 
1619.000000	98.879550 
1618.000000	98.881613 
1617.000000	98.883460 
1616.000000	98.885136 
1615.000000	98.886477 
1614.000000	98.887057 
1613.000000	98.887548 
1612.000000	98.889298 
1611.000000	98.892498 
1610.000000	98.895396 
1609.000000	98.896740 
1608.000000	98.897647 
1607.000000	98.899216 
1606.000000	98.900483 
1605.000000	98.900815 
1604.000000	98.901541 
1603.000000	98.903551 
1602.000000	98.905896 
1601.000000	98.907749 
1600.000000	98.909535 
1599.000000	98.911115 
1598.000000	98.911463 
1597.000000	98.910834 
1596.000000	98.910932 
1595.000000	98.912416 
1594.000000	98.913884 
1593.000000	98.914294 
1592.000000	98.914458 
1591.000000	98.915174 
1590.000000	98.915807 
1589.000000	98.915897 
1588.000000	98.916272 
1587.000000	98.917394 
1586.000000	98.918215 
1585.000000	98.917974 
1584.000000	98.917674 
1583.000000	98.918197 
1582.000000	98.918783 
1581.000000	98.918887 
1580.000000	98.919116 
1579.000000	98.919477 
1578.000000	98.918915 
1577.000000	98.917312 
1576.000000	98.916503 
1575.000000	98.916710 
1574.000000	98.915866 
1573.000000	98.913775 
1572.000000	98.911964 
1571.000000	98.911250 
1570.000000	98.910989 
1569.000000	98.910882 
1568.000000	98.911365 
1567.000000	98.911614 
1566.000000	98.910661 
1565.000000	98.909108 
1564.000000	98.908044 
1563.000000	98.907322 
1562.000000	98.906130 
1561.000000	98.905106 
1560.000000	98.906074 
1559.000000	98.906850 
1558.000000	98.904039 
1557.000000	98.899457 
1556.000000	98.896000 
1555.000000	98.894158 
1554.000000	98.892871 
1553.000000	98.891017 
1552.000000	98.888801 
1551.000000	98.886984 
1550.000000	98.886041 
1549.000000	98.885447 
1548.000000	98.884575 
1547.000000	98.883410 
1546.000000	98.881991 
1545.000000	98.879997 
1544.000000	98.877533 
1543.000000	98.875368 
1542.000000	98.874019 
1541.000000	98.871983 
1540.000000	98.868749 
1539.000000	98.866344 
1538.000000	98.863718 
1537.000000	98.858623 
1536.000000	98.851935 
1535.000000	98.845930 
1534.000000	98.841416 
1533.000000	98.837599 
1532.000000	98.833984 
1531.000000	98.831252 
1530.000000	98.829348 
1529.000000	98.826468 
1528.000000	98.821394 
1527.000000	98.815430 
1526.000000	98.810465 
1525.000000	98.806053 
1524.000000	98.800974 
1523.000000	98.795947 
1522.000000	98.792139 
1521.000000	98.788588 
1520.000000	98.783611 
1519.000000	98.777740 
1518.000000	98.772957 
1517.000000	98.769855 
1516.000000	98.767028 
1515.000000	98.763523 
1514.000000	98.760295 
1513.000000	98.758057 
1512.000000	98.754905 
1511.000000	98.749683 
1510.000000	98.744105 
1509.000000	98.739986 
1508.000000	98.735820 
1507.000000	98.730914 
1506.000000	98.727495 
1505.000000	98.723118 
1504.000000	98.715413 
1503.000000	98.706413 
1502.000000	98.698539 
1501.000000	98.692091 
1500.000000	98.685285 
1499.000000	98.677699 
1498.000000	98.672712 
1497.000000	98.672305 
1496.000000	98.673244 
1495.000000	98.673034 
1494.000000	98.672789 
1493.000000	98.672835 
1492.000000	98.671425 
1491.000000	98.667123 
1490.000000	98.660886 
1489.000000	98.653604 
1488.000000	98.645188 
1487.000000	98.638293 
1486.000000	98.634666 
1485.000000	98.632049 
1484.000000	98.628570 
1483.000000	98.624571 
1482.000000	98.621207 
1481.000000	98.618109 
1480.000000	98.614337 
1479.000000	98.611050 
1478.000000	98.609994 
1477.000000	98.610041 
1476.000000	98.608893 
1475.000000	98.607839 
1474.000000	98.608739 
1473.000000	98.609112 
1472.000000	98.605777 
1471.000000	98.601166 
1470.000000	98.599163 
1469.000000	98.598861 
1468.000000	98.597180 
1467.000000	98.594219 
1466.000000	98.592610 
1465.000000	98.592509 
1464.000000	98.591293 
1463.000000	98.587657 
1462.000000	98.583259 
1461.000000	98.579129 
1460.000000	98.574498 
1459.000000	98.568598 
1458.000000	98.563168 
1457.000000	98.560179 
1456.000000	98.554757 
1455.000000	98.542631 
1454.000000	98.528550 
1453.000000	98.518422 
1452.000000	98.512098 
1451.000000	98.506846 
1450.000000	98.504466 
1449.000000	98.508103 
1448.000000	98.514376 
1447.000000	98.517355 
1446.000000	98.516178 
1445.000000	98.514649 
1444.000000	98.514804 
1443.000000	98.515143 
1442.000000	98.515531 
1441.000000	98.517661 
1440.000000	98.519782 
1439.000000	98.518058 
1438.000000	98.515016 
1437.000000	98.517780 
1436.000000	98.525520 
1435.000000	98.530306 
1434.000000	98.530703 
1433.000000	98.530108 
1432.000000	98.529332 
1431.000000	98.525834 
1430.000000	98.520104 
1429.000000	98.516131 
1428.000000	98.513956 
1427.000000	98.510312 
1426.000000	98.504087 
1425.000000	98.498770 
1424.000000	98.495674 
1423.000000	98.490216 
1422.000000	98.480449 
1421.000000	98.470342 
1420.000000	98.461886 
1419.000000	98.450754 
1418.000000	98.435731 
1417.000000	98.420057 
1416.000000	98.403490 
1415.000000	98.384224 
1414.000000	98.362887 
1413.000000	98.342590 
1412.000000	98.325377 
1411.000000	98.310567 
1410.000000	98.298448 
1409.000000	98.290166 
1408.000000	98.284938 
1407.000000	98.281887 
1406.000000	98.282499 
1405.000000	98.290120 
1404.000000	98.304566 
1403.000000	98.320549 
1402.000000	98.334779 
1401.000000	98.348859 
1400.000000	98.364257 
1399.000000	98.376585 
1398.000000	98.377694 
1397.000000	98.362381 
1396.000000	98.333067 
1395.000000	98.303407 
1394.000000	98.293207 
1393.000000	98.311635 
1392.000000	98.348993 
1391.000000	98.386975 
1390.000000	98.413252 
1389.000000	98.425739 
1388.000000	98.428274 
1387.000000	98.425604 
1386.000000	98.421494 
1385.000000	98.418912 
1384.000000	98.419603 
1383.000000	98.423420 
1382.000000	98.429383 
1381.000000	98.437049 
1380.000000	98.446764 
1379.000000	98.458427 
1378.000000	98.470971 
1377.000000	98.483889 
1376.000000	98.498104 
1375.000000	98.514315 
1374.000000	98.531650 
1373.000000	98.548765 
1372.000000	98.564912 
1371.000000	98.579740 
1370.000000	98.593130 
1369.000000	98.606569 
1368.000000	98.621995 
1367.000000	98.638599 
1366.000000	98.653506 
1365.000000	98.665148 
1364.000000	98.674753 
1363.000000	98.684846 
1362.000000	98.696683 
1361.000000	98.709493 
1360.000000	98.722065 
1359.000000	98.733965 
1358.000000	98.745536 
1357.000000	98.757683 
1356.000000	98.770739 
1355.000000	98.783085 
1354.000000	98.792710 
1353.000000	98.799918 
1352.000000	98.807420 
1351.000000	98.817198 
1350.000000	98.827207 
1349.000000	98.834756 
1348.000000	98.839335 
1347.000000	98.841796 
1346.000000	98.843888 
1345.000000	98.847687 
1344.000000	98.853947 
1343.000000	98.860694 
1342.000000	98.864868 
1341.000000	98.865659 
1340.000000	98.865105 
1339.000000	98.865271 
1338.000000	98.866785 
1337.000000	98.869849 
1336.000000	98.874102 
1335.000000	98.878086 
1334.000000	98.880948 
1333.000000	98.883971 
1332.000000	98.888485 
1331.000000	98.892732 
1330.000000	98.893536 
1329.000000	98.891028 
1328.000000	98.888594 
1327.000000	98.887933 
1326.000000	98.887422 
1325.000000	98.886574 
1324.000000	98.887379 
1323.000000	98.890320 
1322.000000	98.892973 
1321.000000	98.893411 
1320.000000	98.892465 
1319.000000	98.892015 
1318.000000	98.893205 
1317.000000	98.896472 
1316.000000	98.901395 
1315.000000	98.906241 
1314.000000	98.909491 
1313.000000	98.911833 
1312.000000	98.915034 
1311.000000	98.918949 
1310.000000	98.921629 
1309.000000	98.922153 
1308.000000	98.921499 
1307.000000	98.920707 
1306.000000	98.919648 
1305.000000	98.918524 
1304.000000	98.918142 
1303.000000	98.918399 
1302.000000	98.918313 
1301.000000	98.917592 
1300.000000	98.916852 
1299.000000	98.916404 
1298.000000	98.916323 
1297.000000	98.917317 
1296.000000	98.919975 
1295.000000	98.922995 
1294.000000	98.923959 
1293.000000	98.922086 
1292.000000	98.918812 
1291.000000	98.915696 
1290.000000	98.913002 
1289.000000	98.910504 
1288.000000	98.908344 
1287.000000	98.906475 
1286.000000	98.904277 
1285.000000	98.901301 
1284.000000	98.897921 
1283.000000	98.895237 
1282.000000	98.893848 
1281.000000	98.892603 
1280.000000	98.889425 
1279.000000	98.883346 
1278.000000	98.875566 
1277.000000	98.868262 
1276.000000	98.862324 
1275.000000	98.856725 
1274.000000	98.850155 
1273.000000	98.842515 
1272.000000	98.834451 
1271.000000	98.826184 
1270.000000	98.817272 
1269.000000	98.807106 
1268.000000	98.795356 
1267.000000	98.782441 
1266.000000	98.769711 
1265.000000	98.758234 
1264.000000	98.747388 
1263.000000	98.735770 
1262.000000	98.723392 
1261.000000	98.711705 
1260.000000	98.701294 
1259.000000	98.690899 
1258.000000	98.679515 
1257.000000	98.668131 
1256.000000	98.658408 
1255.000000	98.650568 
1254.000000	98.643391 
1253.000000	98.635687 
1252.000000	98.627374 
1251.000000	98.619800 
1250.000000	98.615426 
1249.000000	98.616343 
1248.000000	98.622389 
1247.000000	98.630770 
1246.000000	98.637177 
1245.000000	98.636633 
1244.000000	98.625303 
1243.000000	98.605339 
1242.000000	98.587727 
1241.000000	98.584938 
1240.000000	98.598135 
1239.000000	98.614484 
1238.000000	98.619847 
1237.000000	98.611606 
1236.000000	98.596559 
1235.000000	98.580236 
1234.000000	98.562827 
1233.000000	98.544121 
1232.000000	98.527021 
1231.000000	98.514932 
1230.000000	98.508457 
1229.000000	98.505329 
1228.000000	98.501811 
1227.000000	98.494576 
1226.000000	98.483495 
1225.000000	98.472381 
1224.000000	98.464932 
1223.000000	98.460295 
1222.000000	98.454590 
1221.000000	98.446029 
1220.000000	98.436001 
1219.000000	98.425635 
1218.000000	98.414188 
1217.000000	98.400883 
1216.000000	98.385764 
1215.000000	98.368437 
1214.000000	98.348187 
1213.000000	98.325712 
1212.000000	98.302717 
1211.000000	98.279463 
1210.000000	98.254314 
1209.000000	98.225928 
1208.000000	98.194603 
1207.000000	98.161707 
1206.000000	98.129093 
1205.000000	98.098390 
1204.000000	98.069045 
1203.000000	98.037649 
1202.000000	98.001473 
1201.000000	97.962459 
1200.000000	97.925336 
1199.000000	97.891690 
1198.000000	97.858774 
1197.000000	97.824656 
1196.000000	97.791172 
1195.000000	97.760416 
1194.000000	97.730859 
1193.000000	97.699009 
1192.000000	97.663416 
1191.000000	97.625125 
1190.000000	97.585288 
1189.000000	97.544236 
1188.000000	97.502351 
1187.000000	97.460039 
1186.000000	97.416797 
1185.000000	97.371686 
1184.000000	97.324961 
1183.000000	97.278281 
1182.000000	97.232943 
1181.000000	97.188582 
1180.000000	97.143934 
1179.000000	97.098297 
1178.000000	97.051897 
1177.000000	97.004981 
1176.000000	96.956708 
1175.000000	96.905111 
1174.000000	96.848497 
1173.000000	96.787151 
1172.000000	96.723433 
1171.000000	96.660117 
1170.000000	96.598913 
1169.000000	96.540369 
1168.000000	96.484548 
1167.000000	96.431875 
1166.000000	96.384378 
1165.000000	96.346476 
1164.000000	96.323420 
1163.000000	96.317964 
1162.000000	96.328579 
1161.000000	96.350543 
1160.000000	96.377353 
1159.000000	96.400971 
1158.000000	96.413397 
1157.000000	96.409910 
1156.000000	96.390251 
1155.000000	96.356821 
1154.000000	96.313353 
1153.000000	96.265052 
1152.000000	96.217065 
1151.000000	96.171040 
1150.000000	96.124726 
1149.000000	96.076371 
1148.000000	96.027895 
1147.000000	95.982210 
1146.000000	95.938905 
1145.000000	95.894559 
1144.000000	95.846400 
1143.000000	95.794113 
1142.000000	95.739280 
1141.000000	95.684714 
1140.000000	95.633320 
1139.000000	95.585718 
1138.000000	95.539370 
1137.000000	95.491181 
1136.000000	95.440290 
1135.000000	95.387882 
1134.000000	95.335943 
1133.000000	95.286901 
1132.000000	95.241997 
1131.000000	95.198450 
1130.000000	95.150857 
1129.000000	95.097591 
1128.000000	95.043250 
1127.000000	94.992280 
1126.000000	94.942851 
1125.000000	94.890380 
1124.000000	94.834626 
1123.000000	94.779011 
1122.000000	94.724511 
1121.000000	94.668720 
1120.000000	94.610517 
1119.000000	94.551639 
1118.000000	94.493569 
1117.000000	94.436010 
1116.000000	94.378191 
1115.000000	94.318901 
1114.000000	94.256052 
1113.000000	94.189056 
1112.000000	94.120884 
1111.000000	94.054903 
1110.000000	93.991054 
1109.000000	93.928488 
1108.000000	93.868533 
1107.000000	93.811800 
1106.000000	93.755796 
1105.000000	93.698724 
1104.000000	93.643203 
1103.000000	93.592669 
1102.000000	93.545877 
1101.000000	93.499188 
1100.000000	93.451790 
1099.000000	93.405854 
1098.000000	93.361598 
1097.000000	93.316412 
1096.000000	93.268794 
1095.000000	93.219323 
1094.000000	93.167391 
1093.000000	93.110149 
1092.000000	93.046127 
1091.000000	92.977758 
1090.000000	92.909223 
1089.000000	92.843389 
1088.000000	92.781491 
1087.000000	92.723491 
1086.000000	92.667643 
1085.000000	92.611592 
1084.000000	92.554625 
1083.000000	92.497254 
1082.000000	92.439144 
1081.000000	92.380201 
1080.000000	92.323153 
1079.000000	92.271504 
1078.000000	92.225321 
1077.000000	92.183006 
1076.000000	92.146437 
1075.000000	92.119132 
1074.000000	92.099553 
1073.000000	92.081551 
1072.000000	92.060152 
1071.000000	92.029391 
1070.000000	91.975639 
1069.000000	91.885010 
1068.000000	91.763165 
1067.000000	91.641485 
1066.000000	91.554221 
1065.000000	91.509991 
1064.000000	91.489575 
1063.000000	91.465174 
1062.000000	91.416743 
1061.000000	91.336192 
1060.000000	91.228118 
1059.000000	91.109914 
1058.000000	91.003964 
1057.000000	90.923381 
1056.000000	90.864696 
1055.000000	90.813850 
1054.000000	90.758602 
1053.000000	90.696996 
1052.000000	90.636192 
1051.000000	90.583527 
1050.000000	90.538520 
1049.000000	90.494328 
1048.000000	90.445972 
1047.000000	90.394843 
1046.000000	90.346042 
1045.000000	90.304155 
1044.000000	90.270979 
1043.000000	90.244209 
1042.000000	90.218049 
1041.000000	90.187428 
1040.000000	90.152442 
1039.000000	90.118638 
1038.000000	90.094164 
1037.000000	90.086271 
1036.000000	90.096835 
1035.000000	90.119313 
1034.000000	90.143029 
1033.000000	90.161330 
1032.000000	90.170953 
1031.000000	90.163969 
1030.000000	90.131290 
1029.000000	90.080988 
1028.000000	90.044005 
1027.000000	90.048982 
1026.000000	90.093229 
1025.000000	90.146956 
1024.000000	90.184348 
1023.000000	90.201504 
1022.000000	90.206956 
1021.000000	90.207863 
1020.000000	90.208080 
1019.000000	90.209984 
1018.000000	90.212963 
1017.000000	90.214761 
1016.000000	90.216477 
1015.000000	90.222019 
1014.000000	90.232081 
1013.000000	90.243662 
1012.000000	90.255855 
1011.000000	90.270815 
1010.000000	90.288690 
1009.000000	90.307027 
1008.000000	90.325731 
1007.000000	90.347690 
1006.000000	90.374104 
1005.000000	90.403723 
1004.000000	90.436646 
1003.000000	90.474242 
1002.000000	90.515372 
1001.000000	90.557236 
1000.000000	90.599652 
999.000000	 90.644027 
998.000000	 90.688739 
997.000000	 90.730301 
996.000000	 90.768692 
995.000000	 90.806996 
994.000000	 90.846467 
993.000000	 90.886670 
992.000000	 90.929791 
991.000000	 90.979655 
990.000000	 91.036334 
989.000000	 91.095831 
988.000000	 91.154752 
987.000000	 91.211682 
986.000000	 91.265624 
985.000000	 91.317872 
984.000000	 91.373574 
983.000000	 91.436397 
982.000000	 91.504108 
981.000000	 91.573131 
980.000000	 91.644578 
979.000000	 91.721726 
978.000000	 91.803871 
977.000000	 91.887876 
976.000000	 91.973750 
975.000000	 92.063054 
974.000000	 92.153753 
973.000000	 92.242667 
972.000000	 92.331534 
971.000000	 92.424749 
970.000000	 92.522113 
969.000000	 92.619255 
968.000000	 92.714255 
967.000000	 92.808513 
966.000000	 92.902030 
965.000000	 92.993161 
964.000000	 93.082649 
963.000000	 93.173055 
962.000000	 93.264246 
961.000000	 93.353335 
960.000000	 93.438642 
959.000000	 93.520416 
958.000000	 93.599032 
957.000000	 93.676003 
956.000000	 93.755019 
955.000000	 93.837832 
954.000000	 93.920248 
953.000000	 93.996075 
952.000000	 94.063817 
951.000000	 94.126302 
950.000000	 94.185820 
949.000000	 94.243473 
948.000000	 94.301561 
947.000000	 94.362202 
946.000000	 94.424059 
945.000000	 94.483604 
944.000000	 94.538900 
943.000000	 94.590028 
942.000000	 94.637768 
941.000000	 94.684084 
940.000000	 94.731408 
939.000000	 94.778775 
938.000000	 94.821637 
937.000000	 94.858522 
936.000000	 94.894748 
935.000000	 94.936277 
934.000000	 94.983060 
933.000000	 95.031969 
932.000000	 95.082140 
931.000000	 95.132684 
930.000000	 95.179015 
929.000000	 95.217465 
928.000000	 95.251370 
927.000000	 95.287233 
926.000000	 95.326316 
925.000000	 95.364750 
924.000000	 95.400118 
923.000000	 95.432818 
922.000000	 95.462351 
921.000000	 95.487499 
920.000000	 95.509745 
919.000000	 95.532354 
918.000000	 95.556463 
917.000000	 95.581186 
916.000000	 95.606224 
915.000000	 95.630947 
914.000000	 95.652850 
913.000000	 95.671423 
912.000000	 95.692438 
911.000000	 95.723895 
910.000000	 95.767842 
909.000000	 95.819245 
908.000000	 95.872103 
907.000000	 95.923691 
906.000000	 95.973766 
905.000000	 96.023214 
904.000000	 96.073700 
903.000000	 96.126938 
902.000000	 96.184518 
901.000000	 96.248214 
900.000000	 96.317500 
899.000000	 96.386636 
898.000000	 96.448528 
897.000000	 96.503320 
896.000000	 96.558091 
895.000000	 96.616208 
894.000000	 96.673149 
893.000000	 96.726291 
892.000000	 96.781986 
891.000000	 96.846516 
890.000000	 96.914753 
889.000000	 96.974911 
888.000000	 97.021311 
887.000000	 97.056273 
886.000000	 97.083117 
885.000000	 97.104232 
884.000000	 97.123649 
883.000000	 97.144084 
882.000000	 97.162597 
881.000000	 97.176537 
880.000000	 97.192854 
879.000000	 97.223197 
878.000000	 97.268945 
877.000000	 97.318672 
876.000000	 97.362332 
875.000000	 97.401707 
874.000000	 97.445092 
873.000000	 97.497808 
872.000000	 97.559866 
871.000000	 97.627492 
870.000000	 97.694930 
869.000000	 97.758961 
868.000000	 97.822798 
867.000000	 97.891719 
866.000000	 97.964203 
865.000000	 98.031403 
864.000000	 98.086783 
863.000000	 98.133223 
862.000000	 98.179494 
861.000000	 98.231970 
860.000000	 98.290718 
859.000000	 98.351353 
858.000000	 98.408868 
857.000000	 98.460263 
856.000000	 98.504618 
855.000000	 98.541941 
854.000000	 98.573475 
853.000000	 98.602478 
852.000000	 98.632018 
851.000000	 98.661714 
850.000000	 98.689432 
849.000000	 98.716266 
848.000000	 98.745617 
847.000000	 98.776252 
846.000000	 98.801386 
845.000000	 98.817465 
844.000000	 98.829298 
843.000000	 98.843131 
842.000000	 98.858827 
841.000000	 98.872788 
840.000000	 98.884297 
839.000000	 98.894070 
838.000000	 98.900131 
837.000000	 98.900511 
836.000000	 98.897580 
835.000000	 98.894654 
834.000000	 98.890707 
833.000000	 98.883719 
832.000000	 98.876894 
831.000000	 98.875166 
830.000000	 98.876871 
829.000000	 98.876064 
828.000000	 98.873341 
827.000000	 98.876961 
826.000000	 98.891351 
825.000000	 98.911243 
824.000000	 98.929548 
823.000000	 98.943742 
822.000000	 98.951199 
821.000000	 98.945908 
820.000000	 98.925415 
819.000000	 98.896936 
818.000000	 98.872036 
817.000000	 98.856111 
816.000000	 98.844221 
815.000000	 98.825036 
814.000000	 98.787231 
813.000000	 98.723674 
812.000000	 98.631668 
811.000000	 98.510259 
810.000000	 98.358310 
809.000000	 98.176009 
808.000000	 97.966864 
807.000000	 97.735520 
806.000000	 97.483679 
805.000000	 97.212082 
804.000000	 96.928653 
803.000000	 96.651586 
802.000000	 96.401505 
801.000000	 96.192005 
800.000000	 96.028221 
799.000000	 95.909939 
798.000000	 95.833788 
797.000000	 95.796180 
796.000000	 95.795644 
795.000000	 95.828972 
794.000000	 95.885317 
793.000000	 95.949130 
792.000000	 96.009632 
791.000000	 96.063277 
790.000000	 96.107085 
789.000000	 96.134385 
788.000000	 96.138053 
787.000000	 96.114375 
786.000000	 96.063284 
785.000000	 95.988430 
784.000000	 95.897926 
783.000000	 95.801825 
782.000000	 95.707610 
781.000000	 95.620157 
780.000000	 95.545913 
779.000000	 95.493692 
778.000000	 95.471019 
777.000000	 95.482616 
776.000000	 95.531334 
775.000000	 95.615452 
774.000000	 95.724432 
773.000000	 95.841873 
772.000000	 95.954284 
771.000000	 96.055637 
770.000000	 96.145373 
769.000000	 96.225435 
768.000000	 96.298385 
767.000000	 96.365669 
766.000000	 96.427964 
765.000000	 96.487714 
764.000000	 96.548223 
763.000000	 96.608500 
762.000000	 96.663077 
761.000000	 96.710199 
760.000000	 96.756478 
759.000000	 96.809515 
758.000000	 96.869173 
757.000000	 96.930221 
756.000000	 96.990065 
755.000000	 97.049010 
754.000000	 97.106191 
753.000000	 97.160642 
752.000000	 97.213835 
751.000000	 97.266149 
750.000000	 97.312994 
749.000000	 97.349605 
748.000000	 97.378265 
747.000000	 97.406252 
746.000000	 97.437807 
745.000000	 97.472101 
744.000000	 97.507839 
743.000000	 97.545908 
742.000000	 97.588567 
741.000000	 97.639034 
740.000000	 97.699790 
739.000000	 97.768009 
738.000000	 97.834869 
737.000000	 97.892709 
736.000000	 97.940670 
735.000000	 97.980875 
734.000000	 98.012833 
733.000000	 98.035227 
732.000000	 98.049737 
731.000000	 98.059322 
730.000000	 98.065577 
729.000000	 98.070972 
728.000000	 98.079732 
727.000000	 98.092889 
726.000000	 98.106936 
725.000000	 98.120792 
724.000000	 98.138986 
723.000000	 98.163942 
722.000000	 98.191095 
721.000000	 98.217306 
720.000000	 98.248207 
719.000000	 98.289277 
718.000000	 98.334359 
717.000000	 98.372088 
716.000000	 98.400082 
715.000000	 98.424395 
714.000000	 98.447681 
713.000000	 98.466577 
712.000000	 98.480343 
711.000000	 98.494779 
710.000000	 98.516843 
709.000000	 98.549667 
708.000000	 98.590787 
707.000000	 98.629482 
706.000000	 98.649124 
705.000000	 98.639323 
704.000000	 98.604004 
703.000000	 98.551973 
702.000000	 98.482591 
701.000000	 98.388451 
700.000000	 98.270216 
699.000000	 98.138981 
698.000000	 98.005136 
697.000000	 97.875965 
696.000000	 97.765163 
695.000000	 97.693579 
694.000000	 97.674556 
693.000000	 97.704241 
692.000000	 97.768600 
691.000000	 97.853781 
690.000000	 97.949089 
689.000000	 98.046886 
688.000000	 98.142720 
687.000000	 98.231995 
686.000000	 98.305676 
685.000000	 98.355817 
684.000000	 98.387024 
683.000000	 98.414777 
682.000000	 98.449798 
681.000000	 98.489318 
680.000000	 98.525258 
679.000000	 98.554379 
678.000000	 98.576922 
677.000000	 98.591926 
676.000000	 98.599682 
675.000000	 98.603511 
674.000000	 98.608006 
673.000000	 98.616233 
672.000000	 98.627463 
671.000000	 98.638477 
670.000000	 98.650449 
669.000000	 98.673937 
668.000000	 98.719936 
667.000000	 98.781201 
666.000000	 98.824956 
665.000000	 98.837943 
664.000000	 98.838879 
663.000000	 98.848782 
662.000000	 98.873158 
661.000000	 98.905012 
660.000000	 98.938133 
659.000000	 98.968716 
658.000000	 98.990263 
657.000000	 98.999616 
656.000000	 99.001805 
655.000000	 98.998739 
654.000000	 98.981669 
653.000000	 98.943494 
652.000000	 98.892301 
651.000000	 98.849026 
650.000000	 98.834282 

