4000.000000	98.521022 
3999.000000	98.520757 
3998.000000	98.520956 
3997.000000	98.521261 
3996.000000	98.521406 
3995.000000	98.521327 
3994.000000	98.521060 
3993.000000	98.520741 
3992.000000	98.520554 
3991.000000	98.520559 
3990.000000	98.520722 
3989.000000	98.521072 
3988.000000	98.521635 
3987.000000	98.522261 
3986.000000	98.522670 
3985.000000	98.522640 
3984.000000	98.522098 
3983.000000	98.521129 
3982.000000	98.520000 
3981.000000	98.519068 
3980.000000	98.518478 
3979.000000	98.518018 
3978.000000	98.517278 
3977.000000	98.515908 
3976.000000	98.513789 
3975.000000	98.511156 
3974.000000	98.508655 
3973.000000	98.507061 
3972.000000	98.506740 
3971.000000	98.507369 
3970.000000	98.508277 
3969.000000	98.509138 
3968.000000	98.510110 
3967.000000	98.511332 
3966.000000	98.512614 
3965.000000	98.513555 
3964.000000	98.513858 
3963.000000	98.513561 
3962.000000	98.513041 
3961.000000	98.512732 
3960.000000	98.512783 
3959.000000	98.512887 
3958.000000	98.512527 
3957.000000	98.511560 
3956.000000	98.510388 
3955.000000	98.509577 
3954.000000	98.509428 
3953.000000	98.509795 
3952.000000	98.510253 
3951.000000	98.510465 
3950.000000	98.510607 
3949.000000	98.511310 
3948.000000	98.512803 
3947.000000	98.514352 
3946.000000	98.514859 
3945.000000	98.513789 
3944.000000	98.511457 
3943.000000	98.508850 
3942.000000	98.506950 
3941.000000	98.506037 
3940.000000	98.505719 
3939.000000	98.505577 
3938.000000	98.505622 
3937.000000	98.506244 
3936.000000	98.507747 
3935.000000	98.509914 
3934.000000	98.512072 
3933.000000	98.513473 
3932.000000	98.513718 
3931.000000	98.512858 
3930.000000	98.511314 
3929.000000	98.509673 
3928.000000	98.508247 
3927.000000	98.507099 
3926.000000	98.506368 
3925.000000	98.506362 
3924.000000	98.507415 
3923.000000	98.509314 
3922.000000	98.511223 
3921.000000	98.512502 
3920.000000	98.513271 
3919.000000	98.514062 
3918.000000	98.514886 
3917.000000	98.515034 
3916.000000	98.514003 
3915.000000	98.512168 
3914.000000	98.510442 
3913.000000	98.509490 
3912.000000	98.509449 
3911.000000	98.510115 
3910.000000	98.511102 
3909.000000	98.512101 
3908.000000	98.513167 
3907.000000	98.514471 
3906.000000	98.516180 
3905.000000	98.518255 
3904.000000	98.520429 
3903.000000	98.522038 
3902.000000	98.522069 
3901.000000	98.520213 
3900.000000	98.517335 
3899.000000	98.514842 
3898.000000	98.513670 
3897.000000	98.513653 
3896.000000	98.513941 
3895.000000	98.513813 
3894.000000	98.512989 
3893.000000	98.511677 
3892.000000	98.510460 
3891.000000	98.509795 
3890.000000	98.509670 
3889.000000	98.509774 
3888.000000	98.509976 
3887.000000	98.510237 
3886.000000	98.510598 
3885.000000	98.511099 
3884.000000	98.511486 
3883.000000	98.511215 
3882.000000	98.510091 
3881.000000	98.508693 
3880.000000	98.507886 
3879.000000	98.507791 
3878.000000	98.507869 
3877.000000	98.507697 
3876.000000	98.507230 
3875.000000	98.506587 
3874.000000	98.505949 
3873.000000	98.505468 
3872.000000	98.505161 
3871.000000	98.504933 
3870.000000	98.504748 
3869.000000	98.504647 
3868.000000	98.504481 
3867.000000	98.503970 
3866.000000	98.503021 
3865.000000	98.501860 
3864.000000	98.501045 
3863.000000	98.500842 
3862.000000	98.500957 
3861.000000	98.501058 
3860.000000	98.501164 
3859.000000	98.501244 
3858.000000	98.501090 
3857.000000	98.500620 
3856.000000	98.500259 
3855.000000	98.500059 
3854.000000	98.499163 
3853.000000	98.497808 
3852.000000	98.497059 
3851.000000	98.496769 
3850.000000	98.496526 
3849.000000	98.496464 
3848.000000	98.497000 
3847.000000	98.498340 
3846.000000	98.499973 
3845.000000	98.501170 
3844.000000	98.501920 
3843.000000	98.502375 
3842.000000	98.502314 
3841.000000	98.501812 
3840.000000	98.501358 
3839.000000	98.501380 
3838.000000	98.501996 
3837.000000	98.502620 
3836.000000	98.502584 
3835.000000	98.501586 
3834.000000	98.499973 
3833.000000	98.498674 
3832.000000	98.498412 
3831.000000	98.499141 
3830.000000	98.500061 
3829.000000	98.500109 
3828.000000	98.499074 
3827.000000	98.497943 
3826.000000	98.497879 
3825.000000	98.499410 
3824.000000	98.502202 
3823.000000	98.504676 
3822.000000	98.505251 
3821.000000	98.504529 
3820.000000	98.504266 
3819.000000	98.503932 
3818.000000	98.502145 
3817.000000	98.498945 
3816.000000	98.495594 
3815.000000	98.493184 
3814.000000	98.491562 
3813.000000	98.490017 
3812.000000	98.488444 
3811.000000	98.487795 
3810.000000	98.488881 
3809.000000	98.491143 
3808.000000	98.493187 
3807.000000	98.494425 
3806.000000	98.495384 
3805.000000	98.496135 
3804.000000	98.495631 
3803.000000	98.493177 
3802.000000	98.489715 
3801.000000	98.487265 
3800.000000	98.486437 
3799.000000	98.485668 
3798.000000	98.483949 
3797.000000	98.482328 
3796.000000	98.482239 
3795.000000	98.483285 
3794.000000	98.483552 
3793.000000	98.481847 
3792.000000	98.478780 
3791.000000	98.476153 
3790.000000	98.475179 
3789.000000	98.475562 
3788.000000	98.476213 
3787.000000	98.476438 
3786.000000	98.476384 
3785.000000	98.476744 
3784.000000	98.477983 
3783.000000	98.479872 
3782.000000	98.481396 
3781.000000	98.481314 
3780.000000	98.479525 
3779.000000	98.477569 
3778.000000	98.476843 
3777.000000	98.477437 
3776.000000	98.479109 
3775.000000	98.481479 
3774.000000	98.483891 
3773.000000	98.485655 
3772.000000	98.486594 
3771.000000	98.486894 
3770.000000	98.487145 
3769.000000	98.488076 
3768.000000	98.488964 
3767.000000	98.488496 
3766.000000	98.487253 
3765.000000	98.486959 
3764.000000	98.488564 
3763.000000	98.491357 
3762.000000	98.493244 
3761.000000	98.492452 
3760.000000	98.489686 
3759.000000	98.488803 
3758.000000	98.492097 
3757.000000	98.497335 
3756.000000	98.502397 
3755.000000	98.507111 
3754.000000	98.511850 
3753.000000	98.516435 
3752.000000	98.521073 
3751.000000	98.527552 
3750.000000	98.534026 
3749.000000	98.534112 
3748.000000	98.525827 
3747.000000	98.514509 
3746.000000	98.507085 
3745.000000	98.504471 
3744.000000	98.503852 
3743.000000	98.503681 
3742.000000	98.502796 
3741.000000	98.500381 
3740.000000	98.497534 
3739.000000	98.498336 
3738.000000	98.504829 
3737.000000	98.511975 
3736.000000	98.515032 
3735.000000	98.514546 
3734.000000	98.511490 
3733.000000	98.503728 
3732.000000	98.491821 
3731.000000	98.481708 
3730.000000	98.477176 
3729.000000	98.476238 
3728.000000	98.474652 
3727.000000	98.470021 
3726.000000	98.463353 
3725.000000	98.456641 
3724.000000	98.450070 
3723.000000	98.442486 
3722.000000	98.433784 
3721.000000	98.424602 
3720.000000	98.414353 
3719.000000	98.404021 
3718.000000	98.396401 
3717.000000	98.392479 
3716.000000	98.391588 
3715.000000	98.391996 
3714.000000	98.390817 
3713.000000	98.383658 
3712.000000	98.367504 
3711.000000	98.344012 
3710.000000	98.316179 
3709.000000	98.286089 
3708.000000	98.255855 
3707.000000	98.227193 
3706.000000	98.200707 
3705.000000	98.175295 
3704.000000	98.148167 
3703.000000	98.116753 
3702.000000	98.081824 
3701.000000	98.047045 
3700.000000	98.014520 
3699.000000	97.984382 
3698.000000	97.958246 
3697.000000	97.939064 
3696.000000	97.929267 
3695.000000	97.928648 
3694.000000	97.932602 
3693.000000	97.934472 
3692.000000	97.930818 
3691.000000	97.923827 
3690.000000	97.918256 
3689.000000	97.916205 
3688.000000	97.914421 
3687.000000	97.908592 
3686.000000	97.899417 
3685.000000	97.890610 
3684.000000	97.884815 
3683.000000	97.881734 
3682.000000	97.877645 
3681.000000	97.867154 
3680.000000	97.847960 
3679.000000	97.823189 
3678.000000	97.798457 
3677.000000	97.774304 
3676.000000	97.745878 
3675.000000	97.714890 
3674.000000	97.683910 
3673.000000	97.649711 
3672.000000	97.610832 
3671.000000	97.568897 
3670.000000	97.527450 
3669.000000	97.489119 
3668.000000	97.451025 
3667.000000	97.410088 
3666.000000	97.369586 
3665.000000	97.334132 
3664.000000	97.302561 
3663.000000	97.269364 
3662.000000	97.230444 
3661.000000	97.186466 
3660.000000	97.141688 
3659.000000	97.099055 
3658.000000	97.058100 
3657.000000	97.017179 
3656.000000	96.976860 
3655.000000	96.939272 
3654.000000	96.903974 
3653.000000	96.868458 
3652.000000	96.830626 
3651.000000	96.789482 
3650.000000	96.746403 
3649.000000	96.704453 
3648.000000	96.664242 
3647.000000	96.624110 
3646.000000	96.583871 
3645.000000	96.544559 
3644.000000	96.507092 
3643.000000	96.472538 
3642.000000	96.440110 
3641.000000	96.406933 
3640.000000	96.370855 
3639.000000	96.332653 
3638.000000	96.295331 
3637.000000	96.260585 
3636.000000	96.227553 
3635.000000	96.194340 
3634.000000	96.160155 
3633.000000	96.126384 
3632.000000	96.095505 
3631.000000	96.069485 
3630.000000	96.047481 
3629.000000	96.027179 
3628.000000	96.005212 
3627.000000	95.976282 
3626.000000	95.939202 
3625.000000	95.898773 
3624.000000	95.860077 
3623.000000	95.825207 
3622.000000	95.796417 
3621.000000	95.779560 
3620.000000	95.782930 
3619.000000	95.809893 
3618.000000	95.851370 
3617.000000	95.891916 
3616.000000	95.925303 
3615.000000	95.956540 
3614.000000	95.992694 
3613.000000	96.035450 
3612.000000	96.080024 
3611.000000	96.119811 
3610.000000	96.151668 
3609.000000	96.176172 
3608.000000	96.195349 
3607.000000	96.210858 
3606.000000	96.222671 
3605.000000	96.230960 
3604.000000	96.237521 
3603.000000	96.244368 
3602.000000	96.253317 
3601.000000	96.265679 
3600.000000	96.282360 
3599.000000	96.303218 
3598.000000	96.325845 
3597.000000	96.346278 
3596.000000	96.362997 
3595.000000	96.378098 
3594.000000	96.394939 
3593.000000	96.414667 
3592.000000	96.434546 
3591.000000	96.451017 
3590.000000	96.462660 
3589.000000	96.470506 
3588.000000	96.477170 
3587.000000	96.484730 
3586.000000	96.491057 
3585.000000	96.493079 
3584.000000	96.492162 
3583.000000	96.492407 
3582.000000	96.495701 
3581.000000	96.500242 
3580.000000	96.503405 
3579.000000	96.504826 
3578.000000	96.506547 
3577.000000	96.510629 
3576.000000	96.517116 
3575.000000	96.523894 
3574.000000	96.527640 
3573.000000	96.526613 
3572.000000	96.522325 
3571.000000	96.518650 
3570.000000	96.519100 
3569.000000	96.523529 
3568.000000	96.528033 
3567.000000	96.529573 
3566.000000	96.528016 
3565.000000	96.524301 
3564.000000	96.519846 
3563.000000	96.515719 
3562.000000	96.511425 
3561.000000	96.506118 
3560.000000	96.500225 
3559.000000	96.495406 
3558.000000	96.492455 
3557.000000	96.490304 
3556.000000	96.487637 
3555.000000	96.485209 
3554.000000	96.485398 
3553.000000	96.489363 
3552.000000	96.495044 
3551.000000	96.498582 
3550.000000	96.498176 
3549.000000	96.495741 
3548.000000	96.494344 
3547.000000	96.494976 
3546.000000	96.495839 
3545.000000	96.494802 
3544.000000	96.492115 
3543.000000	96.490197 
3542.000000	96.490812 
3541.000000	96.493168 
3540.000000	96.494705 
3539.000000	96.493818 
3538.000000	96.491529 
3537.000000	96.490274 
3536.000000	96.491367 
3535.000000	96.493772 
3534.000000	96.495769 
3533.000000	96.496912 
3532.000000	96.497929 
3531.000000	96.499298 
3530.000000	96.500721 
3529.000000	96.501969 
3528.000000	96.503303 
3527.000000	96.504738 
3526.000000	96.505442 
3525.000000	96.504483 
3524.000000	96.501996 
3523.000000	96.499246 
3522.000000	96.497430 
3521.000000	96.496898 
3520.000000	96.497485 
3519.000000	96.498934 
3518.000000	96.500724 
3517.000000	96.501912 
3516.000000	96.501879 
3515.000000	96.501081 
3514.000000	96.500873 
3513.000000	96.502362 
3512.000000	96.505491 
3511.000000	96.509212 
3510.000000	96.512427 
3509.000000	96.514346 
3508.000000	96.514210 
3507.000000	96.511669 
3506.000000	96.507681 
3505.000000	96.504550 
3504.000000	96.504263 
3503.000000	96.506567 
3502.000000	96.508997 
3501.000000	96.509192 
3500.000000	96.506865 
3499.000000	96.503490 
3498.000000	96.500923 
3497.000000	96.500401 
3496.000000	96.502079 
3495.000000	96.504677 
3494.000000	96.505906 
3493.000000	96.504124 
3492.000000	96.499674 
3491.000000	96.494431 
3490.000000	96.490145 
3489.000000	96.487256 
3488.000000	96.485052 
3487.000000	96.482478 
3486.000000	96.478749 
3485.000000	96.473723 
3484.000000	96.468206 
3483.000000	96.463666 
3482.000000	96.461168 
3481.000000	96.460310 
3480.000000	96.459400 
3479.000000	96.456990 
3478.000000	96.453164 
3477.000000	96.449178 
3476.000000	96.445977 
3475.000000	96.443295 
3474.000000	96.440222 
3473.000000	96.436255 
3472.000000	96.431541 
3471.000000	96.426350 
3470.000000	96.420932 
3469.000000	96.415810 
3468.000000	96.411372 
3467.000000	96.407054 
3466.000000	96.401674 
3465.000000	96.395077 
3464.000000	96.388919 
3463.000000	96.385034 
3462.000000	96.383234 
3461.000000	96.381364 
3460.000000	96.377667 
3459.000000	96.372463 
3458.000000	96.367178 
3457.000000	96.362509 
3456.000000	96.358003 
3455.000000	96.353050 
3454.000000	96.347821 
3453.000000	96.342882 
3452.000000	96.338344 
3451.000000	96.333640 
3450.000000	96.328170 
3449.000000	96.322149 
3448.000000	96.316653 
3447.000000	96.312576 
3446.000000	96.309453 
3445.000000	96.305750 
3444.000000	96.300510 
3443.000000	96.294300 
3442.000000	96.288382 
3441.000000	96.283253 
3440.000000	96.278287 
3439.000000	96.272550 
3438.000000	96.265686 
3437.000000	96.258198 
3436.000000	96.251167 
3435.000000	96.245524 
3434.000000	96.241486 
3433.000000	96.238484 
3432.000000	96.235826 
3431.000000	96.233197 
3430.000000	96.230307 
3429.000000	96.226545 
3428.000000	96.221462 
3427.000000	96.215587 
3426.000000	96.210167 
3425.000000	96.205966 
3424.000000	96.202636 
3423.000000	96.199358 
3422.000000	96.195806 
3421.000000	96.192170 
3420.000000	96.188419 
3419.000000	96.184086 
3418.000000	96.179108 
3417.000000	96.174420 
3416.000000	96.171241 
3415.000000	96.169895 
3414.000000	96.169504 
3413.000000	96.168785 
3412.000000	96.166945 
3411.000000	96.163883 
3410.000000	96.160026 
3409.000000	96.156119 
3408.000000	96.152764 
3407.000000	96.149923 
3406.000000	96.147119 
3405.000000	96.144358 
3404.000000	96.142501 
3403.000000	96.142280 
3402.000000	96.143193 
3401.000000	96.143782 
3400.000000	96.143167 
3399.000000	96.141849 
3398.000000	96.140802 
3397.000000	96.140083 
3396.000000	96.138671 
3395.000000	96.135826 
3394.000000	96.132393 
3393.000000	96.130436 
3392.000000	96.131374 
3391.000000	96.134607 
3390.000000	96.138074 
3389.000000	96.140068 
3388.000000	96.140378 
3387.000000	96.139894 
3386.000000	96.139584 
3385.000000	96.139977 
3384.000000	96.141289 
3383.000000	96.143575 
3382.000000	96.146645 
3381.000000	96.149846 
3380.000000	96.152211 
3379.000000	96.153068 
3378.000000	96.152615 
3377.000000	96.151747 
3376.000000	96.151134 
3375.000000	96.150791 
3374.000000	96.150710 
3373.000000	96.151481 
3372.000000	96.153670 
3371.000000	96.156791 
3370.000000	96.159555 
3369.000000	96.161277 
3368.000000	96.162352 
3367.000000	96.163153 
3366.000000	96.163280 
3365.000000	96.162528 
3364.000000	96.162077 
3363.000000	96.163721 
3362.000000	96.167921 
3361.000000	96.173242 
3360.000000	96.177796 
3359.000000	96.180961 
3358.000000	96.183388 
3357.000000	96.185752 
3356.000000	96.187961 
3355.000000	96.189475 
3354.000000	96.190059 
3353.000000	96.190147 
3352.000000	96.190587 
3351.000000	96.192068 
3350.000000	96.194737 
3349.000000	96.198301 
3348.000000	96.202413 
3347.000000	96.206911 
3346.000000	96.211658 
3345.000000	96.216275 
3344.000000	96.220226 
3343.000000	96.223155 
3342.000000	96.225105 
3341.000000	96.226410 
3340.000000	96.227415 
3339.000000	96.228284 
3338.000000	96.229115 
3337.000000	96.230183 
3336.000000	96.231932 
3335.000000	96.234629 
3334.000000	96.238064 
3333.000000	96.241628 
3332.000000	96.244676 
3331.000000	96.246830 
3330.000000	96.248095 
3329.000000	96.248926 
3328.000000	96.250145 
3327.000000	96.252472 
3326.000000	96.255971 
3325.000000	96.259990 
3324.000000	96.263774 
3323.000000	96.267117 
3322.000000	96.270332 
3321.000000	96.273741 
3320.000000	96.277349 
3319.000000	96.280948 
3318.000000	96.284326 
3317.000000	96.287354 
3316.000000	96.290046 
3315.000000	96.292669 
3314.000000	96.295624 
3313.000000	96.299047 
3312.000000	96.302529 
3311.000000	96.305418 
3310.000000	96.307486 
3309.000000	96.309176 
3308.000000	96.311182 
3307.000000	96.313783 
3306.000000	96.316687 
3305.000000	96.319467 
3304.000000	96.322031 
3303.000000	96.324633 
3302.000000	96.327536 
3301.000000	96.330722 
3300.000000	96.333915 
3299.000000	96.336802 
3298.000000	96.339250 
3297.000000	96.341369 
3296.000000	96.343470 
3295.000000	96.345899 
3294.000000	96.348833 
3293.000000	96.352181 
3292.000000	96.355613 
3291.000000	96.358774 
3290.000000	96.361562 
3289.000000	96.364215 
3288.000000	96.367078 
3287.000000	96.370254 
3286.000000	96.373517 
3285.000000	96.376582 
3284.000000	96.379399 
3283.000000	96.382154 
3282.000000	96.385033 
3281.000000	96.388059 
3280.000000	96.391160 
3279.000000	96.394310 
3278.000000	96.397544 
3277.000000	96.400824 
3276.000000	96.403971 
3275.000000	96.406761 
3274.000000	96.409091 
3273.000000	96.411042 
3272.000000	96.412838 
3271.000000	96.414773 
3270.000000	96.417166 
3269.000000	96.420287 
3268.000000	96.424211 
3267.000000	96.428681 
3266.000000	96.433176 
3265.000000	96.437243 
3264.000000	96.440757 
3263.000000	96.443869 
3262.000000	96.446754 
3261.000000	96.449472 
3260.000000	96.452082 
3259.000000	96.454803 
3258.000000	96.457950 
3257.000000	96.461678 
3256.000000	96.465786 
3255.000000	96.469807 
3254.000000	96.473337 
3253.000000	96.476287 
3252.000000	96.478896 
3251.000000	96.481555 
3250.000000	96.484584 
3249.000000	96.488100 
3248.000000	96.492020 
3247.000000	96.496110 
3246.000000	96.500079 
3245.000000	96.503727 
3244.000000	96.507071 
3243.000000	96.510347 
3242.000000	96.513843 
3241.000000	96.517681 
3240.000000	96.521754 
3239.000000	96.525872 
3238.000000	96.529958 
3237.000000	96.534068 
3236.000000	96.538245 
3235.000000	96.542432 
3234.000000	96.546530 
3233.000000	96.550483 
3232.000000	96.554312 
3231.000000	96.558080 
3230.000000	96.561845 
3229.000000	96.565647 
3228.000000	96.569499 
3227.000000	96.573415 
3226.000000	96.577461 
3225.000000	96.581734 
3224.000000	96.586257 
3223.000000	96.590894 
3222.000000	96.595392 
3221.000000	96.599597 
3220.000000	96.603604 
3219.000000	96.607692 
3218.000000	96.612074 
3217.000000	96.616706 
3216.000000	96.621332 
3215.000000	96.625738 
3214.000000	96.629942 
3213.000000	96.634151 
3212.000000	96.638565 
3211.000000	96.643228 
3210.000000	96.648041 
3209.000000	96.652838 
3208.000000	96.657474 
3207.000000	96.661894 
3206.000000	96.666192 
3205.000000	96.670591 
3204.000000	96.675271 
3203.000000	96.680230 
3202.000000	96.685340 
3201.000000	96.690505 
3200.000000	96.695705 
3199.000000	96.700878 
3198.000000	96.705885 
3197.000000	96.710627 
3196.000000	96.715169 
3195.000000	96.719734 
3194.000000	96.724545 
3193.000000	96.729679 
3192.000000	96.735065 
3191.000000	96.740548 
3190.000000	96.745995 
3189.000000	96.751353 
3188.000000	96.756623 
3187.000000	96.761799 
3186.000000	96.766844 
3185.000000	96.771772 
3184.000000	96.776739 
3183.000000	96.781967 
3182.000000	96.787539 
3181.000000	96.793284 
3180.000000	96.798911 
3179.000000	96.804277 
3178.000000	96.809473 
3177.000000	96.814681 
3176.000000	96.819987 
3175.000000	96.825344 
3174.000000	96.830633 
3173.000000	96.835747 
3172.000000	96.840737 
3171.000000	96.845867 
3170.000000	96.851374 
3169.000000	96.857163 
3168.000000	96.862820 
3167.000000	96.868036 
3166.000000	96.872926 
3165.000000	96.877899 
3164.000000	96.883247 
3163.000000	96.888933 
3162.000000	96.894719 
3161.000000	96.900402 
3160.000000	96.905990 
3159.000000	96.911710 
3158.000000	96.917776 
3157.000000	96.924065 
3156.000000	96.930080 
3155.000000	96.935400 
3154.000000	96.940148 
3153.000000	96.944892 
3152.000000	96.950017 
3151.000000	96.955294 
3150.000000	96.960154 
3149.000000	96.964354 
3148.000000	96.968342 
3147.000000	96.972921 
3146.000000	96.978510 
3145.000000	96.984897 
3144.000000	96.991643 
3143.000000	96.998589 
3142.000000	97.005781 
3141.000000	97.012945 
3140.000000	97.019408 
3139.000000	97.024722 
3138.000000	97.029177 
3137.000000	97.033563 
3136.000000	97.038484 
3135.000000	97.044004 
3134.000000	97.049838 
3133.000000	97.055579 
3132.000000	97.060825 
3131.000000	97.065406 
3130.000000	97.069601 
3129.000000	97.074012 
3128.000000	97.079063 
3127.000000	97.084714 
3126.000000	97.090668 
3125.000000	97.096683 
3124.000000	97.102618 
3123.000000	97.108315 
3122.000000	97.113592 
3121.000000	97.118377 
3120.000000	97.122792 
3119.000000	97.127103 
3118.000000	97.131621 
3117.000000	97.136575 
3116.000000	97.141985 
3115.000000	97.147655 
3114.000000	97.153350 
3113.000000	97.158999 
3112.000000	97.164679 
3111.000000	97.170413 
3110.000000	97.176015 
3109.000000	97.181183 
3108.000000	97.185741 
3107.000000	97.189815 
3106.000000	97.193826 
3105.000000	97.198223 
3104.000000	97.203137 
3103.000000	97.208303 
3102.000000	97.213304 
3101.000000	97.218021 
3100.000000	97.222730 
3099.000000	97.227722 
3098.000000	97.232895 
3097.000000	97.237868 
3096.000000	97.242459 
3095.000000	97.246953 
3094.000000	97.251819 
3093.000000	97.257212 
3092.000000	97.262746 
3091.000000	97.267769 
3090.000000	97.271878 
3089.000000	97.275222 
3088.000000	97.278474 
3087.000000	97.282349 
3086.000000	97.287103 
3085.000000	97.292436 
3084.000000	97.297765 
3083.000000	97.302644 
3082.000000	97.306957 
3081.000000	97.310867 
3080.000000	97.314689 
3079.000000	97.318733 
3078.000000	97.323101 
3077.000000	97.327586 
3076.000000	97.331875 
3075.000000	97.335957 
3074.000000	97.340206 
3073.000000	97.344848 
3072.000000	97.349377 
3071.000000	97.352884 
3070.000000	97.355117 
3069.000000	97.356963 
3068.000000	97.359482 
3067.000000	97.362661 
3066.000000	97.365790 
3065.000000	97.369006 
3064.000000	97.373491 
3063.000000	97.379575 
3062.000000	97.385458 
3061.000000	97.388930 
3060.000000	97.390098 
3059.000000	97.391400 
3058.000000	97.394687 
3057.000000	97.399070 
3056.000000	97.402239 
3055.000000	97.403271 
3054.000000	97.403447 
3053.000000	97.404597 
3052.000000	97.407337 
3051.000000	97.410959 
3050.000000	97.414390 
3049.000000	97.416994 
3048.000000	97.418846 
3047.000000	97.420638 
3046.000000	97.423225 
3045.000000	97.426961 
3044.000000	97.431489 
3043.000000	97.436274 
3042.000000	97.440972 
3041.000000	97.445019 
3040.000000	97.447321 
3039.000000	97.447205 
3038.000000	97.445659 
3037.000000	97.444710 
3036.000000	97.445168 
3035.000000	97.445795 
3034.000000	97.445396 
3033.000000	97.444920 
3032.000000	97.446273 
3031.000000	97.449285 
3030.000000	97.451276 
3029.000000	97.450055 
3028.000000	97.446243 
3027.000000	97.442210 
3026.000000	97.439436 
3025.000000	97.437636 
3024.000000	97.435978 
3023.000000	97.434189 
3022.000000	97.432470 
3021.000000	97.431023 
3020.000000	97.429740 
3019.000000	97.428067 
3018.000000	97.425301 
3017.000000	97.421422 
3016.000000	97.417466 
3015.000000	97.414604 
3014.000000	97.412844 
3013.000000	97.410969 
3012.000000	97.407732 
3011.000000	97.402866 
3010.000000	97.397129 
3009.000000	97.391664 
3008.000000	97.387173 
3007.000000	97.383425 
3006.000000	97.379653 
3005.000000	97.375608 
3004.000000	97.371868 
3003.000000	97.368743 
3002.000000	97.365346 
3001.000000	97.360513 
3000.000000	97.354579 
2999.000000	97.349445 
2998.000000	97.346651 
2997.000000	97.345907 
2996.000000	97.345532 
2995.000000	97.343697 
2994.000000	97.339088 
2993.000000	97.331210 
2992.000000	97.320971 
2991.000000	97.310851 
2990.000000	97.303714 
2989.000000	97.301071 
2988.000000	97.302416 
2987.000000	97.305966 
2986.000000	97.309795 
2985.000000	97.312605 
2984.000000	97.314164 
2983.000000	97.315314 
2982.000000	97.317179 
2981.000000	97.319966 
2980.000000	97.322609 
2979.000000	97.323897 
2978.000000	97.323862 
2977.000000	97.323666 
2976.000000	97.324071 
2975.000000	97.324495 
2974.000000	97.324072 
2973.000000	97.323476 
2972.000000	97.325035 
2971.000000	97.330610 
2970.000000	97.339551 
2969.000000	97.348961 
2968.000000	97.356034 
2967.000000	97.360183 
2966.000000	97.363142 
2965.000000	97.367427 
2964.000000	97.374575 
2963.000000	97.384205 
2962.000000	97.394218 
2961.000000	97.402099 
2960.000000	97.406645 
2959.000000	97.408891 
2958.000000	97.411427 
2957.000000	97.416505 
2956.000000	97.424372 
2955.000000	97.433137 
2954.000000	97.440278 
2953.000000	97.444559 
2952.000000	97.446799 
2951.000000	97.448979 
2950.000000	97.452579 
2949.000000	97.457625 
2948.000000	97.463085 
2947.000000	97.467891 
2946.000000	97.471513 
2945.000000	97.473741 
2944.000000	97.474294 
2943.000000	97.472975 
2942.000000	97.470200 
2941.000000	97.467111 
2940.000000	97.464926 
2939.000000	97.464037 
2938.000000	97.463808 
2937.000000	97.463369 
2936.000000	97.462590 
2935.000000	97.462246 
2934.000000	97.463183 
2933.000000	97.465320 
2932.000000	97.467360 
2931.000000	97.467559 
2930.000000	97.465042 
2929.000000	97.460738 
2928.000000	97.457037 
2927.000000	97.456176 
2926.000000	97.458599 
2925.000000	97.462727 
2924.000000	97.466411 
2923.000000	97.468884 
2922.000000	97.471219 
2921.000000	97.474740 
2920.000000	97.479182 
2919.000000	97.482770 
2918.000000	97.484207 
2917.000000	97.484306 
2916.000000	97.485388 
2915.000000	97.489222 
2914.000000	97.495750 
2913.000000	97.503548 
2912.000000	97.511015 
2911.000000	97.517154 
2910.000000	97.521765 
2909.000000	97.525366 
2908.000000	97.528864 
2907.000000	97.532812 
2906.000000	97.536778 
2905.000000	97.539566 
2904.000000	97.540465 
2903.000000	97.540396 
2902.000000	97.541799 
2901.000000	97.546753 
2900.000000	97.555266 
2899.000000	97.565336 
2898.000000	97.574309 
2897.000000	97.580817 
2896.000000	97.585141 
2895.000000	97.588397 
2894.000000	97.591661 
2893.000000	97.595553 
2892.000000	97.600133 
2891.000000	97.604997 
2890.000000	97.609649 
2889.000000	97.613884 
2888.000000	97.617789 
2887.000000	97.621497 
2886.000000	97.625135 
2885.000000	97.628929 
2884.000000	97.633080 
2883.000000	97.637526 
2882.000000	97.642013 
2881.000000	97.646474 
2880.000000	97.651177 
2879.000000	97.656430 
2878.000000	97.662228 
2877.000000	97.668186 
2876.000000	97.673806 
2875.000000	97.678888 
2874.000000	97.683790 
2873.000000	97.689186 
2872.000000	97.695281 
2871.000000	97.701242 
2870.000000	97.705741 
2869.000000	97.708264 
2868.000000	97.709806 
2867.000000	97.712099 
2866.000000	97.716135 
2865.000000	97.721731 
2864.000000	97.728053 
2863.000000	97.734203 
2862.000000	97.739510 
2861.000000	97.743778 
2860.000000	97.747455 
2859.000000	97.751330 
2858.000000	97.755884 
2857.000000	97.760895 
2856.000000	97.765593 
2855.000000	97.769225 
2854.000000	97.771808 
2853.000000	97.774419 
2852.000000	97.778378 
2851.000000	97.783952 
2850.000000	97.790155 
2849.000000	97.795926 
2848.000000	97.801132 
2847.000000	97.806330 
2846.000000	97.812197 
2845.000000	97.819485 
2844.000000	97.828678 
2843.000000	97.839009 
2842.000000	97.848423 
2841.000000	97.855370 
2840.000000	97.860230 
2839.000000	97.864386 
2838.000000	97.868435 
2837.000000	97.872128 
2836.000000	97.875564 
2835.000000	97.879252 
2834.000000	97.883171 
2833.000000	97.886887 
2832.000000	97.890465 
2831.000000	97.894164 
2830.000000	97.897315 
2829.000000	97.898850 
2828.000000	97.899130 
2827.000000	97.900007 
2826.000000	97.902573 
2825.000000	97.905977 
2824.000000	97.909101 
2823.000000	97.912296 
2822.000000	97.916477 
2821.000000	97.921287 
2820.000000	97.925310 
2819.000000	97.927793 
2818.000000	97.929227 
2817.000000	97.930350 
2816.000000	97.931341 
2815.000000	97.932121 
2814.000000	97.932970 
2813.000000	97.934523 
2812.000000	97.937216 
2811.000000	97.940758 
2810.000000	97.944201 
2809.000000	97.946734 
2808.000000	97.948463 
2807.000000	97.950177 
2806.000000	97.952329 
2805.000000	97.954500 
2804.000000	97.956025 
2803.000000	97.956873 
2802.000000	97.957651 
2801.000000	97.958885 
2800.000000	97.960531 
2799.000000	97.962183 
2798.000000	97.963661 
2797.000000	97.965269 
2796.000000	97.967406 
2795.000000	97.970008 
2794.000000	97.972566 
2793.000000	97.974685 
2792.000000	97.976375 
2791.000000	97.977755 
2790.000000	97.978791 
2789.000000	97.979497 
2788.000000	97.980161 
2787.000000	97.981142 
2786.000000	97.982536 
2785.000000	97.984213 
2784.000000	97.986034 
2783.000000	97.987899 
2782.000000	97.989666 
2781.000000	97.991209 
2780.000000	97.992579 
2779.000000	97.993983 
2778.000000	97.995571 
2777.000000	97.997308 
2776.000000	97.999046 
2775.000000	98.000666 
2774.000000	98.002163 
2773.000000	98.003614 
2772.000000	98.005099 
2771.000000	98.006625 
2770.000000	98.008128 
2769.000000	98.009559 
2768.000000	98.010941 
2767.000000	98.012326 
2766.000000	98.013717 
2765.000000	98.015067 
2764.000000	98.016351 
2763.000000	98.017610 
2762.000000	98.018936 
2761.000000	98.020372 
2760.000000	98.021887 
2759.000000	98.023387 
2758.000000	98.024803 
2757.000000	98.026148 
2756.000000	98.027489 
2755.000000	98.028878 
2754.000000	98.030304 
2753.000000	98.031709 
2752.000000	98.033061 
2751.000000	98.034381 
2750.000000	98.035701 
2749.000000	98.037013 
2748.000000	98.038297 
2747.000000	98.039562 
2746.000000	98.040849 
2745.000000	98.042176 
2744.000000	98.043519 
2743.000000	98.044839 
2742.000000	98.046111 
2741.000000	98.047304 
2740.000000	98.048394 
2739.000000	98.049405 
2738.000000	98.050420 
2737.000000	98.051520 
2736.000000	98.052701 
2735.000000	98.053865 
2734.000000	98.054916 
2733.000000	98.055847 
2732.000000	98.056740 
2731.000000	98.057696 
2730.000000	98.058759 
2729.000000	98.059907 
2728.000000	98.061094 
2727.000000	98.062272 
2726.000000	98.063401 
2725.000000	98.064462 
2724.000000	98.065475 
2723.000000	98.066481 
2722.000000	98.067495 
2721.000000	98.068471 
2720.000000	98.069337 
2719.000000	98.070071 
2718.000000	98.070750 
2717.000000	98.071508 
2716.000000	98.072416 
2715.000000	98.073416 
2714.000000	98.074352 
2713.000000	98.075127 
2712.000000	98.075789 
2711.000000	98.076475 
2710.000000	98.077263 
2709.000000	98.078129 
2708.000000	98.079035 
2707.000000	98.079962 
2706.000000	98.080809 
2705.000000	98.081363 
2704.000000	98.081538 
2703.000000	98.081672 
2702.000000	98.082344 
2701.000000	98.083840 
2700.000000	98.085890 
2699.000000	98.087901 
2698.000000	98.089423 
2697.000000	98.090267 
2696.000000	98.090426 
2695.000000	98.090131 
2694.000000	98.089893 
2693.000000	98.090164 
2692.000000	98.090843 
2691.000000	98.091381 
2690.000000	98.091508 
2689.000000	98.091612 
2688.000000	98.092142 
2687.000000	98.092866 
2686.000000	98.093146 
2685.000000	98.092965 
2684.000000	98.093181 
2683.000000	98.094445 
2682.000000	98.096155 
2681.000000	98.096968 
2680.000000	98.096268 
2679.000000	98.094730 
2678.000000	98.093501 
2677.000000	98.093171 
2676.000000	98.093689 
2675.000000	98.094834 
2674.000000	98.096341 
2673.000000	98.097701 
2672.000000	98.098331 
2671.000000	98.098117 
2670.000000	98.097694 
2669.000000	98.097973 
2668.000000	98.099237 
2667.000000	98.100718 
2666.000000	98.101217 
2665.000000	98.100172 
2664.000000	98.098029 
2663.000000	98.095584 
2662.000000	98.093184 
2661.000000	98.090787 
2660.000000	98.088538 
2659.000000	98.086829 
2658.000000	98.085772 
2657.000000	98.084923 
2656.000000	98.083632 
2655.000000	98.081528 
2654.000000	98.078812 
2653.000000	98.076356 
2652.000000	98.075371 
2651.000000	98.076407 
2650.000000	98.078411 
2649.000000	98.079181 
2648.000000	98.077328 
2647.000000	98.073699 
2646.000000	98.070643 
2645.000000	98.069815 
2644.000000	98.070972 
2643.000000	98.072668 
2642.000000	98.073681 
2641.000000	98.073775 
2640.000000	98.073385 
2639.000000	98.073041 
2638.000000	98.073054 
2637.000000	98.073483 
2636.000000	98.074288 
2635.000000	98.075552 
2634.000000	98.077509 
2633.000000	98.080219 
2632.000000	98.083172 
2631.000000	98.085377 
2630.000000	98.086139 
2629.000000	98.085707 
2628.000000	98.084983 
2627.000000	98.084634 
2626.000000	98.084578 
2625.000000	98.084363 
2624.000000	98.083887 
2623.000000	98.083630 
2622.000000	98.084186 
2621.000000	98.085662 
2620.000000	98.087523 
2619.000000	98.089015 
2618.000000	98.089745 
2617.000000	98.089865 
2616.000000	98.089788 
2615.000000	98.089864 
2614.000000	98.090284 
2613.000000	98.091103 
2612.000000	98.092240 
2611.000000	98.093528 
2610.000000	98.094855 
2609.000000	98.096189 
2608.000000	98.097473 
2607.000000	98.098602 
2606.000000	98.099564 
2605.000000	98.100488 
2604.000000	98.101479 
2603.000000	98.102504 
2602.000000	98.103501 
2601.000000	98.104461 
2600.000000	98.105414 
2599.000000	98.106373 
2598.000000	98.107333 
2597.000000	98.108297 
2596.000000	98.109268 
2595.000000	98.110245 
2594.000000	98.111219 
2593.000000	98.112182 
2592.000000	98.113132 
2591.000000	98.114076 
2590.000000	98.115022 
2589.000000	98.115986 
2588.000000	98.116975 
2587.000000	98.117990 
2586.000000	98.119019 
2585.000000	98.120049 
2584.000000	98.121069 
2583.000000	98.122077 
2582.000000	98.123074 
2581.000000	98.124065 
2580.000000	98.125051 
2579.000000	98.126034 
2578.000000	98.127014 
2577.000000	98.127993 
2576.000000	98.128971 
2575.000000	98.129950 
2574.000000	98.130927 
2573.000000	98.131901 
2572.000000	98.132867 
2571.000000	98.133818 
2570.000000	98.134746 
2569.000000	98.135651 
2568.000000	98.136540 
2567.000000	98.137414 
2566.000000	98.138267 
2565.000000	98.139092 
2564.000000	98.139885 
2563.000000	98.140645 
2562.000000	98.141370 
2561.000000	98.142075 
2560.000000	98.142788 
2559.000000	98.143532 
2558.000000	98.144285 
2557.000000	98.144997 
2556.000000	98.145671 
2555.000000	98.146381 
2554.000000	98.147123 
2553.000000	98.147795 
2552.000000	98.148408 
2551.000000	98.149091 
2550.000000	98.149822 
2549.000000	98.150402 
2548.000000	98.150771 
2547.000000	98.151069 
2546.000000	98.151363 
2545.000000	98.151531 
2544.000000	98.151513 
2543.000000	98.151491 
2542.000000	98.151721 
2541.000000	98.152308 
2540.000000	98.153158 
2539.000000	98.154025 
2538.000000	98.154595 
2537.000000	98.154709 
2536.000000	98.154599 
2535.000000	98.154728 
2534.000000	98.155275 
2533.000000	98.155950 
2532.000000	98.156348 
2531.000000	98.156274 
2530.000000	98.155680 
2529.000000	98.154665 
2528.000000	98.153689 
2527.000000	98.153405 
2526.000000	98.154017 
2525.000000	98.155006 
2524.000000	98.155656 
2523.000000	98.155767 
2522.000000	98.155597 
2521.000000	98.155461 
2520.000000	98.155626 
2519.000000	98.156283 
2518.000000	98.157228 
2517.000000	98.157853 
2516.000000	98.157900 
2515.000000	98.158072 
2514.000000	98.159442 
2513.000000	98.162297 
2512.000000	98.165638 
2511.000000	98.167860 
2510.000000	98.168040 
2509.000000	98.166565 
2508.000000	98.164910 
2507.000000	98.164306 
2506.000000	98.164602 
2505.000000	98.164731 
2504.000000	98.164200 
2503.000000	98.163599 
2502.000000	98.163473 
2501.000000	98.163542 
2500.000000	98.163574 
2499.000000	98.164298 
2498.000000	98.166530 
2497.000000	98.169877 
2496.000000	98.173032 
2495.000000	98.175134 
2494.000000	98.176298 
2493.000000	98.177141 
2492.000000	98.178359 
2491.000000	98.180424 
2490.000000	98.183057 
2489.000000	98.185245 
2488.000000	98.186377 
2487.000000	98.187089 
2486.000000	98.188400 
2485.000000	98.190241 
2484.000000	98.191534 
2483.000000	98.191561 
2482.000000	98.190670 
2481.000000	98.189866 
2480.000000	98.190215 
2479.000000	98.192299 
2478.000000	98.195611 
2477.000000	98.198564 
2476.000000	98.199735 
2475.000000	98.199089 
2474.000000	98.197732 
2473.000000	98.196662 
2472.000000	98.195986 
2471.000000	98.195162 
2470.000000	98.193662 
2469.000000	98.191527 
2468.000000	98.189517 
2467.000000	98.188374 
2466.000000	98.187769 
2465.000000	98.186681 
2464.000000	98.185066 
2463.000000	98.184368 
2462.000000	98.185858 
2461.000000	98.188993 
2460.000000	98.191827 
2459.000000	98.192834 
2458.000000	98.191980 
2457.000000	98.190427 
2456.000000	98.189637 
2455.000000	98.190315 
2454.000000	98.191754 
2453.000000	98.192468 
2452.000000	98.191869 
2451.000000	98.191008 
2450.000000	98.191318 
2449.000000	98.193080 
2448.000000	98.195544 
2447.000000	98.198016 
2446.000000	98.200233 
2445.000000	98.201927 
2444.000000	98.202793 
2443.000000	98.202983 
2442.000000	98.203084 
2441.000000	98.203454 
2440.000000	98.203849 
2439.000000	98.203842 
2438.000000	98.203417 
2437.000000	98.203017 
2436.000000	98.203021 
2435.000000	98.203318 
2434.000000	98.203563 
2433.000000	98.203805 
2432.000000	98.204562 
2431.000000	98.206123 
2430.000000	98.207999 
2429.000000	98.209375 
2428.000000	98.210041 
2427.000000	98.210481 
2426.000000	98.211130 
2425.000000	98.211968 
2424.000000	98.212848 
2423.000000	98.213763 
2422.000000	98.214658 
2421.000000	98.215371 
2420.000000	98.215897 
2419.000000	98.216369 
2418.000000	98.216735 
2417.000000	98.216852 
2416.000000	98.216975 
2415.000000	98.217639 
2414.000000	98.218873 
2413.000000	98.220049 
2412.000000	98.220728 
2411.000000	98.221217 
2410.000000	98.221956 
2409.000000	98.222798 
2408.000000	98.223312 
2407.000000	98.223409 
2406.000000	98.223231 
2405.000000	98.222715 
2404.000000	98.221800 
2403.000000	98.220910 
2402.000000	98.220685 
2401.000000	98.221195 
2400.000000	98.221957 
2399.000000	98.222721 
2398.000000	98.223664 
2397.000000	98.224798 
2396.000000	98.225669 
2395.000000	98.225854 
2394.000000	98.225475 
2393.000000	98.225072 
2392.000000	98.225041 
2391.000000	98.225363 
2390.000000	98.225749 
2389.000000	98.225909 
2388.000000	98.225756 
2387.000000	98.225514 
2386.000000	98.225612 
2385.000000	98.226343 
2384.000000	98.227552 
2383.000000	98.228642 
2382.000000	98.229020 
2381.000000	98.228526 
2380.000000	98.227497 
2379.000000	98.226462 
2378.000000	98.225708 
2377.000000	98.225186 
2376.000000	98.224726 
2375.000000	98.224250 
2374.000000	98.223800 
2373.000000	98.223406 
2372.000000	98.223014 
2371.000000	98.222553 
2370.000000	98.222039 
2369.000000	98.221576 
2368.000000	98.221229 
2367.000000	98.220933 
2366.000000	98.220529 
2365.000000	98.219899 
2364.000000	98.219036 
2363.000000	98.217962 
2362.000000	98.216662 
2361.000000	98.215205 
2360.000000	98.213865 
2359.000000	98.212968 
2358.000000	98.212510 
2357.000000	98.212094 
2356.000000	98.211409 
2355.000000	98.210452 
2354.000000	98.209223 
2353.000000	98.207665 
2352.000000	98.206055 
2351.000000	98.204842 
2350.000000	98.203969 
2349.000000	98.202986 
2348.000000	98.201636 
2347.000000	98.200031 
2346.000000	98.198434 
2345.000000	98.197122 
2344.000000	98.196398 
2343.000000	98.196124 
2342.000000	98.195597 
2341.000000	98.194187 
2340.000000	98.191945 
2339.000000	98.189690 
2338.000000	98.188140 
2337.000000	98.187223 
2336.000000	98.186340 
2335.000000	98.185097 
2334.000000	98.183612 
2333.000000	98.182390 
2332.000000	98.182059 
2331.000000	98.182788 
2330.000000	98.183636 
2329.000000	98.183141 
2328.000000	98.180364 
2327.000000	98.175298 
2326.000000	98.168806 
2325.000000	98.162409 
2324.000000	98.158011 
2323.000000	98.156642 
2322.000000	98.157826 
2321.000000	98.160202 
2320.000000	98.162947 
2319.000000	98.165830 
2318.000000	98.168114 
2317.000000	98.168776 
2316.000000	98.167524 
2315.000000	98.165119 
2314.000000	98.162330 
2313.000000	98.159503 
2312.000000	98.156994 
2311.000000	98.155309 
2310.000000	98.154579 
2309.000000	98.154688 
2308.000000	98.155918 
2307.000000	98.158575 
2306.000000	98.162047 
2305.000000	98.164967 
2304.000000	98.166567 
2303.000000	98.166958 
2302.000000	98.166341 
2301.000000	98.164908 
2300.000000	98.163437 
2299.000000	98.162624 
2298.000000	98.161741 
2297.000000	98.159280 
2296.000000	98.155283 
2295.000000	98.151603 
2294.000000	98.149444 
2293.000000	98.147981 
2292.000000	98.146060 
2291.000000	98.143622 
2290.000000	98.140811 
2289.000000	98.137175 
2288.000000	98.132877 
2287.000000	98.129462 
2286.000000	98.128465 
2285.000000	98.130074 
2284.000000	98.133630 
2283.000000	98.138278 
2282.000000	98.142767 
2281.000000	98.146265 
2280.000000	98.149761 
2279.000000	98.154645 
2278.000000	98.159616 
2277.000000	98.161727 
2276.000000	98.161201 
2275.000000	98.162190 
2274.000000	98.167350 
2273.000000	98.174514 
2272.000000	98.180342 
2271.000000	98.184789 
2270.000000	98.189695 
2269.000000	98.195091 
2268.000000	98.199334 
2267.000000	98.201548 
2266.000000	98.202015 
2265.000000	98.201445 
2264.000000	98.201174 
2263.000000	98.202491 
2262.000000	98.204660 
2261.000000	98.205138 
2260.000000	98.202825 
2259.000000	98.199634 
2258.000000	98.197986 
2257.000000	98.198061 
2256.000000	98.198712 
2255.000000	98.199655 
2254.000000	98.201430 
2253.000000	98.204109 
2252.000000	98.207139 
2251.000000	98.209875 
2250.000000	98.211744 
2249.000000	98.212466 
2248.000000	98.212552 
2247.000000	98.212953 
2246.000000	98.214058 
2245.000000	98.215562 
2244.000000	98.217125 
2243.000000	98.218667 
2242.000000	98.220127 
2241.000000	98.221423 
2240.000000	98.222687 
2239.000000	98.224204 
2238.000000	98.225985 
2237.000000	98.227620 
2236.000000	98.228755 
2235.000000	98.229576 
2234.000000	98.230644 
2233.000000	98.232226 
2232.000000	98.234086 
2231.000000	98.235878 
2230.000000	98.237509 
2229.000000	98.239025 
2228.000000	98.240362 
2227.000000	98.241298 
2226.000000	98.241608 
2225.000000	98.241308 
2224.000000	98.240984 
2223.000000	98.241642 
2222.000000	98.243825 
2221.000000	98.246982 
2220.000000	98.249734 
2219.000000	98.251241 
2218.000000	98.251917 
2217.000000	98.252906 
2216.000000	98.254875 
2215.000000	98.257472 
2214.000000	98.259813 
2213.000000	98.261254 
2212.000000	98.261708 
2211.000000	98.261546 
2210.000000	98.261440 
2209.000000	98.262232 
2208.000000	98.264569 
2207.000000	98.268377 
2206.000000	98.272709 
2205.000000	98.276401 
2204.000000	98.278949 
2203.000000	98.280476 
2202.000000	98.281286 
2201.000000	98.281755 
2200.000000	98.282173 
2199.000000	98.282593 
2198.000000	98.282801 
2197.000000	98.282706 
2196.000000	98.282872 
2195.000000	98.284037 
2194.000000	98.285907 
2193.000000	98.287108 
2192.000000	98.286480 
2191.000000	98.284002 
2190.000000	98.280617 
2189.000000	98.277720 
2188.000000	98.276486 
2187.000000	98.277091 
2186.000000	98.278924 
2185.000000	98.282055 
2184.000000	98.287558 
2183.000000	98.295268 
2182.000000	98.302172 
2181.000000	98.304927 
2180.000000	98.303437 
2179.000000	98.300155 
2178.000000	98.296648 
2177.000000	98.293316 
2176.000000	98.291969 
2175.000000	98.295475 
2174.000000	98.304155 
2173.000000	98.314697 
2172.000000	98.323436 
2171.000000	98.328783 
2170.000000	98.330019 
2169.000000	98.326536 
2168.000000	98.319679 
2167.000000	98.313241 
2166.000000	98.310282 
2165.000000	98.310290 
2164.000000	98.310300 
2163.000000	98.308242 
2162.000000	98.305493 
2161.000000	98.307638 
2160.000000	98.321678 
2159.000000	98.349210 
2158.000000	98.380941 
2157.000000	98.402861 
2156.000000	98.409622 
2155.000000	98.406368 
2154.000000	98.400183 
2153.000000	98.393532 
2152.000000	98.386442 
2151.000000	98.380137 
2150.000000	98.375664 
2149.000000	98.372228 
2148.000000	98.369637 
2147.000000	98.370036 
2146.000000	98.374796 
2145.000000	98.381617 
2144.000000	98.387074 
2143.000000	98.390335 
2142.000000	98.392072 
2141.000000	98.391459 
2140.000000	98.387030 
2139.000000	98.379796 
2138.000000	98.373269 
2137.000000	98.370222 
2136.000000	98.370457 
2135.000000	98.371562 
2134.000000	98.371064 
2133.000000	98.368301 
2132.000000	98.364795 
2131.000000	98.362323 
2130.000000	98.360387 
2129.000000	98.356449 
2128.000000	98.348942 
2127.000000	98.339148 
2126.000000	98.329865 
2125.000000	98.323001 
2124.000000	98.318704 
2123.000000	98.315872 
2122.000000	98.313059 
2121.000000	98.309585 
2120.000000	98.305960 
2119.000000	98.302592 
2118.000000	98.298505 
2117.000000	98.292480 
2116.000000	98.285129 
2115.000000	98.278570 
2114.000000	98.274624 
2113.000000	98.274254 
2112.000000	98.278234 
2111.000000	98.286284 
2110.000000	98.294746 
2109.000000	98.298184 
2108.000000	98.294730 
2107.000000	98.287990 
2106.000000	98.283019 
2105.000000	98.281548 
2104.000000	98.281908 
2103.000000	98.281973 
2102.000000	98.280895 
2101.000000	98.278903 
2100.000000	98.276727 
2099.000000	98.275207 
2098.000000	98.275086 
2097.000000	98.277137 
2096.000000	98.281898 
2095.000000	98.288359 
2094.000000	98.293645 
2093.000000	98.295359 
2092.000000	98.293811 
2091.000000	98.291340 
2090.000000	98.289843 
2089.000000	98.289436 
2088.000000	98.289232 
2087.000000	98.288538 
2086.000000	98.287410 
2085.000000	98.286796 
2084.000000	98.288073 
2083.000000	98.291791 
2082.000000	98.296885 
2081.000000	98.301439 
2080.000000	98.304419 
2079.000000	98.306148 
2078.000000	98.307417 
2077.000000	98.308840 
2076.000000	98.310816 
2075.000000	98.313408 
2074.000000	98.316179 
2073.000000	98.318570 
2072.000000	98.320567 
2071.000000	98.322698 
2070.000000	98.325273 
2069.000000	98.328013 
2068.000000	98.330644 
2067.000000	98.333289 
2066.000000	98.335946 
2065.000000	98.338427 
2064.000000	98.341311 
2063.000000	98.345751 
2062.000000	98.351462 
2061.000000	98.355952 
2060.000000	98.356932 
2059.000000	98.354944 
2058.000000	98.353088 
2057.000000	98.354489 
2056.000000	98.360418 
2055.000000	98.369633 
2054.000000	98.378317 
2053.000000	98.382161 
2052.000000	98.379889 
2051.000000	98.374584 
2050.000000	98.371028 
2049.000000	98.371944 
2048.000000	98.377582 
2047.000000	98.387434 
2046.000000	98.400264 
2045.000000	98.413068 
2044.000000	98.422332 
2043.000000	98.426430 
2042.000000	98.426101 
2041.000000	98.423689 
2040.000000	98.422561 
2039.000000	98.425672 
2038.000000	98.433753 
2037.000000	98.445685 
2036.000000	98.460514 
2035.000000	98.477170 
2034.000000	98.492345 
2033.000000	98.502271 
2032.000000	98.507325 
2031.000000	98.511014 
2030.000000	98.513757 
2029.000000	98.512690 
2028.000000	98.508453 
2027.000000	98.506222 
2026.000000	98.507610 
2025.000000	98.507107 
2024.000000	98.500363 
2023.000000	98.491490 
2022.000000	98.488059 
2021.000000	98.491687 
2020.000000	98.497381 
2019.000000	98.500184 
2018.000000	98.499111 
2017.000000	98.496241 
2016.000000	98.494989 
2015.000000	98.498406 
2014.000000	98.507366 
2013.000000	98.520128 
2012.000000	98.533068 
2011.000000	98.541189 
2010.000000	98.540058 
2009.000000	98.530383 
2008.000000	98.519053 
2007.000000	98.511354 
2006.000000	98.504492 
2005.000000	98.494017 
2004.000000	98.483046 
2003.000000	98.478028 
2002.000000	98.477807 
2001.000000	98.474930 
2000.000000	98.467498 
1999.000000	98.461719 
1998.000000	98.461704 
1997.000000	98.464576 
1996.000000	98.467345 
1995.000000	98.471167 
1994.000000	98.475439 
1993.000000	98.474394 
1992.000000	98.464948 
1991.000000	98.453252 
1990.000000	98.447637 
1989.000000	98.448647 
1988.000000	98.450371 
1987.000000	98.448651 
1986.000000	98.445117 
1985.000000	98.444541 
1984.000000	98.450011 
1983.000000	98.459368 
1982.000000	98.465893 
1981.000000	98.465361 
1980.000000	98.462364 
1979.000000	98.465770 
1978.000000	98.477880 
1977.000000	98.492718 
1976.000000	98.505463 
1975.000000	98.517249 
1974.000000	98.528676 
1973.000000	98.535920 
1972.000000	98.536399 
1971.000000	98.532336 
1970.000000	98.525995 
1969.000000	98.516427 
1968.000000	98.503973 
1967.000000	98.493615 
1966.000000	98.489988 
1965.000000	98.492150 
1964.000000	98.496137 
1963.000000	98.499704 
1962.000000	98.502544 
1961.000000	98.504327 
1960.000000	98.504184 
1959.000000	98.500761 
1958.000000	98.492750 
1957.000000	98.481607 
1956.000000	98.472999 
1955.000000	98.471927 
1954.000000	98.476353 
1953.000000	98.478493 
1952.000000	98.473389 
1951.000000	98.463471 
1950.000000	98.454382 
1949.000000	98.449292 
1948.000000	98.448473 
1947.000000	98.451085 
1946.000000	98.455016 
1945.000000	98.457424 
1944.000000	98.457369 
1943.000000	98.456367 
1942.000000	98.455333 
1941.000000	98.452919 
1940.000000	98.448032 
1939.000000	98.441816 
1938.000000	98.436191 
1937.000000	98.431905 
1936.000000	98.428795 
1935.000000	98.426635 
1934.000000	98.424808 
1933.000000	98.422304 
1932.000000	98.418964 
1931.000000	98.415794 
1930.000000	98.413422 
1929.000000	98.411403 
1928.000000	98.409242 
1927.000000	98.407005 
1926.000000	98.404775 
1925.000000	98.402240 
1924.000000	98.399257 
1923.000000	98.396447 
1922.000000	98.394439 
1921.000000	98.392959 
1920.000000	98.391270 
1919.000000	98.389000 
1918.000000	98.386146 
1917.000000	98.382828 
1916.000000	98.379526 
1915.000000	98.377058 
1914.000000	98.375736 
1913.000000	98.374844 
1912.000000	98.373570 
1911.000000	98.372160 
1910.000000	98.370815 
1909.000000	98.368569 
1908.000000	98.364874 
1907.000000	98.360603 
1906.000000	98.356624 
1905.000000	98.352590 
1904.000000	98.348284 
1903.000000	98.344675 
1902.000000	98.342002 
1901.000000	98.338917 
1900.000000	98.335027 
1899.000000	98.332230 
1898.000000	98.332013 
1897.000000	98.332836 
1896.000000	98.331945 
1895.000000	98.328863 
1894.000000	98.324983 
1893.000000	98.321231 
1892.000000	98.317915 
1891.000000	98.315522 
1890.000000	98.314288 
1889.000000	98.314041 
1888.000000	98.315129 
1887.000000	98.317534 
1886.000000	98.318911 
1885.000000	98.316062 
1884.000000	98.309232 
1883.000000	98.302877 
1882.000000	98.300419 
1881.000000	98.300957 
1880.000000	98.302039 
1879.000000	98.302801 
1878.000000	98.303274 
1877.000000	98.303130 
1876.000000	98.302929 
1875.000000	98.304532 
1874.000000	98.308048 
1873.000000	98.310529 
1872.000000	98.309956 
1871.000000	98.308047 
1870.000000	98.306843 
1869.000000	98.305176 
1868.000000	98.302426 
1867.000000	98.301511 
1866.000000	98.304161 
1865.000000	98.308579 
1864.000000	98.312984 
1863.000000	98.317889 
1862.000000	98.323471 
1861.000000	98.327220 
1860.000000	98.327264 
1859.000000	98.325792 
1858.000000	98.326111 
1857.000000	98.328409 
1856.000000	98.331028 
1855.000000	98.333574 
1854.000000	98.336300 
1853.000000	98.338572 
1852.000000	98.340319 
1851.000000	98.342986 
1850.000000	98.347580 
1849.000000	98.353236 
1848.000000	98.358613 
1847.000000	98.363462 
1846.000000	98.367636 
1845.000000	98.369880 
1844.000000	98.370127 
1843.000000	98.370717 
1842.000000	98.372292 
1841.000000	98.372961 
1840.000000	98.371766 
1839.000000	98.369661 
1838.000000	98.368049 
1837.000000	98.367285 
1836.000000	98.367607 
1835.000000	98.369974 
1834.000000	98.374408 
1833.000000	98.378987 
1832.000000	98.381236 
1831.000000	98.379933 
1830.000000	98.376201 
1829.000000	98.372887 
1828.000000	98.371696 
1827.000000	98.372375 
1826.000000	98.374025 
1825.000000	98.375415 
1824.000000	98.376120 
1823.000000	98.377332 
1822.000000	98.379880 
1821.000000	98.382823 
1820.000000	98.385140 
1819.000000	98.387935 
1818.000000	98.392507 
1817.000000	98.396454 
1816.000000	98.396248 
1815.000000	98.392475 
1814.000000	98.388765 
1813.000000	98.386854 
1812.000000	98.385568 
1811.000000	98.384629 
1810.000000	98.384901 
1809.000000	98.384944 
1808.000000	98.383022 
1807.000000	98.380486 
1806.000000	98.379038 
1805.000000	98.377478 
1804.000000	98.374340 
1803.000000	98.371422 
1802.000000	98.371420 
1801.000000	98.373630 
1800.000000	98.375286 
1799.000000	98.376070 
1798.000000	98.377115 
1797.000000	98.378180 
1796.000000	98.379566 
1795.000000	98.383148 
1794.000000	98.389326 
1793.000000	98.394312 
1792.000000	98.394638 
1791.000000	98.393561 
1790.000000	98.395157 
1789.000000	98.397817 
1788.000000	98.398860 
1787.000000	98.399230 
1786.000000	98.401493 
1785.000000	98.405560 
1784.000000	98.409479 
1783.000000	98.412745 
1782.000000	98.415980 
1781.000000	98.419463 
1780.000000	98.423188 
1779.000000	98.427442 
1778.000000	98.431823 
1777.000000	98.434703 
1776.000000	98.435131 
1775.000000	98.433851 
1774.000000	98.432560 
1773.000000	98.432384 
1772.000000	98.433224 
1771.000000	98.435573 
1770.000000	98.440875 
1769.000000	98.449006 
1768.000000	98.457221 
1767.000000	98.462527 
1766.000000	98.464430 
1765.000000	98.464118 
1764.000000	98.462490 
1763.000000	98.460228 
1762.000000	98.459390 
1761.000000	98.462317 
1760.000000	98.468193 
1759.000000	98.474343 
1758.000000	98.479371 
1757.000000	98.483446 
1756.000000	98.486923 
1755.000000	98.489524 
1754.000000	98.491815 
1753.000000	98.495479 
1752.000000	98.500158 
1751.000000	98.502263 
1750.000000	98.500201 
1749.000000	98.496548 
1748.000000	98.493646 
1747.000000	98.491626 
1746.000000	98.490710 
1745.000000	98.491778 
1744.000000	98.493288 
1743.000000	98.491868 
1742.000000	98.487207 
1741.000000	98.482381 
1740.000000	98.479773 
1739.000000	98.479318 
1738.000000	98.479332 
1737.000000	98.477815 
1736.000000	98.475018 
1735.000000	98.472780 
1734.000000	98.471485 
1733.000000	98.470867 
1732.000000	98.469916 
1731.000000	98.468020 
1730.000000	98.467572 
1729.000000	98.470398 
1728.000000	98.474764 
1727.000000	98.477147 
1726.000000	98.475672 
1725.000000	98.471135 
1724.000000	98.465098 
1723.000000	98.459673 
1722.000000	98.456062 
1721.000000	98.452920 
1720.000000	98.448704 
1719.000000	98.444631 
1718.000000	98.442156 
1717.000000	98.436644 
1716.000000	98.425269 
1715.000000	98.415430 
1714.000000	98.412863 
1713.000000	98.414085 
1712.000000	98.413990 
1711.000000	98.412148 
1710.000000	98.410078 
1709.000000	98.406044 
1708.000000	98.397099 
1707.000000	98.384775 
1706.000000	98.373145 
1705.000000	98.361810 
1704.000000	98.349117 
1703.000000	98.337357 
1702.000000	98.331030 
1701.000000	98.327182 
1700.000000	98.317377 
1699.000000	98.306099 
1698.000000	98.299821 
1697.000000	98.293538 
1696.000000	98.283923 
1695.000000	98.274635 
1694.000000	98.266795 
1693.000000	98.256342 
1692.000000	98.243469 
1691.000000	98.232426 
1690.000000	98.224320 
1689.000000	98.216125 
1688.000000	98.205504 
1687.000000	98.192787 
1686.000000	98.179122 
1685.000000	98.161943 
1684.000000	98.142020 
1683.000000	98.128365 
1682.000000	98.121132 
1681.000000	98.114303 
1680.000000	98.107011 
1679.000000	98.098860 
1678.000000	98.088122 
1677.000000	98.074717 
1676.000000	98.061841 
1675.000000	98.051912 
1674.000000	98.043589 
1673.000000	98.033461 
1672.000000	98.019246 
1671.000000	98.001703 
1670.000000	97.982268 
1669.000000	97.965494 
1668.000000	97.956725 
1667.000000	97.952761 
1666.000000	97.946239 
1665.000000	97.933322 
1664.000000	97.915259 
1663.000000	97.897027 
1662.000000	97.881850 
1661.000000	97.869674 
1660.000000	97.860261 
1659.000000	97.852258 
1658.000000	97.841207 
1657.000000	97.824588 
1656.000000	97.804483 
1655.000000	97.786385 
1654.000000	97.769463 
1653.000000	97.753564 
1652.000000	97.747845 
1651.000000	97.746537 
1650.000000	97.738295 
1649.000000	97.726032 
1648.000000	97.713021 
1647.000000	97.699539 
1646.000000	97.689561 
1645.000000	97.685153 
1644.000000	97.682453 
1643.000000	97.679707 
1642.000000	97.677976 
1641.000000	97.676970 
1640.000000	97.675646 
1639.000000	97.673145 
1638.000000	97.669468 
1637.000000	97.665465 
1636.000000	97.662579 
1635.000000	97.662496 
1634.000000	97.665354 
1633.000000	97.670048 
1632.000000	97.678137 
1631.000000	97.691298 
1630.000000	97.705639 
1629.000000	97.715445 
1628.000000	97.721314 
1627.000000	97.728369 
1626.000000	97.738661 
1625.000000	97.752230 
1624.000000	97.771144 
1623.000000	97.795622 
1622.000000	97.819644 
1621.000000	97.838059 
1620.000000	97.852561 
1619.000000	97.868196 
1618.000000	97.887751 
1617.000000	97.910595 
1616.000000	97.935756 
1615.000000	97.958175 
1614.000000	97.973014 
1613.000000	97.985506 
1612.000000	98.004961 
1611.000000	98.031923 
1610.000000	98.056544 
1609.000000	98.073290 
1608.000000	98.087981 
1607.000000	98.105153 
1606.000000	98.121293 
1605.000000	98.134466 
1604.000000	98.148283 
1603.000000	98.163663 
1602.000000	98.177163 
1601.000000	98.188431 
1600.000000	98.201012 
1599.000000	98.214836 
1598.000000	98.225887 
1597.000000	98.233757 
1596.000000	98.243051 
1595.000000	98.256114 
1594.000000	98.269471 
1593.000000	98.280220 
1592.000000	98.290111 
1591.000000	98.300522 
1590.000000	98.309400 
1589.000000	98.316348 
1588.000000	98.324894 
1587.000000	98.336549 
1586.000000	98.347908 
1585.000000	98.356828 
1584.000000	98.366137 
1583.000000	98.377243 
1582.000000	98.386597 
1581.000000	98.392615 
1580.000000	98.398075 
1579.000000	98.403649 
1578.000000	98.406729 
1577.000000	98.407761 
1576.000000	98.412978 
1575.000000	98.422599 
1574.000000	98.428149 
1573.000000	98.427703 
1572.000000	98.426974 
1571.000000	98.429975 
1570.000000	98.435273 
1569.000000	98.443253 
1568.000000	98.456078 
1567.000000	98.468313 
1566.000000	98.473692 
1565.000000	98.474079 
1564.000000	98.474226 
1563.000000	98.473775 
1562.000000	98.469720 
1561.000000	98.466813 
1560.000000	98.476152 
1559.000000	98.485294 
1558.000000	98.479315 
1557.000000	98.470178 
1556.000000	98.465148 
1555.000000	98.463061 
1554.000000	98.461783 
1553.000000	98.459494 
1552.000000	98.456544 
1551.000000	98.452973 
1550.000000	98.449313 
1549.000000	98.445511 
1548.000000	98.441416 
1547.000000	98.436143 
1546.000000	98.428110 
1545.000000	98.416348 
1544.000000	98.403332 
1543.000000	98.393313 
1542.000000	98.387264 
1541.000000	98.378731 
1540.000000	98.366012 
1539.000000	98.359500 
1538.000000	98.358816 
1537.000000	98.353609 
1536.000000	98.342582 
1535.000000	98.330490 
1534.000000	98.319026 
1533.000000	98.307876 
1532.000000	98.299205 
1531.000000	98.294773 
1530.000000	98.291158 
1529.000000	98.282175 
1528.000000	98.265744 
1527.000000	98.246664 
1526.000000	98.230613 
1525.000000	98.217192 
1524.000000	98.203004 
1523.000000	98.187700 
1522.000000	98.171897 
1521.000000	98.155721 
1520.000000	98.140701 
1519.000000	98.127215 
1518.000000	98.113924 
1517.000000	98.099501 
1516.000000	98.084233 
1515.000000	98.069933 
1514.000000	98.057066 
1513.000000	98.044007 
1512.000000	98.027839 
1511.000000	98.008589 
1510.000000	97.989356 
1509.000000	97.971474 
1508.000000	97.951703 
1507.000000	97.929481 
1506.000000	97.912627 
1505.000000	97.900853 
1504.000000	97.886454 
1503.000000	97.868012 
1502.000000	97.847791 
1501.000000	97.826605 
1500.000000	97.803742 
1499.000000	97.780543 
1498.000000	97.761788 
1497.000000	97.749109 
1496.000000	97.738070 
1495.000000	97.725654 
1494.000000	97.712339 
1493.000000	97.697731 
1492.000000	97.680268 
1491.000000	97.659307 
1490.000000	97.636578 
1489.000000	97.613827 
1488.000000	97.591849 
1487.000000	97.573150 
1486.000000	97.558413 
1485.000000	97.544898 
1484.000000	97.530908 
1483.000000	97.516389 
1482.000000	97.501260 
1481.000000	97.484361 
1480.000000	97.465399 
1479.000000	97.446566 
1478.000000	97.429710 
1477.000000	97.413151 
1476.000000	97.394569 
1475.000000	97.375639 
1474.000000	97.357562 
1473.000000	97.336908 
1472.000000	97.312692 
1471.000000	97.290829 
1470.000000	97.274105 
1469.000000	97.258395 
1468.000000	97.240044 
1467.000000	97.220580 
1466.000000	97.203590 
1465.000000	97.189161 
1464.000000	97.175135 
1463.000000	97.160189 
1462.000000	97.143567 
1461.000000	97.123811 
1460.000000	97.100266 
1459.000000	97.074839 
1458.000000	97.053183 
1457.000000	97.041594 
1456.000000	97.037369 
1455.000000	97.030642 
1454.000000	97.017924 
1453.000000	97.002792 
1452.000000	96.987649 
1451.000000	96.972907 
1450.000000	96.960673 
1449.000000	96.952497 
1448.000000	96.945173 
1447.000000	96.934923 
1446.000000	96.921982 
1445.000000	96.909153 
1444.000000	96.897846 
1443.000000	96.887190 
1442.000000	96.876964 
1441.000000	96.867798 
1440.000000	96.857723 
1439.000000	96.843690 
1438.000000	96.828686 
1437.000000	96.820356 
1436.000000	96.820385 
1435.000000	96.822292 
1434.000000	96.821386 
1433.000000	96.818246 
1432.000000	96.814709 
1431.000000	96.810754 
1430.000000	96.808200 
1429.000000	96.810746 
1428.000000	96.816825 
1427.000000	96.820912 
1426.000000	96.821622 
1425.000000	96.825552 
1424.000000	96.836366 
1423.000000	96.846861 
1422.000000	96.851065 
1421.000000	96.853900 
1420.000000	96.862296 
1419.000000	96.873824 
1418.000000	96.884500 
1417.000000	96.894631 
1416.000000	96.903044 
1415.000000	96.908067 
1414.000000	96.910391 
1413.000000	96.913588 
1412.000000	96.920491 
1411.000000	96.930429 
1410.000000	96.943267 
1409.000000	96.959798 
1408.000000	96.978414 
1407.000000	96.996999 
1406.000000	97.016593 
1405.000000	97.041502 
1404.000000	97.071753 
1403.000000	97.100511 
1402.000000	97.123922 
1401.000000	97.145758 
1400.000000	97.170652 
1399.000000	97.196238 
1398.000000	97.216489 
1397.000000	97.229498 
1396.000000	97.238694 
1395.000000	97.250528 
1394.000000	97.272370 
1393.000000	97.307998 
1392.000000	97.351849 
1391.000000	97.393546 
1390.000000	97.427003 
1389.000000	97.452834 
1388.000000	97.474774 
1387.000000	97.495436 
1386.000000	97.515669 
1385.000000	97.536076 
1384.000000	97.556892 
1383.000000	97.577376 
1382.000000	97.597223 
1381.000000	97.617386 
1380.000000	97.639008 
1379.000000	97.661535 
1378.000000	97.683161 
1377.000000	97.703529 
1376.000000	97.724385 
1375.000000	97.747063 
1374.000000	97.771073 
1373.000000	97.795117 
1372.000000	97.817417 
1371.000000	97.836382 
1370.000000	97.852536 
1369.000000	97.869905 
1368.000000	97.891587 
1367.000000	97.914783 
1366.000000	97.934311 
1365.000000	97.948720 
1364.000000	97.960939 
1363.000000	97.974732 
1362.000000	97.991785 
1361.000000	98.011491 
1360.000000	98.032050 
1359.000000	98.051584 
1358.000000	98.069464 
1357.000000	98.086978 
1356.000000	98.105347 
1355.000000	98.123372 
1354.000000	98.139073 
1353.000000	98.152409 
1352.000000	98.165508 
1351.000000	98.180417 
1350.000000	98.196324 
1349.000000	98.211325 
1348.000000	98.224003 
1347.000000	98.233753 
1346.000000	98.242241 
1345.000000	98.252892 
1344.000000	98.266769 
1343.000000	98.280324 
1342.000000	98.289627 
1341.000000	98.295482 
1340.000000	98.302006 
1339.000000	98.310972 
1338.000000	98.321034 
1337.000000	98.331607 
1336.000000	98.343436 
1335.000000	98.356382 
1334.000000	98.369710 
1333.000000	98.383537 
1332.000000	98.397328 
1331.000000	98.407889 
1330.000000	98.412345 
1329.000000	98.412849 
1328.000000	98.414880 
1327.000000	98.420586 
1326.000000	98.427141 
1325.000000	98.432350 
1324.000000	98.436997 
1323.000000	98.441545 
1322.000000	98.444912 
1321.000000	98.447027 
1320.000000	98.449696 
1319.000000	98.454310 
1318.000000	98.460736 
1317.000000	98.468361 
1316.000000	98.476418 
1315.000000	98.483583 
1314.000000	98.489175 
1313.000000	98.494307 
1312.000000	98.500220 
1311.000000	98.506043 
1310.000000	98.510037 
1309.000000	98.512258 
1308.000000	98.514262 
1307.000000	98.516697 
1306.000000	98.518622 
1305.000000	98.519546 
1304.000000	98.519954 
1303.000000	98.520245 
1302.000000	98.520654 
1301.000000	98.521550 
1300.000000	98.522742 
1299.000000	98.523408 
1298.000000	98.523798 
1297.000000	98.525498 
1296.000000	98.528754 
1295.000000	98.530898 
1294.000000	98.529472 
1293.000000	98.525752 
1292.000000	98.523208 
1291.000000	98.523244 
1290.000000	98.524216 
1289.000000	98.524128 
1288.000000	98.522495 
1287.000000	98.519799 
1286.000000	98.516742 
1285.000000	98.514209 
1284.000000	98.512987 
1283.000000	98.513413 
1282.000000	98.515351 
1281.000000	98.517979 
1280.000000	98.519612 
1279.000000	98.518769 
1278.000000	98.516126 
1277.000000	98.514201 
1276.000000	98.514371 
1275.000000	98.515373 
1274.000000	98.515640 
1273.000000	98.515767 
1272.000000	98.517274 
1271.000000	98.519985 
1270.000000	98.522145 
1269.000000	98.522664 
1268.000000	98.522066 
1267.000000	98.521758 
1266.000000	98.523171 
1265.000000	98.526437 
1264.000000	98.529414 
1263.000000	98.529661 
1262.000000	98.527785 
1261.000000	98.526935 
1260.000000	98.528243 
1259.000000	98.528927 
1258.000000	98.526552 
1257.000000	98.522736 
1256.000000	98.520662 
1255.000000	98.520911 
1254.000000	98.521792 
1253.000000	98.522379 
1252.000000	98.523087 
1251.000000	98.524101 
1250.000000	98.525121 
1249.000000	98.526138 
1248.000000	98.527092 
1247.000000	98.527480 
1246.000000	98.527505 
1245.000000	98.528234 
1244.000000	98.529451 
1243.000000	98.529075 
1242.000000	98.526306 
1241.000000	98.523785 
1240.000000	98.524625 
1239.000000	98.528294 
1238.000000	98.531358 
1237.000000	98.531632 
1236.000000	98.529837 
1235.000000	98.527577 
1234.000000	98.525365 
1233.000000	98.522832 
1232.000000	98.519866 
1231.000000	98.517128 
1230.000000	98.515428 
1229.000000	98.513979 
1228.000000	98.509371 
1227.000000	98.497606 
1226.000000	98.477730 
1225.000000	98.452474 
1224.000000	98.424920 
1223.000000	98.395651 
1222.000000	98.363598 
1221.000000	98.328132 
1220.000000	98.289190 
1219.000000	98.246306 
1218.000000	98.198740 
1217.000000	98.146115 
1216.000000	98.088203 
1215.000000	98.024779 
1214.000000	97.956527 
1213.000000	97.885502 
1212.000000	97.813556 
1211.000000	97.740321 
1210.000000	97.663364 
1209.000000	97.580582 
1208.000000	97.492317 
1207.000000	97.401173 
1206.000000	97.309972 
1205.000000	97.219737 
1204.000000	97.129199 
1203.000000	97.035906 
1202.000000	96.938284 
1201.000000	96.837214 
1200.000000	96.735482 
1199.000000	96.635232 
1198.000000	96.536395 
1197.000000	96.438073 
1196.000000	96.340264 
1195.000000	96.242728 
1194.000000	96.143038 
1193.000000	96.038180 
1192.000000	95.927962 
1191.000000	95.814700 
1190.000000	95.699738 
1189.000000	95.582839 
1188.000000	95.465039 
1187.000000	95.348718 
1186.000000	95.233711 
1185.000000	95.116457 
1184.000000	94.994680 
1183.000000	94.870190 
1182.000000	94.745294 
1181.000000	94.619257 
1180.000000	94.490591 
1179.000000	94.360238 
1178.000000	94.229682 
1177.000000	94.097483 
1176.000000	93.959955 
1175.000000	93.814180 
1174.000000	93.659111 
1173.000000	93.495632 
1172.000000	93.326962 
1171.000000	93.157134 
1170.000000	92.987699 
1169.000000	92.817893 
1168.000000	92.649357 
1167.000000	92.488934 
1166.000000	92.346636 
1165.000000	92.233825 
1164.000000	92.163140 
1163.000000	92.144459 
1162.000000	92.177041 
1161.000000	92.246755 
1160.000000	92.331150 
1159.000000	92.405519 
1158.000000	92.447426 
1157.000000	92.442641 
1156.000000	92.389586 
1155.000000	92.296661 
1154.000000	92.175051 
1153.000000	92.035091 
1152.000000	91.886767 
1151.000000	91.737812 
1150.000000	91.589951 
1149.000000	91.441108 
1148.000000	91.291996 
1147.000000	91.146389 
1146.000000	91.004697 
1145.000000	90.862392 
1144.000000	90.715721 
1143.000000	90.564315 
1142.000000	90.407939 
1141.000000	90.246066 
1140.000000	90.081334 
1139.000000	89.917893 
1138.000000	89.755260 
1137.000000	89.588850 
1136.000000	89.416905 
1135.000000	89.241607 
1134.000000	89.063782 
1133.000000	88.882720 
1132.000000	88.700591 
1131.000000	88.519730 
1130.000000	88.336099 
1129.000000	88.143635 
1128.000000	87.944738 
1127.000000	87.747427 
1126.000000	87.552043 
1125.000000	87.350881 
1124.000000	87.141822 
1123.000000	86.931489 
1122.000000	86.723189 
1121.000000	86.513232 
1120.000000	86.302161 
1119.000000	86.097983 
1118.000000	85.904186 
1117.000000	85.715673 
1116.000000	85.530430 
1115.000000	85.354107 
1114.000000	85.188922 
1113.000000	85.029198 
1112.000000	84.871798 
1111.000000	84.719480 
1110.000000	84.570673 
1109.000000	84.417994 
1108.000000	84.259850 
1107.000000	84.101943 
1106.000000	83.944516 
1105.000000	83.780912 
1104.000000	83.611705 
1103.000000	83.446479 
1102.000000	83.287321 
1101.000000	83.124783 
1100.000000	82.953604 
1099.000000	82.780802 
1098.000000	82.612051 
1097.000000	82.443675 
1096.000000	82.273137 
1095.000000	82.104121 
1094.000000	81.937239 
1093.000000	81.768195 
1092.000000	81.598747 
1091.000000	81.436304 
1090.000000	81.279907 
1089.000000	81.120722 
1088.000000	80.959051 
1087.000000	80.805514 
1086.000000	80.662416 
1085.000000	80.519811 
1084.000000	80.373151 
1083.000000	80.228448 
1082.000000	80.086699 
1081.000000	79.940026 
1080.000000	79.786876 
1079.000000	79.634060 
1078.000000	79.480339 
1077.000000	79.315440 
1076.000000	79.138179 
1075.000000	78.956549 
1074.000000	78.766598 
1073.000000	78.551240 
1072.000000	78.303817 
1071.000000	78.032377 
1070.000000	77.736774 
1069.000000	77.403819 
1068.000000	77.032602 
1067.000000	76.644123 
1066.000000	76.256561 
1065.000000	75.868851 
1064.000000	75.476970 
1063.000000	75.085733 
1062.000000	74.694932 
1061.000000	74.294047 
1060.000000	73.880988 
1059.000000	73.468385 
1058.000000	73.062682 
1057.000000	72.654470 
1056.000000	72.236413 
1055.000000	71.811292 
1054.000000	71.375703 
1053.000000	70.917276 
1052.000000	70.436900 
1051.000000	69.951847 
1050.000000	69.467115 
1049.000000	68.967972 
1048.000000	68.449965 
1047.000000	67.928979 
1046.000000	67.413693 
1045.000000	66.895339 
1044.000000	66.370977 
1043.000000	65.850592 
1042.000000	65.335205 
1041.000000	64.813950 
1040.000000	64.289572 
1039.000000	63.780804 
1038.000000	63.292563 
1037.000000	62.810596 
1036.000000	62.332408 
1035.000000	61.875174 
1034.000000	61.445645 
1033.000000	61.031183 
1032.000000	60.628149 
1031.000000	60.250366 
1030.000000	59.902046 
1029.000000	59.571751 
1028.000000	59.260312 
1027.000000	58.983931 
1026.000000	58.741021 
1025.000000	58.506807 
1024.000000	58.269440 
1023.000000	58.041079 
1022.000000	57.825781 
1021.000000	57.608260 
1020.000000	57.383047 
1019.000000	57.163500 
1018.000000	56.952437 
1017.000000	56.734237 
1016.000000	56.504859 
1015.000000	56.279674 
1014.000000	56.063399 
1013.000000	55.842593 
1012.000000	55.615502 
1011.000000	55.398576 
1010.000000	55.195930 
1009.000000	54.993631 
1008.000000	54.791714 
1007.000000	54.610306 
1006.000000	54.456417 
1005.000000	54.316014 
1004.000000	54.185678 
1003.000000	54.079898 
1002.000000	53.999980 
1001.000000	53.928602 
1000.000000	53.862589 
999.000000	 53.818566 
998.000000	 53.798947 
997.000000	 53.785332 
996.000000	 53.772800 
995.000000	 53.777379 
994.000000	 53.801789 
993.000000	 53.827405 
992.000000	 53.848725 
991.000000	 53.883109 
990.000000	 53.937603 
989.000000	 53.998208 
988.000000	 54.060059 
987.000000	 54.136501 
986.000000	 54.230526 
985.000000	 54.329299 
984.000000	 54.434510 
983.000000	 54.566117 
982.000000	 54.728513 
981.000000	 54.904633 
980.000000	 55.090356 
979.000000	 55.302539 
978.000000	 55.545834 
977.000000	 55.804091 
976.000000	 56.072298 
975.000000	 56.365371 
974.000000	 56.687467 
973.000000	 57.023658 
972.000000	 57.369279 
971.000000	 57.737017 
970.000000	 58.127798 
969.000000	 58.524896 
968.000000	 58.923616 
967.000000	 59.337166 
966.000000	 59.766884 
965.000000	 60.196296 
964.000000	 60.620787 
963.000000	 61.053887 
962.000000	 61.497946 
961.000000	 61.937278 
960.000000	 62.366272 
959.000000	 62.796176 
958.000000	 63.228454 
957.000000	 63.649300 
956.000000	 64.056174 
955.000000	 64.462255 
954.000000	 64.868820 
953.000000	 65.259848 
952.000000	 65.629408 
951.000000	 65.988080 
950.000000	 66.337610 
949.000000	 66.665519 
948.000000	 66.969577 
947.000000	 67.261517 
946.000000	 67.541662 
945.000000	 67.795465 
944.000000	 68.020295 
943.000000	 68.230756 
942.000000	 68.432913 
941.000000	 68.618018 
940.000000	 68.786286 
939.000000	 68.951698 
938.000000	 69.118432 
937.000000	 69.277531 
936.000000	 69.431344 
935.000000	 69.595511 
934.000000	 69.771960 
933.000000	 69.945894 
932.000000	 70.114216 
931.000000	 70.290378 
930.000000	 70.475981 
929.000000	 70.654527 
928.000000	 70.819364 
927.000000	 70.981231 
926.000000	 71.141993 
925.000000	 71.287816 
924.000000	 71.415476 
923.000000	 71.538849 
922.000000	 71.661256 
921.000000	 71.767134 
920.000000	 71.849564 
919.000000	 71.921165 
918.000000	 71.989599 
917.000000	 72.047475 
916.000000	 72.095540 
915.000000	 72.151545 
914.000000	 72.227264 
913.000000	 72.321174 
912.000000	 72.442697 
911.000000	 72.617838 
910.000000	 72.859323 
909.000000	 73.153980 
908.000000	 73.488927 
907.000000	 73.867204 
906.000000	 74.288504 
905.000000	 74.738176 
904.000000	 75.206096 
903.000000	 75.696920 
902.000000	 76.213745 
901.000000	 76.749356 
900.000000	 77.297705 
899.000000	 77.855588 
898.000000	 78.410363 
897.000000	 78.945859 
896.000000	 79.462203 
895.000000	 79.970977 
894.000000	 80.471023 
893.000000	 80.949122 
892.000000	 81.403959 
891.000000	 81.847106 
890.000000	 82.278610 
889.000000	 82.683210 
888.000000	 83.053654 
887.000000	 83.397600 
886.000000	 83.719138 
885.000000	 84.013804 
884.000000	 84.285019 
883.000000	 84.544886 
882.000000	 84.793883 
881.000000	 85.019261 
880.000000	 85.218342 
879.000000	 85.404453 
878.000000	 85.585999 
877.000000	 85.760461 
876.000000	 85.934738 
875.000000	 86.131048 
874.000000	 86.366807 
873.000000	 86.647184 
872.000000	 86.979662 
871.000000	 87.373119 
870.000000	 87.817269 
869.000000	 88.283630 
868.000000	 88.752037 
867.000000	 89.218918 
866.000000	 89.678546 
865.000000	 90.116464 
864.000000	 90.526235 
863.000000	 90.916132 
862.000000	 91.294645 
861.000000	 91.663026 
860.000000	 92.024178 
859.000000	 92.383157 
858.000000	 92.734252 
857.000000	 93.060923 
856.000000	 93.353172 
855.000000	 93.615005 
854.000000	 93.853618 
853.000000	 94.072036 
852.000000	 94.272924 
851.000000	 94.457929 
850.000000	 94.622242 
849.000000	 94.761094 
848.000000	 94.881644 
847.000000	 94.996244 
846.000000	 95.103634 
845.000000	 95.189389 
844.000000	 95.245033 
843.000000	 95.273335 
842.000000	 95.275004 
841.000000	 95.245539 
840.000000	 95.187606 
839.000000	 95.112042 
838.000000	 95.022897 
837.000000	 94.914365 
836.000000	 94.786051 
835.000000	 94.649121 
834.000000	 94.515076 
833.000000	 94.391654 
832.000000	 94.291677 
831.000000	 94.229548 
830.000000	 94.203830 
829.000000	 94.199238 
828.000000	 94.211637 
827.000000	 94.254352 
826.000000	 94.333506 
825.000000	 94.435582 
824.000000	 94.546992 
823.000000	 94.666117 
822.000000	 94.788287 
821.000000	 94.899947 
820.000000	 94.995977 
819.000000	 95.084719 
818.000000	 95.169684 
817.000000	 95.240901 
816.000000	 95.287514 
815.000000	 95.303551 
814.000000	 95.276459 
813.000000	 95.184367 
812.000000	 95.011502 
811.000000	 94.754873 
810.000000	 94.410908 
809.000000	 93.968532 
808.000000	 93.422433 
807.000000	 92.781310 
806.000000	 92.056570 
805.000000	 91.257836 
804.000000	 90.410820 
803.000000	 89.566304 
802.000000	 88.778527 
801.000000	 88.085036 
800.000000	 87.514406 
799.000000	 87.093572 
798.000000	 86.833352 
797.000000	 86.721828 
796.000000	 86.741429 
795.000000	 86.876368 
794.000000	 87.097908 
793.000000	 87.363184 
792.000000	 87.637382 
791.000000	 87.901365 
790.000000	 88.134855 
789.000000	 88.312147 
788.000000	 88.419600 
787.000000	 88.458819 
786.000000	 88.426983 
785.000000	 88.312195 
784.000000	 88.115538 
783.000000	 87.861496 
782.000000	 87.579902 
781.000000	 87.294068 
780.000000	 87.033301 
779.000000	 86.837758 
778.000000	 86.739193 
777.000000	 86.749766 
776.000000	 86.872946 
775.000000	 87.104550 
774.000000	 87.416277 
773.000000	 87.759590 
772.000000	 88.096682 
771.000000	 88.414322 
770.000000	 88.705371 
769.000000	 88.956166 
768.000000	 89.158508 
767.000000	 89.317645 
766.000000	 89.441617 
765.000000	 89.535654 
764.000000	 89.610322 
763.000000	 89.680043 
762.000000	 89.748962 
761.000000	 89.811823 
760.000000	 89.871009 
759.000000	 89.937460 
758.000000	 90.013539 
757.000000	 90.092549 
756.000000	 90.176936 
755.000000	 90.277981 
754.000000	 90.395062 
753.000000	 90.514935 
752.000000	 90.634396 
751.000000	 90.763420 
750.000000	 90.902463 
749.000000	 91.038270 
748.000000	 91.168575 
747.000000	 91.310500 
746.000000	 91.476458 
745.000000	 91.660575 
744.000000	 91.857094 
743.000000	 92.073470 
742.000000	 92.315535 
741.000000	 92.575684 
740.000000	 92.843764 
739.000000	 93.115319 
738.000000	 93.383706 
737.000000	 93.638883 
736.000000	 93.878643 
735.000000	 94.106321 
734.000000	 94.314801 
733.000000	 94.489523 
732.000000	 94.630083 
731.000000	 94.752119 
730.000000	 94.864805 
729.000000	 94.963795 
728.000000	 95.049036 
727.000000	 95.131136 
726.000000	 95.216157 
725.000000	 95.301227 
724.000000	 95.389587 
723.000000	 95.492553 
722.000000	 95.611415 
721.000000	 95.733595 
720.000000	 95.851414 
719.000000	 95.967903 
718.000000	 96.079191 
717.000000	 96.169811 
716.000000	 96.232965 
715.000000	 96.280735 
714.000000	 96.329077 
713.000000	 96.386126 
712.000000	 96.457295 
711.000000	 96.544582 
710.000000	 96.635753 
709.000000	 96.709919 
708.000000	 96.757510 
707.000000	 96.779841 
706.000000	 96.770644 
705.000000	 96.717665 
704.000000	 96.622810 
703.000000	 96.497567 
702.000000	 96.333005 
701.000000	 96.097412 
700.000000	 95.772347 
699.000000	 95.371905 
698.000000	 94.926253 
697.000000	 94.474537 
696.000000	 94.080879 
695.000000	 93.823348 
694.000000	 93.742968 
693.000000	 93.818276 
692.000000	 93.996827 
691.000000	 94.232307 
690.000000	 94.488129 
689.000000	 94.733769 
688.000000	 94.957239 
687.000000	 95.164688 
686.000000	 95.353739 
685.000000	 95.507972 
684.000000	 95.627548 
683.000000	 95.737613 
682.000000	 95.853786 
681.000000	 95.963932 
680.000000	 96.058163 
679.000000	 96.152546 
678.000000	 96.264011 
677.000000	 96.383570 
676.000000	 96.492199 
675.000000	 96.587478 
674.000000	 96.680135 
673.000000	 96.775292 
672.000000	 96.870416 
671.000000	 96.967325 
670.000000	 97.079602 
669.000000	 97.230938 
668.000000	 97.431307 
667.000000	 97.632848 
666.000000	 97.769626 
665.000000	 97.848604 
664.000000	 97.917858 
663.000000	 98.012855 
662.000000	 98.134321 
661.000000	 98.259553 
660.000000	 98.377269 
659.000000	 98.487602 
658.000000	 98.575894 
657.000000	 98.622014 
656.000000	 98.631521 
655.000000	 98.627895 
654.000000	 98.615259 
653.000000	 98.575059 
652.000000	 98.505785 
651.000000	 98.442463 
650.000000	 98.424360 

