4000.000000	97.752062 
3999.000000	97.752026 
3998.000000	97.753248 
3997.000000	97.754693 
3996.000000	97.755373 
3995.000000	97.755109 
3994.000000	97.754522 
3993.000000	97.754382 
3992.000000	97.754696 
3991.000000	97.754795 
3990.000000	97.754339 
3989.000000	97.753847 
3988.000000	97.753911 
3987.000000	97.754379 
3986.000000	97.754763 
3985.000000	97.754807 
3984.000000	97.754340 
3983.000000	97.753344 
3982.000000	97.752135 
3981.000000	97.751300 
3980.000000	97.751240 
3979.000000	97.751763 
3978.000000	97.752353 
3977.000000	97.752758 
3976.000000	97.753006 
3975.000000	97.753047 
3974.000000	97.752746 
3973.000000	97.752229 
3972.000000	97.751837 
3971.000000	97.751730 
3970.000000	97.751848 
3969.000000	97.752110 
3968.000000	97.752524 
3967.000000	97.753024 
3966.000000	97.753497 
3965.000000	97.753901 
3964.000000	97.754220 
3963.000000	97.754366 
3962.000000	97.754304 
3961.000000	97.754203 
3960.000000	97.754177 
3959.000000	97.754054 
3958.000000	97.753690 
3957.000000	97.753255 
3956.000000	97.753097 
3955.000000	97.753317 
3954.000000	97.753744 
3953.000000	97.754154 
3952.000000	97.754371 
3951.000000	97.754299 
3950.000000	97.753953 
3949.000000	97.753525 
3948.000000	97.753321 
3947.000000	97.753535 
3946.000000	97.753952 
3945.000000	97.754003 
3944.000000	97.753303 
3943.000000	97.752018 
3942.000000	97.750867 
3941.000000	97.750414 
3940.000000	97.750534 
3939.000000	97.750617 
3938.000000	97.750509 
3937.000000	97.750559 
3936.000000	97.750970 
3935.000000	97.751507 
3934.000000	97.751839 
3933.000000	97.751915 
3932.000000	97.751787 
3931.000000	97.751496 
3930.000000	97.751091 
3929.000000	97.750709 
3928.000000	97.750439 
3927.000000	97.750235 
3926.000000	97.750040 
3925.000000	97.749864 
3924.000000	97.749711 
3923.000000	97.749586 
3922.000000	97.749468 
3921.000000	97.749344 
3920.000000	97.749222 
3919.000000	97.749115 
3918.000000	97.749022 
3917.000000	97.748935 
3916.000000	97.748847 
3915.000000	97.748765 
3914.000000	97.748702 
3913.000000	97.748656 
3912.000000	97.748620 
3911.000000	97.748586 
3910.000000	97.748561 
3909.000000	97.748556 
3908.000000	97.748567 
3907.000000	97.748572 
3906.000000	97.748554 
3905.000000	97.748510 
3904.000000	97.748448 
3903.000000	97.748378 
3902.000000	97.748305 
3901.000000	97.748223 
3900.000000	97.748124 
3899.000000	97.748006 
3898.000000	97.747874 
3897.000000	97.747730 
3896.000000	97.747567 
3895.000000	97.747362 
3894.000000	97.747096 
3893.000000	97.746774 
3892.000000	97.746416 
3891.000000	97.746048 
3890.000000	97.745701 
3889.000000	97.745397 
3888.000000	97.745136 
3887.000000	97.744909 
3886.000000	97.744714 
3885.000000	97.744555 
3884.000000	97.744426 
3883.000000	97.744292 
3882.000000	97.744119 
3881.000000	97.743906 
3880.000000	97.743685 
3879.000000	97.743494 
3878.000000	97.743336 
3877.000000	97.743183 
3876.000000	97.743006 
3875.000000	97.742798 
3874.000000	97.742572 
3873.000000	97.742343 
3872.000000	97.742109 
3871.000000	97.741861 
3870.000000	97.741605 
3869.000000	97.741366 
3868.000000	97.741155 
3867.000000	97.740950 
3866.000000	97.740733 
3865.000000	97.740526 
3864.000000	97.740362 
3863.000000	97.740245 
3862.000000	97.740154 
3861.000000	97.740085 
3860.000000	97.740044 
3859.000000	97.740029 
3858.000000	97.740022 
3857.000000	97.740023 
3856.000000	97.740059 
3855.000000	97.740158 
3854.000000	97.740311 
3853.000000	97.740500 
3852.000000	97.740753 
3851.000000	97.741098 
3850.000000	97.741515 
3849.000000	97.741972 
3848.000000	97.742457 
3847.000000	97.742966 
3846.000000	97.743487 
3845.000000	97.744002 
3844.000000	97.744487 
3843.000000	97.744924 
3842.000000	97.745316 
3841.000000	97.745686 
3840.000000	97.746057 
3839.000000	97.746436 
3838.000000	97.746806 
3837.000000	97.747149 
3836.000000	97.747460 
3835.000000	97.747748 
3834.000000	97.748028 
3833.000000	97.748314 
3832.000000	97.748620 
3831.000000	97.748949 
3830.000000	97.749294 
3829.000000	97.749645 
3828.000000	97.749987 
3827.000000	97.750308 
3826.000000	97.750603 
3825.000000	97.750883 
3824.000000	97.751160 
3823.000000	97.751424 
3822.000000	97.751651 
3821.000000	97.751831 
3820.000000	97.751987 
3819.000000	97.752138 
3818.000000	97.752266 
3817.000000	97.752353 
3816.000000	97.752421 
3815.000000	97.752510 
3814.000000	97.752625 
3813.000000	97.752727 
3812.000000	97.752787 
3811.000000	97.752823 
3810.000000	97.752865 
3809.000000	97.752902 
3808.000000	97.752904 
3807.000000	97.752858 
3806.000000	97.752779 
3805.000000	97.752677 
3804.000000	97.752543 
3803.000000	97.752368 
3802.000000	97.752176 
3801.000000	97.752005 
3800.000000	97.751880 
3799.000000	97.751784 
3798.000000	97.751678 
3797.000000	97.751557 
3796.000000	97.751448 
3795.000000	97.751376 
3794.000000	97.751342 
3793.000000	97.751338 
3792.000000	97.751360 
3791.000000	97.751406 
3790.000000	97.751471 
3789.000000	97.751544 
3788.000000	97.751610 
3787.000000	97.751652 
3786.000000	97.751662 
3785.000000	97.751646 
3784.000000	97.751634 
3783.000000	97.751641 
3782.000000	97.751655 
3781.000000	97.751660 
3780.000000	97.751663 
3779.000000	97.751694 
3778.000000	97.751770 
3777.000000	97.751889 
3776.000000	97.752040 
3775.000000	97.752217 
3774.000000	97.752407 
3773.000000	97.752582 
3772.000000	97.752722 
3771.000000	97.752830 
3770.000000	97.752927 
3769.000000	97.753025 
3768.000000	97.753116 
3767.000000	97.753186 
3766.000000	97.753238 
3765.000000	97.753297 
3764.000000	97.753378 
3763.000000	97.753474 
3762.000000	97.753564 
3761.000000	97.753643 
3760.000000	97.753713 
3759.000000	97.753769 
3758.000000	97.753793 
3757.000000	97.753781 
3756.000000	97.753758 
3755.000000	97.753755 
3754.000000	97.753782 
3753.000000	97.753834 
3752.000000	97.753890 
3751.000000	97.753921 
3750.000000	97.753898 
3749.000000	97.753818 
3748.000000	97.753700 
3747.000000	97.753557 
3746.000000	97.753401 
3745.000000	97.753255 
3744.000000	97.753147 
3743.000000	97.753097 
3742.000000	97.753078 
3741.000000	97.753026 
3740.000000	97.752919 
3739.000000	97.752788 
3738.000000	97.752654 
3737.000000	97.752500 
3736.000000	97.752291 
3735.000000	97.752006 
3734.000000	97.751650 
3733.000000	97.751241 
3732.000000	97.750810 
3731.000000	97.750387 
3730.000000	97.749976 
3729.000000	97.749556 
3728.000000	97.749106 
3727.000000	97.748625 
3726.000000	97.748117 
3725.000000	97.747582 
3724.000000	97.747017 
3723.000000	97.746420 
3722.000000	97.745791 
3721.000000	97.745136 
3720.000000	97.744467 
3719.000000	97.743804 
3718.000000	97.743156 
3717.000000	97.742516 
3716.000000	97.741877 
3715.000000	97.741243 
3714.000000	97.740604 
3713.000000	97.739937 
3712.000000	97.739207 
3711.000000	97.738388 
3710.000000	97.737480 
3709.000000	97.736513 
3708.000000	97.735528 
3707.000000	97.734552 
3706.000000	97.733591 
3705.000000	97.732636 
3704.000000	97.731674 
3703.000000	97.730688 
3702.000000	97.729660 
3701.000000	97.728585 
3700.000000	97.727473 
3699.000000	97.726349 
3698.000000	97.725230 
3697.000000	97.724117 
3696.000000	97.723008 
3695.000000	97.721904 
3694.000000	97.720806 
3693.000000	97.719712 
3692.000000	97.718629 
3691.000000	97.717559 
3690.000000	97.716482 
3689.000000	97.715369 
3688.000000	97.714215 
3687.000000	97.713048 
3686.000000	97.711885 
3685.000000	97.710724 
3684.000000	97.709555 
3683.000000	97.708383 
3682.000000	97.707210 
3681.000000	97.706025 
3680.000000	97.704817 
3679.000000	97.703587 
3678.000000	97.702342 
3677.000000	97.701072 
3676.000000	97.699750 
3675.000000	97.698372 
3674.000000	97.696965 
3673.000000	97.695544 
3672.000000	97.694091 
3671.000000	97.692603 
3670.000000	97.691095 
3669.000000	97.689592 
3668.000000	97.688114 
3667.000000	97.686656 
3666.000000	97.685202 
3665.000000	97.683743 
3664.000000	97.682274 
3663.000000	97.680782 
3662.000000	97.679256 
3661.000000	97.677696 
3660.000000	97.676113 
3659.000000	97.674521 
3658.000000	97.672924 
3657.000000	97.671318 
3656.000000	97.669706 
3655.000000	97.668097 
3654.000000	97.666495 
3653.000000	97.664886 
3652.000000	97.663272 
3651.000000	97.661669 
3650.000000	97.660081 
3649.000000	97.658491 
3648.000000	97.656891 
3647.000000	97.655309 
3646.000000	97.653774 
3645.000000	97.652291 
3644.000000	97.650845 
3643.000000	97.649426 
3642.000000	97.648035 
3641.000000	97.646669 
3640.000000	97.645327 
3639.000000	97.644013 
3638.000000	97.642740 
3637.000000	97.641516 
3636.000000	97.640336 
3635.000000	97.639191 
3634.000000	97.638089 
3633.000000	97.637053 
3632.000000	97.636089 
3631.000000	97.635182 
3630.000000	97.634327 
3629.000000	97.633523 
3628.000000	97.632778 
3627.000000	97.632099 
3626.000000	97.631471 
3625.000000	97.630876 
3624.000000	97.630316 
3623.000000	97.629802 
3622.000000	97.629335 
3621.000000	97.628911 
3620.000000	97.628534 
3619.000000	97.628216 
3618.000000	97.627965 
3617.000000	97.627782 
3616.000000	97.627653 
3615.000000	97.627566 
3614.000000	97.627518 
3613.000000	97.627505 
3612.000000	97.627539 
3611.000000	97.627651 
3610.000000	97.627853 
3609.000000	97.628099 
3608.000000	97.628332 
3607.000000	97.628539 
3606.000000	97.628733 
3605.000000	97.628894 
3604.000000	97.629060 
3603.000000	97.629314 
3602.000000	97.629599 
3601.000000	97.629772 
3600.000000	97.629895 
3599.000000	97.630188 
3598.000000	97.630653 
3597.000000	97.631096 
3596.000000	97.631319 
3595.000000	97.631335 
3594.000000	97.631311 
3593.000000	97.631561 
3592.000000	97.632184 
3591.000000	97.632957 
3590.000000	97.633603 
3589.000000	97.634025 
3588.000000	97.633862 
3587.000000	97.632741 
3586.000000	97.631307 
3585.000000	97.630477 
3584.000000	97.630343 
3583.000000	97.630762 
3582.000000	97.631725 
3581.000000	97.632921 
3580.000000	97.633832 
3579.000000	97.634336 
3578.000000	97.634661 
3577.000000	97.635166 
3576.000000	97.635993 
3575.000000	97.636943 
3574.000000	97.637624 
3573.000000	97.637799 
3572.000000	97.637721 
3571.000000	97.638018 
3570.000000	97.639216 
3569.000000	97.641162 
3568.000000	97.642673 
3567.000000	97.642443 
3566.000000	97.640672 
3565.000000	97.638934 
3564.000000	97.638006 
3563.000000	97.637649 
3562.000000	97.637502 
3561.000000	97.637257 
3560.000000	97.636715 
3559.000000	97.636051 
3558.000000	97.635659 
3557.000000	97.635722 
3556.000000	97.636249 
3555.000000	97.637134 
3554.000000	97.638137 
3553.000000	97.638854 
3552.000000	97.639076 
3551.000000	97.639019 
3550.000000	97.638964 
3549.000000	97.639004 
3548.000000	97.639320 
3547.000000	97.640022 
3546.000000	97.640633 
3545.000000	97.640474 
3544.000000	97.639555 
3543.000000	97.638577 
3542.000000	97.638183 
3541.000000	97.638400 
3540.000000	97.638833 
3539.000000	97.639001 
3538.000000	97.638685 
3537.000000	97.638097 
3536.000000	97.637723 
3535.000000	97.637927 
3534.000000	97.638570 
3533.000000	97.639338 
3532.000000	97.640071 
3531.000000	97.640752 
3530.000000	97.641059 
3529.000000	97.640661 
3528.000000	97.639858 
3527.000000	97.639479 
3526.000000	97.639738 
3525.000000	97.639841 
3524.000000	97.639036 
3523.000000	97.637560 
3522.000000	97.636296 
3521.000000	97.635790 
3520.000000	97.635954 
3519.000000	97.636516 
3518.000000	97.637300 
3517.000000	97.638096 
3516.000000	97.638610 
3515.000000	97.638890 
3514.000000	97.639510 
3513.000000	97.641044 
3512.000000	97.643289 
3511.000000	97.645319 
3510.000000	97.646297 
3509.000000	97.646199 
3508.000000	97.645653 
3507.000000	97.645258 
3506.000000	97.645164 
3505.000000	97.645386 
3504.000000	97.645906 
3503.000000	97.646402 
3502.000000	97.646358 
3501.000000	97.645622 
3500.000000	97.644629 
3499.000000	97.644013 
3498.000000	97.644104 
3497.000000	97.644870 
3496.000000	97.646091 
3495.000000	97.647378 
3494.000000	97.648212 
3493.000000	97.648258 
3492.000000	97.647624 
3491.000000	97.646799 
3490.000000	97.646253 
3489.000000	97.646119 
3488.000000	97.646279 
3487.000000	97.646535 
3486.000000	97.646691 
3485.000000	97.646614 
3484.000000	97.646313 
3483.000000	97.645949 
3482.000000	97.645697 
3481.000000	97.645636 
3480.000000	97.645725 
3479.000000	97.645874 
3478.000000	97.646010 
3477.000000	97.646106 
3476.000000	97.646154 
3475.000000	97.646116 
3474.000000	97.645950 
3473.000000	97.645662 
3472.000000	97.645329 
3471.000000	97.645037 
3470.000000	97.644842 
3469.000000	97.644742 
3468.000000	97.644686 
3467.000000	97.644579 
3466.000000	97.644348 
3465.000000	97.643997 
3464.000000	97.643601 
3463.000000	97.643260 
3462.000000	97.643009 
3461.000000	97.642799 
3460.000000	97.642575 
3459.000000	97.642364 
3458.000000	97.642231 
3457.000000	97.642171 
3456.000000	97.642094 
3455.000000	97.641939 
3454.000000	97.641741 
3453.000000	97.641588 
3452.000000	97.641536 
3451.000000	97.641583 
3450.000000	97.641649 
3449.000000	97.641614 
3448.000000	97.641415 
3447.000000	97.641104 
3446.000000	97.640809 
3445.000000	97.640577 
3444.000000	97.640353 
3443.000000	97.640107 
3442.000000	97.639901 
3441.000000	97.639786 
3440.000000	97.639715 
3439.000000	97.639586 
3438.000000	97.639349 
3437.000000	97.639041 
3436.000000	97.638731 
3435.000000	97.638469 
3434.000000	97.638272 
3433.000000	97.638152 
3432.000000	97.638136 
3431.000000	97.638226 
3430.000000	97.638336 
3429.000000	97.638322 
3428.000000	97.638118 
3427.000000	97.637804 
3426.000000	97.637544 
3425.000000	97.637435 
3424.000000	97.637457 
3423.000000	97.637509 
3422.000000	97.637478 
3421.000000	97.637308 
3420.000000	97.637014 
3419.000000	97.636661 
3418.000000	97.636319 
3417.000000	97.636056 
3416.000000	97.635932 
3415.000000	97.635947 
3414.000000	97.636005 
3413.000000	97.635990 
3412.000000	97.635869 
3411.000000	97.635685 
3410.000000	97.635490 
3409.000000	97.635327 
3408.000000	97.635228 
3407.000000	97.635169 
3406.000000	97.635078 
3405.000000	97.634959 
3404.000000	97.634930 
3403.000000	97.635054 
3402.000000	97.635197 
3401.000000	97.635181 
3400.000000	97.635020 
3399.000000	97.634900 
3398.000000	97.634946 
3397.000000	97.635104 
3396.000000	97.635259 
3395.000000	97.635372 
3394.000000	97.635490 
3393.000000	97.635671 
3392.000000	97.635908 
3391.000000	97.636111 
3390.000000	97.636162 
3389.000000	97.636042 
3388.000000	97.635873 
3387.000000	97.635821 
3386.000000	97.635963 
3385.000000	97.636301 
3384.000000	97.636798 
3383.000000	97.637339 
3382.000000	97.637710 
3381.000000	97.637782 
3380.000000	97.637635 
3379.000000	97.637482 
3378.000000	97.637463 
3377.000000	97.637556 
3376.000000	97.637650 
3375.000000	97.637639 
3374.000000	97.637513 
3373.000000	97.637398 
3372.000000	97.637464 
3371.000000	97.637739 
3370.000000	97.638071 
3369.000000	97.638296 
3368.000000	97.638404 
3367.000000	97.638469 
3366.000000	97.638506 
3365.000000	97.638497 
3364.000000	97.638508 
3363.000000	97.638650 
3362.000000	97.638936 
3361.000000	97.639244 
3360.000000	97.639474 
3359.000000	97.639632 
3358.000000	97.639784 
3357.000000	97.639968 
3356.000000	97.640175 
3355.000000	97.640352 
3354.000000	97.640434 
3353.000000	97.640390 
3352.000000	97.640275 
3351.000000	97.640210 
3350.000000	97.640303 
3349.000000	97.640594 
3348.000000	97.641088 
3347.000000	97.641724 
3346.000000	97.642349 
3345.000000	97.642811 
3344.000000	97.643076 
3343.000000	97.643220 
3342.000000	97.643325 
3341.000000	97.643413 
3340.000000	97.643466 
3339.000000	97.643475 
3338.000000	97.643465 
3337.000000	97.643523 
3336.000000	97.643760 
3335.000000	97.644188 
3334.000000	97.644675 
3333.000000	97.645115 
3332.000000	97.645555 
3331.000000	97.646021 
3330.000000	97.646300 
3329.000000	97.646134 
3328.000000	97.645681 
3327.000000	97.645523 
3326.000000	97.646071 
3325.000000	97.647065 
3324.000000	97.647751 
3323.000000	97.647609 
3322.000000	97.646856 
3321.000000	97.646327 
3320.000000	97.646795 
3319.000000	97.648404 
3318.000000	97.650601 
3317.000000	97.652544 
3316.000000	97.653683 
3315.000000	97.654010 
3314.000000	97.653935 
3313.000000	97.653912 
3312.000000	97.654016 
3311.000000	97.653890 
3310.000000	97.653269 
3309.000000	97.652505 
3308.000000	97.652279 
3307.000000	97.652675 
3306.000000	97.652861 
3305.000000	97.651968 
3304.000000	97.650113 
3303.000000	97.648341 
3302.000000	97.647592 
3301.000000	97.647890 
3300.000000	97.648471 
3299.000000	97.648531 
3298.000000	97.647930 
3297.000000	97.647308 
3296.000000	97.647467 
3295.000000	97.648591 
3294.000000	97.650147 
3293.000000	97.651428 
3292.000000	97.652072 
3291.000000	97.652087 
3290.000000	97.651734 
3289.000000	97.651508 
3288.000000	97.651915 
3287.000000	97.652986 
3286.000000	97.654180 
3285.000000	97.654995 
3284.000000	97.655479 
3283.000000	97.655941 
3282.000000	97.656444 
3281.000000	97.656839 
3280.000000	97.657137 
3279.000000	97.657543 
3278.000000	97.658146 
3277.000000	97.658792 
3276.000000	97.659228 
3275.000000	97.659228 
3274.000000	97.658647 
3273.000000	97.657547 
3272.000000	97.656276 
3271.000000	97.655306 
3270.000000	97.654985 
3269.000000	97.655454 
3268.000000	97.656643 
3267.000000	97.658211 
3266.000000	97.659579 
3265.000000	97.660286 
3264.000000	97.660239 
3263.000000	97.659606 
3262.000000	97.658610 
3261.000000	97.657497 
3260.000000	97.656601 
3259.000000	97.656261 
3258.000000	97.656638 
3257.000000	97.657643 
3256.000000	97.658966 
3255.000000	97.660128 
3254.000000	97.660694 
3253.000000	97.660559 
3252.000000	97.660035 
3251.000000	97.659585 
3250.000000	97.659449 
3249.000000	97.659607 
3248.000000	97.659953 
3247.000000	97.660316 
3246.000000	97.660408 
3245.000000	97.659962 
3244.000000	97.659020 
3243.000000	97.657976 
3242.000000	97.657291 
3241.000000	97.657181 
3240.000000	97.657548 
3239.000000	97.658136 
3238.000000	97.658794 
3237.000000	97.659593 
3236.000000	97.660649 
3235.000000	97.661843 
3234.000000	97.662774 
3233.000000	97.663088 
3232.000000	97.662776 
3231.000000	97.662175 
3230.000000	97.661704 
3229.000000	97.661612 
3228.000000	97.661878 
3227.000000	97.662283 
3226.000000	97.662669 
3225.000000	97.663191 
3224.000000	97.664159 
3223.000000	97.665491 
3222.000000	97.666496 
3221.000000	97.666489 
3220.000000	97.665481 
3219.000000	97.664169 
3218.000000	97.663308 
3217.000000	97.663103 
3216.000000	97.663286 
3215.000000	97.663528 
3214.000000	97.663674 
3213.000000	97.663706 
3212.000000	97.663656 
3211.000000	97.663606 
3210.000000	97.663650 
3209.000000	97.663748 
3208.000000	97.663683 
3207.000000	97.663267 
3206.000000	97.662612 
3205.000000	97.662088 
3204.000000	97.661955 
3203.000000	97.662128 
3202.000000	97.662367 
3201.000000	97.662594 
3200.000000	97.662868 
3199.000000	97.663133 
3198.000000	97.663203 
3197.000000	97.662991 
3196.000000	97.662644 
3195.000000	97.662430 
3194.000000	97.662482 
3193.000000	97.662725 
3192.000000	97.663002 
3191.000000	97.663233 
3190.000000	97.663443 
3189.000000	97.663685 
3188.000000	97.663971 
3187.000000	97.664231 
3186.000000	97.664358 
3185.000000	97.664306 
3184.000000	97.664154 
3183.000000	97.664071 
3182.000000	97.664159 
3181.000000	97.664365 
3180.000000	97.664546 
3179.000000	97.664622 
3178.000000	97.664643 
3177.000000	97.664738 
3176.000000	97.665010 
3175.000000	97.665461 
3174.000000	97.665970 
3173.000000	97.666357 
3172.000000	97.666502 
3171.000000	97.666428 
3170.000000	97.666309 
3169.000000	97.666316 
3168.000000	97.666477 
3167.000000	97.666699 
3166.000000	97.666946 
3165.000000	97.667320 
3164.000000	97.667927 
3163.000000	97.668692 
3162.000000	97.669357 
3161.000000	97.669688 
3160.000000	97.669718 
3159.000000	97.669805 
3158.000000	97.670369 
3157.000000	97.671445 
3156.000000	97.672477 
3155.000000	97.672742 
3154.000000	97.672059 
3153.000000	97.671029 
3152.000000	97.670446 
3151.000000	97.670450 
3150.000000	97.670449 
3149.000000	97.669870 
3148.000000	97.668841 
3147.000000	97.668019 
3146.000000	97.667830 
3145.000000	97.668160 
3144.000000	97.668755 
3143.000000	97.669661 
3142.000000	97.671102 
3141.000000	97.673010 
3140.000000	97.674887 
3139.000000	97.676142 
3138.000000	97.676610 
3137.000000	97.676634 
3136.000000	97.676689 
3135.000000	97.676981 
3134.000000	97.677361 
3133.000000	97.677490 
3132.000000	97.677064 
3131.000000	97.676058 
3130.000000	97.674870 
3129.000000	97.674142 
3128.000000	97.674248 
3127.000000	97.675090 
3126.000000	97.676303 
3125.000000	97.677533 
3124.000000	97.678565 
3123.000000	97.679257 
3122.000000	97.679527 
3121.000000	97.679423 
3120.000000	97.679106 
3119.000000	97.678753 
3118.000000	97.678536 
3117.000000	97.678602 
3116.000000	97.678991 
3115.000000	97.679582 
3114.000000	97.680177 
3113.000000	97.680674 
3112.000000	97.681100 
3111.000000	97.681512 
3110.000000	97.681897 
3109.000000	97.682171 
3108.000000	97.682272 
3107.000000	97.682246 
3106.000000	97.682219 
3105.000000	97.682283 
3104.000000	97.682420 
3103.000000	97.682556 
3102.000000	97.682656 
3101.000000	97.682742 
3100.000000	97.682845 
3099.000000	97.682965 
3098.000000	97.683084 
3097.000000	97.683185 
3096.000000	97.683272 
3095.000000	97.683356 
3094.000000	97.683440 
3093.000000	97.683521 
3092.000000	97.683593 
3091.000000	97.683649 
3090.000000	97.683687 
3089.000000	97.683708 
3088.000000	97.683720 
3087.000000	97.683731 
3086.000000	97.683748 
3085.000000	97.683767 
3084.000000	97.683780 
3083.000000	97.683773 
3082.000000	97.683736 
3081.000000	97.683680 
3080.000000	97.683640 
3079.000000	97.683656 
3078.000000	97.683727 
3077.000000	97.683773 
3076.000000	97.683698 
3075.000000	97.683473 
3074.000000	97.683168 
3073.000000	97.682889 
3072.000000	97.682685 
3071.000000	97.682485 
3070.000000	97.682168 
3069.000000	97.681745 
3068.000000	97.681405 
3067.000000	97.681272 
3066.000000	97.681207 
3065.000000	97.681054 
3064.000000	97.681004 
3063.000000	97.681384 
3062.000000	97.682084 
3061.000000	97.682549 
3060.000000	97.682529 
3059.000000	97.682448 
3058.000000	97.682739 
3057.000000	97.683068 
3056.000000	97.682629 
3055.000000	97.681105 
3054.000000	97.679040 
3053.000000	97.677360 
3052.000000	97.676611 
3051.000000	97.676663 
3050.000000	97.676868 
3049.000000	97.676617 
3048.000000	97.675878 
3047.000000	97.675166 
3046.000000	97.674976 
3045.000000	97.675364 
3044.000000	97.676070 
3043.000000	97.676875 
3042.000000	97.677744 
3041.000000	97.678600 
3040.000000	97.679127 
3039.000000	97.678890 
3038.000000	97.677732 
3037.000000	97.676048 
3036.000000	97.674561 
3035.000000	97.673739 
3034.000000	97.673592 
3033.000000	97.673973 
3032.000000	97.674674 
3031.000000	97.675108 
3030.000000	97.674366 
3029.000000	97.672010 
3028.000000	97.668668 
3027.000000	97.665588 
3026.000000	97.663538 
3025.000000	97.662355 
3024.000000	97.661449 
3023.000000	97.660350 
3022.000000	97.658849 
3021.000000	97.657012 
3020.000000	97.655259 
3019.000000	97.654129 
3018.000000	97.653792 
3017.000000	97.653862 
3016.000000	97.653731 
3015.000000	97.652987 
3014.000000	97.651579 
3013.000000	97.649710 
3012.000000	97.647597 
3011.000000	97.645233 
3010.000000	97.642627 
3009.000000	97.640200 
3008.000000	97.638518 
3007.000000	97.637585 
3006.000000	97.636700 
3005.000000	97.635325 
3004.000000	97.633752 
3003.000000	97.632550 
3002.000000	97.631679 
3001.000000	97.630598 
3000.000000	97.629066 
2999.000000	97.627390 
2998.000000	97.625929 
2997.000000	97.624701 
2996.000000	97.623529 
2995.000000	97.622287 
2994.000000	97.620935 
2993.000000	97.619449 
2992.000000	97.617880 
2991.000000	97.616402 
2990.000000	97.615187 
2989.000000	97.614203 
2988.000000	97.613207 
2987.000000	97.611918 
2986.000000	97.610164 
2985.000000	97.607963 
2984.000000	97.605685 
2983.000000	97.604083 
2982.000000	97.603813 
2981.000000	97.604713 
2980.000000	97.605692 
2979.000000	97.605632 
2978.000000	97.604423 
2977.000000	97.602940 
2976.000000	97.601912 
2975.000000	97.600959 
2974.000000	97.599030 
2973.000000	97.595897 
2972.000000	97.592940 
2971.000000	97.592028 
2970.000000	97.593583 
2969.000000	97.595813 
2968.000000	97.596016 
2967.000000	97.592974 
2966.000000	97.588246 
2965.000000	97.585055 
2964.000000	97.585472 
2963.000000	97.588606 
2962.000000	97.591555 
2961.000000	97.592202 
2960.000000	97.590822 
2959.000000	97.589207 
2958.000000	97.588921 
2957.000000	97.590551 
2956.000000	97.593760 
2955.000000	97.597268 
2954.000000	97.599233 
2953.000000	97.598583 
2952.000000	97.596081 
2951.000000	97.593642 
2950.000000	97.592515 
2949.000000	97.592407 
2948.000000	97.592223 
2947.000000	97.591170 
2946.000000	97.589176 
2945.000000	97.586677 
2944.000000	97.584077 
2943.000000	97.581141 
2942.000000	97.577009 
2941.000000	97.571138 
2940.000000	97.564080 
2939.000000	97.556980 
2938.000000	97.550489 
2937.000000	97.544633 
2936.000000	97.539574 
2935.000000	97.535759 
2934.000000	97.533127 
2933.000000	97.530633 
2932.000000	97.526794 
2931.000000	97.520490 
2930.000000	97.511328 
2929.000000	97.499854 
2928.000000	97.487765 
2927.000000	97.477467 
2926.000000	97.470819 
2925.000000	97.468012 
2924.000000	97.467702 
2923.000000	97.468384 
2922.000000	97.469712 
2921.000000	97.472308 
2920.000000	97.476271 
2919.000000	97.480358 
2918.000000	97.483247 
2917.000000	97.485582 
2916.000000	97.490025 
2915.000000	97.498810 
2914.000000	97.511567 
2913.000000	97.525767 
2912.000000	97.538887 
2911.000000	97.549788 
2910.000000	97.558528 
2909.000000	97.565752 
2908.000000	97.572150 
2907.000000	97.577847 
2906.000000	97.582159 
2905.000000	97.584320 
2904.000000	97.584755 
2903.000000	97.585418 
2902.000000	97.588827 
2901.000000	97.596090 
2900.000000	97.605788 
2899.000000	97.614924 
2898.000000	97.620808 
2897.000000	97.623186 
2896.000000	97.623962 
2895.000000	97.625114 
2894.000000	97.627042 
2893.000000	97.629016 
2892.000000	97.630519 
2891.000000	97.631614 
2890.000000	97.632395 
2889.000000	97.632796 
2888.000000	97.632911 
2887.000000	97.633036 
2886.000000	97.633341 
2885.000000	97.633798 
2884.000000	97.634445 
2883.000000	97.635447 
2882.000000	97.636853 
2881.000000	97.638470 
2880.000000	97.640056 
2879.000000	97.641565 
2878.000000	97.643152 
2877.000000	97.644837 
2876.000000	97.646190 
2875.000000	97.646723 
2874.000000	97.646898 
2873.000000	97.648209 
2872.000000	97.651415 
2871.000000	97.654745 
2870.000000	97.654963 
2869.000000	97.650700 
2868.000000	97.644132 
2867.000000	97.638998 
2866.000000	97.637386 
2865.000000	97.638885 
2864.000000	97.641899 
2863.000000	97.644775 
2862.000000	97.646200 
2861.000000	97.645707 
2860.000000	97.644058 
2859.000000	97.642534 
2858.000000	97.641590 
2857.000000	97.640343 
2856.000000	97.637278 
2855.000000	97.631474 
2854.000000	97.623708 
2853.000000	97.616646 
2852.000000	97.613273 
2851.000000	97.614565 
2850.000000	97.618979 
2849.000000	97.624402 
2848.000000	97.630191 
2847.000000	97.636975 
2846.000000	97.645264 
2845.000000	97.654977 
2844.000000	97.665697 
2843.000000	97.676488 
2842.000000	97.685824 
2841.000000	97.692470 
2840.000000	97.696255 
2839.000000	97.697670 
2838.000000	97.697397 
2837.000000	97.696778 
2836.000000	97.697747 
2835.000000	97.701122 
2834.000000	97.705511 
2833.000000	97.709039 
2832.000000	97.711630 
2831.000000	97.714303 
2830.000000	97.716791 
2829.000000	97.717667 
2828.000000	97.716855 
2827.000000	97.716249 
2826.000000	97.717317 
2825.000000	97.719458 
2824.000000	97.721490 
2823.000000	97.723494 
2822.000000	97.726158 
2821.000000	97.729076 
2820.000000	97.730793 
2819.000000	97.730269 
2818.000000	97.727710 
2817.000000	97.724291 
2816.000000	97.721546 
2815.000000	97.720683 
2814.000000	97.721905 
2813.000000	97.724339 
2812.000000	97.726795 
2811.000000	97.728608 
2810.000000	97.729864 
2809.000000	97.731138 
2808.000000	97.732998 
2807.000000	97.735368 
2806.000000	97.737281 
2805.000000	97.737663 
2804.000000	97.736481 
2803.000000	97.734921 
2802.000000	97.734286 
2801.000000	97.734833 
2800.000000	97.735808 
2799.000000	97.736362 
2798.000000	97.736350 
2797.000000	97.736334 
2796.000000	97.736881 
2795.000000	97.737862 
2794.000000	97.738578 
2793.000000	97.738623 
2792.000000	97.738304 
2791.000000	97.738065 
2790.000000	97.737828 
2789.000000	97.737287 
2788.000000	97.736530 
2787.000000	97.735980 
2786.000000	97.735877 
2785.000000	97.736159 
2784.000000	97.736729 
2783.000000	97.737493 
2782.000000	97.738209 
2781.000000	97.738621 
2780.000000	97.738786 
2779.000000	97.739015 
2778.000000	97.739502 
2777.000000	97.740154 
2776.000000	97.740740 
2775.000000	97.741126 
2774.000000	97.741348 
2773.000000	97.741542 
2772.000000	97.741821 
2771.000000	97.742171 
2770.000000	97.742485 
2769.000000	97.742695 
2768.000000	97.742845 
2767.000000	97.743021 
2766.000000	97.743244 
2765.000000	97.743471 
2764.000000	97.743668 
2763.000000	97.743855 
2762.000000	97.744085 
2761.000000	97.744389 
2760.000000	97.744751 
2759.000000	97.745127 
2758.000000	97.745478 
2757.000000	97.745801 
2756.000000	97.746117 
2755.000000	97.746440 
2754.000000	97.746766 
2753.000000	97.747080 
2752.000000	97.747380 
2751.000000	97.747677 
2750.000000	97.747974 
2749.000000	97.748263 
2748.000000	97.748533 
2747.000000	97.748790 
2746.000000	97.749051 
2745.000000	97.749319 
2744.000000	97.749588 
2743.000000	97.749850 
2742.000000	97.750104 
2741.000000	97.750344 
2740.000000	97.750558 
2739.000000	97.750740 
2738.000000	97.750908 
2737.000000	97.751091 
2736.000000	97.751298 
2735.000000	97.751502 
2734.000000	97.751660 
2733.000000	97.751753 
2732.000000	97.751805 
2731.000000	97.751867 
2730.000000	97.751980 
2729.000000	97.752153 
2728.000000	97.752381 
2727.000000	97.752647 
2726.000000	97.752916 
2725.000000	97.753133 
2724.000000	97.753264 
2723.000000	97.753338 
2722.000000	97.753439 
2721.000000	97.753604 
2720.000000	97.753783 
2719.000000	97.753894 
2718.000000	97.753910 
2717.000000	97.753895 
2716.000000	97.753932 
2715.000000	97.754010 
2714.000000	97.754007 
2713.000000	97.753803 
2712.000000	97.753404 
2711.000000	97.752962 
2710.000000	97.752655 
2709.000000	97.752569 
2708.000000	97.752700 
2707.000000	97.752997 
2706.000000	97.753341 
2705.000000	97.753501 
2704.000000	97.753276 
2703.000000	97.752779 
2702.000000	97.752515 
2701.000000	97.752967 
2700.000000	97.754070 
2699.000000	97.755119 
2698.000000	97.755356 
2697.000000	97.754629 
2696.000000	97.753448 
2695.000000	97.752472 
2694.000000	97.751993 
2693.000000	97.751885 
2692.000000	97.751787 
2691.000000	97.751346 
2690.000000	97.750530 
2689.000000	97.749844 
2688.000000	97.749976 
2687.000000	97.751041 
2686.000000	97.752320 
2685.000000	97.752957 
2684.000000	97.752728 
2683.000000	97.751918 
2682.000000	97.750783 
2681.000000	97.749565 
2680.000000	97.748725 
2679.000000	97.748544 
2678.000000	97.748502 
2677.000000	97.747713 
2676.000000	97.746086 
2675.000000	97.744556 
2674.000000	97.743921 
2673.000000	97.743923 
2672.000000	97.743829 
2671.000000	97.743525 
2670.000000	97.743611 
2669.000000	97.744485 
2668.000000	97.745577 
2667.000000	97.745595 
2666.000000	97.743563 
2665.000000	97.739686 
2664.000000	97.735211 
2663.000000	97.731284 
2662.000000	97.728050 
2661.000000	97.725184 
2660.000000	97.722951 
2659.000000	97.722062 
2658.000000	97.722449 
2657.000000	97.722837 
2656.000000	97.721908 
2655.000000	97.719465 
2654.000000	97.716231 
2653.000000	97.713070 
2652.000000	97.710758 
2651.000000	97.709893 
2650.000000	97.710244 
2649.000000	97.710388 
2648.000000	97.708867 
2647.000000	97.705886 
2646.000000	97.703295 
2645.000000	97.702586 
2644.000000	97.703388 
2643.000000	97.704101 
2642.000000	97.703677 
2641.000000	97.702440 
2640.000000	97.701296 
2639.000000	97.700697 
2638.000000	97.700475 
2637.000000	97.700368 
2636.000000	97.700422 
2635.000000	97.700882 
2634.000000	97.701874 
2633.000000	97.703187 
2632.000000	97.704261 
2631.000000	97.704445 
2630.000000	97.703471 
2629.000000	97.701838 
2628.000000	97.700554 
2627.000000	97.700305 
2626.000000	97.700872 
2625.000000	97.701448 
2624.000000	97.701506 
2623.000000	97.701208 
2622.000000	97.701007 
2621.000000	97.701030 
2620.000000	97.700989 
2619.000000	97.700632 
2618.000000	97.700086 
2617.000000	97.699679 
2616.000000	97.699548 
2615.000000	97.699580 
2614.000000	97.699691 
2613.000000	97.699937 
2612.000000	97.700306 
2611.000000	97.700652 
2610.000000	97.700899 
2609.000000	97.701141 
2608.000000	97.701458 
2607.000000	97.701774 
2606.000000	97.702017 
2605.000000	97.702281 
2604.000000	97.702678 
2603.000000	97.703160 
2602.000000	97.703588 
2601.000000	97.703884 
2600.000000	97.704080 
2599.000000	97.704250 
2598.000000	97.704456 
2597.000000	97.704733 
2596.000000	97.705086 
2595.000000	97.705489 
2594.000000	97.705894 
2593.000000	97.706272 
2592.000000	97.706631 
2591.000000	97.706978 
2590.000000	97.707306 
2589.000000	97.707632 
2588.000000	97.708019 
2587.000000	97.708522 
2586.000000	97.709108 
2585.000000	97.709655 
2584.000000	97.710067 
2583.000000	97.710342 
2582.000000	97.710548 
2581.000000	97.710764 
2580.000000	97.711045 
2579.000000	97.711419 
2578.000000	97.711910 
2577.000000	97.712538 
2576.000000	97.713284 
2575.000000	97.714051 
2574.000000	97.714715 
2573.000000	97.715242 
2572.000000	97.715684 
2571.000000	97.716064 
2570.000000	97.716362 
2569.000000	97.716652 
2568.000000	97.717122 
2567.000000	97.717837 
2566.000000	97.718599 
2565.000000	97.719172 
2564.000000	97.719582 
2563.000000	97.720039 
2562.000000	97.720644 
2561.000000	97.721317 
2560.000000	97.721975 
2559.000000	97.722616 
2558.000000	97.723227 
2557.000000	97.723773 
2556.000000	97.724298 
2555.000000	97.724848 
2554.000000	97.725358 
2553.000000	97.725782 
2552.000000	97.726274 
2551.000000	97.726987 
2550.000000	97.727749 
2549.000000	97.728232 
2548.000000	97.728415 
2547.000000	97.728627 
2546.000000	97.729080 
2545.000000	97.729629 
2544.000000	97.730082 
2543.000000	97.730490 
2542.000000	97.730994 
2541.000000	97.731563 
2540.000000	97.732031 
2539.000000	97.732280 
2538.000000	97.732234 
2537.000000	97.731889 
2536.000000	97.731468 
2535.000000	97.731343 
2534.000000	97.731657 
2533.000000	97.732127 
2532.000000	97.732336 
2531.000000	97.732160 
2530.000000	97.731813 
2529.000000	97.731643 
2528.000000	97.731960 
2527.000000	97.732842 
2526.000000	97.733952 
2525.000000	97.734722 
2524.000000	97.734938 
2523.000000	97.734893 
2522.000000	97.734881 
2521.000000	97.734812 
2520.000000	97.734551 
2519.000000	97.734283 
2518.000000	97.734204 
2517.000000	97.734162 
2516.000000	97.733974 
2515.000000	97.733934 
2514.000000	97.734578 
2513.000000	97.736001 
2512.000000	97.737608 
2511.000000	97.738577 
2510.000000	97.738519 
2509.000000	97.737734 
2508.000000	97.736958 
2507.000000	97.736629 
2506.000000	97.736454 
2505.000000	97.735882 
2504.000000	97.734932 
2503.000000	97.734165 
2502.000000	97.733874 
2501.000000	97.733859 
2500.000000	97.734114 
2499.000000	97.735099 
2498.000000	97.737034 
2497.000000	97.739409 
2496.000000	97.741405 
2495.000000	97.742536 
2494.000000	97.742729 
2493.000000	97.742236 
2492.000000	97.741760 
2491.000000	97.742135 
2490.000000	97.743447 
2489.000000	97.744717 
2488.000000	97.744932 
2487.000000	97.744216 
2486.000000	97.743587 
2485.000000	97.743618 
2484.000000	97.743802 
2483.000000	97.743317 
2482.000000	97.741991 
2481.000000	97.740485 
2480.000000	97.739684 
2479.000000	97.739923 
2478.000000	97.740804 
2477.000000	97.741639 
2476.000000	97.742096 
2475.000000	97.742282 
2474.000000	97.742327 
2473.000000	97.742192 
2472.000000	97.741890 
2471.000000	97.741571 
2470.000000	97.741300 
2469.000000	97.741023 
2468.000000	97.740820 
2467.000000	97.740885 
2466.000000	97.741131 
2465.000000	97.741126 
2464.000000	97.740642 
2463.000000	97.739990 
2462.000000	97.739656 
2461.000000	97.739723 
2460.000000	97.739868 
2459.000000	97.739776 
2458.000000	97.739430 
2457.000000	97.739068 
2456.000000	97.738971 
2455.000000	97.739150 
2454.000000	97.739178 
2453.000000	97.738493 
2452.000000	97.736994 
2451.000000	97.735287 
2450.000000	97.734200 
2449.000000	97.734154 
2448.000000	97.735126 
2447.000000	97.736796 
2446.000000	97.738599 
2445.000000	97.739886 
2444.000000	97.740365 
2443.000000	97.740288 
2442.000000	97.740109 
2441.000000	97.740052 
2440.000000	97.740135 
2439.000000	97.740424 
2438.000000	97.740924 
2437.000000	97.741387 
2436.000000	97.741535 
2435.000000	97.741417 
2434.000000	97.741288 
2433.000000	97.741268 
2432.000000	97.741386 
2431.000000	97.741851 
2430.000000	97.742918 
2429.000000	97.744437 
2428.000000	97.745801 
2427.000000	97.746496 
2426.000000	97.746525 
2425.000000	97.746266 
2424.000000	97.746100 
2423.000000	97.746131 
2422.000000	97.746254 
2421.000000	97.746433 
2420.000000	97.746829 
2419.000000	97.747589 
2418.000000	97.748552 
2417.000000	97.749353 
2416.000000	97.749897 
2415.000000	97.750485 
2414.000000	97.751339 
2413.000000	97.752218 
2412.000000	97.752771 
2411.000000	97.753027 
2410.000000	97.753256 
2409.000000	97.753534 
2408.000000	97.753757 
2407.000000	97.753931 
2406.000000	97.754161 
2405.000000	97.754368 
2404.000000	97.754322 
2403.000000	97.753965 
2402.000000	97.753529 
2401.000000	97.753268 
2400.000000	97.753254 
2399.000000	97.753485 
2398.000000	97.754000 
2397.000000	97.754759 
2396.000000	97.755513 
2395.000000	97.755879 
2394.000000	97.755680 
2393.000000	97.755109 
2392.000000	97.754559 
2391.000000	97.754317 
2390.000000	97.754252 
2389.000000	97.754102 
2388.000000	97.753826 
2387.000000	97.753612 
2386.000000	97.753587 
2385.000000	97.753635 
2384.000000	97.753530 
2383.000000	97.753146 
2382.000000	97.752550 
2381.000000	97.751888 
2380.000000	97.751257 
2379.000000	97.750675 
2378.000000	97.750116 
2377.000000	97.749552 
2376.000000	97.748971 
2375.000000	97.748369 
2374.000000	97.747749 
2373.000000	97.747117 
2372.000000	97.746476 
2371.000000	97.745818 
2370.000000	97.745138 
2369.000000	97.744431 
2368.000000	97.743688 
2367.000000	97.742904 
2366.000000	97.742069 
2365.000000	97.741177 
2364.000000	97.740229 
2363.000000	97.739231 
2362.000000	97.738196 
2361.000000	97.737137 
2360.000000	97.736072 
2359.000000	97.735011 
2358.000000	97.733954 
2357.000000	97.732895 
2356.000000	97.731820 
2355.000000	97.730710 
2354.000000	97.729544 
2353.000000	97.728305 
2352.000000	97.726986 
2351.000000	97.725604 
2350.000000	97.724190 
2349.000000	97.722761 
2348.000000	97.721310 
2347.000000	97.719816 
2346.000000	97.718268 
2345.000000	97.716686 
2344.000000	97.715105 
2343.000000	97.713554 
2342.000000	97.712037 
2341.000000	97.710532 
2340.000000	97.709028 
2339.000000	97.707525 
2338.000000	97.706025 
2337.000000	97.704533 
2336.000000	97.703031 
2335.000000	97.701502 
2334.000000	97.699956 
2333.000000	97.698422 
2332.000000	97.696933 
2331.000000	97.695474 
2330.000000	97.694029 
2329.000000	97.692509 
2328.000000	97.690662 
2327.000000	97.688458 
2326.000000	97.685755 
2325.000000	97.682900 
2324.000000	97.680207 
2323.000000	97.678135 
2322.000000	97.676827 
2321.000000	97.675776 
2320.000000	97.674860 
2319.000000	97.673953 
2318.000000	97.673317 
2317.000000	97.672581 
2316.000000	97.671471 
2315.000000	97.669797 
2314.000000	97.667465 
2313.000000	97.664494 
2312.000000	97.661050 
2311.000000	97.658003 
2310.000000	97.655743 
2309.000000	97.654421 
2308.000000	97.653430 
2307.000000	97.652810 
2306.000000	97.652269 
2305.000000	97.651730 
2304.000000	97.650770 
2303.000000	97.649238 
2302.000000	97.646774 
2301.000000	97.643110 
2300.000000	97.638709 
2299.000000	97.634991 
2298.000000	97.632339 
2297.000000	97.630439 
2296.000000	97.628764 
2295.000000	97.627673 
2294.000000	97.626469 
2293.000000	97.624237 
2292.000000	97.620525 
2291.000000	97.616558 
2290.000000	97.613013 
2289.000000	97.609549 
2288.000000	97.605816 
2287.000000	97.602661 
2286.000000	97.600834 
2285.000000	97.599946 
2284.000000	97.599478 
2283.000000	97.599629 
2282.000000	97.600385 
2281.000000	97.600724 
2280.000000	97.600003 
2279.000000	97.598515 
2278.000000	97.596444 
2277.000000	97.593346 
2276.000000	97.589788 
2275.000000	97.587420 
2274.000000	97.586741 
2273.000000	97.586158 
2272.000000	97.584172 
2271.000000	97.581517 
2270.000000	97.579928 
2269.000000	97.579876 
2268.000000	97.580360 
2267.000000	97.580244 
2266.000000	97.579002 
2265.000000	97.576757 
2264.000000	97.574321 
2263.000000	97.572569 
2262.000000	97.571268 
2261.000000	97.569292 
2260.000000	97.566093 
2259.000000	97.562358 
2258.000000	97.559074 
2257.000000	97.556486 
2256.000000	97.554415 
2255.000000	97.552778 
2254.000000	97.551477 
2253.000000	97.550192 
2252.000000	97.548775 
2251.000000	97.547404 
2250.000000	97.546135 
2249.000000	97.544709 
2248.000000	97.542941 
2247.000000	97.540965 
2246.000000	97.538955 
2245.000000	97.536939 
2244.000000	97.534915 
2243.000000	97.532950 
2242.000000	97.531052 
2241.000000	97.529100 
2240.000000	97.527062 
2239.000000	97.525163 
2238.000000	97.523547 
2237.000000	97.521876 
2236.000000	97.519670 
2235.000000	97.516974 
2234.000000	97.514388 
2233.000000	97.512353 
2232.000000	97.510829 
2231.000000	97.509616 
2230.000000	97.508567 
2229.000000	97.507347 
2228.000000	97.505413 
2227.000000	97.502426 
2226.000000	97.498464 
2225.000000	97.493984 
2224.000000	97.489825 
2223.000000	97.486981 
2222.000000	97.485806 
2221.000000	97.485370 
2220.000000	97.484221 
2219.000000	97.482061 
2218.000000	97.479803 
2217.000000	97.478085 
2216.000000	97.476521 
2215.000000	97.474562 
2214.000000	97.472117 
2213.000000	97.469074 
2212.000000	97.465183 
2211.000000	97.460865 
2210.000000	97.457410 
2209.000000	97.455961 
2208.000000	97.456631 
2207.000000	97.458387 
2206.000000	97.459525 
2205.000000	97.458842 
2204.000000	97.456959 
2203.000000	97.456297 
2202.000000	97.457677 
2201.000000	97.457764 
2200.000000	97.452653 
2199.000000	97.442803 
2198.000000	97.432305 
2197.000000	97.423759 
2196.000000	97.417169 
2195.000000	97.412346 
2194.000000	97.409177 
2193.000000	97.406275 
2192.000000	97.401717 
2191.000000	97.394988 
2190.000000	97.387070 
2189.000000	97.379332 
2188.000000	97.373186 
2187.000000	97.369657 
2186.000000	97.368533 
2185.000000	97.368979 
2184.000000	97.371084 
2183.000000	97.374823 
2182.000000	97.377772 
2181.000000	97.377040 
2180.000000	97.373620 
2179.000000	97.371064 
2178.000000	97.369692 
2177.000000	97.366748 
2176.000000	97.362845 
2175.000000	97.362764 
2174.000000	97.367829 
2173.000000	97.372743 
2172.000000	97.372663 
2171.000000	97.368368 
2170.000000	97.361650 
2169.000000	97.351201 
2168.000000	97.337067 
2167.000000	97.324104 
2166.000000	97.315590 
2165.000000	97.306886 
2164.000000	97.291029 
2163.000000	97.269022 
2162.000000	97.250697 
2161.000000	97.247830 
2160.000000	97.268973 
2159.000000	97.315110 
2158.000000	97.373663 
2157.000000	97.422358 
2156.000000	97.447694 
2155.000000	97.453799 
2154.000000	97.452102 
2153.000000	97.449396 
2152.000000	97.447488 
2151.000000	97.447935 
2150.000000	97.451283 
2149.000000	97.455174 
2148.000000	97.458618 
2147.000000	97.465647 
2146.000000	97.480166 
2145.000000	97.499639 
2144.000000	97.518131 
2143.000000	97.532914 
2142.000000	97.543633 
2141.000000	97.548048 
2140.000000	97.544281 
2139.000000	97.535994 
2138.000000	97.530744 
2137.000000	97.533156 
2136.000000	97.542306 
2135.000000	97.554458 
2134.000000	97.565617 
2133.000000	97.573231 
2132.000000	97.578549 
2131.000000	97.585658 
2130.000000	97.595353 
2129.000000	97.602009 
2128.000000	97.599899 
2127.000000	97.590982 
2126.000000	97.583138 
2125.000000	97.581337 
2124.000000	97.583631 
2123.000000	97.585621 
2122.000000	97.585548 
2121.000000	97.584315 
2120.000000	97.582797 
2119.000000	97.580331 
2118.000000	97.575339 
2117.000000	97.567381 
2116.000000	97.558609 
2115.000000	97.552124 
2114.000000	97.549090 
2113.000000	97.548636 
2112.000000	97.550275 
2111.000000	97.554150 
2110.000000	97.558104 
2109.000000	97.558033 
2108.000000	97.553206 
2107.000000	97.548107 
2106.000000	97.546680 
2105.000000	97.547354 
2104.000000	97.546115 
2103.000000	97.542032 
2102.000000	97.536980 
2101.000000	97.532119 
2100.000000	97.527779 
2099.000000	97.525405 
2098.000000	97.526952 
2097.000000	97.532860 
2096.000000	97.542022 
2095.000000	97.552136 
2094.000000	97.559170 
2093.000000	97.559246 
2092.000000	97.552482 
2091.000000	97.543459 
2090.000000	97.536287 
2089.000000	97.530544 
2088.000000	97.523761 
2087.000000	97.515474 
2086.000000	97.507079 
2085.000000	97.499650 
2084.000000	97.493808 
2083.000000	97.490329 
2082.000000	97.489005 
2081.000000	97.487794 
2080.000000	97.484684 
2079.000000	97.479600 
2078.000000	97.473513 
2077.000000	97.466947 
2076.000000	97.460700 
2075.000000	97.456323 
2074.000000	97.454003 
2073.000000	97.451461 
2072.000000	97.446965 
2071.000000	97.442290 
2070.000000	97.440455 
2069.000000	97.441415 
2068.000000	97.442132 
2067.000000	97.440285 
2066.000000	97.435951 
2065.000000	97.430449 
2064.000000	97.425382 
2063.000000	97.422001 
2062.000000	97.419740 
2061.000000	97.416042 
2060.000000	97.409173 
2059.000000	97.400492 
2058.000000	97.392860 
2057.000000	97.387847 
2056.000000	97.385490 
2055.000000	97.384881 
2054.000000	97.383194 
2053.000000	97.376129 
2052.000000	97.361624 
2051.000000	97.342642 
2050.000000	97.325428 
2049.000000	97.314582 
2048.000000	97.311008 
2047.000000	97.313243 
2046.000000	97.318200 
2045.000000	97.321501 
2044.000000	97.320013 
2043.000000	97.314258 
2042.000000	97.306947 
2041.000000	97.299977 
2040.000000	97.294248 
2039.000000	97.290973 
2038.000000	97.290864 
2037.000000	97.292821 
2036.000000	97.295169 
2035.000000	97.297278 
2034.000000	97.298643 
2033.000000	97.298408 
2032.000000	97.297298 
2031.000000	97.297183 
2030.000000	97.297158 
2029.000000	97.293523 
2028.000000	97.285917 
2027.000000	97.279801 
2026.000000	97.279469 
2025.000000	97.282169 
2024.000000	97.282515 
2023.000000	97.280356 
2022.000000	97.279813 
2021.000000	97.282146 
2020.000000	97.284205 
2019.000000	97.283464 
2018.000000	97.280744 
2017.000000	97.278008 
2016.000000	97.276862 
2015.000000	97.279122 
2014.000000	97.285598 
2013.000000	97.293785 
2012.000000	97.299127 
2011.000000	97.299029 
2010.000000	97.294572 
2009.000000	97.289652 
2008.000000	97.288884 
2007.000000	97.293721 
2006.000000	97.299500 
2005.000000	97.300031 
2004.000000	97.296060 
2003.000000	97.294549 
2002.000000	97.298187 
2001.000000	97.301275 
2000.000000	97.299450 
1999.000000	97.296188 
1998.000000	97.295628 
1997.000000	97.295475 
1996.000000	97.292139 
1995.000000	97.287417 
1994.000000	97.284306 
1993.000000	97.280402 
1992.000000	97.272208 
1991.000000	97.263108 
1990.000000	97.259481 
1989.000000	97.261255 
1988.000000	97.262704 
1987.000000	97.260475 
1986.000000	97.255925 
1985.000000	97.251389 
1984.000000	97.248404 
1983.000000	97.247505 
1982.000000	97.245862 
1981.000000	97.238651 
1980.000000	97.227472 
1979.000000	97.222392 
1978.000000	97.230429 
1977.000000	97.246584 
1976.000000	97.261067 
1975.000000	97.272115 
1974.000000	97.283712 
1973.000000	97.295617 
1972.000000	97.303730 
1971.000000	97.306917 
1970.000000	97.307005 
1969.000000	97.304652 
1968.000000	97.300533 
1967.000000	97.298261 
1966.000000	97.300897 
1965.000000	97.306515 
1964.000000	97.311610 
1963.000000	97.316726 
1962.000000	97.324785 
1961.000000	97.336091 
1960.000000	97.348173 
1959.000000	97.358451 
1958.000000	97.364888 
1957.000000	97.366817 
1956.000000	97.367426 
1955.000000	97.372090 
1954.000000	97.381603 
1953.000000	97.390068 
1952.000000	97.392077 
1951.000000	97.389358 
1950.000000	97.387750 
1949.000000	97.390059 
1948.000000	97.395532 
1947.000000	97.403475 
1946.000000	97.413335 
1945.000000	97.422869 
1944.000000	97.429665 
1943.000000	97.433714 
1942.000000	97.436251 
1941.000000	97.437498 
1940.000000	97.437561 
1939.000000	97.438006 
1938.000000	97.440529 
1937.000000	97.444936 
1936.000000	97.449902 
1935.000000	97.454727 
1934.000000	97.459383 
1933.000000	97.463536 
1932.000000	97.466666 
1931.000000	97.469178 
1930.000000	97.471920 
1929.000000	97.474892 
1928.000000	97.477740 
1927.000000	97.480671 
1926.000000	97.484057 
1925.000000	97.487298 
1924.000000	97.489636 
1923.000000	97.491744 
1922.000000	97.494765 
1921.000000	97.498310 
1920.000000	97.500886 
1919.000000	97.501936 
1918.000000	97.502247 
1917.000000	97.502726 
1916.000000	97.503785 
1915.000000	97.505665 
1914.000000	97.508275 
1913.000000	97.510897 
1912.000000	97.512885 
1911.000000	97.514725 
1910.000000	97.516990 
1909.000000	97.518896 
1908.000000	97.519564 
1907.000000	97.519406 
1906.000000	97.519565 
1905.000000	97.520279 
1904.000000	97.521169 
1903.000000	97.522455 
1902.000000	97.524243 
1901.000000	97.525915 
1900.000000	97.527062 
1899.000000	97.528066 
1898.000000	97.529379 
1897.000000	97.530662 
1896.000000	97.531314 
1895.000000	97.531543 
1894.000000	97.532096 
1893.000000	97.533182 
1892.000000	97.534504 
1891.000000	97.535896 
1890.000000	97.537351 
1889.000000	97.538748 
1888.000000	97.540043 
1887.000000	97.541386 
1886.000000	97.542798 
1885.000000	97.544023 
1884.000000	97.544887 
1883.000000	97.545654 
1882.000000	97.546733 
1881.000000	97.548149 
1880.000000	97.549662 
1879.000000	97.551174 
1878.000000	97.552772 
1877.000000	97.554434 
1876.000000	97.556027 
1875.000000	97.557635 
1874.000000	97.559435 
1873.000000	97.561256 
1872.000000	97.562817 
1871.000000	97.564241 
1870.000000	97.565804 
1869.000000	97.567287 
1868.000000	97.568439 
1867.000000	97.569722 
1866.000000	97.571605 
1865.000000	97.573849 
1864.000000	97.575896 
1863.000000	97.577727 
1862.000000	97.579724 
1861.000000	97.581795 
1860.000000	97.583482 
1859.000000	97.584885 
1858.000000	97.586570 
1857.000000	97.588530 
1856.000000	97.590132 
1855.000000	97.591263 
1854.000000	97.592546 
1853.000000	97.594294 
1852.000000	97.596390 
1851.000000	97.598745 
1850.000000	97.601389 
1849.000000	97.604131 
1848.000000	97.606625 
1847.000000	97.608916 
1846.000000	97.611193 
1845.000000	97.613100 
1844.000000	97.614107 
1843.000000	97.614831 
1842.000000	97.616045 
1841.000000	97.617322 
1840.000000	97.618187 
1839.000000	97.618823 
1838.000000	97.619666 
1837.000000	97.620664 
1836.000000	97.621645 
1835.000000	97.623027 
1834.000000	97.625157 
1833.000000	97.627608 
1832.000000	97.629515 
1831.000000	97.630258 
1830.000000	97.629927 
1829.000000	97.629416 
1828.000000	97.629515 
1827.000000	97.630281 
1826.000000	97.631554 
1825.000000	97.632959 
1824.000000	97.633963 
1823.000000	97.634677 
1822.000000	97.635645 
1821.000000	97.636992 
1820.000000	97.638316 
1819.000000	97.639491 
1818.000000	97.641006 
1817.000000	97.642670 
1816.000000	97.643536 
1815.000000	97.643482 
1814.000000	97.643319 
1813.000000	97.643586 
1812.000000	97.643868 
1811.000000	97.643952 
1810.000000	97.644281 
1809.000000	97.644774 
1808.000000	97.644938 
1807.000000	97.644853 
1806.000000	97.644972 
1805.000000	97.645323 
1804.000000	97.645643 
1803.000000	97.645952 
1802.000000	97.646403 
1801.000000	97.646928 
1800.000000	97.647317 
1799.000000	97.647630 
1798.000000	97.648073 
1797.000000	97.648627 
1796.000000	97.649164 
1795.000000	97.649668 
1794.000000	97.650178 
1793.000000	97.650657 
1792.000000	97.651072 
1791.000000	97.651477 
1790.000000	97.651908 
1789.000000	97.652354 
1788.000000	97.652806 
1787.000000	97.653263 
1786.000000	97.653719 
1785.000000	97.654163 
1784.000000	97.654585 
1783.000000	97.654978 
1782.000000	97.655343 
1781.000000	97.655688 
1780.000000	97.656018 
1779.000000	97.656337 
1778.000000	97.656645 
1777.000000	97.656944 
1776.000000	97.657237 
1775.000000	97.657528 
1774.000000	97.657824 
1773.000000	97.658134 
1772.000000	97.658455 
1771.000000	97.658783 
1770.000000	97.659120 
1769.000000	97.659470 
1768.000000	97.659830 
1767.000000	97.660187 
1766.000000	97.660534 
1765.000000	97.660871 
1764.000000	97.661202 
1763.000000	97.661528 
1762.000000	97.661854 
1761.000000	97.662183 
1760.000000	97.662518 
1759.000000	97.662857 
1758.000000	97.663194 
1757.000000	97.663522 
1756.000000	97.663831 
1755.000000	97.664117 
1754.000000	97.664380 
1753.000000	97.664627 
1752.000000	97.664860 
1751.000000	97.665068 
1750.000000	97.665239 
1749.000000	97.665378 
1748.000000	97.665498 
1747.000000	97.665614 
1746.000000	97.665735 
1745.000000	97.665862 
1744.000000	97.665993 
1743.000000	97.666126 
1742.000000	97.666268 
1741.000000	97.666423 
1740.000000	97.666596 
1739.000000	97.666787 
1738.000000	97.666992 
1737.000000	97.667205 
1736.000000	97.667429 
1735.000000	97.667667 
1734.000000	97.667913 
1733.000000	97.668153 
1732.000000	97.668386 
1731.000000	97.668618 
1730.000000	97.668858 
1729.000000	97.669112 
1728.000000	97.669380 
1727.000000	97.669657 
1726.000000	97.669934 
1725.000000	97.670210 
1724.000000	97.670488 
1723.000000	97.670772 
1722.000000	97.671061 
1721.000000	97.671354 
1720.000000	97.671645 
1719.000000	97.671927 
1718.000000	97.672199 
1717.000000	97.672458 
1716.000000	97.672710 
1715.000000	97.672975 
1714.000000	97.673275 
1713.000000	97.673612 
1712.000000	97.673978 
1711.000000	97.674365 
1710.000000	97.674771 
1709.000000	97.675202 
1708.000000	97.675660 
1707.000000	97.676149 
1706.000000	97.676668 
1705.000000	97.677208 
1704.000000	97.677758 
1703.000000	97.678318 
1702.000000	97.678901 
1701.000000	97.679520 
1700.000000	97.680161 
1699.000000	97.680812 
1698.000000	97.681472 
1697.000000	97.682140 
1696.000000	97.682818 
1695.000000	97.683508 
1694.000000	97.684208 
1693.000000	97.684916 
1692.000000	97.685638 
1691.000000	97.686384 
1690.000000	97.687157 
1689.000000	97.687948 
1688.000000	97.688742 
1687.000000	97.689528 
1686.000000	97.690302 
1685.000000	97.691066 
1684.000000	97.691821 
1683.000000	97.692574 
1682.000000	97.693337 
1681.000000	97.694112 
1680.000000	97.694904 
1679.000000	97.695711 
1678.000000	97.696530 
1677.000000	97.697357 
1676.000000	97.698193 
1675.000000	97.699032 
1674.000000	97.699861 
1673.000000	97.700665 
1672.000000	97.701442 
1671.000000	97.702194 
1670.000000	97.702925 
1669.000000	97.703642 
1668.000000	97.704351 
1667.000000	97.705053 
1666.000000	97.705738 
1665.000000	97.706408 
1664.000000	97.707068 
1663.000000	97.707723 
1662.000000	97.708376 
1661.000000	97.709026 
1660.000000	97.709671 
1659.000000	97.710304 
1658.000000	97.710913 
1657.000000	97.711500 
1656.000000	97.712070 
1655.000000	97.712626 
1654.000000	97.713169 
1653.000000	97.713699 
1652.000000	97.714226 
1651.000000	97.714758 
1650.000000	97.715281 
1649.000000	97.715790 
1648.000000	97.716289 
1647.000000	97.716783 
1646.000000	97.717278 
1645.000000	97.717788 
1644.000000	97.718323 
1643.000000	97.718880 
1642.000000	97.719459 
1641.000000	97.720056 
1640.000000	97.720663 
1639.000000	97.721267 
1638.000000	97.721861 
1637.000000	97.722443 
1636.000000	97.723019 
1635.000000	97.723595 
1634.000000	97.724179 
1633.000000	97.724780 
1632.000000	97.725408 
1631.000000	97.726072 
1630.000000	97.726766 
1629.000000	97.727479 
1628.000000	97.728204 
1627.000000	97.728943 
1626.000000	97.729698 
1625.000000	97.730470 
1624.000000	97.731268 
1623.000000	97.732097 
1622.000000	97.732954 
1621.000000	97.733824 
1620.000000	97.734696 
1619.000000	97.735573 
1618.000000	97.736473 
1617.000000	97.737372 
1616.000000	97.738247 
1615.000000	97.739128 
1614.000000	97.739981 
1613.000000	97.740785 
1612.000000	97.741676 
1611.000000	97.742744 
1610.000000	97.743821 
1609.000000	97.744696 
1608.000000	97.745475 
1607.000000	97.746374 
1606.000000	97.747230 
1605.000000	97.747877 
1604.000000	97.748512 
1603.000000	97.749267 
1602.000000	97.749982 
1601.000000	97.750540 
1600.000000	97.751086 
1599.000000	97.751617 
1598.000000	97.752042 
1597.000000	97.752407 
1596.000000	97.752775 
1595.000000	97.753127 
1594.000000	97.753431 
1593.000000	97.753685 
1592.000000	97.753889 
1591.000000	97.754042 
1590.000000	97.754146 
1589.000000	97.754206 
1588.000000	97.754233 
1587.000000	97.754242 
1586.000000	97.754236 
1585.000000	97.754211 
1584.000000	97.754166 
1583.000000	97.754098 
1582.000000	97.753989 
1581.000000	97.753821 
1580.000000	97.753586 
1579.000000	97.753282 
1578.000000	97.752904 
1577.000000	97.752446 
1576.000000	97.751913 
1575.000000	97.751308 
1574.000000	97.750630 
1573.000000	97.749881 
1572.000000	97.749078 
1571.000000	97.748237 
1570.000000	97.747352 
1569.000000	97.746409 
1568.000000	97.745407 
1567.000000	97.744350 
1566.000000	97.743237 
1565.000000	97.742069 
1564.000000	97.740856 
1563.000000	97.739605 
1562.000000	97.738312 
1561.000000	97.736976 
1560.000000	97.735593 
1559.000000	97.734129 
1558.000000	97.732558 
1557.000000	97.730903 
1556.000000	97.729196 
1555.000000	97.727459 
1554.000000	97.725705 
1553.000000	97.723930 
1552.000000	97.722131 
1551.000000	97.720311 
1550.000000	97.718473 
1549.000000	97.716614 
1548.000000	97.714727 
1547.000000	97.712811 
1546.000000	97.710860 
1545.000000	97.708861 
1544.000000	97.706799 
1543.000000	97.704668 
1542.000000	97.702461 
1541.000000	97.700162 
1540.000000	97.697756 
1539.000000	97.695257 
1538.000000	97.692686 
1537.000000	97.690052 
1536.000000	97.687370 
1535.000000	97.684663 
1534.000000	97.681949 
1533.000000	97.679291 
1532.000000	97.676671 
1531.000000	97.674111 
1530.000000	97.671786 
1529.000000	97.669529 
1528.000000	97.666730 
1527.000000	97.663375 
1526.000000	97.660243 
1525.000000	97.657576 
1524.000000	97.654614 
1523.000000	97.651424 
1522.000000	97.649078 
1521.000000	97.646804 
1520.000000	97.643213 
1519.000000	97.638058 
1518.000000	97.632445 
1517.000000	97.628328 
1516.000000	97.625635 
1515.000000	97.623226 
1514.000000	97.621098 
1513.000000	97.620439 
1512.000000	97.620122 
1511.000000	97.617572 
1510.000000	97.613518 
1509.000000	97.610334 
1508.000000	97.608394 
1507.000000	97.603345 
1506.000000	97.596546 
1505.000000	97.592143 
1504.000000	97.586608 
1503.000000	97.576861 
1502.000000	97.565909 
1501.000000	97.556766 
1500.000000	97.548642 
1499.000000	97.539850 
1498.000000	97.534081 
1497.000000	97.535778 
1496.000000	97.541194 
1495.000000	97.545591 
1494.000000	97.549068 
1493.000000	97.552104 
1492.000000	97.553467 
1491.000000	97.551853 
1490.000000	97.547380 
1489.000000	97.540467 
1488.000000	97.530519 
1487.000000	97.520785 
1486.000000	97.514958 
1485.000000	97.510912 
1484.000000	97.506723 
1483.000000	97.502754 
1482.000000	97.500218 
1481.000000	97.498034 
1480.000000	97.493872 
1479.000000	97.488564 
1478.000000	97.485186 
1477.000000	97.483781 
1476.000000	97.480996 
1475.000000	97.477040 
1474.000000	97.474235 
1473.000000	97.471010 
1472.000000	97.463648 
1471.000000	97.453921 
1470.000000	97.445986 
1469.000000	97.439780 
1468.000000	97.433591 
1467.000000	97.428206 
1466.000000	97.425707 
1465.000000	97.425748 
1464.000000	97.425723 
1463.000000	97.423614 
1462.000000	97.420039 
1461.000000	97.415876 
1460.000000	97.411621 
1459.000000	97.407770 
1458.000000	97.406552 
1457.000000	97.408750 
1456.000000	97.411723 
1455.000000	97.411711 
1454.000000	97.407898 
1453.000000	97.404010 
1452.000000	97.402568 
1451.000000	97.402249 
1450.000000	97.401987 
1449.000000	97.402266 
1448.000000	97.401904 
1447.000000	97.399184 
1446.000000	97.394240 
1445.000000	97.389940 
1444.000000	97.388142 
1443.000000	97.387568 
1442.000000	97.387160 
1441.000000	97.387340 
1440.000000	97.387662 
1439.000000	97.386314 
1438.000000	97.385203 
1437.000000	97.388184 
1436.000000	97.394178 
1435.000000	97.397891 
1434.000000	97.397708 
1433.000000	97.396512 
1432.000000	97.397096 
1431.000000	97.398614 
1430.000000	97.399541 
1429.000000	97.400914 
1428.000000	97.403008 
1427.000000	97.404404 
1426.000000	97.404250 
1425.000000	97.405400 
1424.000000	97.409834 
1423.000000	97.413865 
1422.000000	97.414484 
1421.000000	97.414892 
1420.000000	97.419748 
1419.000000	97.425952 
1418.000000	97.428700 
1417.000000	97.429641 
1416.000000	97.430640 
1415.000000	97.430912 
1414.000000	97.429832 
1413.000000	97.429054 
1412.000000	97.430377 
1411.000000	97.432359 
1410.000000	97.433862 
1409.000000	97.436563 
1408.000000	97.441046 
1407.000000	97.446068 
1406.000000	97.450578 
1405.000000	97.456459 
1404.000000	97.465144 
1403.000000	97.473487 
1402.000000	97.478980 
1401.000000	97.483783 
1400.000000	97.490919 
1399.000000	97.498617 
1398.000000	97.503367 
1397.000000	97.505272 
1396.000000	97.506831 
1395.000000	97.509320 
1394.000000	97.512307 
1393.000000	97.517203 
1392.000000	97.524897 
1391.000000	97.533225 
1390.000000	97.540211 
1389.000000	97.546187 
1388.000000	97.551943 
1387.000000	97.556807 
1386.000000	97.560033 
1385.000000	97.562877 
1384.000000	97.567207 
1383.000000	97.572720 
1382.000000	97.577811 
1381.000000	97.581741 
1380.000000	97.585515 
1379.000000	97.589945 
1378.000000	97.594233 
1377.000000	97.597775 
1376.000000	97.601878 
1375.000000	97.607913 
1374.000000	97.614807 
1373.000000	97.620705 
1372.000000	97.624874 
1371.000000	97.627679 
1370.000000	97.629592 
1369.000000	97.631999 
1368.000000	97.636473 
1367.000000	97.642386 
1366.000000	97.647583 
1365.000000	97.650908 
1364.000000	97.653017 
1363.000000	97.655120 
1362.000000	97.657870 
1361.000000	97.661280 
1360.000000	97.664983 
1359.000000	97.668447 
1358.000000	97.671316 
1357.000000	97.674066 
1356.000000	97.677615 
1355.000000	97.681792 
1354.000000	97.685490 
1353.000000	97.688250 
1352.000000	97.690642 
1351.000000	97.693849 
1350.000000	97.697351 
1349.000000	97.700071 
1348.000000	97.701988 
1347.000000	97.703342 
1346.000000	97.704427 
1345.000000	97.706200 
1344.000000	97.709755 
1343.000000	97.714486 
1342.000000	97.718306 
1341.000000	97.720087 
1340.000000	97.720721 
1339.000000	97.721387 
1338.000000	97.722382 
1337.000000	97.723963 
1336.000000	97.726355 
1335.000000	97.728810 
1334.000000	97.730357 
1333.000000	97.731483 
1332.000000	97.733378 
1331.000000	97.735417 
1330.000000	97.735564 
1329.000000	97.733895 
1328.000000	97.733003 
1327.000000	97.734180 
1326.000000	97.735390 
1325.000000	97.735147 
1324.000000	97.734886 
1323.000000	97.735879 
1322.000000	97.737162 
1321.000000	97.737668 
1320.000000	97.738069 
1319.000000	97.739245 
1318.000000	97.741079 
1317.000000	97.743445 
1316.000000	97.746640 
1315.000000	97.750143 
1314.000000	97.752690 
1313.000000	97.753963 
1312.000000	97.754654 
1311.000000	97.754897 
1310.000000	97.754381 
1309.000000	97.753928 
1308.000000	97.754719 
1307.000000	97.756215 
1306.000000	97.756410 
1305.000000	97.755011 
1304.000000	97.753715 
1303.000000	97.753181 
1302.000000	97.752270 
1301.000000	97.750464 
1300.000000	97.748771 
1299.000000	97.747831 
1298.000000	97.747477 
1297.000000	97.748228 
1296.000000	97.751036 
1295.000000	97.754889 
1294.000000	97.757095 
1293.000000	97.756780 
1292.000000	97.755773 
1291.000000	97.755574 
1290.000000	97.755487 
1289.000000	97.754637 
1288.000000	97.753700 
1287.000000	97.753403 
1286.000000	97.753074 
1285.000000	97.752004 
1284.000000	97.750827 
1283.000000	97.750622 
1282.000000	97.751662 
1281.000000	97.753496 
1280.000000	97.755422 
1279.000000	97.756372 
1278.000000	97.755678 
1277.000000	97.754096 
1276.000000	97.752910 
1275.000000	97.752078 
1274.000000	97.750689 
1273.000000	97.749135 
1272.000000	97.748852 
1271.000000	97.749926 
1270.000000	97.750864 
1269.000000	97.751005 
1268.000000	97.751314 
1267.000000	97.752482 
1266.000000	97.754190 
1265.000000	97.756044 
1264.000000	97.757493 
1263.000000	97.757527 
1262.000000	97.756180 
1261.000000	97.755264 
1260.000000	97.755774 
1259.000000	97.755547 
1258.000000	97.752352 
1257.000000	97.747859 
1256.000000	97.745338 
1255.000000	97.744657 
1254.000000	97.743187 
1253.000000	97.740877 
1252.000000	97.740405 
1251.000000	97.742108 
1250.000000	97.742680 
1249.000000	97.739810 
1248.000000	97.734849 
1247.000000	97.729984 
1246.000000	97.725933 
1245.000000	97.722988 
1244.000000	97.721241 
1243.000000	97.719055 
1242.000000	97.713980 
1241.000000	97.706029 
1240.000000	97.697843 
1239.000000	97.691233 
1238.000000	97.685798 
1237.000000	97.681162 
1236.000000	97.677877 
1235.000000	97.675394 
1234.000000	97.671690 
1233.000000	97.666077 
1232.000000	97.660457 
1231.000000	97.656807 
1230.000000	97.654827 
1229.000000	97.652346 
1228.000000	97.646597 
1227.000000	97.635299 
1226.000000	97.618499 
1225.000000	97.599684 
1224.000000	97.583326 
1223.000000	97.570831 
1222.000000	97.560191 
1221.000000	97.549263 
1220.000000	97.537406 
1219.000000	97.523885 
1218.000000	97.507204 
1217.000000	97.486925 
1216.000000	97.464616 
1215.000000	97.442305 
1214.000000	97.420921 
1213.000000	97.400384 
1212.000000	97.379882 
1211.000000	97.357980 
1210.000000	97.333580 
1209.000000	97.306964 
1208.000000	97.279433 
1207.000000	97.252449 
1206.000000	97.227625 
1205.000000	97.206058 
1204.000000	97.186332 
1203.000000	97.164445 
1202.000000	97.137720 
1201.000000	97.108110 
1200.000000	97.079811 
1199.000000	97.054284 
1198.000000	97.029850 
1197.000000	97.005494 
1196.000000	96.982226 
1195.000000	96.960655 
1194.000000	96.939648 
1193.000000	96.917940 
1192.000000	96.895088 
1191.000000	96.870379 
1190.000000	96.842784 
1189.000000	96.812618 
1188.000000	96.781589 
1187.000000	96.750615 
1186.000000	96.719059 
1185.000000	96.686604 
1184.000000	96.654384 
1183.000000	96.623591 
1182.000000	96.594023 
1181.000000	96.564663 
1180.000000	96.534907 
1179.000000	96.504803 
1178.000000	96.474731 
1177.000000	96.444920 
1176.000000	96.414399 
1175.000000	96.380757 
1174.000000	96.342197 
1173.000000	96.299926 
1172.000000	96.257279 
1171.000000	96.216436 
1170.000000	96.177203 
1169.000000	96.138786 
1168.000000	96.101310 
1167.000000	96.065712 
1166.000000	96.033923 
1165.000000	96.009354 
1164.000000	95.995343 
1163.000000	95.992372 
1162.000000	95.997801 
1161.000000	96.008318 
1160.000000	96.021207 
1159.000000	96.033266 
1158.000000	96.040751 
1157.000000	96.040989 
1156.000000	96.032519 
1155.000000	96.014237 
1154.000000	95.986918 
1153.000000	95.955223 
1152.000000	95.925001 
1151.000000	95.897760 
1150.000000	95.870351 
1149.000000	95.840697 
1148.000000	95.810842 
1147.000000	95.783142 
1146.000000	95.756300 
1145.000000	95.727184 
1144.000000	95.694656 
1143.000000	95.659820 
1142.000000	95.624140 
1141.000000	95.588956 
1140.000000	95.555602 
1139.000000	95.524555 
1138.000000	95.495233 
1137.000000	95.467165 
1136.000000	95.440153 
1135.000000	95.413215 
1134.000000	95.385343 
1133.000000	95.357382 
1132.000000	95.330571 
1131.000000	95.303029 
1130.000000	95.271081 
1129.000000	95.235061 
1128.000000	95.200127 
1127.000000	95.169414 
1126.000000	95.139812 
1125.000000	95.107013 
1124.000000	95.071507 
1123.000000	95.036444 
1122.000000	95.002401 
1121.000000	94.968037 
1120.000000	94.934078 
1119.000000	94.902637 
1118.000000	94.873334 
1117.000000	94.843218 
1116.000000	94.810193 
1115.000000	94.774477 
1114.000000	94.737610 
1113.000000	94.701785 
1112.000000	94.668707 
1111.000000	94.637312 
1110.000000	94.604452 
1109.000000	94.569843 
1108.000000	94.537262 
1107.000000	94.508761 
1106.000000	94.480755 
1105.000000	94.449136 
1104.000000	94.415838 
1103.000000	94.386157 
1102.000000	94.361196 
1101.000000	94.337610 
1100.000000	94.312728 
1099.000000	94.287526 
1098.000000	94.263388 
1097.000000	94.239805 
1096.000000	94.215786 
1095.000000	94.190955 
1094.000000	94.166004 
1093.000000	94.143408 
1092.000000	94.126097 
1091.000000	94.113304 
1090.000000	94.099814 
1089.000000	94.082158 
1088.000000	94.063539 
1087.000000	94.049587 
1086.000000	94.041285 
1085.000000	94.035230 
1084.000000	94.028903 
1083.000000	94.022228 
1082.000000	94.015682 
1081.000000	94.010205 
1080.000000	94.007356 
1079.000000	94.006428 
1078.000000	94.003480 
1077.000000	93.996605 
1076.000000	93.989723 
1075.000000	93.987187 
1074.000000	93.986739 
1073.000000	93.982063 
1072.000000	93.970011 
1071.000000	93.950645 
1070.000000	93.922424 
1069.000000	93.883027 
1068.000000	93.834595 
1067.000000	93.783412 
1066.000000	93.733578 
1065.000000	93.684400 
1064.000000	93.634081 
1063.000000	93.581977 
1062.000000	93.527186 
1061.000000	93.469279 
1060.000000	93.411393 
1059.000000	93.359176 
1058.000000	93.315419 
1057.000000	93.278089 
1056.000000	93.243842 
1055.000000	93.210852 
1054.000000	93.178337 
1053.000000	93.146487 
1052.000000	93.117168 
1051.000000	93.091641 
1050.000000	93.066992 
1049.000000	93.037526 
1048.000000	93.000053 
1047.000000	92.956051 
1046.000000	92.909811 
1045.000000	92.866507 
1044.000000	92.830035 
1043.000000	92.799479 
1042.000000	92.768972 
1041.000000	92.734127 
1040.000000	92.697333 
1039.000000	92.663739 
1038.000000	92.633983 
1037.000000	92.604797 
1036.000000	92.575404 
1035.000000	92.548920 
1034.000000	92.527643 
1033.000000	92.510606 
1032.000000	92.495639 
1031.000000	92.481114 
1030.000000	92.466488 
1029.000000	92.453778 
1028.000000	92.447160 
1027.000000	92.448147 
1026.000000	92.452346 
1025.000000	92.453863 
1024.000000	92.451315 
1023.000000	92.446593 
1022.000000	92.440387 
1021.000000	92.432815 
1020.000000	92.426213 
1019.000000	92.422766 
1018.000000	92.420562 
1017.000000	92.416075 
1016.000000	92.409389 
1015.000000	92.403155 
1014.000000	92.397795 
1013.000000	92.391889 
1012.000000	92.386075 
1011.000000	92.382256 
1010.000000	92.379655 
1009.000000	92.375739 
1008.000000	92.370763 
1007.000000	92.367973 
1006.000000	92.369813 
1005.000000	92.376877 
1004.000000	92.389449 
1003.000000	92.406719 
1002.000000	92.425442 
1001.000000	92.442735 
1000.000000	92.459400 
999.000000	 92.477688 
998.000000	 92.497206 
997.000000	 92.516043 
996.000000	 92.534384 
995.000000	 92.553599 
994.000000	 92.573224 
993.000000	 92.592362 
992.000000	 92.613117 
991.000000	 92.639380 
990.000000	 92.672706 
989.000000	 92.711261 
988.000000	 92.751254 
987.000000	 92.787818 
986.000000	 92.817585 
985.000000	 92.843196 
984.000000	 92.872319 
983.000000	 92.909179 
982.000000	 92.949910 
981.000000	 92.989292 
980.000000	 93.028682 
979.000000	 93.072994 
978.000000	 93.123035 
977.000000	 93.175689 
976.000000	 93.229236 
975.000000	 93.283450 
974.000000	 93.336344 
973.000000	 93.386017 
972.000000	 93.434812 
971.000000	 93.487231 
970.000000	 93.544434 
969.000000	 93.604265 
968.000000	 93.665242 
967.000000	 93.726657 
966.000000	 93.786187 
965.000000	 93.841724 
964.000000	 93.894949 
963.000000	 93.949454 
962.000000	 94.005760 
961.000000	 94.061117 
960.000000	 94.113376 
959.000000	 94.162290 
958.000000	 94.208262 
957.000000	 94.252882 
956.000000	 94.299584 
955.000000	 94.350520 
954.000000	 94.403115 
953.000000	 94.452277 
952.000000	 94.495539 
951.000000	 94.534110 
950.000000	 94.570152 
949.000000	 94.605391 
948.000000	 94.641630 
947.000000	 94.680397 
946.000000	 94.721997 
945.000000	 94.765561 
944.000000	 94.809094 
943.000000	 94.849509 
942.000000	 94.884908 
941.000000	 94.917189 
940.000000	 94.949782 
939.000000	 94.982295 
938.000000	 95.010965 
937.000000	 95.035561 
936.000000	 95.061579 
935.000000	 95.093591 
934.000000	 95.130402 
933.000000	 95.169150 
932.000000	 95.209690 
931.000000	 95.251464 
930.000000	 95.290147 
929.000000	 95.321924 
928.000000	 95.348375 
927.000000	 95.373454 
926.000000	 95.398302 
925.000000	 95.422827 
924.000000	 95.449360 
923.000000	 95.479658 
922.000000	 95.509926 
921.000000	 95.533824 
920.000000	 95.549928 
919.000000	 95.562657 
918.000000	 95.576651 
917.000000	 95.593664 
916.000000	 95.614005 
915.000000	 95.636781 
914.000000	 95.658710 
913.000000	 95.676704 
912.000000	 95.692725 
911.000000	 95.713344 
910.000000	 95.743559 
909.000000	 95.782706 
908.000000	 95.826344 
907.000000	 95.870141 
906.000000	 95.911609 
905.000000	 95.949906 
904.000000	 95.985394 
903.000000	 96.019909 
902.000000	 96.057342 
901.000000	 96.102072 
900.000000	 96.154012 
899.000000	 96.205702 
898.000000	 96.247924 
897.000000	 96.279521 
896.000000	 96.308557 
895.000000	 96.342960 
894.000000	 96.383217 
893.000000	 96.425440 
892.000000	 96.467116 
891.000000	 96.506680 
890.000000	 96.540993 
889.000000	 96.567365 
888.000000	 96.586426 
887.000000	 96.600506 
886.000000	 96.610835 
885.000000	 96.618287 
884.000000	 96.624672 
883.000000	 96.630826 
882.000000	 96.635241 
881.000000	 96.636888 
880.000000	 96.637822 
879.000000	 96.641246 
878.000000	 96.649107 
877.000000	 96.663038 
876.000000	 96.684725 
875.000000	 96.713504 
874.000000	 96.746894 
873.000000	 96.785471 
872.000000	 96.832803 
871.000000	 96.887705 
870.000000	 96.941535 
869.000000	 96.987783 
868.000000	 97.030449 
867.000000	 97.077940 
866.000000	 97.131348 
865.000000	 97.183334 
864.000000	 97.226936 
863.000000	 97.261419 
862.000000	 97.290697 
861.000000	 97.319898 
860.000000	 97.353234 
859.000000	 97.391930 
858.000000	 97.432906 
857.000000	 97.470277 
856.000000	 97.498619 
855.000000	 97.516057 
854.000000	 97.526488 
853.000000	 97.537915 
852.000000	 97.555115 
851.000000	 97.573993 
850.000000	 97.587128 
849.000000	 97.595076 
848.000000	 97.607010 
847.000000	 97.628476 
846.000000	 97.653858 
845.000000	 97.673974 
844.000000	 97.686226 
843.000000	 97.693657 
842.000000	 97.698640 
841.000000	 97.702318 
840.000000	 97.707230 
839.000000	 97.715602 
838.000000	 97.726120 
837.000000	 97.735240 
836.000000	 97.740175 
835.000000	 97.738997 
834.000000	 97.731146 
833.000000	 97.720364 
832.000000	 97.713441 
831.000000	 97.712556 
830.000000	 97.712256 
829.000000	 97.708146 
828.000000	 97.704964 
827.000000	 97.710478 
826.000000	 97.724407 
825.000000	 97.740187 
824.000000	 97.755271 
823.000000	 97.771208 
822.000000	 97.784373 
821.000000	 97.785567 
820.000000	 97.770495 
819.000000	 97.745171 
818.000000	 97.720212 
817.000000	 97.702933 
816.000000	 97.694022 
815.000000	 97.687266 
814.000000	 97.671636 
813.000000	 97.637065 
812.000000	 97.579983 
811.000000	 97.502774 
810.000000	 97.408976 
809.000000	 97.300884 
808.000000	 97.180203 
807.000000	 97.046985 
806.000000	 96.897678 
805.000000	 96.728806 
804.000000	 96.545398 
803.000000	 96.363328 
802.000000	 96.200788 
801.000000	 96.068517 
800.000000	 95.968700 
799.000000	 95.899414 
798.000000	 95.857665 
797.000000	 95.840581 
796.000000	 95.845835 
795.000000	 95.870139 
794.000000	 95.907678 
793.000000	 95.952046 
792.000000	 95.998931 
791.000000	 96.044444 
790.000000	 96.081696 
789.000000	 96.102135 
788.000000	 96.100649 
787.000000	 96.078042 
786.000000	 96.039199 
785.000000	 95.990192 
784.000000	 95.936050 
783.000000	 95.879018 
782.000000	 95.819112 
781.000000	 95.757836 
780.000000	 95.701004 
779.000000	 95.657071 
778.000000	 95.633800 
777.000000	 95.637040 
776.000000	 95.669286 
775.000000	 95.726033 
774.000000	 95.795646 
773.000000	 95.866838 
772.000000	 95.935441 
771.000000	 96.001809 
770.000000	 96.064578 
769.000000	 96.120366 
768.000000	 96.167608 
767.000000	 96.207714 
766.000000	 96.244063 
765.000000	 96.281779 
764.000000	 96.325404 
763.000000	 96.373676 
762.000000	 96.419109 
761.000000	 96.455991 
760.000000	 96.486690 
759.000000	 96.517352 
758.000000	 96.550208 
757.000000	 96.583435 
756.000000	 96.615789 
755.000000	 96.647412 
754.000000	 96.678263 
753.000000	 96.709415 
752.000000	 96.743608 
751.000000	 96.780800 
750.000000	 96.815281 
749.000000	 96.841251 
748.000000	 96.859838 
747.000000	 96.877033 
746.000000	 96.896096 
745.000000	 96.915805 
744.000000	 96.935545 
743.000000	 96.958388 
742.000000	 96.988588 
741.000000	 97.027814 
740.000000	 97.073225 
739.000000	 97.118137 
738.000000	 97.156435 
737.000000	 97.187811 
736.000000	 97.216654 
735.000000	 97.244554 
734.000000	 97.266735 
733.000000	 97.278007 
732.000000	 97.279304 
731.000000	 97.276408 
730.000000	 97.274802 
729.000000	 97.277853 
728.000000	 97.286831 
727.000000	 97.299291 
726.000000	 97.310407 
725.000000	 97.318453 
724.000000	 97.326194 
723.000000	 97.335530 
722.000000	 97.345105 
721.000000	 97.355614 
720.000000	 97.372218 
719.000000	 97.396932 
718.000000	 97.423032 
717.000000	 97.442592 
716.000000	 97.455896 
715.000000	 97.468567 
714.000000	 97.482779 
713.000000	 97.496846 
712.000000	 97.511117 
711.000000	 97.528868 
710.000000	 97.552623 
709.000000	 97.582822 
708.000000	 97.618006 
707.000000	 97.651374 
706.000000	 97.669874 
705.000000	 97.663921 
704.000000	 97.636044 
703.000000	 97.595291 
702.000000	 97.545908 
701.000000	 97.486225 
700.000000	 97.417149 
699.000000	 97.344293 
698.000000	 97.271719 
697.000000	 97.201720 
696.000000	 97.141346 
695.000000	 97.102847 
694.000000	 97.094508 
693.000000	 97.113821 
692.000000	 97.152026 
691.000000	 97.201428 
690.000000	 97.257141 
689.000000	 97.316002 
688.000000	 97.375239 
687.000000	 97.431045 
686.000000	 97.477690 
685.000000	 97.510523 
684.000000	 97.531821 
683.000000	 97.549711 
682.000000	 97.569566 
681.000000	 97.589023 
680.000000	 97.603514 
679.000000	 97.612835 
678.000000	 97.619945 
677.000000	 97.623698 
676.000000	 97.621883 
675.000000	 97.615843 
674.000000	 97.609398 
673.000000	 97.605403 
672.000000	 97.601678 
671.000000	 97.595219 
670.000000	 97.593409 
669.000000	 97.618912 
668.000000	 97.685114 
667.000000	 97.763862 
666.000000	 97.797199 
665.000000	 97.772058 
664.000000	 97.733249 
663.000000	 97.719462 
662.000000	 97.733413 
661.000000	 97.755172 
660.000000	 97.770101 
659.000000	 97.776454 
658.000000	 97.775590 
657.000000	 97.767633 
656.000000	 97.753445 
655.000000	 97.728221 
654.000000	 97.680299 
653.000000	 97.607681 
652.000000	 97.525478 
651.000000	 97.454782 
650.000000	 97.409295 

