4000.000000	99.558539 
3999.000000	99.558524 
3998.000000	99.558598 
3997.000000	99.558607 
3996.000000	99.558405 
3995.000000	99.557999 
3994.000000	99.557664 
3993.000000	99.557748 
3992.000000	99.558298 
3991.000000	99.558901 
3990.000000	99.559090 
3989.000000	99.558843 
3988.000000	99.558515 
3987.000000	99.558301 
3986.000000	99.557927 
3985.000000	99.557040 
3984.000000	99.555739 
3983.000000	99.554599 
3982.000000	99.554134 
3981.000000	99.554376 
3980.000000	99.554955 
3979.000000	99.555511 
3978.000000	99.555959 
3977.000000	99.556350 
3976.000000	99.556621 
3975.000000	99.556591 
3974.000000	99.556168 
3973.000000	99.555454 
3972.000000	99.554610 
3971.000000	99.553675 
3970.000000	99.552586 
3969.000000	99.551381 
3968.000000	99.550336 
3967.000000	99.549837 
3966.000000	99.550071 
3965.000000	99.550847 
3964.000000	99.551680 
3963.000000	99.552112 
3962.000000	99.552015 
3961.000000	99.551593 
3960.000000	99.551159 
3959.000000	99.550885 
3958.000000	99.550758 
3957.000000	99.550685 
3956.000000	99.550575 
3955.000000	99.550333 
3954.000000	99.549877 
3953.000000	99.549226 
3952.000000	99.548537 
3951.000000	99.548023 
3950.000000	99.547803 
3949.000000	99.547806 
3948.000000	99.547825 
3947.000000	99.547637 
3946.000000	99.547105 
3945.000000	99.546266 
3944.000000	99.545407 
3943.000000	99.544945 
3942.000000	99.545109 
3941.000000	99.545708 
3940.000000	99.546264 
3939.000000	99.546421 
3938.000000	99.546165 
3937.000000	99.545701 
3936.000000	99.545208 
3935.000000	99.544759 
3934.000000	99.544444 
3933.000000	99.544481 
3932.000000	99.545078 
3931.000000	99.546169 
3930.000000	99.547326 
3929.000000	99.548004 
3928.000000	99.547848 
3927.000000	99.546827 
3926.000000	99.545269 
3925.000000	99.543712 
3924.000000	99.542584 
3923.000000	99.541979 
3922.000000	99.541743 
3921.000000	99.541710 
3920.000000	99.541827 
3919.000000	99.542095 
3918.000000	99.542457 
3917.000000	99.542793 
3916.000000	99.543003 
3915.000000	99.543092 
3914.000000	99.543187 
3913.000000	99.543472 
3912.000000	99.544055 
3911.000000	99.544814 
3910.000000	99.545353 
3909.000000	99.545174 
3908.000000	99.543976 
3907.000000	99.541826 
3906.000000	99.539215 
3905.000000	99.536937 
3904.000000	99.535705 
3903.000000	99.535814 
3902.000000	99.537119 
3901.000000	99.539168 
3900.000000	99.541315 
3899.000000	99.542913 
3898.000000	99.543603 
3897.000000	99.543430 
3896.000000	99.542744 
3895.000000	99.542005 
3894.000000	99.541614 
3893.000000	99.541780 
3892.000000	99.542346 
3891.000000	99.542778 
3890.000000	99.542655 
3889.000000	99.542084 
3888.000000	99.541538 
3887.000000	99.541426 
3886.000000	99.541737 
3885.000000	99.542059 
3884.000000	99.542084 
3883.000000	99.541957 
3882.000000	99.542055 
3881.000000	99.542520 
3880.000000	99.543014 
3879.000000	99.543119 
3878.000000	99.542858 
3877.000000	99.542592 
3876.000000	99.542578 
3875.000000	99.542696 
3874.000000	99.542568 
3873.000000	99.541959 
3872.000000	99.541073 
3871.000000	99.540448 
3870.000000	99.540410 
3869.000000	99.540744 
3868.000000	99.541060 
3867.000000	99.541287 
3866.000000	99.541650 
3865.000000	99.542279 
3864.000000	99.542910 
3863.000000	99.543078 
3862.000000	99.542580 
3861.000000	99.541595 
3860.000000	99.540511 
3859.000000	99.539682 
3858.000000	99.539292 
3857.000000	99.539380 
3856.000000	99.539809 
3855.000000	99.540538 
3854.000000	99.541709 
3853.000000	99.542883 
3852.000000	99.543307 
3851.000000	99.542929 
3850.000000	99.542238 
3849.000000	99.541661 
3848.000000	99.541276 
3847.000000	99.540922 
3846.000000	99.540495 
3845.000000	99.540164 
3844.000000	99.540284 
3843.000000	99.541032 
3842.000000	99.542141 
3841.000000	99.543011 
3840.000000	99.543211 
3839.000000	99.542910 
3838.000000	99.542764 
3837.000000	99.543280 
3836.000000	99.544301 
3835.000000	99.545194 
3834.000000	99.545447 
3833.000000	99.545078 
3832.000000	99.544436 
3831.000000	99.543731 
3830.000000	99.542909 
3829.000000	99.541946 
3828.000000	99.541055 
3827.000000	99.540508 
3826.000000	99.540320 
3825.000000	99.540298 
3824.000000	99.540226 
3823.000000	99.540037 
3822.000000	99.539927 
3821.000000	99.539788 
3820.000000	99.539162 
3819.000000	99.538046 
3818.000000	99.537011 
3817.000000	99.536620 
3816.000000	99.536636 
3815.000000	99.536136 
3814.000000	99.534721 
3813.000000	99.532930 
3812.000000	99.531562 
3811.000000	99.530982 
3810.000000	99.531003 
3809.000000	99.531229 
3808.000000	99.531441 
3807.000000	99.531510 
3806.000000	99.531215 
3805.000000	99.530417 
3804.000000	99.529147 
3803.000000	99.527771 
3802.000000	99.526850 
3801.000000	99.526412 
3800.000000	99.526045 
3799.000000	99.525640 
3798.000000	99.525422 
3797.000000	99.525470 
3796.000000	99.525473 
3795.000000	99.525072 
3794.000000	99.524310 
3793.000000	99.523553 
3792.000000	99.523059 
3791.000000	99.522799 
3790.000000	99.522635 
3789.000000	99.522529 
3788.000000	99.522496 
3787.000000	99.522434 
3786.000000	99.522161 
3785.000000	99.521604 
3784.000000	99.520884 
3783.000000	99.520195 
3782.000000	99.519646 
3781.000000	99.519312 
3780.000000	99.519291 
3779.000000	99.519554 
3778.000000	99.519845 
3777.000000	99.519884 
3776.000000	99.519600 
3775.000000	99.519083 
3774.000000	99.518390 
3773.000000	99.517428 
3772.000000	99.516056 
3771.000000	99.514376 
3770.000000	99.512825 
3769.000000	99.511960 
3768.000000	99.512128 
3767.000000	99.513314 
3766.000000	99.515108 
3765.000000	99.516821 
3764.000000	99.517899 
3763.000000	99.518264 
3762.000000	99.518180 
3761.000000	99.517893 
3760.000000	99.517365 
3759.000000	99.516322 
3758.000000	99.514670 
3757.000000	99.512810 
3756.000000	99.511384 
3755.000000	99.510736 
3754.000000	99.510591 
3753.000000	99.510360 
3752.000000	99.510147 
3751.000000	99.510685 
3750.000000	99.511955 
3749.000000	99.513059 
3748.000000	99.513281 
3747.000000	99.512579 
3746.000000	99.511918 
3745.000000	99.512368 
3744.000000	99.513003 
3743.000000	99.512219 
3742.000000	99.510294 
3741.000000	99.508685 
3740.000000	99.508319 
3739.000000	99.508862 
3738.000000	99.509044 
3737.000000	99.508056 
3736.000000	99.506829 
3735.000000	99.507278 
3734.000000	99.510251 
3733.000000	99.514730 
3732.000000	99.518618 
3731.000000	99.520037 
3730.000000	99.518280 
3729.000000	99.514076 
3728.000000	99.509427 
3727.000000	99.506726 
3726.000000	99.506996 
3725.000000	99.508937 
3724.000000	99.510138 
3723.000000	99.509241 
3722.000000	99.506800 
3721.000000	99.504376 
3720.000000	99.503077 
3719.000000	99.502970 
3718.000000	99.503408 
3717.000000	99.503524 
3716.000000	99.502577 
3715.000000	99.500112 
3714.000000	99.495999 
3713.000000	99.490566 
3712.000000	99.484335 
3711.000000	99.477370 
3710.000000	99.469948 
3709.000000	99.463318 
3708.000000	99.458385 
3707.000000	99.454155 
3706.000000	99.448358 
3705.000000	99.439630 
3704.000000	99.428904 
3703.000000	99.418801 
3702.000000	99.411264 
3701.000000	99.405881 
3700.000000	99.400939 
3699.000000	99.395424 
3698.000000	99.389536 
3697.000000	99.384084 
3696.000000	99.380067 
3695.000000	99.378546 
3694.000000	99.380156 
3693.000000	99.384247 
3692.000000	99.388728 
3691.000000	99.391560 
3690.000000	99.392211 
3689.000000	99.390739 
3688.000000	99.387154 
3687.000000	99.382513 
3686.000000	99.378600 
3685.000000	99.376216 
3684.000000	99.374570 
3683.000000	99.372205 
3682.000000	99.368391 
3681.000000	99.363746 
3680.000000	99.359433 
3679.000000	99.355929 
3678.000000	99.352266 
3677.000000	99.347054 
3676.000000	99.339041 
3675.000000	99.326719 
3674.000000	99.311017 
3673.000000	99.295978 
3672.000000	99.285043 
3671.000000	99.278700 
3670.000000	99.273753 
3669.000000	99.265573 
3668.000000	99.252890 
3667.000000	99.237800 
3666.000000	99.222348 
3665.000000	99.207340 
3664.000000	99.193124 
3663.000000	99.180154 
3662.000000	99.168625 
3661.000000	99.158073 
3660.000000	99.147678 
3659.000000	99.136639 
3658.000000	99.124246 
3657.000000	99.109853 
3656.000000	99.093066 
3655.000000	99.074628 
3654.000000	99.056562 
3653.000000	99.040612 
3652.000000	99.026582 
3651.000000	99.012770 
3650.000000	98.998000 
3649.000000	98.982364 
3648.000000	98.966774 
3647.000000	98.952335 
3646.000000	98.939747 
3645.000000	98.929077 
3644.000000	98.919657 
3643.000000	98.910142 
3642.000000	98.899205 
3641.000000	98.886637 
3640.000000	98.873569 
3639.000000	98.861214 
3638.000000	98.849510 
3637.000000	98.837153 
3636.000000	98.822771 
3635.000000	98.805960 
3634.000000	98.787536 
3633.000000	98.769225 
3632.000000	98.752700 
3631.000000	98.738042 
3630.000000	98.723838 
3629.000000	98.708613 
3628.000000	98.692469 
3627.000000	98.677568 
3626.000000	98.665422 
3625.000000	98.655154 
3624.000000	98.645169 
3623.000000	98.635231 
3622.000000	98.626702 
3621.000000	98.621159 
3620.000000	98.619201 
3619.000000	98.620410 
3618.000000	98.624387 
3617.000000	98.631483 
3616.000000	98.642054 
3615.000000	98.655179 
3614.000000	98.668132 
3613.000000	98.677506 
3612.000000	98.681984 
3611.000000	98.683909 
3610.000000	98.687261 
3609.000000	98.693964 
3608.000000	98.702236 
3607.000000	98.708979 
3606.000000	98.713322 
3605.000000	98.716911 
3604.000000	98.721564 
3603.000000	98.727707 
3602.000000	98.734789 
3601.000000	98.742189 
3600.000000	98.749241 
3599.000000	98.754986 
3598.000000	98.758665 
3597.000000	98.760552 
3596.000000	98.762068 
3595.000000	98.764499 
3594.000000	98.767262 
3593.000000	98.768120 
3592.000000	98.765809 
3591.000000	98.762134 
3590.000000	98.761067 
3589.000000	98.765576 
3588.000000	98.774629 
3587.000000	98.783325 
3586.000000	98.787268 
3585.000000	98.786173 
3584.000000	98.782928 
3583.000000	98.780877 
3582.000000	98.781998 
3581.000000	98.786138 
3580.000000	98.791163 
3579.000000	98.794308 
3578.000000	98.794086 
3577.000000	98.791139 
3576.000000	98.787339 
3575.000000	98.784072 
3574.000000	98.781271 
3573.000000	98.778002 
3572.000000	98.773920 
3571.000000	98.770124 
3570.000000	98.768531 
3569.000000	98.770217 
3568.000000	98.774257 
3567.000000	98.778219 
3566.000000	98.780312 
3565.000000	98.780981 
3564.000000	98.781908 
3563.000000	98.784028 
3562.000000	98.786701 
3561.000000	98.788336 
3560.000000	98.787749 
3559.000000	98.785169 
3558.000000	98.782152 
3557.000000	98.780332 
3556.000000	98.779985 
3555.000000	98.779780 
3554.000000	98.778027 
3553.000000	98.774243 
3552.000000	98.769493 
3551.000000	98.765312 
3550.000000	98.762613 
3549.000000	98.761651 
3548.000000	98.762477 
3547.000000	98.764939 
3546.000000	98.768229 
3545.000000	98.770940 
3544.000000	98.772069 
3543.000000	98.771812 
3542.000000	98.771200 
3541.000000	98.770997 
3540.000000	98.771140 
3539.000000	98.771251 
3538.000000	98.771375 
3537.000000	98.771910 
3536.000000	98.772888 
3535.000000	98.773758 
3534.000000	98.774018 
3533.000000	98.773748 
3532.000000	98.773352 
3531.000000	98.773051 
3530.000000	98.772880 
3529.000000	98.773031 
3528.000000	98.773859 
3527.000000	98.775488 
3526.000000	98.777549 
3525.000000	98.779402 
3524.000000	98.780531 
3523.000000	98.780796 
3522.000000	98.780503 
3521.000000	98.780222 
3520.000000	98.780415 
3519.000000	98.781142 
3518.000000	98.782119 
3517.000000	98.783052 
3516.000000	98.783916 
3515.000000	98.784902 
3514.000000	98.786099 
3513.000000	98.787247 
3512.000000	98.787856 
3511.000000	98.787641 
3510.000000	98.786873 
3509.000000	98.786196 
3508.000000	98.786057 
3507.000000	98.786414 
3506.000000	98.786946 
3505.000000	98.787390 
3504.000000	98.787700 
3503.000000	98.788020 
3502.000000	98.788604 
3501.000000	98.789594 
3500.000000	98.790707 
3499.000000	98.791250 
3498.000000	98.790654 
3497.000000	98.789068 
3496.000000	98.787373 
3495.000000	98.786523 
3494.000000	98.786915 
3493.000000	98.788378 
3492.000000	98.790452 
3491.000000	98.792574 
3490.000000	98.794208 
3489.000000	98.795095 
3488.000000	98.795410 
3487.000000	98.795523 
3486.000000	98.795444 
3485.000000	98.794642 
3484.000000	98.792651 
3483.000000	98.789873 
3482.000000	98.787591 
3481.000000	98.786828 
3480.000000	98.787318 
3479.000000	98.787791 
3478.000000	98.787302 
3477.000000	98.786049 
3476.000000	98.784872 
3475.000000	98.784262 
3474.000000	98.784093 
3473.000000	98.784125 
3472.000000	98.784304 
3471.000000	98.784498 
3470.000000	98.784283 
3469.000000	98.783235 
3468.000000	98.781372 
3467.000000	98.779147 
3466.000000	98.777025 
3465.000000	98.775151 
3464.000000	98.773433 
3463.000000	98.771866 
3462.000000	98.770638 
3461.000000	98.769865 
3460.000000	98.769304 
3459.000000	98.768506 
3458.000000	98.767334 
3457.000000	98.766139 
3456.000000	98.765288 
3455.000000	98.764606 
3454.000000	98.763470 
3453.000000	98.761433 
3452.000000	98.758599 
3451.000000	98.755529 
3450.000000	98.752908 
3449.000000	98.751233 
3448.000000	98.750606 
3447.000000	98.750661 
3446.000000	98.750731 
3445.000000	98.750268 
3444.000000	98.749111 
3443.000000	98.747401 
3442.000000	98.745399 
3441.000000	98.743316 
3440.000000	98.741199 
3439.000000	98.738969 
3438.000000	98.736616 
3437.000000	98.734282 
3436.000000	98.732095 
3435.000000	98.730045 
3434.000000	98.728125 
3433.000000	98.726471 
3432.000000	98.725150 
3431.000000	98.723858 
3430.000000	98.722131 
3429.000000	98.719869 
3428.000000	98.717439 
3427.000000	98.715231 
3426.000000	98.713378 
3425.000000	98.711951 
3424.000000	98.711079 
3423.000000	98.710654 
3422.000000	98.710128 
3421.000000	98.708871 
3420.000000	98.706719 
3419.000000	98.704122 
3418.000000	98.701872 
3417.000000	98.700629 
3416.000000	98.700409 
3415.000000	98.700356 
3414.000000	98.699328 
3413.000000	98.697005 
3412.000000	98.694262 
3411.000000	98.692268 
3410.000000	98.691403 
3409.000000	98.691166 
3408.000000	98.690757 
3407.000000	98.689507 
3406.000000	98.687181 
3405.000000	98.684432 
3404.000000	98.682688 
3403.000000	98.682939 
3402.000000	98.684666 
3401.000000	98.686275 
3400.000000	98.686721 
3399.000000	98.686230 
3398.000000	98.685419 
3397.000000	98.684375 
3396.000000	98.682874 
3395.000000	98.681095 
3394.000000	98.679695 
3393.000000	98.679303 
3392.000000	98.680122 
3391.000000	98.681840 
3390.000000	98.683728 
3389.000000	98.685033 
3388.000000	98.685558 
3387.000000	98.685806 
3386.000000	98.686423 
3385.000000	98.687542 
3384.000000	98.688727 
3383.000000	98.689444 
3382.000000	98.689495 
3381.000000	98.689156 
3380.000000	98.689056 
3379.000000	98.689785 
3378.000000	98.691401 
3377.000000	98.693353 
3376.000000	98.694964 
3375.000000	98.695950 
3374.000000	98.696447 
3373.000000	98.696709 
3372.000000	98.696981 
3371.000000	98.697521 
3370.000000	98.698448 
3369.000000	98.699509 
3368.000000	98.700200 
3367.000000	98.700247 
3366.000000	98.699882 
3365.000000	98.699634 
3364.000000	98.699907 
3363.000000	98.700814 
3362.000000	98.702295 
3361.000000	98.704196 
3360.000000	98.706247 
3359.000000	98.708119 
3358.000000	98.709620 
3357.000000	98.710792 
3356.000000	98.711790 
3355.000000	98.712702 
3354.000000	98.713513 
3353.000000	98.714227 
3352.000000	98.714929 
3351.000000	98.715728 
3350.000000	98.716673 
3349.000000	98.717752 
3348.000000	98.718935 
3347.000000	98.720192 
3346.000000	98.721480 
3345.000000	98.722732 
3344.000000	98.723893 
3343.000000	98.724969 
3342.000000	98.726028 
3341.000000	98.727159 
3340.000000	98.728406 
3339.000000	98.729744 
3338.000000	98.731067 
3337.000000	98.732265 
3336.000000	98.733312 
3335.000000	98.734280 
3334.000000	98.735294 
3333.000000	98.736400 
3332.000000	98.737546 
3331.000000	98.738669 
3330.000000	98.739790 
3329.000000	98.740988 
3328.000000	98.742294 
3327.000000	98.743632 
3326.000000	98.744907 
3325.000000	98.746099 
3324.000000	98.747264 
3323.000000	98.748445 
3322.000000	98.749634 
3321.000000	98.750824 
3320.000000	98.752056 
3319.000000	98.753392 
3318.000000	98.754841 
3317.000000	98.756315 
3316.000000	98.757670 
3315.000000	98.758803 
3314.000000	98.759763 
3313.000000	98.760773 
3312.000000	98.762048 
3311.000000	98.763596 
3310.000000	98.765212 
3309.000000	98.766698 
3308.000000	98.768066 
3307.000000	98.769421 
3306.000000	98.770715 
3305.000000	98.771743 
3304.000000	98.772382 
3303.000000	98.772757 
3302.000000	98.773146 
3301.000000	98.773803 
3300.000000	98.774862 
3299.000000	98.776319 
3298.000000	98.778028 
3297.000000	98.779782 
3296.000000	98.781480 
3295.000000	98.783187 
3294.000000	98.784951 
3293.000000	98.786667 
3292.000000	98.788233 
3291.000000	98.789767 
3290.000000	98.791531 
3289.000000	98.793592 
3288.000000	98.795640 
3287.000000	98.797198 
3286.000000	98.798030 
3285.000000	98.798288 
3284.000000	98.798389 
3283.000000	98.798770 
3282.000000	98.799709 
3281.000000	98.801289 
3280.000000	98.803436 
3279.000000	98.805960 
3278.000000	98.808592 
3277.000000	98.810990 
3276.000000	98.812803 
3275.000000	98.813876 
3274.000000	98.814438 
3273.000000	98.815069 
3272.000000	98.816301 
3271.000000	98.818248 
3270.000000	98.820604 
3269.000000	98.822895 
3268.000000	98.824759 
3267.000000	98.826025 
3266.000000	98.826721 
3265.000000	98.827100 
3264.000000	98.827551 
3263.000000	98.828330 
3262.000000	98.829385 
3261.000000	98.830517 
3260.000000	98.831699 
3259.000000	98.833130 
3258.000000	98.834919 
3257.000000	98.836834 
3256.000000	98.838504 
3255.000000	98.839824 
3254.000000	98.841038 
3253.000000	98.842401 
3252.000000	98.843856 
3251.000000	98.845129 
3250.000000	98.846116 
3249.000000	98.847068 
3248.000000	98.848376 
3247.000000	98.850253 
3246.000000	98.852621 
3245.000000	98.855246 
3244.000000	98.857930 
3243.000000	98.860514 
3242.000000	98.862733 
3241.000000	98.864186 
3240.000000	98.864637 
3239.000000	98.864460 
3238.000000	98.864617 
3237.000000	98.865888 
3236.000000	98.868138 
3235.000000	98.870460 
3234.000000	98.872150 
3233.000000	98.873408 
3232.000000	98.874917 
3231.000000	98.876885 
3230.000000	98.878744 
3229.000000	98.879816 
3228.000000	98.880042 
3227.000000	98.879986 
3226.000000	98.880284 
3225.000000	98.881201 
3224.000000	98.882624 
3223.000000	98.884318 
3222.000000	98.886164 
3221.000000	98.888185 
3220.000000	98.890426 
3219.000000	98.892855 
3218.000000	98.895385 
3217.000000	98.897908 
3216.000000	98.900297 
3215.000000	98.902459 
3214.000000	98.904444 
3213.000000	98.906476 
3212.000000	98.908784 
3211.000000	98.911404 
3210.000000	98.914144 
3209.000000	98.916663 
3208.000000	98.918583 
3207.000000	98.919667 
3206.000000	98.920079 
3205.000000	98.920475 
3204.000000	98.921610 
3203.000000	98.923797 
3202.000000	98.926848 
3201.000000	98.930430 
3200.000000	98.934314 
3199.000000	98.938165 
3198.000000	98.941364 
3197.000000	98.943386 
3196.000000	98.944367 
3195.000000	98.945163 
3194.000000	98.946641 
3193.000000	98.948921 
3192.000000	98.951418 
3191.000000	98.953489 
3190.000000	98.954970 
3189.000000	98.956146 
3188.000000	98.957404 
3187.000000	98.958965 
3186.000000	98.960845 
3185.000000	98.962943 
3184.000000	98.965118 
3183.000000	98.967249 
3182.000000	98.969268 
3181.000000	98.971155 
3180.000000	98.972935 
3179.000000	98.974685 
3178.000000	98.976507 
3177.000000	98.978409 
3176.000000	98.980246 
3175.000000	98.981857 
3174.000000	98.983308 
3173.000000	98.984929 
3172.000000	98.987049 
3171.000000	98.989712 
3170.000000	98.992627 
3169.000000	98.995340 
3168.000000	98.997488 
3167.000000	98.998955 
3166.000000	98.999907 
3165.000000	99.000728 
3164.000000	99.001809 
3163.000000	99.003316 
3162.000000	99.005153 
3161.000000	99.007051 
3160.000000	99.008750 
3159.000000	99.010197 
3158.000000	99.011606 
3157.000000	99.013257 
3156.000000	99.015165 
3155.000000	99.017029 
3154.000000	99.018581 
3153.000000	99.019882 
3152.000000	99.021167 
3151.000000	99.022499 
3150.000000	99.023768 
3149.000000	99.025016 
3148.000000	99.026530 
3147.000000	99.028533 
3146.000000	99.030977 
3145.000000	99.033697 
3144.000000	99.036545 
3143.000000	99.039282 
3142.000000	99.041520 
3141.000000	99.042981 
3140.000000	99.043747 
3139.000000	99.044233 
3138.000000	99.044945 
3137.000000	99.046220 
3136.000000	99.048120 
3135.000000	99.050412 
3134.000000	99.052679 
3133.000000	99.054610 
3132.000000	99.056157 
3131.000000	99.057442 
3130.000000	99.058639 
3129.000000	99.059989 
3128.000000	99.061783 
3127.000000	99.064169 
3126.000000	99.067006 
3125.000000	99.069922 
3124.000000	99.072511 
3123.000000	99.074492 
3122.000000	99.075815 
3121.000000	99.076739 
3120.000000	99.077693 
3119.000000	99.078908 
3118.000000	99.080269 
3117.000000	99.081605 
3116.000000	99.082972 
3115.000000	99.084531 
3114.000000	99.086275 
3113.000000	99.088012 
3112.000000	99.089546 
3111.000000	99.090780 
3110.000000	99.091757 
3109.000000	99.092717 
3108.000000	99.094012 
3107.000000	99.095760 
3106.000000	99.097644 
3105.000000	99.099189 
3104.000000	99.100244 
3103.000000	99.101067 
3102.000000	99.101975 
3101.000000	99.103003 
3100.000000	99.103922 
3099.000000	99.104515 
3098.000000	99.104867 
3097.000000	99.105431 
3096.000000	99.106705 
3095.000000	99.108747 
3094.000000	99.111017 
3093.000000	99.112832 
3092.000000	99.113988 
3091.000000	99.114807 
3090.000000	99.115729 
3089.000000	99.116967 
3088.000000	99.118465 
3087.000000	99.120033 
3086.000000	99.121447 
3085.000000	99.122584 
3084.000000	99.123541 
3083.000000	99.124542 
3082.000000	99.125699 
3081.000000	99.126899 
3080.000000	99.127977 
3079.000000	99.128930 
3078.000000	99.129944 
3077.000000	99.131229 
3076.000000	99.132781 
3075.000000	99.134270 
3074.000000	99.135263 
3073.000000	99.135640 
3072.000000	99.135741 
3071.000000	99.135989 
3070.000000	99.136463 
3069.000000	99.137042 
3068.000000	99.137816 
3067.000000	99.138999 
3066.000000	99.140396 
3065.000000	99.141374 
3064.000000	99.141666 
3063.000000	99.141885 
3062.000000	99.142900 
3061.000000	99.144801 
3060.000000	99.146772 
3059.000000	99.147998 
3058.000000	99.148586 
3057.000000	99.149492 
3056.000000	99.151520 
3055.000000	99.154355 
3054.000000	99.156635 
3053.000000	99.157313 
3052.000000	99.156929 
3051.000000	99.157257 
3050.000000	99.159443 
3049.000000	99.162702 
3048.000000	99.165093 
3047.000000	99.165596 
3046.000000	99.165105 
3045.000000	99.165345 
3044.000000	99.167121 
3043.000000	99.169897 
3042.000000	99.172805 
3041.000000	99.175582 
3040.000000	99.178399 
3039.000000	99.181189 
3038.000000	99.183641 
3037.000000	99.185761 
3036.000000	99.187981 
3035.000000	99.190563 
3034.000000	99.193250 
3033.000000	99.195665 
3032.000000	99.197808 
3031.000000	99.199917 
3030.000000	99.202103 
3029.000000	99.204442 
3028.000000	99.207271 
3027.000000	99.211001 
3026.000000	99.215608 
3025.000000	99.220525 
3024.000000	99.225044 
3023.000000	99.228763 
3022.000000	99.231807 
3021.000000	99.234926 
3020.000000	99.239198 
3019.000000	99.245133 
3018.000000	99.251832 
3017.000000	99.257274 
3016.000000	99.259811 
3015.000000	99.259464 
3014.000000	99.258060 
3013.000000	99.258181 
3012.000000	99.261614 
3011.000000	99.268380 
3010.000000	99.276742 
3009.000000	99.284433 
3008.000000	99.290373 
3007.000000	99.295301 
3006.000000	99.300800 
3005.000000	99.307665 
3004.000000	99.315025 
3003.000000	99.321027 
3002.000000	99.324515 
3001.000000	99.326158 
3000.000000	99.327867 
2999.000000	99.330993 
2998.000000	99.335351 
2997.000000	99.340069 
2996.000000	99.344873 
2995.000000	99.350082 
2994.000000	99.355699 
2993.000000	99.361238 
2992.000000	99.366448 
2991.000000	99.371628 
2990.000000	99.377102 
2989.000000	99.382764 
2988.000000	99.388142 
2987.000000	99.392518 
2986.000000	99.395080 
2985.000000	99.395546 
2984.000000	99.394770 
2983.000000	99.394292 
2982.000000	99.395065 
2981.000000	99.396904 
2980.000000	99.399159 
2979.000000	99.401454 
2978.000000	99.403793 
2977.000000	99.406484 
2976.000000	99.410082 
2975.000000	99.414813 
2974.000000	99.419801 
2973.000000	99.423407 
2972.000000	99.424636 
2971.000000	99.423861 
2970.000000	99.422176 
2969.000000	99.420551 
2968.000000	99.419581 
2967.000000	99.419355 
2966.000000	99.419339 
2965.000000	99.418895 
2964.000000	99.418181 
2963.000000	99.418041 
2962.000000	99.418824 
2961.000000	99.419792 
2960.000000	99.419976 
2959.000000	99.419125 
2958.000000	99.417567 
2957.000000	99.415641 
2956.000000	99.413560 
2955.000000	99.411338 
2954.000000	99.408638 
2953.000000	99.405298 
2952.000000	99.402268 
2951.000000	99.401285 
2950.000000	99.403007 
2949.000000	99.405906 
2948.000000	99.407574 
2947.000000	99.406915 
2946.000000	99.404767 
2945.000000	99.402793 
2944.000000	99.402283 
2943.000000	99.403673 
2942.000000	99.406658 
2941.000000	99.410902 
2940.000000	99.416747 
2939.000000	99.424606 
2938.000000	99.433378 
2937.000000	99.440452 
2936.000000	99.444292 
2935.000000	99.446490 
2934.000000	99.450183 
2933.000000	99.456687 
2932.000000	99.464547 
2931.000000	99.471733 
2930.000000	99.477698 
2929.000000	99.483206 
2928.000000	99.489162 
2927.000000	99.495973 
2926.000000	99.503279 
2925.000000	99.509836 
2924.000000	99.514206 
2923.000000	99.515955 
2922.000000	99.515729 
2921.000000	99.513957 
2920.000000	99.510132 
2919.000000	99.503885 
2918.000000	99.496311 
2917.000000	99.489463 
2916.000000	99.484498 
2915.000000	99.480854 
2914.000000	99.477422 
2913.000000	99.473969 
2912.000000	99.471083 
2911.000000	99.469000 
2910.000000	99.467129 
2909.000000	99.464828 
2908.000000	99.462174 
2907.000000	99.459630 
2906.000000	99.457357 
2905.000000	99.455429 
2904.000000	99.454542 
2903.000000	99.455607 
2902.000000	99.458253 
2901.000000	99.460273 
2900.000000	99.459192 
2899.000000	99.454404 
2898.000000	99.447491 
2897.000000	99.440763 
2896.000000	99.435706 
2895.000000	99.432533 
2894.000000	99.430584 
2893.000000	99.428910 
2892.000000	99.426813 
2891.000000	99.424258 
2890.000000	99.421903 
2889.000000	99.420656 
2888.000000	99.420951 
2887.000000	99.422162 
2886.000000	99.422754 
2885.000000	99.421430 
2884.000000	99.418270 
2883.000000	99.414457 
2882.000000	99.410865 
2881.000000	99.407390 
2880.000000	99.403922 
2879.000000	99.401362 
2878.000000	99.400919 
2877.000000	99.402565 
2876.000000	99.404825 
2875.000000	99.406241 
2874.000000	99.406607 
2873.000000	99.406459 
2872.000000	99.405917 
2871.000000	99.404619 
2870.000000	99.402557 
2869.000000	99.400272 
2868.000000	99.398126 
2867.000000	99.395781 
2866.000000	99.392685 
2865.000000	99.388958 
2864.000000	99.385679 
2863.000000	99.384185 
2862.000000	99.384874 
2861.000000	99.386589 
2860.000000	99.387540 
2859.000000	99.387201 
2858.000000	99.387020 
2857.000000	99.388776 
2856.000000	99.392276 
2855.000000	99.395189 
2854.000000	99.395147 
2853.000000	99.391495 
2852.000000	99.385138 
2851.000000	99.377554 
2850.000000	99.370234 
2849.000000	99.364428 
2848.000000	99.360662 
2847.000000	99.358444 
2846.000000	99.356716 
2845.000000	99.354565 
2844.000000	99.351467 
2843.000000	99.347259 
2842.000000	99.342330 
2841.000000	99.337548 
2840.000000	99.333472 
2839.000000	99.329808 
2838.000000	99.326166 
2837.000000	99.323215 
2836.000000	99.322322 
2835.000000	99.323772 
2834.000000	99.325885 
2833.000000	99.326326 
2832.000000	99.324234 
2831.000000	99.320807 
2830.000000	99.318067 
2829.000000	99.317197 
2828.000000	99.317808 
2827.000000	99.318517 
2826.000000	99.318248 
2825.000000	99.317046 
2824.000000	99.315560 
2823.000000	99.314024 
2822.000000	99.312191 
2821.000000	99.310130 
2820.000000	99.308472 
2819.000000	99.307652 
2818.000000	99.307476 
2817.000000	99.307621 
2816.000000	99.307965 
2815.000000	99.308150 
2814.000000	99.307496 
2813.000000	99.305890 
2812.000000	99.304260 
2811.000000	99.303568 
2810.000000	99.303707 
2809.000000	99.304024 
2808.000000	99.304509 
2807.000000	99.305653 
2806.000000	99.307323 
2805.000000	99.308618 
2804.000000	99.308928 
2803.000000	99.308448 
2802.000000	99.307628 
2801.000000	99.306757 
2800.000000	99.306154 
2799.000000	99.306099 
2798.000000	99.306369 
2797.000000	99.306383 
2796.000000	99.306013 
2795.000000	99.305778 
2794.000000	99.306039 
2793.000000	99.306404 
2792.000000	99.306215 
2791.000000	99.305344 
2790.000000	99.304315 
2789.000000	99.303786 
2788.000000	99.303985 
2787.000000	99.304652 
2786.000000	99.305296 
2785.000000	99.305572 
2784.000000	99.305538 
2783.000000	99.305501 
2782.000000	99.305633 
2781.000000	99.305812 
2780.000000	99.305865 
2779.000000	99.305808 
2778.000000	99.305794 
2777.000000	99.305912 
2776.000000	99.306126 
2775.000000	99.306347 
2774.000000	99.306511 
2773.000000	99.306634 
2772.000000	99.306810 
2771.000000	99.307112 
2770.000000	99.307499 
2769.000000	99.307860 
2768.000000	99.308133 
2767.000000	99.308346 
2766.000000	99.308551 
2765.000000	99.308774 
2764.000000	99.309009 
2763.000000	99.309251 
2762.000000	99.309508 
2761.000000	99.309786 
2760.000000	99.310083 
2759.000000	99.310392 
2758.000000	99.310710 
2757.000000	99.311036 
2756.000000	99.311373 
2755.000000	99.311719 
2754.000000	99.312072 
2753.000000	99.312422 
2752.000000	99.312764 
2751.000000	99.313100 
2750.000000	99.313440 
2749.000000	99.313789 
2748.000000	99.314147 
2747.000000	99.314508 
2746.000000	99.314868 
2745.000000	99.315220 
2744.000000	99.315563 
2743.000000	99.315896 
2742.000000	99.316225 
2741.000000	99.316556 
2740.000000	99.316891 
2739.000000	99.317227 
2738.000000	99.317561 
2737.000000	99.317884 
2736.000000	99.318192 
2735.000000	99.318479 
2734.000000	99.318753 
2733.000000	99.319033 
2732.000000	99.319336 
2731.000000	99.319662 
2730.000000	99.319987 
2729.000000	99.320285 
2728.000000	99.320528 
2727.000000	99.320706 
2726.000000	99.320867 
2725.000000	99.321111 
2724.000000	99.321491 
2723.000000	99.321918 
2722.000000	99.322234 
2721.000000	99.322390 
2720.000000	99.322482 
2719.000000	99.322607 
2718.000000	99.322778 
2717.000000	99.322957 
2716.000000	99.323073 
2715.000000	99.323043 
2714.000000	99.322870 
2713.000000	99.322702 
2712.000000	99.322694 
2711.000000	99.322856 
2710.000000	99.323144 
2709.000000	99.323612 
2708.000000	99.324305 
2707.000000	99.325035 
2706.000000	99.325506 
2705.000000	99.325627 
2704.000000	99.325502 
2703.000000	99.325230 
2702.000000	99.324977 
2701.000000	99.325035 
2700.000000	99.325390 
2699.000000	99.325422 
2698.000000	99.324511 
2697.000000	99.322840 
2696.000000	99.321104 
2695.000000	99.319519 
2694.000000	99.317778 
2693.000000	99.316064 
2692.000000	99.315319 
2691.000000	99.316156 
2690.000000	99.318033 
2689.000000	99.319882 
2688.000000	99.321211 
2687.000000	99.322125 
2686.000000	99.322669 
2685.000000	99.322700 
2684.000000	99.322145 
2683.000000	99.320921 
2682.000000	99.318724 
2681.000000	99.315493 
2680.000000	99.312151 
2679.000000	99.310340 
2678.000000	99.311030 
2677.000000	99.313528 
2676.000000	99.315955 
2675.000000	99.316870 
2674.000000	99.316360 
2673.000000	99.315575 
2672.000000	99.315384 
2671.000000	99.315619 
2670.000000	99.315573 
2669.000000	99.314820 
2668.000000	99.313249 
2667.000000	99.310593 
2666.000000	99.306499 
2665.000000	99.301231 
2664.000000	99.295958 
2663.000000	99.292026 
2662.000000	99.289925 
2661.000000	99.288992 
2660.000000	99.288006 
2659.000000	99.286205 
2658.000000	99.283920 
2657.000000	99.282221 
2656.000000	99.281844 
2655.000000	99.282484 
2654.000000	99.283163 
2653.000000	99.283067 
2652.000000	99.281905 
2651.000000	99.279829 
2650.000000	99.277472 
2649.000000	99.275740 
2648.000000	99.274929 
2647.000000	99.274233 
2646.000000	99.272834 
2645.000000	99.271365 
2644.000000	99.271311 
2643.000000	99.272804 
2642.000000	99.273911 
2641.000000	99.272633 
2640.000000	99.269006 
2639.000000	99.264801 
2638.000000	99.261715 
2637.000000	99.260305 
2636.000000	99.260277 
2635.000000	99.260959 
2634.000000	99.261751 
2633.000000	99.262657 
2632.000000	99.264126 
2631.000000	99.266111 
2630.000000	99.267794 
2629.000000	99.268565 
2628.000000	99.268683 
2627.000000	99.268550 
2626.000000	99.267932 
2625.000000	99.266561 
2624.000000	99.264944 
2623.000000	99.263817 
2622.000000	99.263159 
2621.000000	99.262618 
2620.000000	99.262574 
2619.000000	99.263753 
2618.000000	99.265961 
2617.000000	99.268135 
2616.000000	99.269664 
2615.000000	99.270799 
2614.000000	99.271628 
2613.000000	99.271657 
2612.000000	99.270695 
2611.000000	99.269403 
2610.000000	99.268571 
2609.000000	99.268399 
2608.000000	99.268824 
2607.000000	99.269853 
2606.000000	99.271208 
2605.000000	99.272187 
2604.000000	99.272370 
2603.000000	99.272089 
2602.000000	99.271884 
2601.000000	99.271817 
2600.000000	99.271625 
2599.000000	99.271254 
2598.000000	99.270954 
2597.000000	99.271050 
2596.000000	99.271846 
2595.000000	99.273435 
2594.000000	99.275348 
2593.000000	99.276758 
2592.000000	99.277315 
2591.000000	99.277417 
2590.000000	99.277498 
2589.000000	99.277364 
2588.000000	99.276680 
2587.000000	99.275819 
2586.000000	99.275623 
2585.000000	99.276392 
2584.000000	99.277680 
2583.000000	99.279010 
2582.000000	99.280352 
2581.000000	99.281856 
2580.000000	99.283538 
2579.000000	99.285240 
2578.000000	99.286572 
2577.000000	99.287050 
2576.000000	99.286712 
2575.000000	99.286410 
2574.000000	99.286912 
2573.000000	99.287792 
2572.000000	99.287875 
2571.000000	99.286793 
2570.000000	99.285550 
2569.000000	99.285370 
2568.000000	99.286365 
2567.000000	99.287592 
2566.000000	99.288046 
2565.000000	99.287450 
2564.000000	99.286295 
2563.000000	99.285362 
2562.000000	99.285047 
2561.000000	99.285095 
2560.000000	99.285081 
2559.000000	99.285058 
2558.000000	99.285420 
2557.000000	99.286263 
2556.000000	99.287258 
2555.000000	99.288130 
2554.000000	99.288943 
2553.000000	99.289913 
2552.000000	99.291227 
2551.000000	99.293036 
2550.000000	99.295229 
2549.000000	99.297138 
2548.000000	99.297925 
2547.000000	99.297428 
2546.000000	99.296384 
2545.000000	99.295655 
2544.000000	99.295393 
2543.000000	99.295161 
2542.000000	99.294611 
2541.000000	99.293842 
2540.000000	99.293238 
2539.000000	99.293167 
2538.000000	99.293752 
2537.000000	99.294742 
2536.000000	99.295600 
2535.000000	99.295854 
2534.000000	99.295399 
2533.000000	99.294482 
2532.000000	99.293462 
2531.000000	99.292658 
2530.000000	99.292417 
2529.000000	99.293174 
2528.000000	99.295233 
2527.000000	99.298287 
2526.000000	99.301209 
2525.000000	99.302767 
2524.000000	99.302773 
2523.000000	99.302302 
2522.000000	99.302511 
2521.000000	99.303179 
2520.000000	99.302979 
2519.000000	99.301173 
2518.000000	99.298534 
2517.000000	99.296592 
2516.000000	99.296134 
2515.000000	99.296705 
2514.000000	99.297218 
2513.000000	99.296812 
2512.000000	99.295328 
2511.000000	99.293345 
2510.000000	99.291854 
2509.000000	99.291601 
2508.000000	99.292563 
2507.000000	99.293969 
2506.000000	99.294888 
2505.000000	99.294815 
2504.000000	99.293879 
2503.000000	99.292734 
2502.000000	99.292243 
2501.000000	99.292974 
2500.000000	99.294880 
2499.000000	99.297364 
2498.000000	99.299596 
2497.000000	99.300900 
2496.000000	99.301024 
2495.000000	99.300346 
2494.000000	99.299808 
2493.000000	99.300221 
2492.000000	99.301517 
2491.000000	99.302840 
2490.000000	99.303477 
2489.000000	99.303452 
2488.000000	99.303200 
2487.000000	99.302917 
2486.000000	99.302480 
2485.000000	99.301832 
2484.000000	99.301117 
2483.000000	99.300497 
2482.000000	99.300032 
2481.000000	99.299741 
2480.000000	99.299611 
2479.000000	99.299563 
2478.000000	99.299485 
2477.000000	99.299300 
2476.000000	99.299002 
2475.000000	99.298709 
2474.000000	99.298691 
2473.000000	99.299172 
2472.000000	99.300028 
2471.000000	99.300843 
2470.000000	99.301343 
2469.000000	99.301646 
2468.000000	99.301974 
2467.000000	99.302314 
2466.000000	99.302509 
2465.000000	99.302536 
2464.000000	99.302511 
2463.000000	99.302524 
2462.000000	99.302589 
2461.000000	99.302734 
2460.000000	99.302991 
2459.000000	99.303322 
2458.000000	99.303655 
2457.000000	99.303944 
2456.000000	99.304193 
2455.000000	99.304421 
2454.000000	99.304656 
2453.000000	99.304932 
2452.000000	99.305270 
2451.000000	99.305671 
2450.000000	99.306087 
2449.000000	99.306458 
2448.000000	99.306775 
2447.000000	99.307106 
2446.000000	99.307528 
2445.000000	99.308025 
2444.000000	99.308504 
2443.000000	99.308925 
2442.000000	99.309340 
2441.000000	99.309783 
2440.000000	99.310252 
2439.000000	99.310773 
2438.000000	99.311367 
2437.000000	99.311976 
2436.000000	99.312582 
2435.000000	99.313319 
2434.000000	99.314279 
2433.000000	99.315293 
2432.000000	99.316117 
2431.000000	99.316778 
2430.000000	99.317494 
2429.000000	99.318338 
2428.000000	99.319209 
2427.000000	99.320045 
2426.000000	99.320869 
2425.000000	99.321681 
2424.000000	99.322525 
2423.000000	99.323546 
2422.000000	99.324750 
2421.000000	99.325841 
2420.000000	99.326633 
2419.000000	99.327505 
2418.000000	99.329078 
2417.000000	99.331390 
2416.000000	99.333694 
2415.000000	99.335279 
2414.000000	99.336053 
2413.000000	99.336268 
2412.000000	99.336105 
2411.000000	99.335727 
2410.000000	99.335470 
2409.000000	99.335648 
2408.000000	99.336283 
2407.000000	99.337250 
2406.000000	99.338523 
2405.000000	99.340027 
2404.000000	99.341458 
2403.000000	99.342491 
2402.000000	99.343118 
2401.000000	99.343655 
2400.000000	99.344458 
2399.000000	99.345751 
2398.000000	99.347623 
2397.000000	99.349961 
2396.000000	99.352318 
2395.000000	99.353989 
2394.000000	99.354456 
2393.000000	99.353843 
2392.000000	99.353045 
2391.000000	99.353122 
2390.000000	99.354374 
2389.000000	99.356093 
2388.000000	99.357254 
2387.000000	99.357468 
2386.000000	99.357105 
2385.000000	99.356780 
2384.000000	99.357027 
2383.000000	99.358346 
2382.000000	99.360992 
2381.000000	99.364474 
2380.000000	99.367627 
2379.000000	99.369561 
2378.000000	99.370300 
2377.000000	99.370380 
2376.000000	99.370216 
2375.000000	99.370157 
2374.000000	99.370751 
2373.000000	99.372220 
2372.000000	99.373911 
2371.000000	99.374924 
2370.000000	99.375104 
2369.000000	99.374809 
2368.000000	99.374093 
2367.000000	99.373013 
2366.000000	99.372376 
2365.000000	99.372816 
2364.000000	99.373092 
2363.000000	99.370780 
2362.000000	99.365569 
2361.000000	99.360737 
2360.000000	99.359550 
2359.000000	99.361734 
2358.000000	99.364383 
2357.000000	99.365557 
2356.000000	99.365736 
2355.000000	99.365949 
2354.000000	99.366699 
2353.000000	99.367499 
2352.000000	99.367438 
2351.000000	99.366104 
2350.000000	99.363564 
2349.000000	99.360483 
2348.000000	99.357483 
2347.000000	99.355216 
2346.000000	99.353714 
2345.000000	99.352151 
2344.000000	99.350391 
2343.000000	99.348728 
2342.000000	99.347315 
2341.000000	99.345249 
2340.000000	99.341794 
2339.000000	99.337779 
2338.000000	99.335020 
2337.000000	99.334398 
2336.000000	99.334428 
2335.000000	99.332751 
2334.000000	99.328874 
2333.000000	99.324733 
2332.000000	99.322415 
2331.000000	99.322284 
2330.000000	99.322409 
2329.000000	99.320281 
2328.000000	99.312999 
2327.000000	99.299071 
2326.000000	99.280108 
2325.000000	99.261375 
2324.000000	99.249354 
2323.000000	99.246883 
2322.000000	99.252102 
2321.000000	99.260303 
2320.000000	99.268047 
2319.000000	99.274501 
2318.000000	99.279974 
2317.000000	99.285009 
2316.000000	99.290117 
2315.000000	99.295648 
2314.000000	99.300509 
2313.000000	99.302772 
2312.000000	99.301346 
2311.000000	99.297362 
2310.000000	99.292844 
2309.000000	99.288899 
2308.000000	99.285453 
2307.000000	99.282551 
2306.000000	99.280820 
2305.000000	99.280418 
2304.000000	99.280319 
2303.000000	99.279109 
2302.000000	99.276269 
2301.000000	99.272410 
2300.000000	99.268522 
2299.000000	99.265648 
2298.000000	99.264644 
2297.000000	99.265445 
2296.000000	99.266057 
2295.000000	99.263547 
2294.000000	99.256852 
2293.000000	99.248454 
2292.000000	99.242339 
2291.000000	99.240073 
2290.000000	99.239510 
2289.000000	99.237214 
2288.000000	99.232003 
2287.000000	99.226073 
2286.000000	99.223268 
2285.000000	99.226106 
2284.000000	99.233775 
2283.000000	99.242449 
2282.000000	99.248310 
2281.000000	99.250597 
2280.000000	99.251632 
2279.000000	99.254048 
2278.000000	99.258583 
2277.000000	99.264274 
2276.000000	99.269638 
2275.000000	99.273436 
2274.000000	99.275179 
2273.000000	99.275644 
2272.000000	99.276315 
2271.000000	99.277739 
2270.000000	99.278997 
2269.000000	99.279400 
2268.000000	99.280044 
2267.000000	99.282745 
2266.000000	99.287685 
2265.000000	99.292987 
2264.000000	99.296672 
2263.000000	99.298351 
2262.000000	99.298809 
2261.000000	99.298602 
2260.000000	99.297674 
2259.000000	99.296254 
2258.000000	99.295660 
2257.000000	99.297641 
2256.000000	99.302693 
2255.000000	99.309135 
2254.000000	99.314186 
2253.000000	99.316441 
2252.000000	99.316835 
2251.000000	99.317330 
2250.000000	99.318851 
2249.000000	99.320731 
2248.000000	99.321983 
2247.000000	99.322521 
2246.000000	99.323078 
2245.000000	99.324269 
2244.000000	99.325956 
2243.000000	99.327584 
2242.000000	99.328809 
2241.000000	99.329728 
2240.000000	99.330721 
2239.000000	99.332069 
2238.000000	99.333671 
2237.000000	99.335211 
2236.000000	99.336484 
2235.000000	99.337497 
2234.000000	99.338323 
2233.000000	99.339033 
2232.000000	99.339748 
2231.000000	99.340618 
2230.000000	99.341702 
2229.000000	99.342969 
2228.000000	99.344391 
2227.000000	99.345883 
2226.000000	99.347181 
2225.000000	99.348010 
2224.000000	99.348317 
2223.000000	99.348213 
2222.000000	99.347917 
2221.000000	99.347869 
2220.000000	99.348601 
2219.000000	99.350104 
2218.000000	99.351530 
2217.000000	99.352042 
2216.000000	99.351820 
2215.000000	99.351841 
2214.000000	99.352695 
2213.000000	99.354163 
2212.000000	99.355897 
2211.000000	99.357867 
2210.000000	99.359968 
2209.000000	99.361663 
2208.000000	99.362246 
2207.000000	99.361463 
2206.000000	99.359661 
2205.000000	99.357392 
2204.000000	99.355237 
2203.000000	99.353694 
2202.000000	99.352958 
2201.000000	99.353468 
2200.000000	99.356183 
2199.000000	99.360857 
2198.000000	99.364704 
2197.000000	99.364555 
2196.000000	99.360796 
2195.000000	99.357968 
2194.000000	99.359955 
2193.000000	99.365796 
2192.000000	99.371605 
2191.000000	99.375453 
2190.000000	99.378311 
2189.000000	99.381217 
2188.000000	99.383904 
2187.000000	99.385966 
2186.000000	99.387615 
2185.000000	99.389493 
2184.000000	99.392996 
2183.000000	99.400006 
2182.000000	99.410325 
2181.000000	99.419764 
2180.000000	99.423356 
2179.000000	99.421149 
2178.000000	99.418956 
2177.000000	99.422414 
2176.000000	99.431235 
2175.000000	99.440029 
2174.000000	99.443702 
2173.000000	99.440617 
2172.000000	99.431412 
2171.000000	99.417443 
2170.000000	99.401686 
2169.000000	99.389514 
2168.000000	99.385869 
2167.000000	99.391114 
2166.000000	99.400510 
2165.000000	99.408138 
2164.000000	99.411354 
2163.000000	99.412348 
2162.000000	99.417362 
2161.000000	99.434366 
2160.000000	99.467825 
2159.000000	99.512182 
2158.000000	99.552124 
2157.000000	99.574673 
2156.000000	99.579671 
2155.000000	99.576492 
2154.000000	99.573217 
2153.000000	99.570433 
2152.000000	99.563666 
2151.000000	99.549298 
2150.000000	99.528777 
2149.000000	99.509078 
2148.000000	99.498249 
2147.000000	99.498873 
2146.000000	99.506545 
2145.000000	99.515498 
2144.000000	99.524176 
2143.000000	99.533216 
2142.000000	99.539910 
2141.000000	99.539087 
2140.000000	99.529958 
2139.000000	99.518569 
2138.000000	99.511999 
2137.000000	99.512225 
2136.000000	99.516674 
2135.000000	99.522041 
2134.000000	99.525482 
2133.000000	99.524244 
2132.000000	99.517315 
2131.000000	99.507206 
2130.000000	99.498075 
2129.000000	99.491668 
2128.000000	99.486366 
2127.000000	99.480495 
2126.000000	99.475201 
2125.000000	99.472991 
2124.000000	99.473940 
2123.000000	99.474697 
2122.000000	99.471770 
2121.000000	99.465118 
2120.000000	99.457556 
2119.000000	99.450716 
2118.000000	99.442896 
2117.000000	99.431801 
2116.000000	99.418647 
2115.000000	99.408168 
2114.000000	99.404163 
2113.000000	99.405499 
2112.000000	99.407356 
2111.000000	99.405896 
2110.000000	99.401485 
2109.000000	99.398114 
2108.000000	99.399569 
2107.000000	99.405625 
2106.000000	99.411708 
2105.000000	99.412715 
2104.000000	99.407674 
2103.000000	99.400426 
2102.000000	99.395933 
2101.000000	99.396341 
2100.000000	99.400322 
2099.000000	99.405103 
2098.000000	99.408683 
2097.000000	99.410797 
2096.000000	99.412658 
2095.000000	99.415849 
2094.000000	99.420785 
2093.000000	99.425777 
2092.000000	99.427856 
2091.000000	99.425200 
2090.000000	99.419065 
2089.000000	99.413041 
2088.000000	99.409729 
2087.000000	99.408500 
2086.000000	99.407215 
2085.000000	99.405568 
2084.000000	99.405580 
2083.000000	99.408738 
2082.000000	99.413835 
2081.000000	99.417990 
2080.000000	99.419039 
2079.000000	99.416616 
2078.000000	99.412035 
2077.000000	99.407744 
2076.000000	99.405671 
2075.000000	99.405555 
2074.000000	99.405889 
2073.000000	99.406898 
2072.000000	99.411016 
2071.000000	99.419324 
2070.000000	99.429076 
2069.000000	99.436309 
2068.000000	99.440207 
2067.000000	99.443041 
2066.000000	99.446567 
2065.000000	99.450278 
2064.000000	99.453116 
2063.000000	99.454981 
2062.000000	99.456069 
2061.000000	99.456110 
2060.000000	99.454933 
2059.000000	99.453030 
2058.000000	99.451335 
2057.000000	99.451049 
2056.000000	99.453409 
2055.000000	99.458448 
2054.000000	99.463820 
2053.000000	99.466228 
2052.000000	99.464672 
2051.000000	99.461436 
2050.000000	99.459706 
2049.000000	99.461047 
2048.000000	99.465427 
2047.000000	99.472368 
2046.000000	99.481072 
2045.000000	99.489996 
2044.000000	99.497387 
2043.000000	99.502200 
2042.000000	99.504311 
2041.000000	99.504452 
2040.000000	99.503912 
2039.000000	99.503355 
2038.000000	99.502057 
2037.000000	99.499513 
2036.000000	99.497656 
2035.000000	99.499620 
2034.000000	99.505845 
2033.000000	99.512950 
2032.000000	99.517531 
2031.000000	99.519735 
2030.000000	99.521605 
2029.000000	99.523340 
2028.000000	99.523152 
2027.000000	99.520613 
2026.000000	99.518512 
2025.000000	99.520718 
2024.000000	99.528651 
2023.000000	99.539839 
2022.000000	99.549369 
2021.000000	99.553409 
2020.000000	99.551568 
2019.000000	99.546293 
2018.000000	99.540555 
2017.000000	99.536087 
2016.000000	99.533034 
2015.000000	99.530071 
2014.000000	99.525094 
2013.000000	99.517140 
2012.000000	99.508081 
2011.000000	99.501671 
2010.000000	99.500652 
2009.000000	99.505211 
2008.000000	99.513572 
2007.000000	99.522909 
2006.000000	99.529825 
2005.000000	99.531655 
2004.000000	99.528259 
2003.000000	99.522069 
2002.000000	99.516204 
2001.000000	99.512732 
2000.000000	99.512342 
1999.000000	99.514535 
1998.000000	99.517770 
1997.000000	99.520212 
1996.000000	99.520774 
1995.000000	99.519146 
1994.000000	99.515258 
1993.000000	99.509764 
1992.000000	99.504674 
1991.000000	99.501801 
1990.000000	99.500736 
1989.000000	99.500055 
1988.000000	99.500119 
1987.000000	99.502552 
1986.000000	99.506662 
1985.000000	99.508511 
1984.000000	99.504728 
1983.000000	99.495986 
1982.000000	99.486285 
1981.000000	99.480245 
1980.000000	99.481352 
1979.000000	99.490679 
1978.000000	99.505098 
1977.000000	99.518335 
1976.000000	99.526843 
1975.000000	99.532782 
1974.000000	99.539581 
1973.000000	99.546762 
1972.000000	99.550877 
1971.000000	99.550048 
1970.000000	99.545644 
1969.000000	99.540476 
1968.000000	99.536729 
1967.000000	99.535000 
1966.000000	99.534433 
1965.000000	99.534428 
1964.000000	99.536447 
1963.000000	99.542649 
1962.000000	99.552163 
1961.000000	99.560550 
1960.000000	99.564462 
1959.000000	99.564985 
1958.000000	99.564842 
1957.000000	99.564096 
1956.000000	99.560826 
1955.000000	99.555066 
1954.000000	99.549928 
1953.000000	99.548694 
1952.000000	99.551716 
1951.000000	99.556107 
1950.000000	99.557739 
1949.000000	99.554014 
1948.000000	99.545630 
1947.000000	99.535941 
1946.000000	99.528272 
1945.000000	99.523916 
1944.000000	99.522549 
1943.000000	99.523331 
1942.000000	99.524933 
1941.000000	99.525736 
1940.000000	99.525421 
1939.000000	99.525687 
1938.000000	99.528375 
1937.000000	99.533015 
1936.000000	99.536704 
1935.000000	99.536713 
1934.000000	99.532743 
1933.000000	99.526946 
1932.000000	99.522187 
1931.000000	99.519835 
1930.000000	99.519048 
1929.000000	99.517950 
1928.000000	99.515644 
1927.000000	99.512982 
1926.000000	99.511206 
1925.000000	99.510136 
1924.000000	99.508174 
1923.000000	99.504128 
1922.000000	99.498500 
1921.000000	99.492820 
1920.000000	99.488203 
1919.000000	99.484998 
1918.000000	99.483286 
1917.000000	99.482829 
1916.000000	99.482690 
1915.000000	99.481548 
1914.000000	99.478543 
1913.000000	99.473905 
1912.000000	99.468989 
1911.000000	99.465322 
1910.000000	99.463342 
1909.000000	99.462157 
1908.000000	99.460566 
1907.000000	99.458219 
1906.000000	99.455560 
1905.000000	99.452917 
1904.000000	99.450089 
1903.000000	99.446833 
1902.000000	99.443398 
1901.000000	99.440299 
1900.000000	99.437744 
1899.000000	99.435687 
1898.000000	99.434352 
1897.000000	99.434183 
1896.000000	99.435052 
1895.000000	99.435855 
1894.000000	99.435304 
1893.000000	99.433032 
1892.000000	99.429598 
1891.000000	99.425705 
1890.000000	99.421909 
1889.000000	99.418790 
1888.000000	99.416633 
1887.000000	99.415023 
1886.000000	99.413378 
1885.000000	99.411937 
1884.000000	99.411789 
1883.000000	99.413665 
1882.000000	99.416914 
1881.000000	99.419944 
1880.000000	99.421546 
1879.000000	99.421657 
1878.000000	99.421030 
1877.000000	99.420330 
1876.000000	99.419422 
1875.000000	99.417650 
1874.000000	99.414985 
1873.000000	99.412556 
1872.000000	99.411550 
1871.000000	99.411859 
1870.000000	99.412580 
1869.000000	99.413687 
1868.000000	99.415948 
1867.000000	99.419212 
1866.000000	99.422272 
1865.000000	99.424240 
1864.000000	99.424859 
1863.000000	99.423690 
1862.000000	99.420362 
1861.000000	99.416301 
1860.000000	99.414908 
1859.000000	99.418712 
1858.000000	99.427115 
1857.000000	99.437139 
1856.000000	99.445873 
1855.000000	99.451741 
1854.000000	99.454052 
1853.000000	99.453240 
1852.000000	99.451523 
1851.000000	99.451534 
1850.000000	99.453891 
1849.000000	99.457057 
1848.000000	99.459590 
1847.000000	99.461608 
1846.000000	99.463777 
1845.000000	99.465979 
1844.000000	99.467582 
1843.000000	99.468402 
1842.000000	99.468796 
1841.000000	99.469097 
1840.000000	99.469226 
1839.000000	99.468789 
1838.000000	99.467687 
1837.000000	99.466699 
1836.000000	99.467018 
1835.000000	99.468762 
1834.000000	99.470523 
1833.000000	99.470953 
1832.000000	99.470284 
1831.000000	99.469942 
1830.000000	99.470904 
1829.000000	99.472659 
1828.000000	99.474014 
1827.000000	99.474062 
1826.000000	99.472309 
1825.000000	99.469396 
1824.000000	99.467186 
1823.000000	99.466769 
1822.000000	99.467315 
1821.000000	99.467815 
1820.000000	99.469075 
1819.000000	99.472643 
1818.000000	99.477971 
1817.000000	99.482218 
1816.000000	99.483568 
1815.000000	99.483048 
1814.000000	99.482218 
1813.000000	99.481052 
1812.000000	99.479047 
1811.000000	99.476844 
1810.000000	99.475311 
1809.000000	99.474125 
1808.000000	99.472759 
1807.000000	99.471817 
1806.000000	99.471992 
1805.000000	99.472402 
1804.000000	99.471201 
1803.000000	99.467713 
1802.000000	99.463329 
1801.000000	99.460328 
1800.000000	99.459841 
1799.000000	99.461236 
1798.000000	99.463116 
1797.000000	99.464619 
1796.000000	99.466079 
1795.000000	99.468305 
1794.000000	99.471036 
1793.000000	99.472823 
1792.000000	99.473004 
1791.000000	99.472734 
1790.000000	99.473205 
1789.000000	99.474246 
1788.000000	99.475084 
1787.000000	99.475385 
1786.000000	99.475497 
1785.000000	99.476227 
1784.000000	99.478476 
1783.000000	99.482601 
1782.000000	99.487827 
1781.000000	99.492569 
1780.000000	99.495704 
1779.000000	99.497645 
1778.000000	99.499612 
1777.000000	99.502268 
1776.000000	99.505428 
1775.000000	99.508301 
1774.000000	99.509771 
1773.000000	99.509467 
1772.000000	99.508840 
1771.000000	99.509774 
1770.000000	99.512467 
1769.000000	99.515887 
1768.000000	99.519504 
1767.000000	99.523415 
1766.000000	99.527202 
1765.000000	99.529984 
1764.000000	99.531396 
1763.000000	99.532005 
1762.000000	99.532812 
1761.000000	99.534147 
1760.000000	99.535708 
1759.000000	99.537505 
1758.000000	99.539585 
1757.000000	99.541763 
1756.000000	99.544156 
1755.000000	99.547185 
1754.000000	99.550603 
1753.000000	99.552682 
1752.000000	99.551379 
1751.000000	99.547206 
1750.000000	99.543866 
1749.000000	99.544180 
1748.000000	99.547396 
1747.000000	99.550907 
1746.000000	99.552940 
1745.000000	99.553480 
1744.000000	99.553379 
1743.000000	99.553300 
1742.000000	99.553369 
1741.000000	99.553436 
1740.000000	99.553329 
1739.000000	99.552878 
1738.000000	99.551943 
1737.000000	99.550771 
1736.000000	99.549758 
1735.000000	99.549161 
1734.000000	99.549139 
1733.000000	99.548752 
1732.000000	99.546897 
1731.000000	99.543780 
1730.000000	99.540254 
1729.000000	99.537314 
1728.000000	99.535847 
1727.000000	99.536124 
1726.000000	99.537466 
1725.000000	99.538482 
1724.000000	99.537994 
1723.000000	99.535946 
1722.000000	99.533219 
1721.000000	99.530671 
1720.000000	99.528388 
1719.000000	99.525644 
1718.000000	99.521705 
1717.000000	99.516928 
1716.000000	99.512899 
1715.000000	99.510855 
1714.000000	99.510535 
1713.000000	99.510709 
1712.000000	99.510422 
1711.000000	99.509598 
1710.000000	99.508383 
1709.000000	99.506578 
1708.000000	99.504053 
1707.000000	99.501285 
1706.000000	99.498975 
1705.000000	99.497022 
1704.000000	99.494578 
1703.000000	99.491269 
1702.000000	99.487151 
1701.000000	99.482678 
1700.000000	99.479178 
1699.000000	99.476982 
1698.000000	99.475108 
1697.000000	99.472693 
1696.000000	99.469407 
1695.000000	99.465714 
1694.000000	99.462365 
1693.000000	99.459555 
1692.000000	99.457060 
1691.000000	99.454534 
1690.000000	99.451701 
1689.000000	99.448622 
1688.000000	99.445719 
1687.000000	99.443389 
1686.000000	99.441542 
1685.000000	99.439477 
1684.000000	99.436788 
1683.000000	99.433923 
1682.000000	99.431302 
1681.000000	99.428787 
1680.000000	99.426199 
1679.000000	99.423670 
1678.000000	99.421330 
1677.000000	99.418751 
1676.000000	99.415165 
1675.000000	99.410787 
1674.000000	99.407062 
1673.000000	99.404913 
1672.000000	99.403894 
1671.000000	99.402763 
1670.000000	99.400630 
1669.000000	99.397913 
1668.000000	99.395682 
1667.000000	99.394068 
1666.000000	99.392202 
1665.000000	99.389309 
1664.000000	99.385597 
1663.000000	99.382396 
1662.000000	99.380450 
1661.000000	99.378771 
1660.000000	99.376393 
1659.000000	99.373650 
1658.000000	99.371260 
1657.000000	99.369300 
1656.000000	99.367406 
1655.000000	99.364633 
1654.000000	99.361200 
1653.000000	99.359849 
1652.000000	99.359987 
1651.000000	99.358778 
1650.000000	99.355088 
1649.000000	99.348946 
1648.000000	99.341803 
1647.000000	99.336600 
1646.000000	99.334909 
1645.000000	99.335649 
1644.000000	99.337681 
1643.000000	99.340599 
1642.000000	99.343553 
1641.000000	99.345287 
1640.000000	99.345296 
1639.000000	99.344211 
1638.000000	99.342763 
1637.000000	99.341258 
1636.000000	99.340446 
1635.000000	99.340467 
1634.000000	99.339992 
1633.000000	99.338463 
1632.000000	99.337371 
1631.000000	99.338610 
1630.000000	99.342168 
1629.000000	99.345897 
1628.000000	99.347978 
1627.000000	99.348670 
1626.000000	99.348908 
1625.000000	99.348773 
1624.000000	99.348507 
1623.000000	99.349535 
1622.000000	99.352461 
1621.000000	99.355955 
1620.000000	99.358915 
1619.000000	99.361785 
1618.000000	99.365726 
1617.000000	99.371612 
1616.000000	99.379546 
1615.000000	99.388832 
1614.000000	99.398189 
1613.000000	99.406119 
1612.000000	99.411684 
1611.000000	99.415253 
1610.000000	99.418335 
1609.000000	99.422363 
1608.000000	99.427549 
1607.000000	99.432731 
1606.000000	99.436435 
1605.000000	99.438777 
1604.000000	99.441993 
1603.000000	99.448275 
1602.000000	99.457071 
1601.000000	99.465594 
1600.000000	99.472166 
1599.000000	99.477687 
1598.000000	99.483752 
1597.000000	99.490604 
1596.000000	99.497318 
1595.000000	99.502983 
1594.000000	99.507106 
1593.000000	99.509728 
1592.000000	99.511712 
1591.000000	99.514311 
1590.000000	99.517884 
1589.000000	99.521632 
1588.000000	99.525085 
1587.000000	99.529093 
1586.000000	99.534419 
1585.000000	99.540008 
1584.000000	99.543835 
1583.000000	99.545174 
1582.000000	99.545313 
1581.000000	99.545855 
1580.000000	99.546884 
1579.000000	99.547334 
1578.000000	99.546829 
1577.000000	99.546817 
1576.000000	99.549168 
1575.000000	99.553033 
1574.000000	99.556062 
1573.000000	99.557898 
1572.000000	99.559495 
1571.000000	99.560814 
1570.000000	99.560833 
1569.000000	99.559469 
1568.000000	99.558343 
1567.000000	99.558564 
1566.000000	99.559311 
1565.000000	99.559283 
1564.000000	99.558521 
1563.000000	99.558164 
1562.000000	99.558992 
1561.000000	99.558770 
1560.000000	99.553019 
1559.000000	99.544083 
1558.000000	99.537540 
1557.000000	99.534765 
1556.000000	99.534684 
1555.000000	99.535345 
1554.000000	99.534686 
1553.000000	99.531788 
1552.000000	99.526822 
1551.000000	99.519968 
1550.000000	99.512381 
1549.000000	99.507092 
1548.000000	99.506400 
1547.000000	99.508309 
1546.000000	99.506931 
1545.000000	99.497752 
1544.000000	99.482556 
1543.000000	99.466799 
1542.000000	99.453047 
1541.000000	99.440048 
1540.000000	99.426931 
1539.000000	99.415079 
1538.000000	99.406014 
1537.000000	99.399254 
1536.000000	99.393418 
1535.000000	99.386460 
1534.000000	99.375997 
1533.000000	99.362324 
1532.000000	99.348656 
1531.000000	99.337265 
1530.000000	99.327621 
1529.000000	99.317868 
1528.000000	99.306778 
1527.000000	99.294190 
1526.000000	99.280750 
1525.000000	99.268110 
1524.000000	99.258071 
1523.000000	99.250215 
1522.000000	99.241011 
1521.000000	99.227978 
1520.000000	99.213793 
1519.000000	99.201567 
1518.000000	99.190235 
1517.000000	99.177188 
1516.000000	99.162409 
1515.000000	99.147940 
1514.000000	99.134229 
1513.000000	99.119917 
1512.000000	99.104264 
1511.000000	99.088118 
1510.000000	99.072219 
1509.000000	99.055801 
1508.000000	99.037821 
1507.000000	99.019435 
1506.000000	99.002369 
1505.000000	98.988057 
1504.000000	98.977365 
1503.000000	98.968980 
1502.000000	98.959846 
1501.000000	98.947226 
1500.000000	98.930989 
1499.000000	98.913191 
1498.000000	98.894974 
1497.000000	98.875718 
1496.000000	98.856294 
1495.000000	98.839786 
1494.000000	98.827389 
1493.000000	98.817110 
1492.000000	98.805778 
1491.000000	98.791148 
1490.000000	98.773751 
1489.000000	98.756269 
1488.000000	98.740439 
1487.000000	98.725974 
1486.000000	98.711854 
1485.000000	98.697736 
1484.000000	98.683986 
1483.000000	98.670214 
1482.000000	98.655464 
1481.000000	98.640246 
1480.000000	98.626411 
1479.000000	98.613886 
1478.000000	98.599711 
1477.000000	98.581961 
1476.000000	98.563103 
1475.000000	98.546642 
1474.000000	98.531895 
1473.000000	98.516401 
1472.000000	98.501714 
1471.000000	98.491108 
1470.000000	98.483875 
1469.000000	98.476719 
1468.000000	98.467063 
1467.000000	98.453554 
1466.000000	98.436027 
1465.000000	98.417567 
1464.000000	98.404085 
1463.000000	98.397786 
1462.000000	98.394829 
1461.000000	98.390418 
1460.000000	98.383149 
1459.000000	98.373822 
1458.000000	98.361800 
1457.000000	98.346378 
1456.000000	98.331691 
1455.000000	98.322254 
1454.000000	98.317349 
1453.000000	98.313967 
1452.000000	98.310159 
1451.000000	98.305248 
1450.000000	98.298507 
1449.000000	98.289153 
1448.000000	98.278320 
1447.000000	98.269304 
1446.000000	98.264280 
1445.000000	98.262887 
1444.000000	98.263133 
1443.000000	98.262394 
1442.000000	98.259233 
1441.000000	98.255410 
1440.000000	98.254669 
1439.000000	98.258105 
1438.000000	98.261507 
1437.000000	98.259644 
1436.000000	98.254213 
1435.000000	98.251107 
1434.000000	98.252524 
1433.000000	98.257512 
1432.000000	98.265123 
1431.000000	98.274471 
1430.000000	98.283972 
1429.000000	98.292450 
1428.000000	98.300377 
1427.000000	98.308697 
1426.000000	98.317162 
1425.000000	98.325662 
1424.000000	98.335788 
1423.000000	98.348745 
1422.000000	98.363347 
1421.000000	98.377511 
1420.000000	98.390390 
1419.000000	98.403752 
1418.000000	98.419703 
1417.000000	98.438212 
1416.000000	98.459033 
1415.000000	98.481832 
1414.000000	98.504896 
1413.000000	98.526280 
1412.000000	98.545809 
1411.000000	98.564747 
1410.000000	98.583881 
1409.000000	98.602687 
1408.000000	98.620121 
1407.000000	98.635765 
1406.000000	98.650162 
1405.000000	98.664660 
1404.000000	98.680580 
1403.000000	98.698137 
1402.000000	98.716477 
1401.000000	98.734019 
1400.000000	98.748987 
1399.000000	98.761325 
1398.000000	98.774032 
1397.000000	98.791301 
1396.000000	98.815359 
1395.000000	98.844375 
1394.000000	98.872885 
1393.000000	98.896591 
1392.000000	98.915903 
1391.000000	98.933944 
1390.000000	98.953379 
1389.000000	98.974938 
1388.000000	98.997370 
1387.000000	99.018648 
1386.000000	99.037829 
1385.000000	99.055865 
1384.000000	99.074185 
1383.000000	99.092789 
1382.000000	99.110288 
1381.000000	99.125343 
1380.000000	99.137755 
1379.000000	99.148395 
1378.000000	99.158342 
1377.000000	99.168094 
1376.000000	99.177691 
1375.000000	99.187471 
1374.000000	99.198086 
1373.000000	99.209520 
1372.000000	99.220962 
1371.000000	99.231876 
1370.000000	99.242033 
1369.000000	99.251320 
1368.000000	99.260490 
1367.000000	99.271545 
1366.000000	99.286064 
1365.000000	99.302669 
1364.000000	99.317123 
1363.000000	99.326076 
1362.000000	99.330264 
1361.000000	99.332717 
1360.000000	99.335296 
1359.000000	99.338927 
1358.000000	99.345255 
1357.000000	99.355641 
1356.000000	99.368966 
1355.000000	99.382085 
1354.000000	99.392659 
1353.000000	99.400528 
1352.000000	99.406534 
1351.000000	99.411645 
1350.000000	99.416884 
1349.000000	99.423014 
1348.000000	99.429935 
1347.000000	99.437095 
1346.000000	99.444381 
1345.000000	99.451951 
1344.000000	99.459498 
1343.000000	99.466370 
1342.000000	99.472011 
1341.000000	99.475728 
1340.000000	99.476914 
1339.000000	99.476529 
1338.000000	99.477503 
1337.000000	99.482193 
1336.000000	99.489909 
1335.000000	99.497906 
1334.000000	99.504228 
1333.000000	99.508654 
1332.000000	99.511420 
1331.000000	99.512767 
1330.000000	99.513952 
1329.000000	99.517104 
1328.000000	99.522981 
1327.000000	99.529689 
1326.000000	99.534506 
1325.000000	99.536764 
1324.000000	99.538126 
1323.000000	99.540134 
1322.000000	99.542280 
1321.000000	99.542901 
1320.000000	99.541597 
1319.000000	99.540140 
1318.000000	99.540737 
1317.000000	99.543822 
1316.000000	99.548161 
1315.000000	99.552536 
1314.000000	99.556291 
1313.000000	99.558457 
1312.000000	99.557877 
1311.000000	99.555002 
1310.000000	99.552560 
1309.000000	99.553250 
1308.000000	99.557065 
1307.000000	99.561605 
1306.000000	99.564545 
1305.000000	99.565038 
1304.000000	99.563283 
1303.000000	99.560183 
1302.000000	99.557464 
1301.000000	99.556785 
1300.000000	99.558152 
1299.000000	99.559936 
1298.000000	99.560767 
1297.000000	99.560706 
1296.000000	99.560424 
1295.000000	99.560136 
1294.000000	99.559886 
1293.000000	99.560001 
1292.000000	99.560387 
1291.000000	99.559905 
1290.000000	99.557366 
1289.000000	99.552944 
1288.000000	99.547896 
1287.000000	99.543051 
1286.000000	99.538478 
1285.000000	99.534651 
1284.000000	99.532842 
1283.000000	99.533773 
1282.000000	99.536582 
1281.000000	99.539752 
1280.000000	99.542528 
1279.000000	99.544793 
1278.000000	99.546218 
1277.000000	99.546553 
1276.000000	99.546408 
1275.000000	99.546630 
1274.000000	99.546946 
1273.000000	99.546354 
1272.000000	99.545046 
1271.000000	99.544932 
1270.000000	99.547773 
1269.000000	99.553426 
1268.000000	99.560080 
1267.000000	99.565377 
1266.000000	99.567371 
1265.000000	99.565668 
1264.000000	99.562024 
1263.000000	99.558967 
1262.000000	99.557649 
1261.000000	99.557854 
1260.000000	99.559759 
1259.000000	99.563773 
1258.000000	99.568397 
1257.000000	99.570419 
1256.000000	99.568305 
1255.000000	99.563952 
1254.000000	99.560348 
1253.000000	99.558983 
1252.000000	99.560208 
1251.000000	99.563749 
1250.000000	99.567232 
1249.000000	99.566564 
1248.000000	99.560318 
1247.000000	99.552339 
1246.000000	99.547697 
1245.000000	99.547064 
1244.000000	99.547202 
1243.000000	99.545567 
1242.000000	99.541857 
1241.000000	99.536228 
1240.000000	99.529107 
1239.000000	99.522352 
1238.000000	99.517664 
1237.000000	99.513888 
1236.000000	99.508335 
1235.000000	99.500618 
1234.000000	99.492779 
1233.000000	99.485761 
1232.000000	99.478211 
1231.000000	99.468693 
1230.000000	99.456574 
1229.000000	99.440630 
1228.000000	99.419337 
1227.000000	99.393016 
1226.000000	99.363441 
1225.000000	99.330839 
1224.000000	99.293369 
1223.000000	99.249936 
1222.000000	99.201489 
1221.000000	99.149113 
1220.000000	99.092834 
1219.000000	99.032656 
1218.000000	98.968965 
1217.000000	98.901718 
1216.000000	98.830912 
1215.000000	98.757616 
1214.000000	98.682699 
1213.000000	98.605111 
1212.000000	98.523599 
1211.000000	98.439388 
1210.000000	98.354812 
1209.000000	98.270043 
1208.000000	98.183898 
1207.000000	98.097067 
1206.000000	98.011414 
1205.000000	97.926435 
1204.000000	97.839574 
1203.000000	97.750326 
1202.000000	97.661636 
1201.000000	97.576590 
1200.000000	97.495238 
1199.000000	97.414933 
1198.000000	97.332535 
1197.000000	97.246360 
1196.000000	97.156993 
1195.000000	97.066274 
1194.000000	96.975334 
1193.000000	96.884259 
1192.000000	96.793217 
1191.000000	96.702103 
1190.000000	96.609316 
1189.000000	96.513252 
1188.000000	96.414936 
1187.000000	96.316332 
1186.000000	96.216197 
1185.000000	96.111471 
1184.000000	96.003151 
1183.000000	95.896218 
1182.000000	95.792263 
1181.000000	95.686559 
1180.000000	95.574485 
1179.000000	95.456685 
1178.000000	95.335746 
1177.000000	95.211979 
1176.000000	95.084880 
1175.000000	94.954677 
1174.000000	94.820010 
1173.000000	94.678489 
1172.000000	94.532254 
1171.000000	94.388601 
1170.000000	94.252214 
1169.000000	94.121013 
1168.000000	93.992274 
1167.000000	93.868304 
1166.000000	93.754175 
1165.000000	93.656085 
1164.000000	93.585052 
1163.000000	93.554999 
1162.000000	93.571001 
1161.000000	93.622050 
1160.000000	93.687589 
1159.000000	93.747253 
1158.000000	93.783735 
1157.000000	93.784522 
1156.000000	93.747147 
1155.000000	93.679711 
1154.000000	93.592432 
1153.000000	93.491160 
1152.000000	93.380906 
1151.000000	93.269616 
1150.000000	93.163268 
1149.000000	93.061297 
1148.000000	92.961061 
1147.000000	92.862477 
1146.000000	92.764569 
1145.000000	92.662999 
1144.000000	92.556242 
1143.000000	92.449915 
1142.000000	92.350021 
1141.000000	92.255572 
1140.000000	92.161919 
1139.000000	92.066853 
1138.000000	91.969243 
1137.000000	91.866600 
1136.000000	91.759052 
1135.000000	91.651672 
1134.000000	91.548228 
1133.000000	91.446353 
1132.000000	91.342861 
1131.000000	91.239315 
1130.000000	91.138065 
1129.000000	91.037191 
1128.000000	90.933730 
1127.000000	90.827775 
1126.000000	90.719596 
1125.000000	90.607264 
1124.000000	90.491134 
1123.000000	90.376171 
1122.000000	90.265944 
1121.000000	90.158712 
1120.000000	90.052519 
1119.000000	89.948498 
1118.000000	89.845748 
1117.000000	89.739700 
1116.000000	89.629984 
1115.000000	89.523682 
1114.000000	89.426200 
1113.000000	89.334903 
1112.000000	89.245629 
1111.000000	89.158435 
1110.000000	89.072911 
1109.000000	88.985638 
1108.000000	88.896736 
1107.000000	88.811436 
1106.000000	88.730763 
1105.000000	88.647920 
1104.000000	88.558059 
1103.000000	88.464525 
1102.000000	88.371769 
1101.000000	88.279965 
1100.000000	88.190012 
1099.000000	88.105346 
1098.000000	88.024621 
1097.000000	87.941139 
1096.000000	87.853939 
1095.000000	87.771250 
1094.000000	87.698970 
1093.000000	87.634081 
1092.000000	87.573039 
1091.000000	87.517609 
1090.000000	87.468470 
1089.000000	87.422360 
1088.000000	87.379707 
1087.000000	87.345941 
1086.000000	87.321055 
1085.000000	87.296844 
1084.000000	87.268305 
1083.000000	87.238869 
1082.000000	87.211160 
1081.000000	87.182098 
1080.000000	87.150484 
1079.000000	87.119567 
1078.000000	87.088367 
1077.000000	87.049839 
1076.000000	87.000736 
1075.000000	86.943496 
1074.000000	86.875899 
1073.000000	86.789842 
1072.000000	86.683390 
1071.000000	86.563017 
1070.000000	86.430430 
1069.000000	86.278074 
1068.000000	86.101402 
1067.000000	85.904564 
1066.000000	85.690784 
1065.000000	85.459632 
1064.000000	85.218657 
1063.000000	84.984730 
1062.000000	84.767019 
1061.000000	84.559836 
1060.000000	84.357530 
1059.000000	84.163592 
1058.000000	83.979181 
1057.000000	83.795703 
1056.000000	83.606035 
1055.000000	83.412112 
1054.000000	83.215953 
1053.000000	83.015114 
1052.000000	82.812845 
1051.000000	82.619467 
1050.000000	82.436356 
1049.000000	82.252154 
1048.000000	82.060995 
1047.000000	81.869516 
1046.000000	81.681559 
1045.000000	81.492250 
1044.000000	81.300882 
1043.000000	81.113531 
1042.000000	80.928849 
1041.000000	80.737235 
1040.000000	80.539128 
1039.000000	80.348222 
1038.000000	80.170991 
1037.000000	79.999108 
1036.000000	79.827951 
1035.000000	79.666236 
1034.000000	79.520880 
1033.000000	79.388653 
1032.000000	79.269119 
1031.000000	79.169282 
1030.000000	79.088391 
1029.000000	79.014083 
1028.000000	78.940485 
1027.000000	78.874795 
1026.000000	78.819886 
1025.000000	78.766888 
1024.000000	78.711309 
1023.000000	78.660017 
1022.000000	78.615385 
1021.000000	78.568494 
1020.000000	78.514630 
1019.000000	78.459942 
1018.000000	78.406967 
1017.000000	78.349863 
1016.000000	78.289511 
1015.000000	78.236278 
1014.000000	78.191419 
1013.000000	78.142626 
1012.000000	78.084580 
1011.000000	78.027262 
1010.000000	77.977644 
1009.000000	77.930817 
1008.000000	77.886248 
1007.000000	77.854899 
1006.000000	77.841791 
1005.000000	77.837961 
1004.000000	77.837392 
1003.000000	77.845626 
1002.000000	77.864076 
1001.000000	77.883037 
1000.000000	77.899016 
999.000000	 77.922694 
998.000000	 77.960582 
997.000000	 78.004348 
996.000000	 78.046991 
995.000000	 78.094255 
994.000000	 78.150687 
993.000000	 78.209396 
992.000000	 78.265458 
991.000000	 78.325782 
990.000000	 78.395983 
989.000000	 78.470399 
988.000000	 78.544403 
987.000000	 78.624523 
986.000000	 78.717173 
985.000000	 78.818423 
984.000000	 78.922993 
983.000000	 79.033103 
982.000000	 79.151373 
981.000000	 79.275367 
980.000000	 79.405471 
979.000000	 79.547691 
978.000000	 79.702692 
977.000000	 79.862332 
976.000000	 80.022556 
975.000000	 80.189765 
974.000000	 80.369457 
973.000000	 80.558538 
972.000000	 80.753179 
971.000000	 80.954282 
970.000000	 81.160819 
969.000000	 81.367114 
968.000000	 81.570617 
967.000000	 81.774194 
966.000000	 81.978647 
965.000000	 82.181537 
964.000000	 82.384007 
963.000000	 82.589107 
962.000000	 82.793323 
961.000000	 82.990226 
960.000000	 83.182138 
959.000000	 83.376670 
958.000000	 83.572168 
957.000000	 83.759371 
956.000000	 83.938043 
955.000000	 84.118718 
954.000000	 84.306178 
953.000000	 84.493361 
952.000000	 84.673148 
951.000000	 84.844084 
950.000000	 85.003952 
949.000000	 85.150839 
948.000000	 85.291693 
947.000000	 85.436554 
946.000000	 85.582731 
945.000000	 85.717913 
944.000000	 85.839898 
943.000000	 85.959138 
942.000000	 86.080454 
941.000000	 86.197452 
940.000000	 86.307897 
939.000000	 86.419181 
938.000000	 86.534614 
937.000000	 86.649003 
936.000000	 86.762056 
935.000000	 86.881395 
934.000000	 87.007640 
933.000000	 87.131209 
932.000000	 87.248647 
931.000000	 87.367053 
930.000000	 87.487523 
929.000000	 87.600682 
928.000000	 87.705521 
927.000000	 87.815973 
926.000000	 87.939216 
925.000000	 88.062257 
924.000000	 88.170479 
923.000000	 88.266128 
922.000000	 88.358039 
921.000000	 88.446018 
920.000000	 88.527354 
919.000000	 88.607429 
918.000000	 88.691043 
917.000000	 88.772377 
916.000000	 88.845768 
915.000000	 88.918872 
914.000000	 89.004011 
913.000000	 89.103390 
912.000000	 89.212854 
911.000000	 89.332926 
910.000000	 89.466212 
909.000000	 89.611020 
908.000000	 89.767215 
907.000000	 89.941159 
906.000000	 90.134797 
905.000000	 90.336986 
904.000000	 90.536461 
903.000000	 90.737643 
902.000000	 90.952463 
901.000000	 91.180814 
900.000000	 91.409865 
899.000000	 91.630037 
898.000000	 91.841387 
897.000000	 92.045125 
896.000000	 92.238567 
895.000000	 92.420331 
894.000000	 92.593853 
893.000000	 92.763423 
892.000000	 92.930428 
891.000000	 93.093656 
890.000000	 93.249237 
889.000000	 93.390152 
888.000000	 93.509853 
887.000000	 93.607834 
886.000000	 93.689965 
885.000000	 93.762933 
884.000000	 93.829735 
883.000000	 93.889883 
882.000000	 93.941627 
881.000000	 93.984347 
880.000000	 94.021039 
879.000000	 94.059251 
878.000000	 94.109102 
877.000000	 94.179957 
876.000000	 94.277264 
875.000000	 94.400006 
874.000000	 94.542244 
873.000000	 94.700325 
872.000000	 94.877252 
871.000000	 95.076591 
870.000000	 95.293925 
869.000000	 95.517824 
868.000000	 95.736953 
867.000000	 95.943678 
866.000000	 96.135631 
865.000000	 96.317861 
864.000000	 96.498161 
863.000000	 96.675084 
862.000000	 96.836723 
861.000000	 96.978102 
860.000000	 97.112642 
859.000000	 97.256431 
858.000000	 97.406657 
857.000000	 97.547962 
856.000000	 97.675707 
855.000000	 97.798418 
854.000000	 97.919344 
853.000000	 98.031573 
852.000000	 98.132429 
851.000000	 98.226857 
850.000000	 98.314122 
849.000000	 98.387611 
848.000000	 98.452416 
847.000000	 98.525891 
846.000000	 98.612037 
845.000000	 98.690624 
844.000000	 98.742368 
843.000000	 98.771858 
842.000000	 98.795446 
841.000000	 98.819512 
840.000000	 98.842841 
839.000000	 98.867573 
838.000000	 98.892460 
837.000000	 98.905172 
836.000000	 98.896925 
835.000000	 98.877985 
834.000000	 98.865288 
833.000000	 98.862307 
832.000000	 98.865098 
831.000000	 98.878565 
830.000000	 98.907759 
829.000000	 98.939784 
828.000000	 98.956608 
827.000000	 98.964289 
826.000000	 98.987562 
825.000000	 99.034341 
824.000000	 99.087704 
823.000000	 99.133961 
822.000000	 99.173873 
821.000000	 99.204584 
820.000000	 99.216597 
819.000000	 99.212583 
818.000000	 99.206066 
817.000000	 99.195481 
816.000000	 99.158427 
815.000000	 99.078837 
814.000000	 98.962744 
813.000000	 98.817007 
812.000000	 98.627078 
811.000000	 98.368532 
810.000000	 98.030090 
809.000000	 97.614652 
808.000000	 97.128673 
807.000000	 96.583265 
806.000000	 95.998059 
805.000000	 95.392805 
804.000000	 94.780606 
803.000000	 94.176291 
802.000000	 93.604949 
801.000000	 93.096745 
800.000000	 92.677992 
799.000000	 92.367032 
798.000000	 92.169447 
797.000000	 92.073930 
796.000000	 92.057450 
795.000000	 92.096146 
794.000000	 92.171591 
793.000000	 92.270896 
792.000000	 92.383640 
791.000000	 92.496074 
790.000000	 92.587651 
789.000000	 92.637897 
788.000000	 92.637794 
787.000000	 92.589571 
786.000000	 92.495206 
785.000000	 92.352101 
784.000000	 92.161643 
783.000000	 91.934243 
782.000000	 91.684362 
781.000000	 91.431659 
780.000000	 91.210202 
779.000000	 91.060781 
778.000000	 91.003731 
777.000000	 91.029334 
776.000000	 91.120334 
775.000000	 91.268509 
774.000000	 91.461492 
773.000000	 91.672989 
772.000000	 91.881428 
771.000000	 92.084954 
770.000000	 92.284907 
769.000000	 92.469399 
768.000000	 92.629030 
767.000000	 92.774299 
766.000000	 92.917731 
765.000000	 93.050125 
764.000000	 93.155525 
763.000000	 93.240505 
762.000000	 93.326436 
761.000000	 93.421054 
760.000000	 93.521706 
759.000000	 93.638385 
758.000000	 93.783954 
757.000000	 93.943978 
756.000000	 94.086197 
755.000000	 94.202400 
754.000000	 94.313771 
753.000000	 94.432931 
752.000000	 94.550405 
751.000000	 94.662357 
750.000000	 94.778493 
749.000000	 94.893182 
748.000000	 94.982450 
747.000000	 95.045155 
746.000000	 95.115647 
745.000000	 95.216307 
744.000000	 95.328111 
743.000000	 95.430204 
742.000000	 95.536027 
741.000000	 95.662385 
740.000000	 95.794472 
739.000000	 95.915816 
738.000000	 96.045002 
737.000000	 96.202827 
736.000000	 96.364163 
735.000000	 96.485772 
734.000000	 96.566887 
733.000000	 96.638930 
732.000000	 96.707071 
731.000000	 96.748884 
730.000000	 96.764642 
729.000000	 96.781057 
728.000000	 96.805905 
727.000000	 96.827021 
726.000000	 96.858895 
725.000000	 96.938724 
724.000000	 97.065083 
723.000000	 97.189746 
722.000000	 97.285426 
721.000000	 97.374118 
720.000000	 97.470459 
719.000000	 97.549101 
718.000000	 97.597003 
717.000000	 97.644994 
716.000000	 97.712471 
715.000000	 97.770103 
714.000000	 97.797084 
713.000000	 97.830317 
712.000000	 97.909390 
711.000000	 98.010653 
710.000000	 98.087811 
709.000000	 98.142627 
708.000000	 98.201263 
707.000000	 98.252740 
706.000000	 98.271317 
705.000000	 98.274264 
704.000000	 98.289881 
703.000000	 98.283561 
702.000000	 98.185149 
701.000000	 97.981276 
700.000000	 97.717620 
699.000000	 97.419308 
698.000000	 97.080006 
697.000000	 96.733746 
696.000000	 96.461878 
695.000000	 96.307546 
694.000000	 96.248117 
693.000000	 96.268875 
692.000000	 96.394470 
691.000000	 96.619670 
690.000000	 96.876531 
689.000000	 97.109738 
688.000000	 97.327165 
687.000000	 97.535169 
686.000000	 97.694651 
685.000000	 97.792548 
684.000000	 97.884478 
683.000000	 98.009743 
682.000000	 98.125097 
681.000000	 98.179247 
680.000000	 98.201450 
679.000000	 98.253627 
678.000000	 98.337322 
677.000000	 98.415142 
676.000000	 98.488064 
675.000000	 98.579359 
674.000000	 98.672254 
673.000000	 98.735955 
672.000000	 98.796387 
671.000000	 98.909115 
670.000000	 99.077449 
669.000000	 99.228234 
668.000000	 99.271951 
667.000000	 99.228554 
666.000000	 99.188196 
665.000000	 99.177899 
664.000000	 99.205891 
663.000000	 99.296150 
662.000000	 99.425455 
661.000000	 99.518677 
660.000000	 99.537228 
659.000000	 99.523610 
658.000000	 99.532159 
657.000000	 99.565373 
656.000000	 99.601596 
655.000000	 99.633723 
654.000000	 99.647658 
653.000000	 99.615412 
652.000000	 99.544536 
651.000000	 99.494599 
650.000000	 99.507678 

