4000.000000	100.905965 
3999.000000	100.905589 
3998.000000	100.905544 
3997.000000	100.905689 
3996.000000	100.905784 
3995.000000	100.905710 
3994.000000	100.905512 
3993.000000	100.905279 
3992.000000	100.905053 
3991.000000	100.904832 
3990.000000	100.904609 
3989.000000	100.904386 
3988.000000	100.904191 
3987.000000	100.904020 
3986.000000	100.903750 
3985.000000	100.903205 
3984.000000	100.902374 
3983.000000	100.901508 
3982.000000	100.900918 
3981.000000	100.900690 
3980.000000	100.900661 
3979.000000	100.900627 
3978.000000	100.900519 
3977.000000	100.900368 
3976.000000	100.900192 
3975.000000	100.899949 
3974.000000	100.899565 
3973.000000	100.898986 
3972.000000	100.898245 
3971.000000	100.897446 
3970.000000	100.896707 
3969.000000	100.896066 
3968.000000	100.895535 
3967.000000	100.895242 
3966.000000	100.895286 
3965.000000	100.895547 
3964.000000	100.895733 
3963.000000	100.895610 
3962.000000	100.895154 
3961.000000	100.894505 
3960.000000	100.893842 
3959.000000	100.893281 
3958.000000	100.892860 
3957.000000	100.892525 
3956.000000	100.892176 
3955.000000	100.891734 
3954.000000	100.891185 
3953.000000	100.890573 
3952.000000	100.889981 
3951.000000	100.889486 
3950.000000	100.889109 
3949.000000	100.888789 
3948.000000	100.888453 
3947.000000	100.888067 
3946.000000	100.887618 
3945.000000	100.887090 
3944.000000	100.886508 
3943.000000	100.885979 
3942.000000	100.885608 
3941.000000	100.885377 
3940.000000	100.885162 
3939.000000	100.884860 
3938.000000	100.884469 
3937.000000	100.884045 
3936.000000	100.883633 
3935.000000	100.883254 
3934.000000	100.882916 
3933.000000	100.882623 
3932.000000	100.882384 
3931.000000	100.882221 
3930.000000	100.882128 
3929.000000	100.881986 
3928.000000	100.881625 
3927.000000	100.880988 
3926.000000	100.880192 
3925.000000	100.879462 
3924.000000	100.878917 
3923.000000	100.878528 
3922.000000	100.878209 
3921.000000	100.877863 
3920.000000	100.877430 
3919.000000	100.876892 
3918.000000	100.876279 
3917.000000	100.875653 
3916.000000	100.875069 
3915.000000	100.874553 
3914.000000	100.874120 
3913.000000	100.873769 
3912.000000	100.873466 
3911.000000	100.873151 
3910.000000	100.872776 
3909.000000	100.872330 
3908.000000	100.871818 
3907.000000	100.871268 
3906.000000	100.870713 
3905.000000	100.870193 
3904.000000	100.869732 
3903.000000	100.869319 
3902.000000	100.868927 
3901.000000	100.868534 
3900.000000	100.868120 
3899.000000	100.867670 
3898.000000	100.867160 
3897.000000	100.866577 
3896.000000	100.865955 
3895.000000	100.865353 
3894.000000	100.864810 
3893.000000	100.864319 
3892.000000	100.863879 
3891.000000	100.863506 
3890.000000	100.863164 
3889.000000	100.862771 
3888.000000	100.862276 
3887.000000	100.861713 
3886.000000	100.861140 
3885.000000	100.860560 
3884.000000	100.859973 
3883.000000	100.859486 
3882.000000	100.859217 
3881.000000	100.859079 
3880.000000	100.858821 
3879.000000	100.858370 
3878.000000	100.857881 
3877.000000	100.857506 
3876.000000	100.857211 
3875.000000	100.856908 
3874.000000	100.856553 
3873.000000	100.856068 
3872.000000	100.855350 
3871.000000	100.854560 
3870.000000	100.854084 
3869.000000	100.853911 
3868.000000	100.853703 
3867.000000	100.853504 
3866.000000	100.853721 
3865.000000	100.854413 
3864.000000	100.854932 
3863.000000	100.854749 
3862.000000	100.854122 
3861.000000	100.853279 
3860.000000	100.851962 
3859.000000	100.850114 
3858.000000	100.848322 
3857.000000	100.847357 
3856.000000	100.847451 
3855.000000	100.848550 
3854.000000	100.850630 
3853.000000	100.852775 
3852.000000	100.853651 
3851.000000	100.853148 
3850.000000	100.852234 
3849.000000	100.851546 
3848.000000	100.850973 
3847.000000	100.850093 
3846.000000	100.849013 
3845.000000	100.848217 
3844.000000	100.847870 
3843.000000	100.847912 
3842.000000	100.848419 
3841.000000	100.849280 
3840.000000	100.850264 
3839.000000	100.851174 
3838.000000	100.851884 
3837.000000	100.852545 
3836.000000	100.853134 
3835.000000	100.853274 
3834.000000	100.852571 
3833.000000	100.851028 
3832.000000	100.849268 
3831.000000	100.847980 
3830.000000	100.847269 
3829.000000	100.846827 
3828.000000	100.846307 
3827.000000	100.845716 
3826.000000	100.845489 
3825.000000	100.845734 
3824.000000	100.846000 
3823.000000	100.845804 
3822.000000	100.845226 
3821.000000	100.844865 
3820.000000	100.844864 
3819.000000	100.844973 
3818.000000	100.844987 
3817.000000	100.844590 
3816.000000	100.843156 
3815.000000	100.840158 
3814.000000	100.836141 
3813.000000	100.832712 
3812.000000	100.831057 
3811.000000	100.830837 
3810.000000	100.830921 
3809.000000	100.830745 
3808.000000	100.830737 
3807.000000	100.831369 
3806.000000	100.832254 
3805.000000	100.832552 
3804.000000	100.832095 
3803.000000	100.831120 
3802.000000	100.830066 
3801.000000	100.829331 
3800.000000	100.828822 
3799.000000	100.828641 
3798.000000	100.828936 
3797.000000	100.829147 
3796.000000	100.828347 
3795.000000	100.826308 
3794.000000	100.823893 
3793.000000	100.822121 
3792.000000	100.821185 
3791.000000	100.820538 
3790.000000	100.819893 
3789.000000	100.819558 
3788.000000	100.819584 
3787.000000	100.819380 
3786.000000	100.818473 
3785.000000	100.817293 
3784.000000	100.816777 
3783.000000	100.817246 
3782.000000	100.818224 
3781.000000	100.819081 
3780.000000	100.819568 
3779.000000	100.819759 
3778.000000	100.819766 
3777.000000	100.819596 
3776.000000	100.819224 
3775.000000	100.818705 
3774.000000	100.818067 
3773.000000	100.817229 
3772.000000	100.816151 
3771.000000	100.815246 
3770.000000	100.815266 
3769.000000	100.816424 
3768.000000	100.818126 
3767.000000	100.819674 
3766.000000	100.820633 
3765.000000	100.820938 
3764.000000	100.820673 
3763.000000	100.820110 
3762.000000	100.819847 
3761.000000	100.820136 
3760.000000	100.820298 
3759.000000	100.819098 
3758.000000	100.816680 
3757.000000	100.814542 
3756.000000	100.813160 
3755.000000	100.811970 
3754.000000	100.810940 
3753.000000	100.811132 
3752.000000	100.813050 
3751.000000	100.815750 
3750.000000	100.819107 
3749.000000	100.823765 
3748.000000	100.828331 
3747.000000	100.829637 
3746.000000	100.825649 
3745.000000	100.818957 
3744.000000	100.813787 
3743.000000	100.811239 
3742.000000	100.811478 
3741.000000	100.815031 
3740.000000	100.820303 
3739.000000	100.823164 
3738.000000	100.821061 
3737.000000	100.817247 
3736.000000	100.816901 
3735.000000	100.820776 
3734.000000	100.824952 
3733.000000	100.826365 
3732.000000	100.824871 
3731.000000	100.820507 
3730.000000	100.813037 
3729.000000	100.803293 
3728.000000	100.793141 
3727.000000	100.784691 
3726.000000	100.779065 
3725.000000	100.776129 
3724.000000	100.775239 
3723.000000	100.775693 
3722.000000	100.776663 
3721.000000	100.777115 
3720.000000	100.776577 
3719.000000	100.774323 
3718.000000	100.769542 
3717.000000	100.762660 
3716.000000	100.754885 
3715.000000	100.747461 
3714.000000	100.740721 
3713.000000	100.733940 
3712.000000	100.726640 
3711.000000	100.719442 
3710.000000	100.713544 
3709.000000	100.709392 
3708.000000	100.705956 
3707.000000	100.701418 
3706.000000	100.694019 
3705.000000	100.683131 
3704.000000	100.669919 
3703.000000	100.656589 
3702.000000	100.644854 
3701.000000	100.634597 
3700.000000	100.624403 
3699.000000	100.613098 
3698.000000	100.600285 
3697.000000	100.586226 
3696.000000	100.571249 
3695.000000	100.555938 
3694.000000	100.542374 
3693.000000	100.533528 
3692.000000	100.530870 
3691.000000	100.532855 
3690.000000	100.535625 
3689.000000	100.534867 
3688.000000	100.528041 
3687.000000	100.516165 
3686.000000	100.503055 
3685.000000	100.492774 
3684.000000	100.487472 
3683.000000	100.486507 
3682.000000	100.487357 
3681.000000	100.487516 
3680.000000	100.484531 
3679.000000	100.475896 
3678.000000	100.460489 
3677.000000	100.442250 
3676.000000	100.430440 
3675.000000	100.429933 
3674.000000	100.436552 
3673.000000	100.444345 
3672.000000	100.450611 
3671.000000	100.453529 
3670.000000	100.451544 
3669.000000	100.445460 
3668.000000	100.438652 
3667.000000	100.433589 
3666.000000	100.429116 
3665.000000	100.422995 
3664.000000	100.415559 
3663.000000	100.409331 
3662.000000	100.406523 
3661.000000	100.407680 
3660.000000	100.411820 
3659.000000	100.417995 
3658.000000	100.425694 
3657.000000	100.434774 
3656.000000	100.444725 
3655.000000	100.454150 
3654.000000	100.462485 
3653.000000	100.470520 
3652.000000	100.479331 
3651.000000	100.488836 
3650.000000	100.497272 
3649.000000	100.502862 
3648.000000	100.505957 
3647.000000	100.508562 
3646.000000	100.512079 
3645.000000	100.516479 
3644.000000	100.520598 
3643.000000	100.523012 
3642.000000	100.523768 
3641.000000	100.524989 
3640.000000	100.528981 
3639.000000	100.536216 
3638.000000	100.544820 
3637.000000	100.552172 
3636.000000	100.556765 
3635.000000	100.559184 
3634.000000	100.561397 
3633.000000	100.564674 
3632.000000	100.568541 
3631.000000	100.571223 
3630.000000	100.571434 
3629.000000	100.570273 
3628.000000	100.570647 
3627.000000	100.574037 
3626.000000	100.579656 
3625.000000	100.585329 
3624.000000	100.589411 
3623.000000	100.592330 
3622.000000	100.595768 
3621.000000	100.600385 
3620.000000	100.604693 
3619.000000	100.606783 
3618.000000	100.606875 
3617.000000	100.606790 
3616.000000	100.607560 
3615.000000	100.608898 
3614.000000	100.610273 
3613.000000	100.611544 
3612.000000	100.612900 
3611.000000	100.614625 
3610.000000	100.616888 
3609.000000	100.619881 
3608.000000	100.623781 
3607.000000	100.628348 
3606.000000	100.632883 
3605.000000	100.636423 
3604.000000	100.638243 
3603.000000	100.638507 
3602.000000	100.638480 
3601.000000	100.639805 
3600.000000	100.643035 
3599.000000	100.647010 
3598.000000	100.649915 
3597.000000	100.650927 
3596.000000	100.650658 
3595.000000	100.650666 
3594.000000	100.652115 
3593.000000	100.654662 
3592.000000	100.657062 
3591.000000	100.658530 
3590.000000	100.659285 
3589.000000	100.660186 
3588.000000	100.661764 
3587.000000	100.663643 
3586.000000	100.665055 
3585.000000	100.665599 
3584.000000	100.665415 
3583.000000	100.664989 
3582.000000	100.664909 
3581.000000	100.665544 
3580.000000	100.666637 
3579.000000	100.667396 
3578.000000	100.667213 
3577.000000	100.666285 
3576.000000	100.665384 
3575.000000	100.665031 
3574.000000	100.665181 
3573.000000	100.665543 
3572.000000	100.666100 
3571.000000	100.667192 
3570.000000	100.669040 
3569.000000	100.671347 
3568.000000	100.673339 
3567.000000	100.674357 
3566.000000	100.674550 
3565.000000	100.674723 
3564.000000	100.675544 
3563.000000	100.676985 
3562.000000	100.678458 
3561.000000	100.679268 
3560.000000	100.679158 
3559.000000	100.678534 
3558.000000	100.678203 
3557.000000	100.678673 
3556.000000	100.679586 
3555.000000	100.679945 
3554.000000	100.679091 
3553.000000	100.677374 
3552.000000	100.675834 
3551.000000	100.675269 
3550.000000	100.675653 
3549.000000	100.676428 
3548.000000	100.677057 
3547.000000	100.677359 
3546.000000	100.677513 
3545.000000	100.677805 
3544.000000	100.678338 
3543.000000	100.678999 
3542.000000	100.679630 
3541.000000	100.680136 
3540.000000	100.680508 
3539.000000	100.680828 
3538.000000	100.681239 
3537.000000	100.681823 
3536.000000	100.682471 
3535.000000	100.682955 
3534.000000	100.683137 
3533.000000	100.683087 
3532.000000	100.682999 
3531.000000	100.683056 
3530.000000	100.683350 
3529.000000	100.683858 
3528.000000	100.684449 
3527.000000	100.684950 
3526.000000	100.685285 
3525.000000	100.685525 
3524.000000	100.685788 
3523.000000	100.686100 
3522.000000	100.686387 
3521.000000	100.686569 
3520.000000	100.686629 
3519.000000	100.686626 
3518.000000	100.686674 
3517.000000	100.686901 
3516.000000	100.687375 
3515.000000	100.688036 
3514.000000	100.688701 
3513.000000	100.689167 
3512.000000	100.689344 
3511.000000	100.689278 
3510.000000	100.689134 
3509.000000	100.689082 
3508.000000	100.689224 
3507.000000	100.689565 
3506.000000	100.690043 
3505.000000	100.690583 
3504.000000	100.691120 
3503.000000	100.691635 
3502.000000	100.692145 
3501.000000	100.692614 
3500.000000	100.692854 
3499.000000	100.692610 
3498.000000	100.691796 
3497.000000	100.690666 
3496.000000	100.689709 
3495.000000	100.689300 
3494.000000	100.689500 
3493.000000	100.690121 
3492.000000	100.690898 
3491.000000	100.691593 
3490.000000	100.691998 
3489.000000	100.692000 
3488.000000	100.691696 
3487.000000	100.691404 
3486.000000	100.691378 
3485.000000	100.691523 
3484.000000	100.691473 
3483.000000	100.691015 
3482.000000	100.690377 
3481.000000	100.689975 
3480.000000	100.689898 
3479.000000	100.689788 
3478.000000	100.689286 
3477.000000	100.688468 
3476.000000	100.687762 
3475.000000	100.687482 
3474.000000	100.687570 
3473.000000	100.687761 
3472.000000	100.687889 
3471.000000	100.688023 
3470.000000	100.688337 
3469.000000	100.688859 
3468.000000	100.689321 
3467.000000	100.689259 
3466.000000	100.688274 
3465.000000	100.686279 
3464.000000	100.683645 
3463.000000	100.681181 
3462.000000	100.679731 
3461.000000	100.679588 
3460.000000	100.680235 
3459.000000	100.680783 
3458.000000	100.680817 
3457.000000	100.680615 
3456.000000	100.680530 
3455.000000	100.680468 
3454.000000	100.680077 
3453.000000	100.679225 
3452.000000	100.678075 
3451.000000	100.676892 
3450.000000	100.676070 
3449.000000	100.676143 
3448.000000	100.677382 
3447.000000	100.679362 
3446.000000	100.681172 
3445.000000	100.682192 
3444.000000	100.682429 
3443.000000	100.682228 
3442.000000	100.681961 
3441.000000	100.681890 
3440.000000	100.682014 
3439.000000	100.681929 
3438.000000	100.681073 
3437.000000	100.679246 
3436.000000	100.676849 
3435.000000	100.674623 
3434.000000	100.673190 
3433.000000	100.672725 
3432.000000	100.672890 
3431.000000	100.673034 
3430.000000	100.672705 
3429.000000	100.671996 
3428.000000	100.671324 
3427.000000	100.670933 
3426.000000	100.670718 
3425.000000	100.670456 
3424.000000	100.670042 
3423.000000	100.669475 
3422.000000	100.668769 
3421.000000	100.667943 
3420.000000	100.667077 
3419.000000	100.666339 
3418.000000	100.665907 
3417.000000	100.665815 
3416.000000	100.665888 
3415.000000	100.665832 
3414.000000	100.665485 
3413.000000	100.664926 
3412.000000	100.664355 
3411.000000	100.663908 
3410.000000	100.663576 
3409.000000	100.663265 
3408.000000	100.662885 
3407.000000	100.662413 
3406.000000	100.661893 
3405.000000	100.661396 
3404.000000	100.660972 
3403.000000	100.660614 
3402.000000	100.660273 
3401.000000	100.659912 
3400.000000	100.659536 
3399.000000	100.659171 
3398.000000	100.658848 
3397.000000	100.658581 
3396.000000	100.658351 
3395.000000	100.658111 
3394.000000	100.657813 
3393.000000	100.657473 
3392.000000	100.657182 
3391.000000	100.657007 
3390.000000	100.656881 
3389.000000	100.656660 
3388.000000	100.656288 
3387.000000	100.655880 
3386.000000	100.655605 
3385.000000	100.655494 
3384.000000	100.655364 
3383.000000	100.654988 
3382.000000	100.654359 
3381.000000	100.653778 
3380.000000	100.653602 
3379.000000	100.653905 
3378.000000	100.654409 
3377.000000	100.654782 
3376.000000	100.654964 
3375.000000	100.655160 
3374.000000	100.655583 
3373.000000	100.656265 
3372.000000	100.657091 
3371.000000	100.657863 
3370.000000	100.658306 
3369.000000	100.658119 
3368.000000	100.657178 
3367.000000	100.655765 
3366.000000	100.654434 
3365.000000	100.653595 
3364.000000	100.653270 
3363.000000	100.653266 
3362.000000	100.653512 
3361.000000	100.654097 
3360.000000	100.654990 
3359.000000	100.655873 
3358.000000	100.656339 
3357.000000	100.656248 
3356.000000	100.655767 
3355.000000	100.655145 
3354.000000	100.654531 
3353.000000	100.653977 
3352.000000	100.653518 
3351.000000	100.653204 
3350.000000	100.653058 
3349.000000	100.653068 
3348.000000	100.653201 
3347.000000	100.653394 
3346.000000	100.653525 
3345.000000	100.653445 
3344.000000	100.653076 
3343.000000	100.652489 
3342.000000	100.651864 
3341.000000	100.651368 
3340.000000	100.651039 
3339.000000	100.650797 
3338.000000	100.650517 
3337.000000	100.650125 
3336.000000	100.649660 
3335.000000	100.649228 
3334.000000	100.648891 
3333.000000	100.648571 
3332.000000	100.648124 
3331.000000	100.647512 
3330.000000	100.646889 
3329.000000	100.646458 
3328.000000	100.646257 
3327.000000	100.646118 
3326.000000	100.645831 
3325.000000	100.645329 
3324.000000	100.644691 
3323.000000	100.644037 
3322.000000	100.643441 
3321.000000	100.642946 
3320.000000	100.642582 
3319.000000	100.642360 
3318.000000	100.642240 
3317.000000	100.642098 
3316.000000	100.641728 
3315.000000	100.640984 
3314.000000	100.639994 
3313.000000	100.639185 
3312.000000	100.638930 
3311.000000	100.639215 
3310.000000	100.639648 
3309.000000	100.639834 
3308.000000	100.639668 
3307.000000	100.639222 
3306.000000	100.638529 
3305.000000	100.637572 
3304.000000	100.636376 
3303.000000	100.635000 
3302.000000	100.633524 
3301.000000	100.632099 
3300.000000	100.630918 
3299.000000	100.630054 
3298.000000	100.629431 
3297.000000	100.629022 
3296.000000	100.629012 
3295.000000	100.629598 
3294.000000	100.630615 
3293.000000	100.631456 
3292.000000	100.631484 
3291.000000	100.630578 
3290.000000	100.629242 
3289.000000	100.628162 
3288.000000	100.627576 
3287.000000	100.627142 
3286.000000	100.626403 
3285.000000	100.625241 
3284.000000	100.623865 
3283.000000	100.622545 
3282.000000	100.621479 
3281.000000	100.620815 
3280.000000	100.620624 
3279.000000	100.620821 
3278.000000	100.621191 
3277.000000	100.621459 
3276.000000	100.621332 
3275.000000	100.620625 
3274.000000	100.619487 
3273.000000	100.618416 
3272.000000	100.617856 
3271.000000	100.617808 
3270.000000	100.617946 
3269.000000	100.617982 
3268.000000	100.617764 
3267.000000	100.617104 
3266.000000	100.615803 
3265.000000	100.613946 
3264.000000	100.611974 
3263.000000	100.610333 
3262.000000	100.609145 
3261.000000	100.608288 
3260.000000	100.607682 
3259.000000	100.607351 
3258.000000	100.607211 
3257.000000	100.606969 
3256.000000	100.606317 
3255.000000	100.605230 
3254.000000	100.604013 
3253.000000	100.603045 
3252.000000	100.602424 
3251.000000	100.601866 
3250.000000	100.600979 
3249.000000	100.599649 
3248.000000	100.598180 
3247.000000	100.597085 
3246.000000	100.596708 
3245.000000	100.596989 
3244.000000	100.597508 
3243.000000	100.597778 
3242.000000	100.597535 
3241.000000	100.596738 
3240.000000	100.595480 
3239.000000	100.594018 
3238.000000	100.592785 
3237.000000	100.592148 
3236.000000	100.592047 
3235.000000	100.592013 
3234.000000	100.591666 
3233.000000	100.591063 
3232.000000	100.590448 
3231.000000	100.589781 
3230.000000	100.588714 
3229.000000	100.586982 
3228.000000	100.584745 
3227.000000	100.582565 
3226.000000	100.581084 
3225.000000	100.580582 
3224.000000	100.580733 
3223.000000	100.580862 
3222.000000	100.580626 
3221.000000	100.580346 
3220.000000	100.580531 
3219.000000	100.581209 
3218.000000	100.581856 
3217.000000	100.581908 
3216.000000	100.581206 
3215.000000	100.580048 
3214.000000	100.578978 
3213.000000	100.578457 
3212.000000	100.578575 
3211.000000	100.579010 
3210.000000	100.579276 
3209.000000	100.578996 
3208.000000	100.577966 
3207.000000	100.576205 
3206.000000	100.574159 
3205.000000	100.572668 
3204.000000	100.572402 
3203.000000	100.573385 
3202.000000	100.575174 
3201.000000	100.577373 
3200.000000	100.579703 
3199.000000	100.581643 
3198.000000	100.582479 
3197.000000	100.581905 
3196.000000	100.580357 
3195.000000	100.578723 
3194.000000	100.577701 
3193.000000	100.577467 
3192.000000	100.577738 
3191.000000	100.577970 
3190.000000	100.577682 
3189.000000	100.576784 
3188.000000	100.575646 
3187.000000	100.574803 
3186.000000	100.574580 
3185.000000	100.574960 
3184.000000	100.575658 
3183.000000	100.576252 
3182.000000	100.576371 
3181.000000	100.575919 
3180.000000	100.575148 
3179.000000	100.574493 
3178.000000	100.574238 
3177.000000	100.574301 
3176.000000	100.574305 
3175.000000	100.573916 
3174.000000	100.573206 
3173.000000	100.572656 
3172.000000	100.572735 
3171.000000	100.573488 
3170.000000	100.574544 
3169.000000	100.575433 
3168.000000	100.575786 
3167.000000	100.575339 
3166.000000	100.574026 
3165.000000	100.572196 
3164.000000	100.570514 
3163.000000	100.569450 
3162.000000	100.568937 
3161.000000	100.568541 
3160.000000	100.567896 
3159.000000	100.567007 
3158.000000	100.566204 
3157.000000	100.565786 
3156.000000	100.565675 
3155.000000	100.565490 
3154.000000	100.565000 
3153.000000	100.564367 
3152.000000	100.563785 
3151.000000	100.563087 
3150.000000	100.562048 
3149.000000	100.560972 
3148.000000	100.560550 
3147.000000	100.561132 
3146.000000	100.562498 
3145.000000	100.564303 
3144.000000	100.566279 
3143.000000	100.567873 
3142.000000	100.568244 
3141.000000	100.566969 
3140.000000	100.564547 
3139.000000	100.562116 
3138.000000	100.560621 
3137.000000	100.560265 
3136.000000	100.560526 
3135.000000	100.560553 
3134.000000	100.559873 
3133.000000	100.558867 
3132.000000	100.558339 
3131.000000	100.558544 
3130.000000	100.558944 
3129.000000	100.559003 
3128.000000	100.558920 
3127.000000	100.559392 
3126.000000	100.560891 
3125.000000	100.563308 
3124.000000	100.566021 
3123.000000	100.568226 
3122.000000	100.569480 
3121.000000	100.569976 
3120.000000	100.570107 
3119.000000	100.569791 
3118.000000	100.568617 
3117.000000	100.566630 
3116.000000	100.564534 
3115.000000	100.562970 
3114.000000	100.562027 
3113.000000	100.561603 
3112.000000	100.561729 
3111.000000	100.562269 
3110.000000	100.562680 
3109.000000	100.562444 
3108.000000	100.561538 
3107.000000	100.560345 
3106.000000	100.559367 
3105.000000	100.559107 
3104.000000	100.559828 
3103.000000	100.561156 
3102.000000	100.562216 
3101.000000	100.562389 
3100.000000	100.561631 
3099.000000	100.560083 
3098.000000	100.557932 
3097.000000	100.555873 
3096.000000	100.555024 
3095.000000	100.555712 
3094.000000	100.556724 
3093.000000	100.556556 
3092.000000	100.555153 
3091.000000	100.553596 
3090.000000	100.552515 
3089.000000	100.551771 
3088.000000	100.551461 
3087.000000	100.552028 
3086.000000	100.553227 
3085.000000	100.554008 
3084.000000	100.553850 
3083.000000	100.553481 
3082.000000	100.553898 
3081.000000	100.555174 
3080.000000	100.556569 
3079.000000	100.557454 
3078.000000	100.557809 
3077.000000	100.557957 
3076.000000	100.557913 
3075.000000	100.557074 
3074.000000	100.554782 
3073.000000	100.551328 
3072.000000	100.547977 
3071.000000	100.545719 
3070.000000	100.544481 
3069.000000	100.543894 
3068.000000	100.544163 
3067.000000	100.545405 
3066.000000	100.546543 
3065.000000	100.545831 
3064.000000	100.542607 
3063.000000	100.538049 
3062.000000	100.534204 
3061.000000	100.532578 
3060.000000	100.533383 
3059.000000	100.535582 
3058.000000	100.537684 
3057.000000	100.538798 
3056.000000	100.538760 
3055.000000	100.537112 
3054.000000	100.532709 
3053.000000	100.525300 
3052.000000	100.517177 
3051.000000	100.511941 
3050.000000	100.510957 
3049.000000	100.511674 
3048.000000	100.510153 
3047.000000	100.505000 
3046.000000	100.498176 
3045.000000	100.492145 
3044.000000	100.487016 
3043.000000	100.481025 
3042.000000	100.473282 
3041.000000	100.464913 
3040.000000	100.457175 
3039.000000	100.449439 
3038.000000	100.440136 
3037.000000	100.429250 
3036.000000	100.418386 
3035.000000	100.408194 
3034.000000	100.397063 
3033.000000	100.382941 
3032.000000	100.365685 
3031.000000	100.346972 
3030.000000	100.328253 
3029.000000	100.309956 
3028.000000	100.292680 
3027.000000	100.277504 
3026.000000	100.264382 
3025.000000	100.251086 
3024.000000	100.234629 
3023.000000	100.213828 
3022.000000	100.190334 
3021.000000	100.167272 
3020.000000	100.146758 
3019.000000	100.128194 
3018.000000	100.108595 
3017.000000	100.084712 
3016.000000	100.055316 
3015.000000	100.021931 
3014.000000	99.987858  
3013.000000	99.956416  
3012.000000	99.929327  
3011.000000	99.905755  
3010.000000	99.882646  
3009.000000	99.856737  
3008.000000	99.827032  
3007.000000	99.795558  
3006.000000	99.765513  
3005.000000	99.738388  
3004.000000	99.712711  
3003.000000	99.685585  
3002.000000	99.655585  
3001.000000	99.624238  
3000.000000	99.594579  
2999.000000	99.568410  
2998.000000	99.545503  
2997.000000	99.525539  
2996.000000	99.509377  
2995.000000	99.496331  
2994.000000	99.480017  
2993.000000	99.449856  
2992.000000	99.400215  
2991.000000	99.338805  
2990.000000	99.283924  
2989.000000	99.251426  
2988.000000	99.244598  
2987.000000	99.255603  
2986.000000	99.273924  
2985.000000	99.292394  
2984.000000	99.307201  
2983.000000	99.316401  
2982.000000	99.320220  
2981.000000	99.320954  
2980.000000	99.320737  
2979.000000	99.319816  
2978.000000	99.317566  
2977.000000	99.314046  
2976.000000	99.309626  
2975.000000	99.304235  
2974.000000	99.298558  
2973.000000	99.295404  
2972.000000	99.298391  
2971.000000	99.309235  
2970.000000	99.327168  
2969.000000	99.350551  
2968.000000	99.377721  
2967.000000	99.406490  
2966.000000	99.434406  
2965.000000	99.460164  
2964.000000	99.483868  
2963.000000	99.505573  
2962.000000	99.524544  
2961.000000	99.540438  
2960.000000	99.554385  
2959.000000	99.568354  
2958.000000	99.583933  
2957.000000	99.601804  
2956.000000	99.621389  
2955.000000	99.640581  
2954.000000	99.656954  
2953.000000	99.670277  
2952.000000	99.683235  
2951.000000	99.698658  
2950.000000	99.716181  
2949.000000	99.732309  
2948.000000	99.743587  
2947.000000	99.749135  
2946.000000	99.750863  
2945.000000	99.752158  
2944.000000	99.756080  
2943.000000	99.764074  
2942.000000	99.775895  
2941.000000	99.790469  
2940.000000	99.806424  
2939.000000	99.821770  
2938.000000	99.833991  
2937.000000	99.841756  
2936.000000	99.846668  
2935.000000	99.852348  
2934.000000	99.861073  
2933.000000	99.871571  
2932.000000	99.880408  
2931.000000	99.885264  
2930.000000	99.886627  
2929.000000	99.886756  
2928.000000	99.887498  
2927.000000	99.888957  
2926.000000	99.889597  
2925.000000	99.887366  
2924.000000	99.881241  
2923.000000	99.872312  
2922.000000	99.863181  
2921.000000	99.855606  
2920.000000	99.848680  
2919.000000	99.839850  
2918.000000	99.827655  
2917.000000	99.812564  
2916.000000	99.794925  
2915.000000	99.773478  
2914.000000	99.747375  
2913.000000	99.719243  
2912.000000	99.694554  
2911.000000	99.677207  
2910.000000	99.666449  
2909.000000	99.658560  
2908.000000	99.650637  
2907.000000	99.641631  
2906.000000	99.629943  
2905.000000	99.611987  
2904.000000	99.585295  
2903.000000	99.553944  
2902.000000	99.529559  
2901.000000	99.524321  
2900.000000	99.541663  
2899.000000	99.573192  
2898.000000	99.604764  
2897.000000	99.626368  
2896.000000	99.636624  
2895.000000	99.639796  
2894.000000	99.640923  
2893.000000	99.643425  
2892.000000	99.648758  
2891.000000	99.656344  
2890.000000	99.664149  
2889.000000	99.670360  
2888.000000	99.674580  
2887.000000	99.677350  
2886.000000	99.679344  
2885.000000	99.681792  
2884.000000	99.687067  
2883.000000	99.697533  
2882.000000	99.713442  
2881.000000	99.732625  
2880.000000	99.752651  
2879.000000	99.772959  
2878.000000	99.794383  
2877.000000	99.816863  
2876.000000	99.838379  
2875.000000	99.856544  
2874.000000	99.870959  
2873.000000	99.883419  
2872.000000	99.895755  
2871.000000	99.908069  
2870.000000	99.919635  
2869.000000	99.931064  
2868.000000	99.944601  
2867.000000	99.962007  
2866.000000	99.982685  
2865.000000	100.004442 
2864.000000	100.025899 
2863.000000	100.047714 
2862.000000	100.071321 
2861.000000	100.096931 
2860.000000	100.123354 
2859.000000	100.149750 
2858.000000	100.176737 
2857.000000	100.204942 
2856.000000	100.232611 
2855.000000	100.255744 
2854.000000	100.271352 
2853.000000	100.280091 
2852.000000	100.285090 
2851.000000	100.288970 
2850.000000	100.292673 
2849.000000	100.296193 
2848.000000	100.299145 
2847.000000	100.300817 
2846.000000	100.300848 
2845.000000	100.299987 
2844.000000	100.299567 
2843.000000	100.300318 
2842.000000	100.302233 
2841.000000	100.305086 
2840.000000	100.308083 
2839.000000	100.309515 
2838.000000	100.308287 
2837.000000	100.306065 
2836.000000	100.306551 
2835.000000	100.311921 
2834.000000	100.320634 
2833.000000	100.329012 
2832.000000	100.334312 
2831.000000	100.336170 
2830.000000	100.336193 
2829.000000	100.336736 
2828.000000	100.339304 
2827.000000	100.343427 
2826.000000	100.347312 
2825.000000	100.349725 
2824.000000	100.350683 
2823.000000	100.350522 
2822.000000	100.349394 
2821.000000	100.348068 
2820.000000	100.348117 
2819.000000	100.350545 
2818.000000	100.354780 
2817.000000	100.359356 
2816.000000	100.362859 
2815.000000	100.364043 
2814.000000	100.362306 
2813.000000	100.358944 
2812.000000	100.356903 
2811.000000	100.358130 
2810.000000	100.361649 
2809.000000	100.365024 
2808.000000	100.367033 
2807.000000	100.368060 
2806.000000	100.368626 
2805.000000	100.368769 
2804.000000	100.368685 
2803.000000	100.368924 
2802.000000	100.369767 
2801.000000	100.370906 
2800.000000	100.371837 
2799.000000	100.372354 
2798.000000	100.372639 
2797.000000	100.373012 
2796.000000	100.373652 
2795.000000	100.374487 
2794.000000	100.375317 
2793.000000	100.375999 
2792.000000	100.376559 
2791.000000	100.377104 
2790.000000	100.377663 
2789.000000	100.378214 
2788.000000	100.378764 
2787.000000	100.379312 
2786.000000	100.379849 
2785.000000	100.380367 
2784.000000	100.380862 
2783.000000	100.381337 
2782.000000	100.381797 
2781.000000	100.382247 
2780.000000	100.382689 
2779.000000	100.383121 
2778.000000	100.383538 
2777.000000	100.383935 
2776.000000	100.384310 
2775.000000	100.384665 
2774.000000	100.385010 
2773.000000	100.385355 
2772.000000	100.385711 
2771.000000	100.386079 
2770.000000	100.386454 
2769.000000	100.386827 
2768.000000	100.387187 
2767.000000	100.387535 
2766.000000	100.387877 
2765.000000	100.388222 
2764.000000	100.388578 
2763.000000	100.388947 
2762.000000	100.389326 
2761.000000	100.389708 
2760.000000	100.390090 
2759.000000	100.390472 
2758.000000	100.390857 
2757.000000	100.391249 
2756.000000	100.391648 
2755.000000	100.392049 
2754.000000	100.392441 
2753.000000	100.392818 
2752.000000	100.393178 
2751.000000	100.393528 
2750.000000	100.393883 
2749.000000	100.394253 
2748.000000	100.394640 
2747.000000	100.395036 
2746.000000	100.395429 
2745.000000	100.395811 
2744.000000	100.396181 
2743.000000	100.396546 
2742.000000	100.396914 
2741.000000	100.397292 
2740.000000	100.397681 
2739.000000	100.398075 
2738.000000	100.398464 
2737.000000	100.398840 
2736.000000	100.399201 
2735.000000	100.399547 
2734.000000	100.399887 
2733.000000	100.400225 
2732.000000	100.400565 
2731.000000	100.400903 
2730.000000	100.401229 
2729.000000	100.401534 
2728.000000	100.401815 
2727.000000	100.402076 
2726.000000	100.402329 
2725.000000	100.402579 
2724.000000	100.402830 
2723.000000	100.403075 
2722.000000	100.403297 
2721.000000	100.403472 
2720.000000	100.403592 
2719.000000	100.403675 
2718.000000	100.403749 
2717.000000	100.403828 
2716.000000	100.403917 
2715.000000	100.404002 
2714.000000	100.404071 
2713.000000	100.404118 
2712.000000	100.404145 
2711.000000	100.404170 
2710.000000	100.404213 
2709.000000	100.404287 
2708.000000	100.404377 
2707.000000	100.404454 
2706.000000	100.404487 
2705.000000	100.404462 
2704.000000	100.404386 
2703.000000	100.404279 
2702.000000	100.404168 
2701.000000	100.404071 
2700.000000	100.403984 
2699.000000	100.403884 
2698.000000	100.403749 
2697.000000	100.403574 
2696.000000	100.403370 
2695.000000	100.403156 
2694.000000	100.402951 
2693.000000	100.402768 
2692.000000	100.402609 
2691.000000	100.402460 
2690.000000	100.402308 
2689.000000	100.402142 
2688.000000	100.401957 
2687.000000	100.401757 
2686.000000	100.401550 
2685.000000	100.401342 
2684.000000	100.401134 
2683.000000	100.400914 
2682.000000	100.400673 
2681.000000	100.400406 
2680.000000	100.400119 
2679.000000	100.399825 
2678.000000	100.399537 
2677.000000	100.399257 
2676.000000	100.398975 
2675.000000	100.398676 
2674.000000	100.398347 
2673.000000	100.397987 
2672.000000	100.397606 
2671.000000	100.397216 
2670.000000	100.396829 
2669.000000	100.396448 
2668.000000	100.396067 
2667.000000	100.395675 
2666.000000	100.395259 
2665.000000	100.394821 
2664.000000	100.394370 
2663.000000	100.393924 
2662.000000	100.393492 
2661.000000	100.393080 
2660.000000	100.392679 
2659.000000	100.392276 
2658.000000	100.391861 
2657.000000	100.391433 
2656.000000	100.391000 
2655.000000	100.390576 
2654.000000	100.390174 
2653.000000	100.389791 
2652.000000	100.389415 
2651.000000	100.389023 
2650.000000	100.388599 
2649.000000	100.388139 
2648.000000	100.387658 
2647.000000	100.387176 
2646.000000	100.386714 
2645.000000	100.386277 
2644.000000	100.385859 
2643.000000	100.385442 
2642.000000	100.385011 
2641.000000	100.384565 
2640.000000	100.384120 
2639.000000	100.383696 
2638.000000	100.383310 
2637.000000	100.382965 
2636.000000	100.382649 
2635.000000	100.382348 
2634.000000	100.382054 
2633.000000	100.381772 
2632.000000	100.381514 
2631.000000	100.381288 
2630.000000	100.381090 
2629.000000	100.380906 
2628.000000	100.380719 
2627.000000	100.380514 
2626.000000	100.380286 
2625.000000	100.380041 
2624.000000	100.379801 
2623.000000	100.379583 
2622.000000	100.379399 
2621.000000	100.379245 
2620.000000	100.379108 
2619.000000	100.378975 
2618.000000	100.378835 
2617.000000	100.378688 
2616.000000	100.378546 
2615.000000	100.378422 
2614.000000	100.378321 
2613.000000	100.378236 
2612.000000	100.378150 
2611.000000	100.378051 
2610.000000	100.377938 
2609.000000	100.377823 
2608.000000	100.377722 
2607.000000	100.377644 
2606.000000	100.377587 
2605.000000	100.377535 
2604.000000	100.377474 
2603.000000	100.377389 
2602.000000	100.377281 
2601.000000	100.377160 
2600.000000	100.377042 
2599.000000	100.376942 
2598.000000	100.376859 
2597.000000	100.376784 
2596.000000	100.376702 
2595.000000	100.376601 
2594.000000	100.376475 
2593.000000	100.376332 
2592.000000	100.376185 
2591.000000	100.376048 
2590.000000	100.375924 
2589.000000	100.375811 
2588.000000	100.375704 
2587.000000	100.375601 
2586.000000	100.375508 
2585.000000	100.375429 
2584.000000	100.375372 
2583.000000	100.375338 
2582.000000	100.375322 
2581.000000	100.375309 
2580.000000	100.375284 
2579.000000	100.375239 
2578.000000	100.375170 
2577.000000	100.375086 
2576.000000	100.374998 
2575.000000	100.374919 
2574.000000	100.374850 
2573.000000	100.374784 
2572.000000	100.374715 
2571.000000	100.374626 
2570.000000	100.374497 
2569.000000	100.374320 
2568.000000	100.374117 
2567.000000	100.373919 
2566.000000	100.373738 
2565.000000	100.373580 
2564.000000	100.373462 
2563.000000	100.373394 
2562.000000	100.373320 
2561.000000	100.373139 
2560.000000	100.372858 
2559.000000	100.372671 
2558.000000	100.372774 
2557.000000	100.373169 
2556.000000	100.373627 
2555.000000	100.373869 
2554.000000	100.373749 
2553.000000	100.373359 
2552.000000	100.373063 
2551.000000	100.373280 
2550.000000	100.374159 
2549.000000	100.375366 
2548.000000	100.376261 
2547.000000	100.376405 
2546.000000	100.375771 
2545.000000	100.374635 
2544.000000	100.373402 
2543.000000	100.372426 
2542.000000	100.371884 
2541.000000	100.371704 
2540.000000	100.371614 
2539.000000	100.371376 
2538.000000	100.370962 
2537.000000	100.370495 
2536.000000	100.370084 
2535.000000	100.369762 
2534.000000	100.369520 
2533.000000	100.369295 
2532.000000	100.368907 
2531.000000	100.368154 
2530.000000	100.367077 
2529.000000	100.366077 
2528.000000	100.365620 
2527.000000	100.365844 
2526.000000	100.366521 
2525.000000	100.367320 
2524.000000	100.368030 
2523.000000	100.368482 
2522.000000	100.368410 
2521.000000	100.367596 
2520.000000	100.366136 
2519.000000	100.364500 
2518.000000	100.363242 
2517.000000	100.362581 
2516.000000	100.362294 
2515.000000	100.361928 
2514.000000	100.361177 
2513.000000	100.360086 
2512.000000	100.358951 
2511.000000	100.358058 
2510.000000	100.357493 
2509.000000	100.357144 
2508.000000	100.356807 
2507.000000	100.356316 
2506.000000	100.355650 
2505.000000	100.354902 
2504.000000	100.354207 
2503.000000	100.353662 
2502.000000	100.353276 
2501.000000	100.352987 
2500.000000	100.352701 
2499.000000	100.352365 
2498.000000	100.351987 
2497.000000	100.351603 
2496.000000	100.351241 
2495.000000	100.350910 
2494.000000	100.350607 
2493.000000	100.350319 
2492.000000	100.350032 
2491.000000	100.349741 
2490.000000	100.349447 
2489.000000	100.349154 
2488.000000	100.348868 
2487.000000	100.348594 
2486.000000	100.348328 
2485.000000	100.348058 
2484.000000	100.347770 
2483.000000	100.347458 
2482.000000	100.347126 
2481.000000	100.346789 
2480.000000	100.346464 
2479.000000	100.346160 
2478.000000	100.345873 
2477.000000	100.345597 
2476.000000	100.345321 
2475.000000	100.345039 
2474.000000	100.344750 
2473.000000	100.344456 
2472.000000	100.344161 
2471.000000	100.343889 
2470.000000	100.343670 
2469.000000	100.343504 
2468.000000	100.343358 
2467.000000	100.343163 
2466.000000	100.342848 
2465.000000	100.342420 
2464.000000	100.341990 
2463.000000	100.341659 
2462.000000	100.341418 
2461.000000	100.341232 
2460.000000	100.341130 
2459.000000	100.341097 
2458.000000	100.340978 
2457.000000	100.340627 
2456.000000	100.340075 
2455.000000	100.339448 
2454.000000	100.338831 
2453.000000	100.338356 
2452.000000	100.338189 
2451.000000	100.338170 
2450.000000	100.337762 
2449.000000	100.336706 
2448.000000	100.335532 
2447.000000	100.334984 
2446.000000	100.334986 
2445.000000	100.334597 
2444.000000	100.333001 
2443.000000	100.330299 
2442.000000	100.327503 
2441.000000	100.325842 
2440.000000	100.325872 
2439.000000	100.327019 
2438.000000	100.328026 
2437.000000	100.328186 
2436.000000	100.327852 
2435.000000	100.327692 
2434.000000	100.327854 
2433.000000	100.328067 
2432.000000	100.328198 
2431.000000	100.328313 
2430.000000	100.328412 
2429.000000	100.328445 
2428.000000	100.328415 
2427.000000	100.328253 
2426.000000	100.327792 
2425.000000	100.327048 
2424.000000	100.326339 
2423.000000	100.325952 
2422.000000	100.325788 
2421.000000	100.325517 
2420.000000	100.324999 
2419.000000	100.324444 
2418.000000	100.324201 
2417.000000	100.324468 
2416.000000	100.325098 
2415.000000	100.325609 
2414.000000	100.325516 
2413.000000	100.324710 
2412.000000	100.323439 
2411.000000	100.321975 
2410.000000	100.320493 
2409.000000	100.319207 
2408.000000	100.318281 
2407.000000	100.317599 
2406.000000	100.317014 
2405.000000	100.316733 
2404.000000	100.316944 
2403.000000	100.317132 
2402.000000	100.316419 
2401.000000	100.314771 
2400.000000	100.313286 
2399.000000	100.313050 
2398.000000	100.314204 
2397.000000	100.316155 
2396.000000	100.318028 
2395.000000	100.318724 
2394.000000	100.317308 
2393.000000	100.314068 
2392.000000	100.310839 
2391.000000	100.309420 
2390.000000	100.309826 
2389.000000	100.310475 
2388.000000	100.309800 
2387.000000	100.307278 
2386.000000	100.303291 
2385.000000	100.298853 
2384.000000	100.295356 
2383.000000	100.293832 
2382.000000	100.294375 
2381.000000	100.296402 
2380.000000	100.299257 
2379.000000	100.302316 
2378.000000	100.304872 
2377.000000	100.306440 
2376.000000	100.306948 
2375.000000	100.306431 
2374.000000	100.305042 
2373.000000	100.303393 
2372.000000	100.302111 
2371.000000	100.300805 
2370.000000	100.298400 
2369.000000	100.294849 
2368.000000	100.291453 
2367.000000	100.289266 
2366.000000	100.288245 
2365.000000	100.287895 
2364.000000	100.287488 
2363.000000	100.285647 
2362.000000	100.281298 
2361.000000	100.275746 
2360.000000	100.271388 
2359.000000	100.269186 
2358.000000	100.268493 
2357.000000	100.268717 
2356.000000	100.269533 
2355.000000	100.269902 
2354.000000	100.270582 
2353.000000	100.272111 
2352.000000	100.272594 
2351.000000	100.270088 
2350.000000	100.264305 
2349.000000	100.257190 
2348.000000	100.250628 
2347.000000	100.247262 
2346.000000	100.247769 
2345.000000	100.248409 
2344.000000	100.245996 
2343.000000	100.241328 
2342.000000	100.238911 
2341.000000	100.240025 
2340.000000	100.242147 
2339.000000	100.242288 
2338.000000	100.240630 
2337.000000	100.239089 
2336.000000	100.237075 
2335.000000	100.232567 
2334.000000	100.227188 
2333.000000	100.224325 
2332.000000	100.223655 
2331.000000	100.222709 
2330.000000	100.220088 
2329.000000	100.217533 
2328.000000	100.213475 
2327.000000	100.206419 
2326.000000	100.197393 
2325.000000	100.188565 
2324.000000	100.182025 
2323.000000	100.177576 
2322.000000	100.176840 
2321.000000	100.179702 
2320.000000	100.184767 
2319.000000	100.189938 
2318.000000	100.194285 
2317.000000	100.198464 
2316.000000	100.202787 
2315.000000	100.207691 
2314.000000	100.212386 
2313.000000	100.215892 
2312.000000	100.217173 
2311.000000	100.217245 
2310.000000	100.217765 
2309.000000	100.218791 
2308.000000	100.218820 
2307.000000	100.217458 
2306.000000	100.216644 
2305.000000	100.217808 
2304.000000	100.220405 
2303.000000	100.222713 
2302.000000	100.223841 
2301.000000	100.223759 
2300.000000	100.222950 
2299.000000	100.222957 
2298.000000	100.225556 
2297.000000	100.231028 
2296.000000	100.236607 
2295.000000	100.239001 
2294.000000	100.237704 
2293.000000	100.235314 
2292.000000	100.234406 
2291.000000	100.234987 
2290.000000	100.235584 
2289.000000	100.235459 
2288.000000	100.235356 
2287.000000	100.236252 
2286.000000	100.238448 
2285.000000	100.241416 
2284.000000	100.244248 
2283.000000	100.246218 
2282.000000	100.247358 
2281.000000	100.248232 
2280.000000	100.249263 
2279.000000	100.250468 
2278.000000	100.251722 
2277.000000	100.252958 
2276.000000	100.254157 
2275.000000	100.255309 
2274.000000	100.256407 
2273.000000	100.257457 
2272.000000	100.258485 
2271.000000	100.259525 
2270.000000	100.260581 
2269.000000	100.261624 
2268.000000	100.262632 
2267.000000	100.263618 
2266.000000	100.264602 
2265.000000	100.265577 
2264.000000	100.266502 
2263.000000	100.267347 
2262.000000	100.268127 
2261.000000	100.268884 
2260.000000	100.269640 
2259.000000	100.270400 
2258.000000	100.271171 
2257.000000	100.271974 
2256.000000	100.272806 
2255.000000	100.273631 
2254.000000	100.274385 
2253.000000	100.275049 
2252.000000	100.275649 
2251.000000	100.276236 
2250.000000	100.276826 
2249.000000	100.277407 
2248.000000	100.277969 
2247.000000	100.278512 
2246.000000	100.279035 
2245.000000	100.279547 
2244.000000	100.280049 
2243.000000	100.280538 
2242.000000	100.281014 
2241.000000	100.281487 
2240.000000	100.281972 
2239.000000	100.282474 
2238.000000	100.282978 
2237.000000	100.283462 
2236.000000	100.283908 
2235.000000	100.284313 
2234.000000	100.284684 
2233.000000	100.285036 
2232.000000	100.285385 
2231.000000	100.285739 
2230.000000	100.286101 
2229.000000	100.286470 
2228.000000	100.286844 
2227.000000	100.287224 
2226.000000	100.287605 
2225.000000	100.287986 
2224.000000	100.288368 
2223.000000	100.288751 
2222.000000	100.289143 
2221.000000	100.289552 
2220.000000	100.289987 
2219.000000	100.290449 
2218.000000	100.290932 
2217.000000	100.291432 
2216.000000	100.291950 
2215.000000	100.292493 
2214.000000	100.293061 
2213.000000	100.293653 
2212.000000	100.294258 
2211.000000	100.294867 
2210.000000	100.295474 
2209.000000	100.296080 
2208.000000	100.296694 
2207.000000	100.297321 
2206.000000	100.297965 
2205.000000	100.298629 
2204.000000	100.299322 
2203.000000	100.300054 
2202.000000	100.300835 
2201.000000	100.301672 
2200.000000	100.302571 
2199.000000	100.303523 
2198.000000	100.304520 
2197.000000	100.305591 
2196.000000	100.306493 
2195.000000	100.306994 
2194.000000	100.307371 
2193.000000	100.308118 
2192.000000	100.309404 
2191.000000	100.311134 
2190.000000	100.313156 
2189.000000	100.315116 
2188.000000	100.316536 
2187.000000	100.317228 
2186.000000	100.317569 
2185.000000	100.318306 
2184.000000	100.320075 
2183.000000	100.322848 
2182.000000	100.325621 
2181.000000	100.326946 
2180.000000	100.326316 
2179.000000	100.325151 
2178.000000	100.325963 
2177.000000	100.329983 
2176.000000	100.335540 
2175.000000	100.339329 
2174.000000	100.339655 
2173.000000	100.337694 
2172.000000	100.335225 
2171.000000	100.332299 
2170.000000	100.328573 
2169.000000	100.325923 
2168.000000	100.327249 
2167.000000	100.332503 
2166.000000	100.337955 
2165.000000	100.340399 
2164.000000	100.340589 
2163.000000	100.341677 
2162.000000	100.346077 
2161.000000	100.354565 
2160.000000	100.365935 
2159.000000	100.376115 
2158.000000	100.380333 
2157.000000	100.377911 
2156.000000	100.372880 
2155.000000	100.368960 
2154.000000	100.366373 
2153.000000	100.363893 
2152.000000	100.360501 
2151.000000	100.354489 
2150.000000	100.344652 
2149.000000	100.333834 
2148.000000	100.328051 
2147.000000	100.329868 
2146.000000	100.335321 
2145.000000	100.339390 
2144.000000	100.341971 
2143.000000	100.345251 
2142.000000	100.347623 
2141.000000	100.344886 
2140.000000	100.336786 
2139.000000	100.328190 
2138.000000	100.322898 
2137.000000	100.319285 
2136.000000	100.313497 
2135.000000	100.304549 
2134.000000	100.294706 
2133.000000	100.286382 
2132.000000	100.280595 
2131.000000	100.277805 
2130.000000	100.278127 
2129.000000	100.280271 
2128.000000	100.281556 
2127.000000	100.280218 
2126.000000	100.277434 
2125.000000	100.276018 
2124.000000	100.276987 
2123.000000	100.278344 
2122.000000	100.277585 
2121.000000	100.274560 
2120.000000	100.270971 
2119.000000	100.267819 
2118.000000	100.264618 
2117.000000	100.261007 
2116.000000	100.257831 
2115.000000	100.256177 
2114.000000	100.256035 
2113.000000	100.256326 
2112.000000	100.255887 
2111.000000	100.254321 
2110.000000	100.252246 
2109.000000	100.250816 
2108.000000	100.250691 
2107.000000	100.251374 
2106.000000	100.251628 
2105.000000	100.250717 
2104.000000	100.249033 
2103.000000	100.247552 
2102.000000	100.246887 
2101.000000	100.246953 
2100.000000	100.247297 
2099.000000	100.247497 
2098.000000	100.247366 
2097.000000	100.246959 
2096.000000	100.246503 
2095.000000	100.246280 
2094.000000	100.246410 
2093.000000	100.246753 
2092.000000	100.247009 
2091.000000	100.247021 
2090.000000	100.246870 
2089.000000	100.246765 
2088.000000	100.246801 
2087.000000	100.246904 
2086.000000	100.246967 
2085.000000	100.246998 
2084.000000	100.247129 
2083.000000	100.247472 
2082.000000	100.248002 
2081.000000	100.248549 
2080.000000	100.248936 
2079.000000	100.249080 
2078.000000	100.248990 
2077.000000	100.248765 
2076.000000	100.248563 
2075.000000	100.248474 
2074.000000	100.248499 
2073.000000	100.248757 
2072.000000	100.249551 
2071.000000	100.250984 
2070.000000	100.252602 
2069.000000	100.253731 
2068.000000	100.254190 
2067.000000	100.254451 
2066.000000	100.254968 
2065.000000	100.255575 
2064.000000	100.255839 
2063.000000	100.255713 
2062.000000	100.255586 
2061.000000	100.255770 
2060.000000	100.256022 
2059.000000	100.255771 
2058.000000	100.254859 
2057.000000	100.253937 
2056.000000	100.253927 
2055.000000	100.255196 
2054.000000	100.257424 
2053.000000	100.260007 
2052.000000	100.262249 
2051.000000	100.263298 
2050.000000	100.262569 
2049.000000	100.260580 
2048.000000	100.259058 
2047.000000	100.259426 
2046.000000	100.261633 
2045.000000	100.264645 
2044.000000	100.267554 
2043.000000	100.269931 
2042.000000	100.271471 
2041.000000	100.271966 
2040.000000	100.271419 
2039.000000	100.269738 
2038.000000	100.266706 
2037.000000	100.262823 
2036.000000	100.259705 
2035.000000	100.258805 
2034.000000	100.259990 
2033.000000	100.261828 
2032.000000	100.263221 
2031.000000	100.264191 
2030.000000	100.264926 
2029.000000	100.264859 
2028.000000	100.263264 
2027.000000	100.260691 
2026.000000	100.259354 
2025.000000	100.261486 
2024.000000	100.267164 
2023.000000	100.273666 
2022.000000	100.277621 
2021.000000	100.277770 
2020.000000	100.275203 
2019.000000	100.271736 
2018.000000	100.268692 
2017.000000	100.266978 
2016.000000	100.266658 
2015.000000	100.266225 
2014.000000	100.263736 
2013.000000	100.259045 
2012.000000	100.254004 
2011.000000	100.250213 
2010.000000	100.247738 
2009.000000	100.246326 
2008.000000	100.246356 
2007.000000	100.247668 
2006.000000	100.248583 
2005.000000	100.247314 
2004.000000	100.243880 
2003.000000	100.240050 
2002.000000	100.237786 
2001.000000	100.237997 
2000.000000	100.240075 
1999.000000	100.242327 
1998.000000	100.243536 
1997.000000	100.244030 
1996.000000	100.244679 
1995.000000	100.245174 
1994.000000	100.244362 
1993.000000	100.242205 
1992.000000	100.240055 
1991.000000	100.238555 
1990.000000	100.236753 
1989.000000	100.234012 
1988.000000	100.231227 
1987.000000	100.229315 
1986.000000	100.227744 
1985.000000	100.225592 
1984.000000	100.223236 
1983.000000	100.222077 
1982.000000	100.223124 
1981.000000	100.226432 
1980.000000	100.231210 
1979.000000	100.235546 
1978.000000	100.237101 
1977.000000	100.235188 
1976.000000	100.231470 
1975.000000	100.228271 
1974.000000	100.226397 
1973.000000	100.225232 
1972.000000	100.224026 
1971.000000	100.222333 
1970.000000	100.220022 
1969.000000	100.217609 
1968.000000	100.215993 
1967.000000	100.215205 
1966.000000	100.214178 
1965.000000	100.212559 
1964.000000	100.211906 
1963.000000	100.213935 
1962.000000	100.218084 
1961.000000	100.221501 
1960.000000	100.221961 
1959.000000	100.219776 
1958.000000	100.216865 
1957.000000	100.214603 
1956.000000	100.212827 
1955.000000	100.210813 
1954.000000	100.208523 
1953.000000	100.206636 
1952.000000	100.205646 
1951.000000	100.205259 
1950.000000	100.204644 
1949.000000	100.203123 
1948.000000	100.200522 
1947.000000	100.197146 
1946.000000	100.193693 
1945.000000	100.190839 
1944.000000	100.188585 
1943.000000	100.186263 
1942.000000	100.183504 
1941.000000	100.180980 
1940.000000	100.179672 
1939.000000	100.179757 
1938.000000	100.180535 
1937.000000	100.181075 
1936.000000	100.180712 
1935.000000	100.179132 
1934.000000	100.176513 
1933.000000	100.173605 
1932.000000	100.171293 
1931.000000	100.169927 
1930.000000	100.169130 
1929.000000	100.168253 
1928.000000	100.166808 
1927.000000	100.164700 
1926.000000	100.162224 
1925.000000	100.159766 
1924.000000	100.157388 
1923.000000	100.154784 
1922.000000	100.151866 
1921.000000	100.149145 
1920.000000	100.147231 
1919.000000	100.146207 
1918.000000	100.145718 
1917.000000	100.145336 
1916.000000	100.144638 
1915.000000	100.143156 
1914.000000	100.140649 
1913.000000	100.137504 
1912.000000	100.134647 
1911.000000	100.132662 
1910.000000	100.131361 
1909.000000	100.130212 
1908.000000	100.128938 
1907.000000	100.127602 
1906.000000	100.126308 
1905.000000	100.125083 
1904.000000	100.123854 
1903.000000	100.122346 
1902.000000	100.120393 
1901.000000	100.118395 
1900.000000	100.116936 
1899.000000	100.116027 
1898.000000	100.115196 
1897.000000	100.114345 
1896.000000	100.113925 
1895.000000	100.114026 
1894.000000	100.113964 
1893.000000	100.113145 
1892.000000	100.111699 
1891.000000	100.110010 
1890.000000	100.108226 
1889.000000	100.106514 
1888.000000	100.105228 
1887.000000	100.104478 
1886.000000	100.104062 
1885.000000	100.103947 
1884.000000	100.104303 
1883.000000	100.104995 
1882.000000	100.105597 
1881.000000	100.106019 
1880.000000	100.106487 
1879.000000	100.106917 
1878.000000	100.106905 
1877.000000	100.106281 
1876.000000	100.105222 
1875.000000	100.103801 
1874.000000	100.102033 
1873.000000	100.100424 
1872.000000	100.099636 
1871.000000	100.099571 
1870.000000	100.099585 
1869.000000	100.099747 
1868.000000	100.100755 
1867.000000	100.102475 
1866.000000	100.103862 
1865.000000	100.104246 
1864.000000	100.103747 
1863.000000	100.102642 
1862.000000	100.101106 
1861.000000	100.099675 
1860.000000	100.099208 
1859.000000	100.099996 
1858.000000	100.101444 
1857.000000	100.102733 
1856.000000	100.103631 
1855.000000	100.104214 
1854.000000	100.104339 
1853.000000	100.104008 
1852.000000	100.103746 
1851.000000	100.104012 
1850.000000	100.104504 
1849.000000	100.104494 
1848.000000	100.103883 
1847.000000	100.103319 
1846.000000	100.103421 
1845.000000	100.104397 
1844.000000	100.106119 
1843.000000	100.107999 
1842.000000	100.109160 
1841.000000	100.109030 
1840.000000	100.107492 
1839.000000	100.104777 
1838.000000	100.101359 
1837.000000	100.098506 
1836.000000	100.098092 
1835.000000	100.100317 
1834.000000	100.102767 
1833.000000	100.103054 
1832.000000	100.101176 
1831.000000	100.099375 
1830.000000	100.099916 
1829.000000	100.102418 
1828.000000	100.104907 
1827.000000	100.105876 
1826.000000	100.104477 
1825.000000	100.101404 
1824.000000	100.098946 
1823.000000	100.098287 
1822.000000	100.098074 
1821.000000	100.097245 
1820.000000	100.097282 
1819.000000	100.099702 
1818.000000	100.102399 
1817.000000	100.102258 
1816.000000	100.100654 
1815.000000	100.101072 
1814.000000	100.103502 
1813.000000	100.104786 
1812.000000	100.103924 
1811.000000	100.103488 
1810.000000	100.104525 
1809.000000	100.105851 
1808.000000	100.107961 
1807.000000	100.112289 
1806.000000	100.118055 
1805.000000	100.122849 
1804.000000	100.125413 
1803.000000	100.125629 
1802.000000	100.124674 
1801.000000	100.126007 
1800.000000	100.133029 
1799.000000	100.144521 
1798.000000	100.154511 
1797.000000	100.159841 
1796.000000	100.164290 
1795.000000	100.173005 
1794.000000	100.186224 
1793.000000	100.199227 
1792.000000	100.208327 
1791.000000	100.214664 
1790.000000	100.220727 
1789.000000	100.228263 
1788.000000	100.238269 
1787.000000	100.249521 
1786.000000	100.258627 
1785.000000	100.264640 
1784.000000	100.271635 
1783.000000	100.282904 
1782.000000	100.297834 
1781.000000	100.314564 
1780.000000	100.331967 
1779.000000	100.349522 
1778.000000	100.365621 
1777.000000	100.379331 
1776.000000	100.391742 
1775.000000	100.404662 
1774.000000	100.419385 
1773.000000	100.436412 
1772.000000	100.455450 
1771.000000	100.476429 
1770.000000	100.499122 
1769.000000	100.522215 
1768.000000	100.546635 
1767.000000	100.575713 
1766.000000	100.609798 
1765.000000	100.644272 
1764.000000	100.674078 
1763.000000	100.698487 
1762.000000	100.721073 
1761.000000	100.745230 
1760.000000	100.772177 
1759.000000	100.801534 
1758.000000	100.830335 
1757.000000	100.854522 
1756.000000	100.872395 
1755.000000	100.888287 
1754.000000	100.906501 
1753.000000	100.923409 
1752.000000	100.930272 
1751.000000	100.925066 
1750.000000	100.916415 
1749.000000	100.911124 
1748.000000	100.906670 
1747.000000	100.898082 
1746.000000	100.884858 
1745.000000	100.866757 
1744.000000	100.841767 
1743.000000	100.811019 
1742.000000	100.777983 
1741.000000	100.742575 
1740.000000	100.702671 
1739.000000	100.661664 
1738.000000	100.627516 
1737.000000	100.600765 
1736.000000	100.572358 
1735.000000	100.532631 
1734.000000	100.483522 
1733.000000	100.440615 
1732.000000	100.413025 
1731.000000	100.394741 
1730.000000	100.377783 
1729.000000	100.361360 
1728.000000	100.347686 
1727.000000	100.337822 
1726.000000	100.330784 
1725.000000	100.324131 
1724.000000	100.315801 
1723.000000	100.306406 
1722.000000	100.297640 
1721.000000	100.290859 
1720.000000	100.285623 
1719.000000	100.280185 
1718.000000	100.271566 
1717.000000	100.258644 
1716.000000	100.248091 
1715.000000	100.245364 
1714.000000	100.245907 
1713.000000	100.244653 
1712.000000	100.242683 
1711.000000	100.242214 
1710.000000	100.242580 
1709.000000	100.242763 
1708.000000	100.242884 
1707.000000	100.242911 
1706.000000	100.241721 
1705.000000	100.238762 
1704.000000	100.236961 
1703.000000	100.236732 
1702.000000	100.234609 
1701.000000	100.228702 
1700.000000	100.223648 
1699.000000	100.225908 
1698.000000	100.231586 
1697.000000	100.232165 
1696.000000	100.226304 
1695.000000	100.218932 
1694.000000	100.214565 
1693.000000	100.213791 
1692.000000	100.214391 
1691.000000	100.215972 
1690.000000	100.218617 
1689.000000	100.222029 
1688.000000	100.225532 
1687.000000	100.228762 
1686.000000	100.232223 
1685.000000	100.236927 
1684.000000	100.243231 
1683.000000	100.248078 
1682.000000	100.250668 
1681.000000	100.252206 
1680.000000	100.251805 
1679.000000	100.251456 
1678.000000	100.253538 
1677.000000	100.258208 
1676.000000	100.262456 
1675.000000	100.264236 
1674.000000	100.265869 
1673.000000	100.269548 
1672.000000	100.273203 
1671.000000	100.274626 
1670.000000	100.274687 
1669.000000	100.276127 
1668.000000	100.279480 
1667.000000	100.283179 
1666.000000	100.285898 
1665.000000	100.287133 
1664.000000	100.287831 
1663.000000	100.289456 
1662.000000	100.292246 
1661.000000	100.295354 
1660.000000	100.297450 
1659.000000	100.298516 
1658.000000	100.299758 
1657.000000	100.302052 
1656.000000	100.304423 
1655.000000	100.306071 
1654.000000	100.308368 
1653.000000	100.311476 
1652.000000	100.313645 
1651.000000	100.315559 
1650.000000	100.317763 
1649.000000	100.319781 
1648.000000	100.321857 
1647.000000	100.324053 
1646.000000	100.326265 
1645.000000	100.328434 
1644.000000	100.330674 
1643.000000	100.332988 
1642.000000	100.335318 
1641.000000	100.337619 
1640.000000	100.339898 
1639.000000	100.342188 
1638.000000	100.344500 
1637.000000	100.346840 
1636.000000	100.349208 
1635.000000	100.351549 
1634.000000	100.353838 
1633.000000	100.356105 
1632.000000	100.358388 
1631.000000	100.360695 
1630.000000	100.363016 
1629.000000	100.365346 
1628.000000	100.367696 
1627.000000	100.370057 
1626.000000	100.372410 
1625.000000	100.374754 
1624.000000	100.377116 
1623.000000	100.379489 
1622.000000	100.381815 
1621.000000	100.384114 
1620.000000	100.386410 
1619.000000	100.388646 
1618.000000	100.390827 
1617.000000	100.393147 
1616.000000	100.395752 
1615.000000	100.398465 
1614.000000	100.401013 
1613.000000	100.403228 
1612.000000	100.405113 
1611.000000	100.406778 
1610.000000	100.408434 
1609.000000	100.410370 
1608.000000	100.412685 
1607.000000	100.415083 
1606.000000	100.417219 
1605.000000	100.419136 
1604.000000	100.421031 
1603.000000	100.423039 
1602.000000	100.425242 
1601.000000	100.427664 
1600.000000	100.430164 
1599.000000	100.432442 
1598.000000	100.434338 
1597.000000	100.435976 
1596.000000	100.437629 
1595.000000	100.439441 
1594.000000	100.441366 
1593.000000	100.443470 
1592.000000	100.445942 
1591.000000	100.448677 
1590.000000	100.451180 
1589.000000	100.453032 
1588.000000	100.454256 
1587.000000	100.455335 
1586.000000	100.456811 
1585.000000	100.459021 
1584.000000	100.461329 
1583.000000	100.462511 
1582.000000	100.462728 
1581.000000	100.463282 
1580.000000	100.464334 
1579.000000	100.464469 
1578.000000	100.463172 
1577.000000	100.462330 
1576.000000	100.463460 
1575.000000	100.465022 
1574.000000	100.466568 
1573.000000	100.468910 
1572.000000	100.471273 
1571.000000	100.473113 
1570.000000	100.474717 
1569.000000	100.476963 
1568.000000	100.479181 
1567.000000	100.480513 
1566.000000	100.481061 
1565.000000	100.481647 
1564.000000	100.482177 
1563.000000	100.482326 
1562.000000	100.482190 
1561.000000	100.482319 
1560.000000	100.482316 
1559.000000	100.482407 
1558.000000	100.480698 
1557.000000	100.477953 
1556.000000	100.478323 
1555.000000	100.478708 
1554.000000	100.479049 
1553.000000	100.479417 
1552.000000	100.479780 
1551.000000	100.479208 
1550.000000	100.478525 
1549.000000	100.479827 
1548.000000	100.484101 
1547.000000	100.489219 
1546.000000	100.491612 
1545.000000	100.489307 
1544.000000	100.483970 
1543.000000	100.479352 
1542.000000	100.477199 
1541.000000	100.476838 
1540.000000	100.476727 
1539.000000	100.473441 
1538.000000	100.468085 
1537.000000	100.464944 
1536.000000	100.463175 
1535.000000	100.460472 
1534.000000	100.456173 
1533.000000	100.451188 
1532.000000	100.446474 
1531.000000	100.443014 
1530.000000	100.440631 
1529.000000	100.438570 
1528.000000	100.436491 
1527.000000	100.434003 
1526.000000	100.430929 
1525.000000	100.427928 
1524.000000	100.425743 
1523.000000	100.424271 
1522.000000	100.422356 
1521.000000	100.418648 
1520.000000	100.414150 
1519.000000	100.411155 
1518.000000	100.409552 
1517.000000	100.407611 
1516.000000	100.404605 
1515.000000	100.401127 
1514.000000	100.397489 
1513.000000	100.392159 
1512.000000	100.384693 
1511.000000	100.377668 
1510.000000	100.373014 
1509.000000	100.369064 
1508.000000	100.364394 
1507.000000	100.363562 
1506.000000	100.364890 
1505.000000	100.362299 
1504.000000	100.359402 
1503.000000	100.358728 
1502.000000	100.359143 
1501.000000	100.358988 
1500.000000	100.357622 
1499.000000	100.355858 
1498.000000	100.353618 
1497.000000	100.347801 
1496.000000	100.337311 
1495.000000	100.327089 
1494.000000	100.321520 
1493.000000	100.319674 
1492.000000	100.318305 
1491.000000	100.315570 
1490.000000	100.311866 
1489.000000	100.308247 
1488.000000	100.305643 
1487.000000	100.304427 
1486.000000	100.302974 
1485.000000	100.300565 
1484.000000	100.297310 
1483.000000	100.292485 
1482.000000	100.286031 
1481.000000	100.280044 
1480.000000	100.277583 
1479.000000	100.278498 
1478.000000	100.279179 
1477.000000	100.277088 
1476.000000	100.274859 
1475.000000	100.276004 
1474.000000	100.280012 
1473.000000	100.284508 
1472.000000	100.288784 
1471.000000	100.294268 
1470.000000	100.301412 
1469.000000	100.308730 
1468.000000	100.314597 
1467.000000	100.318219 
1466.000000	100.319521 
1465.000000	100.320008 
1464.000000	100.321998 
1463.000000	100.327176 
1462.000000	100.334787 
1461.000000	100.342409 
1460.000000	100.348403 
1459.000000	100.352210 
1458.000000	100.352551 
1457.000000	100.344721 
1456.000000	100.328527 
1455.000000	100.314293 
1454.000000	100.308588 
1453.000000	100.307171 
1452.000000	100.305228 
1451.000000	100.302416 
1450.000000	100.301405 
1449.000000	100.302819 
1448.000000	100.305694 
1447.000000	100.309310 
1446.000000	100.313439 
1445.000000	100.317086 
1444.000000	100.318226 
1443.000000	100.316791 
1442.000000	100.314388 
1441.000000	100.313030 
1440.000000	100.314605 
1439.000000	100.320459 
1438.000000	100.328976 
1437.000000	100.334525 
1436.000000	100.334449 
1435.000000	100.334306 
1434.000000	100.339186 
1433.000000	100.347264 
1432.000000	100.355185 
1431.000000	100.362043 
1430.000000	100.367921 
1429.000000	100.371024 
1428.000000	100.370344 
1427.000000	100.367726 
1426.000000	100.365233 
1425.000000	100.362573 
1424.000000	100.358284 
1423.000000	100.353250 
1422.000000	100.348008 
1421.000000	100.339122 
1420.000000	100.321650 
1419.000000	100.297521 
1418.000000	100.274967 
1417.000000	100.256259 
1416.000000	100.238200 
1415.000000	100.219755 
1414.000000	100.202011 
1413.000000	100.184675 
1412.000000	100.167186 
1411.000000	100.151742 
1410.000000	100.141203 
1409.000000	100.135449 
1408.000000	100.133619 
1407.000000	100.136548 
1406.000000	100.145192 
1405.000000	100.159006 
1404.000000	100.176700 
1403.000000	100.198130 
1402.000000	100.222827 
1401.000000	100.248446 
1400.000000	100.271849 
1399.000000	100.289702 
1398.000000	100.296783 
1397.000000	100.286708 
1396.000000	100.259563 
1395.000000	100.230810 
1394.000000	100.224409 
1393.000000	100.249470 
1392.000000	100.293484 
1391.000000	100.337386 
1390.000000	100.369615 
1389.000000	100.388022 
1388.000000	100.395526 
1387.000000	100.396769 
1386.000000	100.396499 
1385.000000	100.398053 
1384.000000	100.402283 
1383.000000	100.408338 
1382.000000	100.415104 
1381.000000	100.422287 
1380.000000	100.430585 
1379.000000	100.440702 
1378.000000	100.452586 
1377.000000	100.465582 
1376.000000	100.479233 
1375.000000	100.493652 
1374.000000	100.509101 
1373.000000	100.525170 
1372.000000	100.541194 
1371.000000	100.557095 
1370.000000	100.572906 
1369.000000	100.588124 
1368.000000	100.602074 
1367.000000	100.615193 
1366.000000	100.628790 
1365.000000	100.643219 
1364.000000	100.656992 
1363.000000	100.668213 
1362.000000	100.676335 
1361.000000	100.682162 
1360.000000	100.686822 
1359.000000	100.691423 
1358.000000	100.697234 
1357.000000	100.705187 
1356.000000	100.714975 
1355.000000	100.725285 
1354.000000	100.734897 
1353.000000	100.743224 
1352.000000	100.750122 
1351.000000	100.755450 
1350.000000	100.759917 
1349.000000	100.764881 
1348.000000	100.770012 
1347.000000	100.774238 
1346.000000	100.777708 
1345.000000	100.781280 
1344.000000	100.784791 
1343.000000	100.787339 
1342.000000	100.788596 
1341.000000	100.788923 
1340.000000	100.788809 
1339.000000	100.789121 
1338.000000	100.791236 
1337.000000	100.795707 
1336.000000	100.801105 
1335.000000	100.805251 
1334.000000	100.807442 
1333.000000	100.808743 
1332.000000	100.810348 
1331.000000	100.812710 
1330.000000	100.816149 
1329.000000	100.820994 
1328.000000	100.826714 
1327.000000	100.831765 
1326.000000	100.835047 
1325.000000	100.837145 
1324.000000	100.839615 
1323.000000	100.843288 
1322.000000	100.847326 
1321.000000	100.850121 
1320.000000	100.851290 
1319.000000	100.852519 
1318.000000	100.855775 
1317.000000	100.860985 
1316.000000	100.866413 
1315.000000	100.870992 
1314.000000	100.875022 
1313.000000	100.878447 
1312.000000	100.880106 
1311.000000	100.879731 
1310.000000	100.879517 
1309.000000	100.882225 
1308.000000	100.888210 
1307.000000	100.895065 
1306.000000	100.899892 
1305.000000	100.901291 
1304.000000	100.899718 
1303.000000	100.897253 
1302.000000	100.896538 
1301.000000	100.898624 
1300.000000	100.901838 
1299.000000	100.903677 
1298.000000	100.903524 
1297.000000	100.902689 
1296.000000	100.902213 
1295.000000	100.901969 
1294.000000	100.901894 
1293.000000	100.902525 
1292.000000	100.903790 
1291.000000	100.904440 
1290.000000	100.903546 
1289.000000	100.901785 
1288.000000	100.900368 
1287.000000	100.899330 
1286.000000	100.898034 
1285.000000	100.896974 
1284.000000	100.897691 
1283.000000	100.900756 
1282.000000	100.904756 
1281.000000	100.907889 
1280.000000	100.909981 
1279.000000	100.911826 
1278.000000	100.913092 
1277.000000	100.912408 
1276.000000	100.909352 
1275.000000	100.904880 
1274.000000	100.899497 
1273.000000	100.892288 
1272.000000	100.882596 
1271.000000	100.871700 
1270.000000	100.861749 
1269.000000	100.853485 
1268.000000	100.845802 
1267.000000	100.837023 
1266.000000	100.825851 
1265.000000	100.811777 
1264.000000	100.795656 
1263.000000	100.779571 
1262.000000	100.765348 
1261.000000	100.753552 
1260.000000	100.744233 
1259.000000	100.737411 
1258.000000	100.732033 
1257.000000	100.725841 
1256.000000	100.717809 
1255.000000	100.709660 
1254.000000	100.703356 
1253.000000	100.698211 
1252.000000	100.692664 
1251.000000	100.688050 
1250.000000	100.687925 
1249.000000	100.693856 
1248.000000	100.704336 
1247.000000	100.717231 
1246.000000	100.729774 
1245.000000	100.736074 
1244.000000	100.729930 
1243.000000	100.713753 
1242.000000	100.701439 
1241.000000	100.706842 
1240.000000	100.729590 
1239.000000	100.755026 
1238.000000	100.768644 
1237.000000	100.767826 
1236.000000	100.758940 
1235.000000	100.747772 
1234.000000	100.735753 
1233.000000	100.723345 
1232.000000	100.712762 
1231.000000	100.706166 
1230.000000	100.703320 
1229.000000	100.702371 
1228.000000	100.701957 
1227.000000	100.701437 
1226.000000	100.699877 
1225.000000	100.696366 
1224.000000	100.691415 
1223.000000	100.686835 
1222.000000	100.683638 
1221.000000	100.680700 
1220.000000	100.675908 
1219.000000	100.668019 
1218.000000	100.657052 
1217.000000	100.643692 
1216.000000	100.629000 
1215.000000	100.613938 
1214.000000	100.598212 
1213.000000	100.580167 
1212.000000	100.558785 
1211.000000	100.535194 
1210.000000	100.511126 
1209.000000	100.486713 
1208.000000	100.461328 
1207.000000	100.435780 
1206.000000	100.411432 
1205.000000	100.387296 
1204.000000	100.360587 
1203.000000	100.331052 
1202.000000	100.302756 
1201.000000	100.280015 
1200.000000	100.262494 
1199.000000	100.245550 
1198.000000	100.224974 
1197.000000	100.200602 
1196.000000	100.175462 
1195.000000	100.152538 
1194.000000	100.132584 
1193.000000	100.114239 
1192.000000	100.095532 
1191.000000	100.075019 
1190.000000	100.051989 
1189.000000	100.026578 
1188.000000	99.999966  
1187.000000	99.973637  
1186.000000	99.947856  
1185.000000	99.921488  
1184.000000	99.893792  
1183.000000	99.865591  
1182.000000	99.837901  
1181.000000	99.810163  
1180.000000	99.780862  
1179.000000	99.749572  
1178.000000	99.717430  
1177.000000	99.685551  
1176.000000	99.653494  
1175.000000	99.619215  
1174.000000	99.580345  
1173.000000	99.536059  
1172.000000	99.488212  
1171.000000	99.440417  
1170.000000	99.395532  
1169.000000	99.353995  
1168.000000	99.314229  
1167.000000	99.273957  
1166.000000	99.231817  
1165.000000	99.189559  
1164.000000	99.152889  
1163.000000	99.128302  
1162.000000	99.118017  
1161.000000	99.118577  
1160.000000	99.124080  
1159.000000	99.129125  
1158.000000	99.128653  
1157.000000	99.117988  
1156.000000	99.095180  
1155.000000	99.062333  
1154.000000	99.023243  
1153.000000	98.980323  
1152.000000	98.934683  
1151.000000	98.887922  
1150.000000	98.842201  
1149.000000	98.799146  
1148.000000	98.759585  
1147.000000	98.723362  
1146.000000	98.688589  
1145.000000	98.652538  
1144.000000	98.614617  
1143.000000	98.577656  
1142.000000	98.545336  
1141.000000	98.519144  
1140.000000	98.498040  
1139.000000	98.479252  
1138.000000	98.458664  
1137.000000	98.432539  
1136.000000	98.400461  
1135.000000	98.365428  
1134.000000	98.329926  
1133.000000	98.293034  
1132.000000	98.252498  
1131.000000	98.208371  
1130.000000	98.163197  
1129.000000	98.119268  
1128.000000	98.076452  
1127.000000	98.031914  
1126.000000	97.981846  
1125.000000	97.925120  
1124.000000	97.865581  
1123.000000	97.809015  
1122.000000	97.757480  
1121.000000	97.708412  
1120.000000	97.658958  
1119.000000	97.608171  
1118.000000	97.554926  
1117.000000	97.497566  
1116.000000	97.436964  
1115.000000	97.376795  
1114.000000	97.319368  
1113.000000	97.263980  
1112.000000	97.210353  
1111.000000	97.159934  
1110.000000	97.112459  
1109.000000	97.065177  
1108.000000	97.016861  
1107.000000	96.969602  
1106.000000	96.924993  
1105.000000	96.881509  
1104.000000	96.837239  
1103.000000	96.792604  
1102.000000	96.748875  
1101.000000	96.706365  
1100.000000	96.665334  
1099.000000	96.626334  
1098.000000	96.588250  
1097.000000	96.548353  
1096.000000	96.505371  
1095.000000	96.460208  
1094.000000	96.412280  
1093.000000	96.357675  
1092.000000	96.293151  
1091.000000	96.220841  
1090.000000	96.147532  
1089.000000	96.079591  
1088.000000	96.018853  
1087.000000	95.962030  
1086.000000	95.903439  
1085.000000	95.839752  
1084.000000	95.772500  
1083.000000	95.705031  
1082.000000	95.638076  
1081.000000	95.570777  
1080.000000	95.505030  
1079.000000	95.445015  
1078.000000	95.392647  
1077.000000	95.347318  
1076.000000	95.309716  
1075.000000	95.281170  
1074.000000	95.259250  
1073.000000	95.238935  
1072.000000	95.217466  
1071.000000	95.191372  
1070.000000	95.149038  
1069.000000	95.076593  
1068.000000	94.977002  
1067.000000	94.877478  
1066.000000	94.809360  
1065.000000	94.782493  
1064.000000	94.782596  
1063.000000	94.786368  
1062.000000	94.774674  
1061.000000	94.736610  
1060.000000	94.672219  
1059.000000	94.595319  
1058.000000	94.527092  
1057.000000	94.481116  
1056.000000	94.454912  
1055.000000	94.435482  
1054.000000	94.411367  
1053.000000	94.380318  
1052.000000	94.347862  
1051.000000	94.319825  
1050.000000	94.296307  
1049.000000	94.273330  
1048.000000	94.249199  
1047.000000	94.226365  
1046.000000	94.207263  
1045.000000	94.191889  
1044.000000	94.180124  
1043.000000	94.172744  
1042.000000	94.168094  
1041.000000	94.160594  
1040.000000	94.145830  
1039.000000	94.126924  
1038.000000	94.113763  
1037.000000	94.114950  
1036.000000	94.130585  
1035.000000	94.152985  
1034.000000	94.174481  
1033.000000	94.192998  
1032.000000	94.207336  
1031.000000	94.209193  
1030.000000	94.187981  
1029.000000	94.147981  
1028.000000	94.114497  
1027.000000	94.113712  
1026.000000	94.147317  
1025.000000	94.192532  
1024.000000	94.226315  
1023.000000	94.243229  
1022.000000	94.250061  
1021.000000	94.252831  
1020.000000	94.253182  
1019.000000	94.251481  
1018.000000	94.248169  
1017.000000	94.244325  
1016.000000	94.243236  
1015.000000	94.248813  
1014.000000	94.260824  
1013.000000	94.274468  
1012.000000	94.285728  
1011.000000	94.294306  
1010.000000	94.301398  
1009.000000	94.308545  
1008.000000	94.318849  
1007.000000	94.334950  
1006.000000	94.355173  
1005.000000	94.375562  
1004.000000	94.395673  
1003.000000	94.417770  
1002.000000	94.440725  
1001.000000	94.460645  
1000.000000	94.478240  
999.000000	 94.499270  
998.000000	 94.525852  
997.000000	 94.553061  
996.000000	 94.576450  
995.000000	 94.597762  
994.000000	 94.620700  
993.000000	 94.645966  
992.000000	 94.673041  
991.000000	 94.702031  
990.000000	 94.731039  
989.000000	 94.756323  
988.000000	 94.777960  
987.000000	 94.801286  
986.000000	 94.830232  
985.000000	 94.863548  
984.000000	 94.898988  
983.000000	 94.936090  
982.000000	 94.974024  
981.000000	 95.011214  
980.000000	 95.048687  
979.000000	 95.090260  
978.000000	 95.137349  
977.000000	 95.187508  
976.000000	 95.239863  
975.000000	 95.297331  
974.000000	 95.361359  
973.000000	 95.429089  
972.000000	 95.497978  
971.000000	 95.568802  
970.000000	 95.641622  
969.000000	 95.713008  
968.000000	 95.780264  
967.000000	 95.845278  
966.000000	 95.911712  
965.000000	 95.980913  
964.000000	 96.051807  
963.000000	 96.121544  
962.000000	 96.185390  
961.000000	 96.240275  
960.000000	 96.290119  
959.000000	 96.343463  
958.000000	 96.403563  
957.000000	 96.464878  
956.000000	 96.521842  
955.000000	 96.576695  
954.000000	 96.635093  
953.000000	 96.697329  
952.000000	 96.757933  
951.000000	 96.812095  
950.000000	 96.859435  
949.000000	 96.903147  
948.000000	 96.947784  
947.000000	 96.996079  
946.000000	 97.045497  
945.000000	 97.089722  
944.000000	 97.125738  
943.000000	 97.157620  
942.000000	 97.191321  
941.000000	 97.227762  
940.000000	 97.263810  
939.000000	 97.298240  
938.000000	 97.333376  
937.000000	 97.371246  
936.000000	 97.410726  
935.000000	 97.448966  
934.000000	 97.484416  
933.000000	 97.518273  
932.000000	 97.553259  
931.000000	 97.590479  
930.000000	 97.627609  
929.000000	 97.661666  
928.000000	 97.693828  
927.000000	 97.729446  
926.000000	 97.771952  
925.000000	 97.818266  
924.000000	 97.861622  
923.000000	 97.897790  
922.000000	 97.927367  
921.000000	 97.953431  
920.000000	 97.978745  
919.000000	 98.004770  
918.000000	 98.031744  
917.000000	 98.059163  
916.000000	 98.086820  
915.000000	 98.115607  
914.000000	 98.146842  
913.000000	 98.180541  
912.000000	 98.214472  
911.000000	 98.245593  
910.000000	 98.273433  
909.000000	 98.301944  
908.000000	 98.336412  
907.000000	 98.377699  
906.000000	 98.420738  
905.000000	 98.460136  
904.000000	 98.496772  
903.000000	 98.537512  
902.000000	 98.588725  
901.000000	 98.650588  
900.000000	 98.716577  
899.000000	 98.777918  
898.000000	 98.829990  
897.000000	 98.875286  
896.000000	 98.919080  
895.000000	 98.962461  
894.000000	 99.002355  
893.000000	 99.039078  
892.000000	 99.079433  
891.000000	 99.128782  
890.000000	 99.182959  
889.000000	 99.232616  
888.000000	 99.273689  
887.000000	 99.308916  
886.000000	 99.340696  
885.000000	 99.367823  
884.000000	 99.389114  
883.000000	 99.404928  
882.000000	 99.414709  
881.000000	 99.418960  
880.000000	 99.425290  
879.000000	 99.445996  
878.000000	 99.485721  
877.000000	 99.535879  
876.000000	 99.584631  
875.000000	 99.628501  
874.000000	 99.670543  
873.000000	 99.712103  
872.000000	 99.752342  
871.000000	 99.793345  
870.000000	 99.839521  
869.000000	 99.891706  
868.000000	 99.945671  
867.000000	 99.997204  
866.000000	 100.046422 
865.000000	 100.096254 
864.000000	 100.147648 
863.000000	 100.196952 
862.000000	 100.238747 
861.000000	 100.272120 
860.000000	 100.303263 
859.000000	 100.339649 
858.000000	 100.381619 
857.000000	 100.422453 
856.000000	 100.457290 
855.000000	 100.488783 
854.000000	 100.522601 
853.000000	 100.560227 
852.000000	 100.598152 
851.000000	 100.631509 
850.000000	 100.656448 
849.000000	 100.671932 
848.000000	 100.682119 
847.000000	 100.694581 
846.000000	 100.712544 
845.000000	 100.730419 
844.000000	 100.740273 
843.000000	 100.741251 
842.000000	 100.739391 
841.000000	 100.739396 
840.000000	 100.740398 
839.000000	 100.739338 
838.000000	 100.734697 
837.000000	 100.726530 
836.000000	 100.715962 
835.000000	 100.705298 
834.000000	 100.696429 
833.000000	 100.689210 
832.000000	 100.683341 
831.000000	 100.680489 
830.000000	 100.681205 
829.000000	 100.681017 
828.000000	 100.674704 
827.000000	 100.665131 
826.000000	 100.662466 
825.000000	 100.671930 
824.000000	 100.686534 
823.000000	 100.694803 
822.000000	 100.691804 
821.000000	 100.680146 
820.000000	 100.664854 
819.000000	 100.650493 
818.000000	 100.639149 
817.000000	 100.627274 
816.000000	 100.606813 
815.000000	 100.572701 
814.000000	 100.527595 
813.000000	 100.475903 
812.000000	 100.414302 
811.000000	 100.331937 
810.000000	 100.220307 
809.000000	 100.080423 
808.000000	 99.920057  
807.000000	 99.746515  
806.000000	 99.563219  
805.000000	 99.372382  
804.000000	 99.179525  
803.000000	 98.993831  
802.000000	 98.823602  
801.000000	 98.673337  
800.000000	 98.546580  
799.000000	 98.449013  
798.000000	 98.385917  
797.000000	 98.357963  
796.000000	 98.361211  
795.000000	 98.389269  
794.000000	 98.433813  
793.000000	 98.485208  
792.000000	 98.534997  
791.000000	 98.577338  
790.000000	 98.607993  
789.000000	 98.624034  
788.000000	 98.625140  
787.000000	 98.612302  
786.000000	 98.583324  
785.000000	 98.532314  
784.000000	 98.457142  
783.000000	 98.366433  
782.000000	 98.276105  
781.000000	 98.199509  
780.000000	 98.143298  
779.000000	 98.110759  
778.000000	 98.104587  
777.000000	 98.126267  
776.000000	 98.175273  
775.000000	 98.248373  
774.000000	 98.337652  
773.000000	 98.430675  
772.000000	 98.516165  
771.000000	 98.590415  
770.000000	 98.656773  
769.000000	 98.719404  
768.000000	 98.779897  
767.000000	 98.839140  
766.000000	 98.898006  
765.000000	 98.954332  
764.000000	 99.002866  
763.000000	 99.041481  
762.000000	 99.075439  
761.000000	 99.112521  
760.000000	 99.155646  
759.000000	 99.203112  
758.000000	 99.253888  
757.000000	 99.308338  
756.000000	 99.364518  
755.000000	 99.418401  
754.000000	 99.468267  
753.000000	 99.514711  
752.000000	 99.555823  
751.000000	 99.587134  
750.000000	 99.608357  
749.000000	 99.626625  
748.000000	 99.650071  
747.000000	 99.680000  
746.000000	 99.711469  
745.000000	 99.739819  
744.000000	 99.764955  
743.000000	 99.791075  
742.000000	 99.823267  
741.000000	 99.862638  
740.000000	 99.904703  
739.000000	 99.944727  
738.000000	 99.983746  
737.000000	 100.025283 
736.000000	 100.066388 
735.000000	 100.098373 
734.000000	 100.118077 
733.000000	 100.131909 
732.000000	 100.145894 
731.000000	 100.157630 
730.000000	 100.162289 
729.000000	 100.160802 
728.000000	 100.160281 
727.000000	 100.168265 
726.000000	 100.186311 
725.000000	 100.209651 
724.000000	 100.231672 
723.000000	 100.249631 
722.000000	 100.267562 
721.000000	 100.291991 
720.000000	 100.323310 
719.000000	 100.353056 
718.000000	 100.372115 
717.000000	 100.380851 
716.000000	 100.388256 
715.000000	 100.402907 
714.000000	 100.426633 
713.000000	 100.454257 
712.000000	 100.478290 
711.000000	 100.493959 
710.000000	 100.503226 
709.000000	 100.513769 
708.000000	 100.527673 
707.000000	 100.540300 
706.000000	 100.545538 
705.000000	 100.540333 
704.000000	 100.525484 
703.000000	 100.501741 
702.000000	 100.469289 
701.000000	 100.428615 
700.000000	 100.377065 
699.000000	 100.310493 
698.000000	 100.229812 
697.000000	 100.147375 
696.000000	 100.084751 
695.000000	 100.058458 
694.000000	 100.072149 
693.000000	 100.118243 
692.000000	 100.182138 
691.000000	 100.251254 
690.000000	 100.320333 
689.000000	 100.389369 
688.000000	 100.455689 
687.000000	 100.509881 
686.000000	 100.546347 
685.000000	 100.569878 
684.000000	 100.585727 
683.000000	 100.592643 
682.000000	 100.589867 
681.000000	 100.584656 
680.000000	 100.586161 
679.000000	 100.597487 
678.000000	 100.617346 
677.000000	 100.639938 
676.000000	 100.658727 
675.000000	 100.671968 
674.000000	 100.684356 
673.000000	 100.704502 
672.000000	 100.742709 
671.000000	 100.809085 
670.000000	 100.910039 
669.000000	 101.026232 
668.000000	 101.075515 
667.000000	 101.012865 
666.000000	 100.915538 
665.000000	 100.846026 
664.000000	 100.811403 
663.000000	 100.808283 
662.000000	 100.825009 
661.000000	 100.843837 
660.000000	 100.856336 
659.000000	 100.868269 
658.000000	 100.883326 
657.000000	 100.892084 
656.000000	 100.890074 
655.000000	 100.888479 
654.000000	 100.893954 
653.000000	 100.897745 
652.000000	 100.894732 
651.000000	 100.891737 
650.000000	 100.892030 

