4000.000000	98.680274 
3999.000000	98.679834 
3998.000000	98.679882 
3997.000000	98.680354 
3996.000000	98.681070 
3995.000000	98.681740 
3994.000000	98.682066 
3993.000000	98.681945 
3992.000000	98.681493 
3991.000000	98.680945 
3990.000000	98.680591 
3989.000000	98.680620 
3988.000000	98.680979 
3987.000000	98.681348 
3986.000000	98.681417 
3985.000000	98.681149 
3984.000000	98.680769 
3983.000000	98.680542 
3982.000000	98.680570 
3981.000000	98.680794 
3980.000000	98.681049 
3979.000000	98.681168 
3978.000000	98.681083 
3977.000000	98.680825 
3976.000000	98.680464 
3975.000000	98.680073 
3974.000000	98.679767 
3973.000000	98.679690 
3972.000000	98.679902 
3971.000000	98.680286 
3970.000000	98.680648 
3969.000000	98.680918 
3968.000000	98.681161 
3967.000000	98.681395 
3966.000000	98.681520 
3965.000000	98.681420 
3964.000000	98.681108 
3963.000000	98.680738 
3962.000000	98.680488 
3961.000000	98.680419 
3960.000000	98.680432 
3959.000000	98.680356 
3958.000000	98.680082 
3957.000000	98.679701 
3956.000000	98.679452 
3955.000000	98.679496 
3954.000000	98.679791 
3953.000000	98.680104 
3952.000000	98.680163 
3951.000000	98.679822 
3950.000000	98.679227 
3949.000000	98.678840 
3948.000000	98.679011 
3947.000000	98.679542 
3946.000000	98.679789 
3945.000000	98.679267 
3944.000000	98.678017 
3943.000000	98.676569 
3942.000000	98.675526 
3941.000000	98.675107 
3940.000000	98.675108 
3939.000000	98.675323 
3938.000000	98.675777 
3937.000000	98.676508 
3936.000000	98.677332 
3935.000000	98.677900 
3934.000000	98.678024 
3933.000000	98.677805 
3932.000000	98.677464 
3931.000000	98.677075 
3930.000000	98.676574 
3929.000000	98.675967 
3928.000000	98.675331 
3927.000000	98.674770 
3926.000000	98.674416 
3925.000000	98.674340 
3924.000000	98.674515 
3923.000000	98.674821 
3922.000000	98.675058 
3921.000000	98.675143 
3920.000000	98.675144 
3919.000000	98.675127 
3918.000000	98.675097 
3917.000000	98.675049 
3916.000000	98.674998 
3915.000000	98.674954 
3914.000000	98.674913 
3913.000000	98.674868 
3912.000000	98.674820 
3911.000000	98.674772 
3910.000000	98.674724 
3909.000000	98.674674 
3908.000000	98.674613 
3907.000000	98.674534 
3906.000000	98.674435 
3905.000000	98.674320 
3904.000000	98.674195 
3903.000000	98.674064 
3902.000000	98.673929 
3901.000000	98.673793 
3900.000000	98.673660 
3899.000000	98.673534 
3898.000000	98.673408 
3897.000000	98.673274 
3896.000000	98.673115 
3895.000000	98.672921 
3894.000000	98.672687 
3893.000000	98.672422 
3892.000000	98.672138 
3891.000000	98.671845 
3890.000000	98.671549 
3889.000000	98.671253 
3888.000000	98.670964 
3887.000000	98.670686 
3886.000000	98.670420 
3885.000000	98.670157 
3884.000000	98.669883 
3883.000000	98.669584 
3882.000000	98.669259 
3881.000000	98.668923 
3880.000000	98.668595 
3879.000000	98.668280 
3878.000000	98.667969 
3877.000000	98.667645 
3876.000000	98.667299 
3875.000000	98.666933 
3874.000000	98.666552 
3873.000000	98.666165 
3872.000000	98.665780 
3871.000000	98.665399 
3870.000000	98.665029 
3869.000000	98.664694 
3868.000000	98.664399 
3867.000000	98.664090 
3866.000000	98.663706 
3865.000000	98.663263 
3864.000000	98.662901 
3863.000000	98.662759 
3862.000000	98.662777 
3861.000000	98.662845 
3860.000000	98.663005 
3859.000000	98.663167 
3858.000000	98.662987 
3857.000000	98.662194 
3856.000000	98.661124 
3855.000000	98.660363 
3854.000000	98.659669 
3853.000000	98.658876 
3852.000000	98.658581 
3851.000000	98.658665 
3850.000000	98.658664 
3849.000000	98.658917 
3848.000000	98.659943 
3847.000000	98.661688 
3846.000000	98.663353 
3845.000000	98.664205 
3844.000000	98.664426 
3843.000000	98.664530 
3842.000000	98.664524 
3841.000000	98.664337 
3840.000000	98.664219 
3839.000000	98.664461 
3838.000000	98.665108 
3837.000000	98.665730 
3836.000000	98.665892 
3835.000000	98.665501 
3834.000000	98.664858 
3833.000000	98.664523 
3832.000000	98.664817 
3831.000000	98.665606 
3830.000000	98.666427 
3829.000000	98.666833 
3828.000000	98.666829 
3827.000000	98.666818 
3826.000000	98.667068 
3825.000000	98.667472 
3824.000000	98.667782 
3823.000000	98.667844 
3822.000000	98.667711 
3821.000000	98.667611 
3820.000000	98.667660 
3819.000000	98.667628 
3818.000000	98.667371 
3817.000000	98.667049 
3816.000000	98.666857 
3815.000000	98.666792 
3814.000000	98.666746 
3813.000000	98.666670 
3812.000000	98.666592 
3811.000000	98.666539 
3810.000000	98.666494 
3809.000000	98.666426 
3808.000000	98.666321 
3807.000000	98.666178 
3806.000000	98.665996 
3805.000000	98.665774 
3804.000000	98.665518 
3803.000000	98.665246 
3802.000000	98.664975 
3801.000000	98.664713 
3800.000000	98.664457 
3799.000000	98.664206 
3798.000000	98.663962 
3797.000000	98.663741 
3796.000000	98.663555 
3795.000000	98.663410 
3794.000000	98.663300 
3793.000000	98.663226 
3792.000000	98.663185 
3791.000000	98.663175 
3790.000000	98.663203 
3789.000000	98.663275 
3788.000000	98.663368 
3787.000000	98.663450 
3786.000000	98.663529 
3785.000000	98.663648 
3784.000000	98.663845 
3783.000000	98.664110 
3782.000000	98.664383 
3781.000000	98.664601 
3780.000000	98.664773 
3779.000000	98.664974 
3778.000000	98.665257 
3777.000000	98.665598 
3776.000000	98.665975 
3775.000000	98.666420 
3774.000000	98.666931 
3773.000000	98.667414 
3772.000000	98.667817 
3771.000000	98.668210 
3770.000000	98.668692 
3769.000000	98.669244 
3768.000000	98.669600 
3767.000000	98.669515 
3766.000000	98.669310 
3765.000000	98.669633 
3764.000000	98.670694 
3763.000000	98.671974 
3762.000000	98.672716 
3761.000000	98.672706 
3760.000000	98.672436 
3759.000000	98.672775 
3758.000000	98.674002 
3757.000000	98.675301 
3756.000000	98.676053 
3755.000000	98.676546 
3754.000000	98.677521 
3753.000000	98.679340 
3752.000000	98.681540 
3751.000000	98.683760 
3750.000000	98.685753 
3749.000000	98.686065 
3748.000000	98.682842 
3747.000000	98.676618 
3746.000000	98.671326 
3745.000000	98.669960 
3744.000000	98.672165 
3743.000000	98.675523 
3742.000000	98.676553 
3741.000000	98.673897 
3740.000000	98.670340 
3739.000000	98.670661 
3738.000000	98.676461 
3737.000000	98.682697 
3736.000000	98.683599 
3735.000000	98.678541 
3734.000000	98.670577 
3733.000000	98.662314 
3732.000000	98.655927 
3731.000000	98.653730 
3730.000000	98.654867 
3729.000000	98.655949 
3728.000000	98.655377 
3727.000000	98.654109 
3726.000000	98.652910 
3725.000000	98.650373 
3724.000000	98.644677 
3723.000000	98.636296 
3722.000000	98.628017 
3721.000000	98.622087 
3720.000000	98.617670 
3719.000000	98.614420 
3718.000000	98.614105 
3717.000000	98.616709 
3716.000000	98.620210 
3715.000000	98.622782 
3714.000000	98.623963 
3713.000000	98.623027 
3712.000000	98.617535 
3711.000000	98.606115 
3710.000000	98.590225 
3709.000000	98.573686 
3708.000000	98.560759 
3707.000000	98.553010 
3706.000000	98.548572 
3705.000000	98.543737 
3704.000000	98.535126 
3703.000000	98.521398 
3702.000000	98.504080 
3701.000000	98.486293 
3700.000000	98.469384 
3699.000000	98.452674 
3698.000000	98.437093 
3697.000000	98.425033 
3696.000000	98.417776 
3695.000000	98.414208 
3694.000000	98.410732 
3693.000000	98.403624 
3692.000000	98.391879 
3691.000000	98.377653 
3690.000000	98.363764 
3689.000000	98.352257 
3688.000000	98.343638 
3687.000000	98.336105 
3686.000000	98.328849 
3685.000000	98.324239 
3684.000000	98.325622 
3683.000000	98.333345 
3682.000000	98.342986 
3681.000000	98.347234 
3680.000000	98.341127 
3679.000000	98.325069 
3678.000000	98.304632 
3677.000000	98.286876 
3676.000000	98.275801 
3675.000000	98.274596 
3674.000000	98.280754 
3673.000000	98.284129 
3672.000000	98.279515 
3671.000000	98.271130 
3670.000000	98.264846 
3669.000000	98.262492 
3668.000000	98.261574 
3667.000000	98.259282 
3666.000000	98.257386 
3665.000000	98.259282 
3664.000000	98.264205 
3663.000000	98.268565 
3662.000000	98.270268 
3661.000000	98.269939 
3660.000000	98.269822 
3659.000000	98.271589 
3658.000000	98.276300 
3657.000000	98.284994 
3656.000000	98.298191 
3655.000000	98.314385 
3654.000000	98.328866 
3653.000000	98.338076 
3652.000000	98.343543 
3651.000000	98.348399 
3650.000000	98.351864 
3649.000000	98.350723 
3648.000000	98.346186 
3647.000000	98.343797 
3646.000000	98.347422 
3645.000000	98.356351 
3644.000000	98.367300 
3643.000000	98.378393 
3642.000000	98.388855 
3641.000000	98.397633 
3640.000000	98.404161 
3639.000000	98.409250 
3638.000000	98.414605 
3637.000000	98.420686 
3636.000000	98.426640 
3635.000000	98.432080 
3634.000000	98.437519 
3633.000000	98.443286 
3632.000000	98.448395 
3631.000000	98.451480 
3630.000000	98.451369 
3629.000000	98.449097 
3628.000000	98.448865 
3627.000000	98.452151 
3626.000000	98.456051 
3625.000000	98.459497 
3624.000000	98.463597 
3623.000000	98.467622 
3622.000000	98.469392 
3621.000000	98.467973 
3620.000000	98.465264 
3619.000000	98.465030 
3618.000000	98.469062 
3617.000000	98.474993 
3616.000000	98.480225 
3615.000000	98.484758 
3614.000000	98.489917 
3613.000000	98.496501 
3612.000000	98.503849 
3611.000000	98.510084 
3610.000000	98.513785 
3609.000000	98.515078 
3608.000000	98.515211 
3607.000000	98.515585 
3606.000000	98.516315 
3605.000000	98.516644 
3604.000000	98.516220 
3603.000000	98.514928 
3602.000000	98.513207 
3601.000000	98.512169 
3600.000000	98.513157 
3599.000000	98.516514 
3598.000000	98.520695 
3597.000000	98.523150 
3596.000000	98.523073 
3595.000000	98.522054 
3594.000000	98.522403 
3593.000000	98.525173 
3592.000000	98.529088 
3591.000000	98.531931 
3590.000000	98.532372 
3589.000000	98.530396 
3588.000000	98.526977 
3587.000000	98.523891 
3586.000000	98.522198 
3585.000000	98.521559 
3584.000000	98.521508 
3583.000000	98.522001 
3582.000000	98.522788 
3581.000000	98.523190 
3580.000000	98.522860 
3579.000000	98.522351 
3578.000000	98.522604 
3577.000000	98.523994 
3576.000000	98.525970 
3575.000000	98.527637 
3574.000000	98.528415 
3573.000000	98.528512 
3572.000000	98.528555 
3571.000000	98.528866 
3570.000000	98.529198 
3569.000000	98.528907 
3568.000000	98.527456 
3567.000000	98.525240 
3566.000000	98.523382 
3565.000000	98.522514 
3564.000000	98.522489 
3563.000000	98.522855 
3562.000000	98.523049 
3561.000000	98.522682 
3560.000000	98.521786 
3559.000000	98.520818 
3558.000000	98.520219 
3557.000000	98.520012 
3556.000000	98.519888 
3555.000000	98.519642 
3554.000000	98.519358 
3553.000000	98.519195 
3552.000000	98.519147 
3551.000000	98.519018 
3550.000000	98.518658 
3549.000000	98.518164 
3548.000000	98.517742 
3547.000000	98.517464 
3546.000000	98.517170 
3545.000000	98.516645 
3544.000000	98.515900 
3543.000000	98.515236 
3542.000000	98.514978 
3541.000000	98.515183 
3540.000000	98.515539 
3539.000000	98.515582 
3538.000000	98.515107 
3537.000000	98.514323 
3536.000000	98.513671 
3535.000000	98.513373 
3534.000000	98.513363 
3533.000000	98.513560 
3532.000000	98.513966 
3531.000000	98.514438 
3530.000000	98.514651 
3529.000000	98.514548 
3528.000000	98.514536 
3527.000000	98.514938 
3526.000000	98.515356 
3525.000000	98.514965 
3524.000000	98.513452 
3523.000000	98.511388 
3522.000000	98.509618 
3521.000000	98.508534 
3520.000000	98.508158 
3519.000000	98.508489 
3518.000000	98.509406 
3517.000000	98.510372 
3516.000000	98.510820 
3515.000000	98.510760 
3514.000000	98.510837 
3513.000000	98.511684 
3512.000000	98.513312 
3511.000000	98.515137 
3510.000000	98.516587 
3509.000000	98.517420 
3508.000000	98.517486 
3507.000000	98.516651 
3506.000000	98.515130 
3505.000000	98.513674 
3504.000000	98.513051 
3503.000000	98.513348 
3502.000000	98.513939 
3501.000000	98.514153 
3500.000000	98.513835 
3499.000000	98.513252 
3498.000000	98.512803 
3497.000000	98.512852 
3496.000000	98.513547 
3495.000000	98.514544 
3494.000000	98.515071 
3493.000000	98.514557 
3492.000000	98.513117 
3491.000000	98.511402 
3490.000000	98.510090 
3489.000000	98.509509 
3488.000000	98.509559 
3487.000000	98.509789 
3486.000000	98.509628 
3485.000000	98.508751 
3484.000000	98.507296 
3483.000000	98.505749 
3482.000000	98.504608 
3481.000000	98.504077 
3480.000000	98.503984 
3479.000000	98.503978 
3478.000000	98.503852 
3477.000000	98.503666 
3476.000000	98.503535 
3475.000000	98.503381 
3474.000000	98.503002 
3473.000000	98.502361 
3472.000000	98.501662 
3471.000000	98.501087 
3470.000000	98.500578 
3469.000000	98.500013 
3468.000000	98.499404 
3467.000000	98.498809 
3466.000000	98.498168 
3465.000000	98.497390 
3464.000000	98.496578 
3463.000000	98.495964 
3462.000000	98.495610 
3461.000000	98.495289 
3460.000000	98.494763 
3459.000000	98.494100 
3458.000000	98.493555 
3457.000000	98.493241 
3456.000000	98.493034 
3455.000000	98.492749 
3454.000000	98.492371 
3453.000000	98.492028 
3452.000000	98.491786 
3451.000000	98.491546 
3450.000000	98.491150 
3449.000000	98.490562 
3448.000000	98.489915 
3447.000000	98.489369 
3446.000000	98.488921 
3445.000000	98.488452 
3444.000000	98.487926 
3443.000000	98.487462 
3442.000000	98.487173 
3441.000000	98.487029 
3440.000000	98.486913 
3439.000000	98.486722 
3438.000000	98.486422 
3437.000000	98.486047 
3436.000000	98.485670 
3435.000000	98.485341 
3434.000000	98.485059 
3433.000000	98.484788 
3432.000000	98.484508 
3431.000000	98.484232 
3430.000000	98.483961 
3429.000000	98.483669 
3428.000000	98.483332 
3427.000000	98.482963 
3426.000000	98.482593 
3425.000000	98.482242 
3424.000000	98.481914 
3423.000000	98.481608 
3422.000000	98.481320 
3421.000000	98.481040 
3420.000000	98.480760 
3419.000000	98.480474 
3418.000000	98.480183 
3417.000000	98.479889 
3416.000000	98.479598 
3415.000000	98.479310 
3414.000000	98.479028 
3413.000000	98.478753 
3412.000000	98.478484 
3411.000000	98.478224 
3410.000000	98.477973 
3409.000000	98.477733 
3408.000000	98.477503 
3407.000000	98.477278 
3406.000000	98.477051 
3405.000000	98.476819 
3404.000000	98.476588 
3403.000000	98.476370 
3402.000000	98.476167 
3401.000000	98.475967 
3400.000000	98.475753 
3399.000000	98.475520 
3398.000000	98.475298 
3397.000000	98.475117 
3396.000000	98.474981 
3395.000000	98.474863 
3394.000000	98.474748 
3393.000000	98.474647 
3392.000000	98.474566 
3391.000000	98.474484 
3390.000000	98.474381 
3389.000000	98.474260 
3388.000000	98.474149 
3387.000000	98.474066 
3386.000000	98.474020 
3385.000000	98.474027 
3384.000000	98.474117 
3383.000000	98.474302 
3382.000000	98.474535 
3381.000000	98.474740 
3380.000000	98.474855 
3379.000000	98.474845 
3378.000000	98.474700 
3377.000000	98.474454 
3376.000000	98.474190 
3375.000000	98.473997 
3374.000000	98.473934 
3373.000000	98.474061 
3372.000000	98.474412 
3371.000000	98.474902 
3370.000000	98.475346 
3369.000000	98.475614 
3368.000000	98.475726 
3367.000000	98.475750 
3366.000000	98.475692 
3365.000000	98.475578 
3364.000000	98.475581 
3363.000000	98.475889 
3362.000000	98.476457 
3361.000000	98.476983 
3360.000000	98.477220 
3359.000000	98.477222 
3358.000000	98.477257 
3357.000000	98.477514 
3356.000000	98.477944 
3355.000000	98.478360 
3354.000000	98.478620 
3353.000000	98.478732 
3352.000000	98.478822 
3351.000000	98.479028 
3350.000000	98.479398 
3349.000000	98.479871 
3348.000000	98.480336 
3347.000000	98.480706 
3346.000000	98.480968 
3345.000000	98.481172 
3344.000000	98.481393 
3343.000000	98.481641 
3342.000000	98.481816 
3341.000000	98.481792 
3340.000000	98.481541 
3339.000000	98.481157 
3338.000000	98.480806 
3337.000000	98.480664 
3336.000000	98.480843 
3335.000000	98.481324 
3334.000000	98.481951 
3333.000000	98.482519 
3332.000000	98.482919 
3331.000000	98.483157 
3330.000000	98.483273 
3329.000000	98.483313 
3328.000000	98.483344 
3327.000000	98.483458 
3326.000000	98.483698 
3325.000000	98.483996 
3324.000000	98.484229 
3323.000000	98.484344 
3322.000000	98.484410 
3321.000000	98.484555 
3320.000000	98.484842 
3319.000000	98.485223 
3318.000000	98.485598 
3317.000000	98.485891 
3316.000000	98.486092 
3315.000000	98.486254 
3314.000000	98.486448 
3313.000000	98.486705 
3312.000000	98.486981 
3311.000000	98.487202 
3310.000000	98.487346 
3309.000000	98.487471 
3308.000000	98.487639 
3307.000000	98.487827 
3306.000000	98.487959 
3305.000000	98.488003 
3304.000000	98.488001 
3303.000000	98.488040 
3302.000000	98.488173 
3301.000000	98.488401 
3300.000000	98.488673 
3299.000000	98.488920 
3298.000000	98.489106 
3297.000000	98.489241 
3296.000000	98.489378 
3295.000000	98.489557 
3294.000000	98.489777 
3293.000000	98.490017 
3292.000000	98.490250 
3291.000000	98.490445 
3290.000000	98.490576 
3289.000000	98.490656 
3288.000000	98.490735 
3287.000000	98.490855 
3286.000000	98.491013 
3285.000000	98.491189 
3284.000000	98.491372 
3283.000000	98.491551 
3282.000000	98.491687 
3281.000000	98.491750 
3280.000000	98.491775 
3279.000000	98.491832 
3278.000000	98.491960 
3277.000000	98.492138 
3276.000000	98.492283 
3275.000000	98.492301 
3274.000000	98.492153 
3273.000000	98.491895 
3272.000000	98.491658 
3271.000000	98.491546 
3270.000000	98.491583 
3269.000000	98.491751 
3268.000000	98.492022 
3267.000000	98.492335 
3266.000000	98.492583 
3265.000000	98.492688 
3264.000000	98.492675 
3263.000000	98.492632 
3262.000000	98.492602 
3261.000000	98.492553 
3260.000000	98.492469 
3259.000000	98.492409 
3258.000000	98.492457 
3257.000000	98.492642 
3256.000000	98.492917 
3255.000000	98.493184 
3254.000000	98.493360 
3253.000000	98.493426 
3252.000000	98.493426 
3251.000000	98.493437 
3250.000000	98.493508 
3249.000000	98.493648 
3248.000000	98.493835 
3247.000000	98.494041 
3246.000000	98.494234 
3245.000000	98.494393 
3244.000000	98.494521 
3243.000000	98.494646 
3242.000000	98.494793 
3241.000000	98.494963 
3240.000000	98.495140 
3239.000000	98.495316 
3238.000000	98.495494 
3237.000000	98.495689 
3236.000000	98.495914 
3235.000000	98.496173 
3234.000000	98.496444 
3233.000000	98.496680 
3232.000000	98.496831 
3231.000000	98.496892 
3230.000000	98.496915 
3229.000000	98.496979 
3228.000000	98.497123 
3227.000000	98.497330 
3226.000000	98.497570 
3225.000000	98.497871 
3224.000000	98.498284 
3223.000000	98.498791 
3222.000000	98.499254 
3221.000000	98.499540 
3220.000000	98.499644 
3219.000000	98.499716 
3218.000000	98.499933 
3217.000000	98.500326 
3216.000000	98.500782 
3215.000000	98.501171 
3214.000000	98.501475 
3213.000000	98.501772 
3212.000000	98.502147 
3211.000000	98.502630 
3210.000000	98.503177 
3209.000000	98.503678 
3208.000000	98.503992 
3207.000000	98.504047 
3206.000000	98.503935 
3205.000000	98.503899 
3204.000000	98.504148 
3203.000000	98.504695 
3202.000000	98.505364 
3201.000000	98.505976 
3200.000000	98.506480 
3199.000000	98.506899 
3198.000000	98.507223 
3197.000000	98.507434 
3196.000000	98.507615 
3195.000000	98.507956 
3194.000000	98.508599 
3193.000000	98.509506 
3192.000000	98.510517 
3191.000000	98.511528 
3190.000000	98.512570 
3189.000000	98.513703 
3188.000000	98.514848 
3187.000000	98.515768 
3186.000000	98.516254 
3185.000000	98.516367 
3184.000000	98.516479 
3183.000000	98.516986 
3182.000000	98.517980 
3181.000000	98.519192 
3180.000000	98.520225 
3179.000000	98.520898 
3178.000000	98.521337 
3177.000000	98.521805 
3176.000000	98.522454 
3175.000000	98.523247 
3174.000000	98.524049 
3173.000000	98.524730 
3172.000000	98.525264 
3171.000000	98.525738 
3170.000000	98.526300 
3169.000000	98.527033 
3168.000000	98.527882 
3167.000000	98.528693 
3166.000000	98.529360 
3165.000000	98.529954 
3164.000000	98.530689 
3163.000000	98.531684 
3162.000000	98.532784 
3161.000000	98.533669 
3160.000000	98.534219 
3159.000000	98.534707 
3158.000000	98.535561 
3157.000000	98.536913 
3156.000000	98.538384 
3155.000000	98.539367 
3154.000000	98.539542 
3153.000000	98.539128 
3152.000000	98.538676 
3151.000000	98.538543 
3150.000000	98.538590 
3149.000000	98.538469 
3148.000000	98.538189 
3147.000000	98.538237 
3146.000000	98.539046 
3145.000000	98.540548 
3144.000000	98.542357 
3143.000000	98.544279 
3142.000000	98.546365 
3141.000000	98.548431 
3140.000000	98.549884 
3139.000000	98.550285 
3138.000000	98.549891 
3137.000000	98.549461 
3136.000000	98.549547 
3135.000000	98.550112 
3134.000000	98.550811 
3133.000000	98.551366 
3132.000000	98.551640 
3131.000000	98.551591 
3130.000000	98.551365 
3129.000000	98.551320 
3128.000000	98.551778 
3127.000000	98.552763 
3126.000000	98.554043 
3125.000000	98.555353 
3124.000000	98.556503 
3123.000000	98.557317 
3122.000000	98.557650 
3121.000000	98.557534 
3120.000000	98.557247 
3119.000000	98.557140 
3118.000000	98.557400 
3117.000000	98.557981 
3116.000000	98.558698 
3115.000000	98.559355 
3114.000000	98.559880 
3113.000000	98.560355 
3112.000000	98.560948 
3111.000000	98.561750 
3110.000000	98.562668 
3109.000000	98.563478 
3108.000000	98.563998 
3107.000000	98.564235 
3106.000000	98.564389 
3105.000000	98.564703 
3104.000000	98.565236 
3103.000000	98.565751 
3102.000000	98.565876 
3101.000000	98.565542 
3100.000000	98.565240 
3099.000000	98.565528 
3098.000000	98.566302 
3097.000000	98.566845 
3096.000000	98.566829 
3095.000000	98.566955 
3094.000000	98.568240 
3093.000000	98.570842 
3092.000000	98.573795 
3091.000000	98.575703 
3090.000000	98.575589 
3089.000000	98.573557 
3088.000000	98.571004 
3087.000000	98.569791 
3086.000000	98.570733 
3085.000000	98.573036 
3084.000000	98.575195 
3083.000000	98.576221 
3082.000000	98.576024 
3081.000000	98.575320 
3080.000000	98.575423 
3079.000000	98.577366 
3078.000000	98.580611 
3077.000000	98.582992 
3076.000000	98.582656 
3075.000000	98.579936 
3074.000000	98.576899 
3073.000000	98.575037 
3072.000000	98.573845 
3071.000000	98.571909 
3070.000000	98.568983 
3069.000000	98.566566 
3068.000000	98.566150 
3067.000000	98.567324 
3066.000000	98.568386 
3065.000000	98.568825 
3064.000000	98.570027 
3063.000000	98.572734 
3062.000000	98.574883 
3061.000000	98.573692 
3060.000000	98.569624 
3059.000000	98.566476 
3058.000000	98.566843 
3057.000000	98.568824 
3056.000000	98.568548 
3055.000000	98.565015 
3054.000000	98.560857 
3053.000000	98.558513 
3052.000000	98.557138 
3051.000000	98.554023 
3050.000000	98.548091 
3049.000000	98.541037 
3048.000000	98.535204 
3047.000000	98.531163 
3046.000000	98.527732 
3045.000000	98.523849 
3044.000000	98.519751 
3043.000000	98.516282 
3042.000000	98.513325 
3041.000000	98.509267 
3040.000000	98.502157 
3039.000000	98.491452 
3038.000000	98.478576 
3037.000000	98.465409 
3036.000000	98.452154 
3035.000000	98.437345 
3034.000000	98.420398 
3033.000000	98.403045 
3032.000000	98.387365 
3031.000000	98.372892 
3030.000000	98.356608 
3029.000000	98.336299 
3028.000000	98.313191 
3027.000000	98.290448 
3026.000000	98.269456 
3025.000000	98.248623 
3024.000000	98.225755 
3023.000000	98.200559 
3022.000000	98.174505 
3021.000000	98.149051 
3020.000000	98.124445 
3019.000000	98.099808 
3018.000000	98.073834 
3017.000000	98.045571 
3016.000000	98.014936 
3015.000000	97.982625 
3014.000000	97.949611 
3013.000000	97.916648 
3012.000000	97.883961 
3011.000000	97.851117 
3010.000000	97.817461 
3009.000000	97.782905 
3008.000000	97.747977 
3007.000000	97.712916 
3006.000000	97.677341 
3005.000000	97.641420 
3004.000000	97.606593 
3003.000000	97.573916 
3002.000000	97.542085 
3001.000000	97.508571 
3000.000000	97.472921 
2999.000000	97.437689 
2998.000000	97.405983 
2997.000000	97.379570 
2996.000000	97.359110 
2995.000000	97.343058 
2994.000000	97.324367 
2993.000000	97.291372 
2992.000000	97.237153 
2991.000000	97.169347 
2990.000000	97.107731 
2989.000000	97.069617 
2988.000000	97.058441 
2987.000000	97.065859 
2986.000000	97.081310 
2985.000000	97.097903 
2984.000000	97.111686 
2983.000000	97.120196 
2982.000000	97.123297 
2981.000000	97.123191 
2980.000000	97.121942 
2979.000000	97.119563 
2978.000000	97.114975 
2977.000000	97.107726 
2976.000000	97.098125 
2975.000000	97.086799 
2974.000000	97.075341 
2973.000000	97.067025 
2972.000000	97.065756 
2971.000000	97.073915 
2970.000000	97.091155 
2969.000000	97.114816 
2968.000000	97.141279 
2967.000000	97.167711 
2966.000000	97.193405 
2965.000000	97.219371 
2964.000000	97.246183 
2963.000000	97.272327 
2962.000000	97.295125 
2961.000000	97.313268 
2960.000000	97.328092 
2959.000000	97.342533 
2958.000000	97.359176 
2957.000000	97.378986 
2956.000000	97.401015 
2955.000000	97.422976 
2954.000000	97.442626 
2953.000000	97.459319 
2952.000000	97.474364 
2951.000000	97.489715 
2950.000000	97.506136 
2949.000000	97.522496 
2948.000000	97.536647 
2947.000000	97.546839 
2946.000000	97.552859 
2945.000000	97.556225 
2944.000000	97.558903 
2943.000000	97.561887 
2942.000000	97.564977 
2941.000000	97.567349 
2940.000000	97.568325 
2939.000000	97.567848 
2938.000000	97.566490 
2937.000000	97.565358 
2936.000000	97.565949 
2935.000000	97.569423 
2934.000000	97.575389 
2933.000000	97.581413 
2932.000000	97.584181 
2931.000000	97.581621 
2930.000000	97.574121 
2929.000000	97.563890 
2928.000000	97.553404 
2927.000000	97.544428 
2926.000000	97.537900 
2925.000000	97.533817 
2924.000000	97.531065 
2923.000000	97.528065 
2922.000000	97.524127 
2921.000000	97.519994 
2920.000000	97.516654 
2919.000000	97.513822 
2918.000000	97.510049 
2917.000000	97.504247 
2916.000000	97.496617 
2915.000000	97.488038 
2914.000000	97.479150 
2913.000000	97.470564 
2912.000000	97.463502 
2911.000000	97.459255 
2910.000000	97.457746 
2909.000000	97.457262 
2908.000000	97.456123 
2907.000000	97.453758 
2906.000000	97.449058 
2905.000000	97.438486 
2904.000000	97.418662 
2903.000000	97.392750 
2902.000000	97.372932 
2901.000000	97.372716 
2900.000000	97.396038 
2899.000000	97.433933 
2898.000000	97.470952 
2897.000000	97.496437 
2896.000000	97.509478 
2895.000000	97.515646 
2894.000000	97.521189 
2893.000000	97.529385 
2892.000000	97.540002 
2891.000000	97.550866 
2890.000000	97.560117 
2889.000000	97.567320 
2888.000000	97.572766 
2887.000000	97.576748 
2886.000000	97.580351 
2885.000000	97.586346 
2884.000000	97.597863 
2883.000000	97.615758 
2882.000000	97.637924 
2881.000000	97.661445 
2880.000000	97.684854 
2879.000000	97.708152 
2878.000000	97.731298 
2877.000000	97.753285 
2876.000000	97.772629 
2875.000000	97.788621 
2874.000000	97.802197 
2873.000000	97.815374 
2872.000000	97.829398 
2871.000000	97.843471 
2870.000000	97.855841 
2869.000000	97.866243 
2868.000000	97.876865 
2867.000000	97.890877 
2866.000000	97.910326 
2865.000000	97.935218 
2864.000000	97.963746 
2863.000000	97.993167 
2862.000000	98.021234 
2861.000000	98.047458 
2860.000000	98.072914 
2859.000000	98.098566 
2858.000000	98.123835 
2857.000000	98.146831 
2856.000000	98.165601 
2855.000000	98.179323 
2854.000000	98.189519 
2853.000000	98.199930 
2852.000000	98.213715 
2851.000000	98.230568 
2850.000000	98.247384 
2849.000000	98.261739 
2848.000000	98.273933 
2847.000000	98.285827 
2846.000000	98.298928 
2845.000000	98.313902 
2844.000000	98.330609 
2843.000000	98.347724 
2842.000000	98.363109 
2841.000000	98.375426 
2840.000000	98.384956 
2839.000000	98.392483 
2838.000000	98.398310 
2837.000000	98.402992 
2836.000000	98.407977 
2835.000000	98.414437 
2834.000000	98.422146 
2833.000000	98.430406 
2832.000000	98.439232 
2831.000000	98.448384 
2830.000000	98.455972 
2829.000000	98.459819 
2828.000000	98.460299 
2827.000000	98.460483 
2826.000000	98.463060 
2825.000000	98.468076 
2824.000000	98.474052 
2823.000000	98.480188 
2822.000000	98.486628 
2821.000000	98.493239 
2820.000000	98.499147 
2819.000000	98.503493 
2818.000000	98.506090 
2817.000000	98.507231 
2816.000000	98.507274 
2815.000000	98.506749 
2814.000000	98.506753 
2813.000000	98.508722 
2812.000000	98.513282 
2811.000000	98.519410 
2810.000000	98.525164 
2809.000000	98.529378 
2808.000000	98.532307 
2807.000000	98.534566 
2806.000000	98.536024 
2805.000000	98.536085 
2804.000000	98.534686 
2803.000000	98.532688 
2802.000000	98.531460 
2801.000000	98.532130 
2800.000000	98.534837 
2799.000000	98.538498 
2798.000000	98.541729 
2797.000000	98.544207 
2796.000000	98.546702 
2795.000000	98.549659 
2794.000000	98.552449 
2793.000000	98.554346 
2792.000000	98.555552 
2791.000000	98.556691 
2790.000000	98.557813 
2789.000000	98.558562 
2788.000000	98.558968 
2787.000000	98.559450 
2786.000000	98.560257 
2785.000000	98.561426 
2784.000000	98.563060 
2783.000000	98.565106 
2782.000000	98.566973 
2781.000000	98.567944 
2780.000000	98.568063 
2779.000000	98.568284 
2778.000000	98.569573 
2777.000000	98.572013 
2776.000000	98.574764 
2775.000000	98.576798 
2774.000000	98.577761 
2773.000000	98.578193 
2772.000000	98.578958 
2771.000000	98.580319 
2770.000000	98.581731 
2769.000000	98.582611 
2768.000000	98.583055 
2767.000000	98.583574 
2766.000000	98.584386 
2765.000000	98.585208 
2764.000000	98.585719 
2763.000000	98.585982 
2762.000000	98.586411 
2761.000000	98.587365 
2760.000000	98.588815 
2759.000000	98.590363 
2758.000000	98.591615 
2757.000000	98.592593 
2756.000000	98.593636 
2755.000000	98.594938 
2754.000000	98.596301 
2753.000000	98.597432 
2752.000000	98.598348 
2751.000000	98.599318 
2750.000000	98.600461 
2749.000000	98.601600 
2748.000000	98.602565 
2747.000000	98.603456 
2746.000000	98.604517 
2745.000000	98.605817 
2744.000000	98.607207 
2743.000000	98.608520 
2742.000000	98.609721 
2741.000000	98.610807 
2740.000000	98.611714 
2739.000000	98.612401 
2738.000000	98.612995 
2737.000000	98.613759 
2736.000000	98.614836 
2735.000000	98.616107 
2734.000000	98.617288 
2733.000000	98.618220 
2732.000000	98.618989 
2731.000000	98.619798 
2730.000000	98.620759 
2729.000000	98.621853 
2728.000000	98.623031 
2727.000000	98.624268 
2726.000000	98.625504 
2725.000000	98.626609 
2724.000000	98.627482 
2723.000000	98.628180 
2722.000000	98.628876 
2721.000000	98.629677 
2720.000000	98.630512 
2719.000000	98.631239 
2718.000000	98.631811 
2717.000000	98.632336 
2716.000000	98.632964 
2715.000000	98.633731 
2714.000000	98.634507 
2713.000000	98.635135 
2712.000000	98.635603 
2711.000000	98.636036 
2710.000000	98.636568 
2709.000000	98.637243 
2708.000000	98.638049 
2707.000000	98.638949 
2706.000000	98.639869 
2705.000000	98.640670 
2704.000000	98.641228 
2703.000000	98.641596 
2702.000000	98.642058 
2701.000000	98.642881 
2700.000000	98.643981 
2699.000000	98.644884 
2698.000000	98.645150 
2697.000000	98.644810 
2696.000000	98.644371 
2695.000000	98.644370 
2694.000000	98.644983 
2693.000000	98.645984 
2692.000000	98.646881 
2691.000000	98.647184 
2690.000000	98.646789 
2689.000000	98.646172 
2688.000000	98.645944 
2687.000000	98.646152 
2686.000000	98.646246 
2685.000000	98.645828 
2684.000000	98.645105 
2683.000000	98.644479 
2682.000000	98.644058 
2681.000000	98.643888 
2680.000000	98.644294 
2679.000000	98.645527 
2678.000000	98.647174 
2677.000000	98.648345 
2676.000000	98.648465 
2675.000000	98.647573 
2674.000000	98.646029 
2673.000000	98.644359 
2672.000000	98.643326 
2671.000000	98.643570 
2670.000000	98.645020 
2669.000000	98.646902 
2668.000000	98.648425 
2667.000000	98.649140 
2666.000000	98.648677 
2665.000000	98.646727 
2664.000000	98.643562 
2663.000000	98.640181 
2662.000000	98.637559 
2661.000000	98.635923 
2660.000000	98.634976 
2659.000000	98.634467 
2658.000000	98.634270 
2657.000000	98.634135 
2656.000000	98.633681 
2655.000000	98.632603 
2654.000000	98.630762 
2653.000000	98.628334 
2652.000000	98.626053 
2651.000000	98.624966 
2650.000000	98.625477 
2649.000000	98.626747 
2648.000000	98.627421 
2647.000000	98.627078 
2646.000000	98.626576 
2645.000000	98.626854 
2644.000000	98.627812 
2643.000000	98.628507 
2642.000000	98.628178 
2641.000000	98.626835 
2640.000000	98.625055 
2639.000000	98.623529 
2638.000000	98.622701 
2637.000000	98.622562 
2636.000000	98.622756 
2635.000000	98.623079 
2634.000000	98.623822 
2633.000000	98.625374 
2632.000000	98.627481 
2631.000000	98.629195 
2630.000000	98.629757 
2629.000000	98.629338 
2628.000000	98.628750 
2627.000000	98.628583 
2626.000000	98.628776 
2625.000000	98.628933 
2624.000000	98.628810 
2623.000000	98.628509 
2622.000000	98.628395 
2621.000000	98.628806 
2620.000000	98.629713 
2619.000000	98.630653 
2618.000000	98.631094 
2617.000000	98.630888 
2616.000000	98.630292 
2615.000000	98.629676 
2614.000000	98.629306 
2613.000000	98.629303 
2612.000000	98.629645 
2611.000000	98.630207 
2610.000000	98.630884 
2609.000000	98.631616 
2608.000000	98.632319 
2607.000000	98.632849 
2606.000000	98.633207 
2605.000000	98.633645 
2604.000000	98.634374 
2603.000000	98.635303 
2602.000000	98.636173 
2601.000000	98.636852 
2600.000000	98.637392 
2599.000000	98.637894 
2598.000000	98.638415 
2597.000000	98.638978 
2596.000000	98.639574 
2595.000000	98.640174 
2594.000000	98.640756 
2593.000000	98.641316 
2592.000000	98.641867 
2591.000000	98.642414 
2590.000000	98.642958 
2589.000000	98.643507 
2588.000000	98.644066 
2587.000000	98.644634 
2586.000000	98.645202 
2585.000000	98.645762 
2584.000000	98.646312 
2583.000000	98.646856 
2582.000000	98.647403 
2581.000000	98.647961 
2580.000000	98.648534 
2579.000000	98.649121 
2578.000000	98.649719 
2577.000000	98.650324 
2576.000000	98.650938 
2575.000000	98.651557 
2574.000000	98.652180 
2573.000000	98.652804 
2572.000000	98.653429 
2571.000000	98.654052 
2570.000000	98.654673 
2569.000000	98.655292 
2568.000000	98.655914 
2567.000000	98.656539 
2566.000000	98.657155 
2565.000000	98.657747 
2564.000000	98.658306 
2563.000000	98.658833 
2562.000000	98.659334 
2561.000000	98.659812 
2560.000000	98.660269 
2559.000000	98.660703 
2558.000000	98.661111 
2557.000000	98.661490 
2556.000000	98.661846 
2555.000000	98.662183 
2554.000000	98.662508 
2553.000000	98.662825 
2552.000000	98.663136 
2551.000000	98.663448 
2550.000000	98.663759 
2549.000000	98.664051 
2548.000000	98.664308 
2547.000000	98.664531 
2546.000000	98.664718 
2545.000000	98.664844 
2544.000000	98.664906 
2543.000000	98.664975 
2542.000000	98.665155 
2541.000000	98.665499 
2540.000000	98.665961 
2539.000000	98.666404 
2538.000000	98.666649 
2537.000000	98.666570 
2536.000000	98.666251 
2535.000000	98.665987 
2534.000000	98.666010 
2533.000000	98.666327 
2532.000000	98.666789 
2531.000000	98.667214 
2530.000000	98.667377 
2529.000000	98.667100 
2528.000000	98.666485 
2527.000000	98.665922 
2526.000000	98.665646 
2525.000000	98.665452 
2524.000000	98.665008 
2523.000000	98.664309 
2522.000000	98.663655 
2521.000000	98.663292 
2520.000000	98.663223 
2519.000000	98.663258 
2518.000000	98.663115 
2517.000000	98.662634 
2516.000000	98.662053 
2515.000000	98.661917 
2514.000000	98.662563 
2513.000000	98.663768 
2512.000000	98.664904 
2511.000000	98.665389 
2510.000000	98.665041 
2509.000000	98.664213 
2508.000000	98.663599 
2507.000000	98.663577 
2506.000000	98.663770 
2505.000000	98.663539 
2504.000000	98.662890 
2503.000000	98.662438 
2502.000000	98.662500 
2501.000000	98.662781 
2500.000000	98.663079 
2499.000000	98.663722 
2498.000000	98.664988 
2497.000000	98.666550 
2496.000000	98.667729 
2495.000000	98.668044 
2494.000000	98.667427 
2493.000000	98.666328 
2492.000000	98.665726 
2491.000000	98.666501 
2490.000000	98.668581 
2489.000000	98.670896 
2488.000000	98.672417 
2487.000000	98.673065 
2486.000000	98.673406 
2485.000000	98.673797 
2484.000000	98.674052 
2483.000000	98.673804 
2482.000000	98.672970 
2481.000000	98.671981 
2480.000000	98.671635 
2479.000000	98.672495 
2478.000000	98.674327 
2477.000000	98.676240 
2476.000000	98.677469 
2475.000000	98.677858 
2474.000000	98.677644 
2473.000000	98.677129 
2472.000000	98.676537 
2471.000000	98.675858 
2470.000000	98.674849 
2469.000000	98.673530 
2468.000000	98.672543 
2467.000000	98.672462 
2466.000000	98.672818 
2465.000000	98.672479 
2464.000000	98.671100 
2463.000000	98.669635 
2462.000000	98.669190 
2461.000000	98.669815 
2460.000000	98.670701 
2459.000000	98.671061 
2458.000000	98.670646 
2457.000000	98.669700 
2456.000000	98.668823 
2455.000000	98.668571 
2454.000000	98.668841 
2453.000000	98.668855 
2452.000000	98.668091 
2451.000000	98.666995 
2450.000000	98.666421 
2449.000000	98.666644 
2448.000000	98.667315 
2447.000000	98.668086 
2446.000000	98.668812 
2445.000000	98.669279 
2444.000000	98.669287 
2443.000000	98.669009 
2442.000000	98.668862 
2441.000000	98.669001 
2440.000000	98.669214 
2439.000000	98.669277 
2438.000000	98.669131 
2437.000000	98.668742 
2436.000000	98.668088 
2435.000000	98.667301 
2434.000000	98.666624 
2433.000000	98.666256 
2432.000000	98.666338 
2431.000000	98.666955 
2430.000000	98.667912 
2429.000000	98.668704 
2428.000000	98.669023 
2427.000000	98.669179 
2426.000000	98.669709 
2425.000000	98.670657 
2424.000000	98.671533 
2423.000000	98.672039 
2422.000000	98.672521 
2421.000000	98.673533 
2420.000000	98.675168 
2419.000000	98.676888 
2418.000000	98.677932 
2417.000000	98.677914 
2416.000000	98.677168 
2415.000000	98.676559 
2414.000000	98.676722 
2413.000000	98.677569 
2412.000000	98.678677 
2411.000000	98.679908 
2410.000000	98.681341 
2409.000000	98.682697 
2408.000000	98.683320 
2407.000000	98.682829 
2406.000000	98.681543 
2405.000000	98.680174 
2404.000000	98.679247 
2403.000000	98.678882 
2402.000000	98.678936 
2401.000000	98.679180 
2400.000000	98.679505 
2399.000000	98.680113 
2398.000000	98.681341 
2397.000000	98.683144 
2396.000000	98.684816 
2395.000000	98.685486 
2394.000000	98.684942 
2393.000000	98.683901 
2392.000000	98.683396 
2391.000000	98.683858 
2390.000000	98.684845 
2389.000000	98.685527 
2388.000000	98.685459 
2387.000000	98.685006 
2386.000000	98.685078 
2385.000000	98.686272 
2384.000000	98.688062 
2383.000000	98.689013 
2382.000000	98.688132 
2381.000000	98.685748 
2380.000000	98.683124 
2379.000000	98.681182 
2378.000000	98.679815 
2377.000000	98.678494 
2376.000000	98.677051 
2375.000000	98.675738 
2374.000000	98.674809 
2373.000000	98.674252 
2372.000000	98.673815 
2371.000000	98.673107 
2370.000000	98.671885 
2369.000000	98.670332 
2368.000000	98.668928 
2367.000000	98.667948 
2366.000000	98.667229 
2365.000000	98.666449 
2364.000000	98.665458 
2363.000000	98.664205 
2362.000000	98.662555 
2361.000000	98.660543 
2360.000000	98.658580 
2359.000000	98.657126 
2358.000000	98.656200 
2357.000000	98.655310 
2356.000000	98.654128 
2355.000000	98.652773 
2354.000000	98.651289 
2353.000000	98.649491 
2352.000000	98.647573 
2351.000000	98.646225 
2350.000000	98.645490 
2349.000000	98.644636 
2348.000000	98.643272 
2347.000000	98.641629 
2346.000000	98.640064 
2345.000000	98.638624 
2344.000000	98.637610 
2343.000000	98.637237 
2342.000000	98.636857 
2341.000000	98.635676 
2340.000000	98.633467 
2339.000000	98.631000 
2338.000000	98.629162 
2337.000000	98.628065 
2336.000000	98.627058 
2335.000000	98.625594 
2334.000000	98.623839 
2333.000000	98.622721 
2332.000000	98.623274 
2331.000000	98.625710 
2330.000000	98.628438 
2329.000000	98.629108 
2328.000000	98.626687 
2327.000000	98.621520 
2326.000000	98.615091 
2325.000000	98.608871 
2324.000000	98.604508 
2323.000000	98.602883 
2322.000000	98.603628 
2321.000000	98.606082 
2320.000000	98.609984 
2319.000000	98.615228 
2318.000000	98.620386 
2317.000000	98.623670 
2316.000000	98.624280 
2315.000000	98.622765 
2314.000000	98.619910 
2313.000000	98.616360 
2312.000000	98.613041 
2311.000000	98.610656 
2310.000000	98.609114 
2309.000000	98.608006 
2308.000000	98.607985 
2307.000000	98.609948 
2306.000000	98.613592 
2305.000000	98.617251 
2304.000000	98.619686 
2303.000000	98.620586 
2302.000000	98.619813 
2301.000000	98.617268 
2300.000000	98.613690 
2299.000000	98.610134 
2298.000000	98.606740 
2297.000000	98.602874 
2296.000000	98.598742 
2295.000000	98.595361 
2294.000000	98.593149 
2293.000000	98.591359 
2292.000000	98.589401 
2291.000000	98.587236 
2290.000000	98.584593 
2289.000000	98.580949 
2288.000000	98.576804 
2287.000000	98.573697 
2286.000000	98.572631 
2285.000000	98.573430 
2284.000000	98.575731 
2283.000000	98.579279 
2282.000000	98.582963 
2281.000000	98.585115 
2280.000000	98.585259 
2279.000000	98.584331 
2278.000000	98.582940 
2277.000000	98.580785 
2276.000000	98.578093 
2275.000000	98.576148 
2274.000000	98.575584 
2273.000000	98.575380 
2272.000000	98.574388 
2271.000000	98.572991 
2270.000000	98.572543 
2269.000000	98.573734 
2268.000000	98.575951 
2267.000000	98.577677 
2266.000000	98.577462 
2265.000000	98.575041 
2264.000000	98.571627 
2263.000000	98.568931 
2262.000000	98.567514 
2261.000000	98.566673 
2260.000000	98.565726 
2259.000000	98.564668 
2258.000000	98.563676 
2257.000000	98.562670 
2256.000000	98.561588 
2255.000000	98.560655 
2254.000000	98.560088 
2253.000000	98.559780 
2252.000000	98.559439 
2251.000000	98.558888 
2250.000000	98.558119 
2249.000000	98.557193 
2248.000000	98.556200 
2247.000000	98.555219 
2246.000000	98.554261 
2245.000000	98.553310 
2244.000000	98.552362 
2243.000000	98.551427 
2242.000000	98.550504 
2241.000000	98.549580 
2240.000000	98.548641 
2239.000000	98.547713 
2238.000000	98.546816 
2237.000000	98.545860 
2236.000000	98.544708 
2235.000000	98.543358 
2234.000000	98.542001 
2233.000000	98.540843 
2232.000000	98.539916 
2231.000000	98.539083 
2230.000000	98.538144 
2229.000000	98.536942 
2228.000000	98.535396 
2227.000000	98.533501 
2226.000000	98.531299 
2225.000000	98.528934 
2224.000000	98.526871 
2223.000000	98.525709 
2222.000000	98.525511 
2221.000000	98.525489 
2220.000000	98.524647 
2219.000000	98.522804 
2218.000000	98.520751 
2217.000000	98.519387 
2216.000000	98.518842 
2215.000000	98.518510 
2214.000000	98.517686 
2213.000000	98.516043 
2212.000000	98.513624 
2211.000000	98.510688 
2210.000000	98.507705 
2209.000000	98.505389 
2208.000000	98.504370 
2207.000000	98.504512 
2206.000000	98.504749 
2205.000000	98.504247 
2204.000000	98.503663 
2203.000000	98.504478 
2202.000000	98.506597 
2201.000000	98.507744 
2200.000000	98.506005 
2199.000000	98.501755 
2198.000000	98.496478 
2197.000000	98.490890 
2196.000000	98.485577 
2195.000000	98.481993 
2194.000000	98.481211 
2193.000000	98.482135 
2192.000000	98.481884 
2191.000000	98.478005 
2190.000000	98.470279 
2189.000000	98.460935 
2188.000000	98.452925 
2187.000000	98.447616 
2186.000000	98.444814 
2185.000000	98.445147 
2184.000000	98.450348 
2183.000000	98.459418 
2182.000000	98.466514 
2181.000000	98.466226 
2180.000000	98.460000 
2179.000000	98.453922 
2178.000000	98.450916 
2177.000000	98.449212 
2176.000000	98.448026 
2175.000000	98.449725 
2174.000000	98.455030 
2173.000000	98.460441 
2172.000000	98.462638 
2171.000000	98.462015 
2170.000000	98.459968 
2169.000000	98.456123 
2168.000000	98.450477 
2167.000000	98.445246 
2166.000000	98.441853 
2165.000000	98.438095 
2164.000000	98.430779 
2163.000000	98.420096 
2162.000000	98.410416 
2161.000000	98.408586 
2160.000000	98.421203 
2159.000000	98.449445 
2158.000000	98.484368 
2157.000000	98.511991 
2156.000000	98.526218 
2155.000000	98.531095 
2154.000000	98.531910 
2153.000000	98.529865 
2152.000000	98.525666 
2151.000000	98.522677 
2150.000000	98.523411 
2149.000000	98.526537 
2148.000000	98.530273 
2147.000000	98.535766 
2146.000000	98.544328 
2145.000000	98.554242 
2144.000000	98.563421 
2143.000000	98.572609 
2142.000000	98.582586 
2141.000000	98.590334 
2140.000000	98.591726 
2139.000000	98.587111 
2138.000000	98.581611 
2137.000000	98.580168 
2136.000000	98.583710 
2135.000000	98.589566 
2134.000000	98.594095 
2133.000000	98.595796 
2132.000000	98.596969 
2131.000000	98.601228 
2130.000000	98.608388 
2129.000000	98.613322 
2128.000000	98.611310 
2127.000000	98.603217 
2126.000000	98.594344 
2125.000000	98.589099 
2124.000000	98.587825 
2123.000000	98.588171 
2122.000000	98.587881 
2121.000000	98.586188 
2120.000000	98.583468 
2119.000000	98.580062 
2118.000000	98.575816 
2117.000000	98.571113 
2116.000000	98.567670 
2115.000000	98.567173 
2114.000000	98.569451 
2113.000000	98.572900 
2112.000000	98.576700 
2111.000000	98.580904 
2110.000000	98.584107 
2109.000000	98.583623 
2108.000000	98.578962 
2107.000000	98.573331 
2106.000000	98.570368 
2105.000000	98.570353 
2104.000000	98.570799 
2103.000000	98.569757 
2102.000000	98.567287 
2101.000000	98.564298 
2100.000000	98.561289 
2099.000000	98.558467 
2098.000000	98.556400 
2097.000000	98.556053 
2096.000000	98.557966 
2095.000000	98.561245 
2094.000000	98.563595 
2093.000000	98.563224 
2092.000000	98.560342 
2091.000000	98.556491 
2090.000000	98.552937 
2089.000000	98.549873 
2088.000000	98.546944 
2087.000000	98.543859 
2086.000000	98.540554 
2085.000000	98.537274 
2084.000000	98.534631 
2083.000000	98.533203 
2082.000000	98.532876 
2081.000000	98.532702 
2080.000000	98.531718 
2079.000000	98.529698 
2078.000000	98.527010 
2077.000000	98.524146 
2076.000000	98.521471 
2075.000000	98.519034 
2074.000000	98.516446 
2073.000000	98.513301 
2072.000000	98.509855 
2071.000000	98.506969 
2070.000000	98.505183 
2069.000000	98.504155 
2068.000000	98.503035 
2067.000000	98.501097 
2066.000000	98.498022 
2065.000000	98.494200 
2064.000000	98.490803 
2063.000000	98.488842 
2062.000000	98.487981 
2061.000000	98.486771 
2060.000000	98.484246 
2059.000000	98.480755 
2058.000000	98.477253 
2057.000000	98.474492 
2056.000000	98.472892 
2055.000000	98.472218 
2054.000000	98.471042 
2053.000000	98.467555 
2052.000000	98.461305 
2051.000000	98.453571 
2050.000000	98.446169 
2049.000000	98.440281 
2048.000000	98.436700 
2047.000000	98.436113 
2046.000000	98.438139 
2045.000000	98.440685 
2044.000000	98.441420 
2043.000000	98.439605 
2042.000000	98.435946 
2041.000000	98.431700 
2040.000000	98.428213 
2039.000000	98.426494 
2038.000000	98.426581 
2037.000000	98.427513 
2036.000000	98.428229 
2035.000000	98.428267 
2034.000000	98.427553 
2033.000000	98.426300 
2032.000000	98.425138 
2031.000000	98.424448 
2030.000000	98.423521 
2029.000000	98.421434 
2028.000000	98.418751 
2027.000000	98.417169 
2026.000000	98.417170 
2025.000000	98.417256 
2024.000000	98.415965 
2023.000000	98.413739 
2022.000000	98.411989 
2021.000000	98.411044 
2020.000000	98.409914 
2019.000000	98.407758 
2018.000000	98.404773 
2017.000000	98.401803 
2016.000000	98.399764 
2015.000000	98.399432 
2014.000000	98.401120 
2013.000000	98.404193 
2012.000000	98.407138 
2011.000000	98.408410 
2010.000000	98.407329 
2009.000000	98.404731 
2008.000000	98.402551 
2007.000000	98.401662 
2006.000000	98.400693 
2005.000000	98.398117 
2004.000000	98.394918 
2003.000000	98.393367 
2002.000000	98.393256 
2001.000000	98.391978 
2000.000000	98.389133 
1999.000000	98.387814 
1998.000000	98.389673 
1997.000000	98.391918 
1996.000000	98.391309 
1995.000000	98.388558 
1994.000000	98.386143 
1993.000000	98.383880 
1992.000000	98.380109 
1991.000000	98.376013 
1990.000000	98.374795 
1989.000000	98.377046 
1988.000000	98.379877 
1987.000000	98.380331 
1986.000000	98.377995 
1985.000000	98.374634 
1984.000000	98.372514 
1983.000000	98.372236 
1982.000000	98.371416 
1981.000000	98.367378 
1980.000000	98.361936 
1979.000000	98.360587 
1978.000000	98.365709 
1977.000000	98.373898 
1976.000000	98.381521 
1975.000000	98.389424 
1974.000000	98.398985 
1973.000000	98.407723 
1972.000000	98.412311 
1971.000000	98.412913 
1970.000000	98.411644 
1969.000000	98.409233 
1968.000000	98.405842 
1967.000000	98.403192 
1966.000000	98.402995 
1965.000000	98.404849 
1964.000000	98.407768 
1963.000000	98.412211 
1962.000000	98.418860 
1961.000000	98.426733 
1960.000000	98.433991 
1959.000000	98.439479 
1958.000000	98.442636 
1957.000000	98.443633 
1956.000000	98.444496 
1955.000000	98.447976 
1954.000000	98.454064 
1953.000000	98.459236 
1952.000000	98.460596 
1951.000000	98.459167 
1950.000000	98.458217 
1949.000000	98.459599 
1948.000000	98.463017 
1947.000000	98.467521 
1946.000000	98.472132 
1945.000000	98.476004 
1944.000000	98.479057 
1943.000000	98.481927 
1942.000000	98.484675 
1941.000000	98.486500 
1940.000000	98.487213 
1939.000000	98.487800 
1938.000000	98.489280 
1937.000000	98.491690 
1936.000000	98.494494 
1935.000000	98.497262 
1934.000000	98.499759 
1933.000000	98.501822 
1932.000000	98.503491 
1931.000000	98.505154 
1930.000000	98.507112 
1929.000000	98.509215 
1928.000000	98.511217 
1927.000000	98.513163 
1926.000000	98.515157 
1925.000000	98.517019 
1924.000000	98.518599 
1923.000000	98.520127 
1922.000000	98.521847 
1921.000000	98.523604 
1920.000000	98.525091 
1919.000000	98.526233 
1918.000000	98.527144 
1917.000000	98.527934 
1916.000000	98.528775 
1915.000000	98.529871 
1914.000000	98.531215 
1913.000000	98.532544 
1912.000000	98.533663 
1911.000000	98.534682 
1910.000000	98.535727 
1909.000000	98.536677 
1908.000000	98.537418 
1907.000000	98.538036 
1906.000000	98.538703 
1905.000000	98.539465 
1904.000000	98.540286 
1903.000000	98.541166 
1902.000000	98.542046 
1901.000000	98.542823 
1900.000000	98.543501 
1899.000000	98.544212 
1898.000000	98.545056 
1897.000000	98.545978 
1896.000000	98.546831 
1895.000000	98.547574 
1894.000000	98.548277 
1893.000000	98.548997 
1892.000000	98.549755 
1891.000000	98.550582 
1890.000000	98.551502 
1889.000000	98.552503 
1888.000000	98.553585 
1887.000000	98.554743 
1886.000000	98.555868 
1885.000000	98.556786 
1884.000000	98.557413 
1883.000000	98.557972 
1882.000000	98.558811 
1881.000000	98.560043 
1880.000000	98.561519 
1879.000000	98.563090 
1878.000000	98.564677 
1877.000000	98.566112 
1876.000000	98.567314 
1875.000000	98.568597 
1874.000000	98.570207 
1873.000000	98.571650 
1872.000000	98.572299 
1871.000000	98.572508 
1870.000000	98.573127 
1869.000000	98.573970 
1868.000000	98.574393 
1867.000000	98.574936 
1866.000000	98.576398 
1865.000000	98.578567 
1864.000000	98.581052 
1863.000000	98.584235 
1862.000000	98.588193 
1861.000000	98.591415 
1860.000000	98.592457 
1859.000000	98.592213 
1858.000000	98.592717 
1857.000000	98.594255 
1856.000000	98.595680 
1855.000000	98.596856 
1854.000000	98.598523 
1853.000000	98.600611 
1852.000000	98.602832 
1851.000000	98.605782 
1850.000000	98.610110 
1849.000000	98.615199 
1848.000000	98.619747 
1847.000000	98.623284 
1846.000000	98.625919 
1845.000000	98.627301 
1844.000000	98.627802 
1843.000000	98.629104 
1842.000000	98.631096 
1841.000000	98.631813 
1840.000000	98.630606 
1839.000000	98.628830 
1838.000000	98.628199 
1837.000000	98.628733 
1836.000000	98.629835 
1835.000000	98.632015 
1834.000000	98.635553 
1833.000000	98.639110 
1832.000000	98.640680 
1831.000000	98.639239 
1830.000000	98.635882 
1829.000000	98.632838 
1828.000000	98.630899 
1827.000000	98.629777 
1826.000000	98.629781 
1825.000000	98.631075 
1824.000000	98.633045 
1823.000000	98.635330 
1822.000000	98.637895 
1821.000000	98.640223 
1820.000000	98.641751 
1819.000000	98.643289 
1818.000000	98.646049 
1817.000000	98.648596 
1816.000000	98.648470 
1815.000000	98.646047 
1814.000000	98.643767 
1813.000000	98.642675 
1812.000000	98.641781 
1811.000000	98.641051 
1810.000000	98.641425 
1809.000000	98.641862 
1808.000000	98.640846 
1807.000000	98.639169 
1806.000000	98.638238 
1805.000000	98.637588 
1804.000000	98.636355 
1803.000000	98.635467 
1802.000000	98.636188 
1801.000000	98.637822 
1800.000000	98.638723 
1799.000000	98.638991 
1798.000000	98.639590 
1797.000000	98.640257 
1796.000000	98.640630 
1795.000000	98.641432 
1794.000000	98.643297 
1793.000000	98.645203 
1792.000000	98.645641 
1791.000000	98.645179 
1790.000000	98.645160 
1789.000000	98.645424 
1788.000000	98.645329 
1787.000000	98.645177 
1786.000000	98.645716 
1785.000000	98.646798 
1784.000000	98.647678 
1783.000000	98.648195 
1782.000000	98.648717 
1781.000000	98.649532 
1780.000000	98.650521 
1779.000000	98.651476 
1778.000000	98.652323 
1777.000000	98.652999 
1776.000000	98.653503 
1775.000000	98.653894 
1774.000000	98.654339 
1773.000000	98.655056 
1772.000000	98.655971 
1771.000000	98.656878 
1770.000000	98.657902 
1769.000000	98.659216 
1768.000000	98.660616 
1767.000000	98.661727 
1766.000000	98.662463 
1765.000000	98.662999 
1764.000000	98.663461 
1763.000000	98.663864 
1762.000000	98.664373 
1761.000000	98.665254 
1760.000000	98.666451 
1759.000000	98.667697 
1758.000000	98.668827 
1757.000000	98.669856 
1756.000000	98.670770 
1755.000000	98.671445 
1754.000000	98.671997 
1753.000000	98.672831 
1752.000000	98.674076 
1751.000000	98.675169 
1750.000000	98.675667 
1749.000000	98.675805 
1748.000000	98.675996 
1747.000000	98.676253 
1746.000000	98.676501 
1745.000000	98.676880 
1744.000000	98.677395 
1743.000000	98.677826 
1742.000000	98.678121 
1741.000000	98.678416 
1740.000000	98.678773 
1739.000000	98.679132 
1738.000000	98.679429 
1737.000000	98.679656 
1736.000000	98.679878 
1735.000000	98.680153 
1734.000000	98.680435 
1733.000000	98.680644 
1732.000000	98.680770 
1731.000000	98.680854 
1730.000000	98.680942 
1729.000000	98.681044 
1728.000000	98.681139 
1727.000000	98.681205 
1726.000000	98.681240 
1725.000000	98.681256 
1724.000000	98.681262 
1723.000000	98.681260 
1722.000000	98.681246 
1721.000000	98.681210 
1720.000000	98.681141 
1719.000000	98.681028 
1718.000000	98.680867 
1717.000000	98.680651 
1716.000000	98.680385 
1715.000000	98.680086 
1714.000000	98.679769 
1713.000000	98.679435 
1712.000000	98.679074 
1711.000000	98.678677 
1710.000000	98.678243 
1709.000000	98.677775 
1708.000000	98.677273 
1707.000000	98.676741 
1706.000000	98.676177 
1705.000000	98.675577 
1704.000000	98.674940 
1703.000000	98.674271 
1702.000000	98.673584 
1701.000000	98.672882 
1700.000000	98.672156 
1699.000000	98.671396 
1698.000000	98.670605 
1697.000000	98.669782 
1696.000000	98.668928 
1695.000000	98.668042 
1694.000000	98.667122 
1693.000000	98.666169 
1692.000000	98.665190 
1691.000000	98.664194 
1690.000000	98.663187 
1689.000000	98.662167 
1688.000000	98.661124 
1687.000000	98.660053 
1686.000000	98.658954 
1685.000000	98.657832 
1684.000000	98.656699 
1683.000000	98.655572 
1682.000000	98.654459 
1681.000000	98.653365 
1680.000000	98.652293 
1679.000000	98.651243 
1678.000000	98.650212 
1677.000000	98.649200 
1676.000000	98.648208 
1675.000000	98.647230 
1674.000000	98.646256 
1673.000000	98.645278 
1672.000000	98.644294 
1671.000000	98.643309 
1670.000000	98.642328 
1669.000000	98.641361 
1668.000000	98.640413 
1667.000000	98.639478 
1666.000000	98.638550 
1665.000000	98.637629 
1664.000000	98.636721 
1663.000000	98.635833 
1662.000000	98.634972 
1661.000000	98.634138 
1660.000000	98.633330 
1659.000000	98.632541 
1658.000000	98.631766 
1657.000000	98.631005 
1656.000000	98.630259 
1655.000000	98.629528 
1654.000000	98.628812 
1653.000000	98.628118 
1652.000000	98.627460 
1651.000000	98.626839 
1650.000000	98.626252 
1649.000000	98.625697 
1648.000000	98.625175 
1647.000000	98.624685 
1646.000000	98.624225 
1645.000000	98.623800 
1644.000000	98.623412 
1643.000000	98.623059 
1642.000000	98.622740 
1641.000000	98.622450 
1640.000000	98.622180 
1639.000000	98.621919 
1638.000000	98.621660 
1637.000000	98.621401 
1636.000000	98.621146 
1635.000000	98.620898 
1634.000000	98.620663 
1633.000000	98.620446 
1632.000000	98.620260 
1631.000000	98.620113 
1630.000000	98.619999 
1629.000000	98.619910 
1628.000000	98.619843 
1627.000000	98.619801 
1626.000000	98.619784 
1625.000000	98.619801 
1624.000000	98.619861 
1623.000000	98.619973 
1622.000000	98.620131 
1621.000000	98.620324 
1620.000000	98.620546 
1619.000000	98.620793 
1618.000000	98.621061 
1617.000000	98.621352 
1616.000000	98.621671 
1615.000000	98.622021 
1614.000000	98.622400 
1613.000000	98.622812 
1612.000000	98.623265 
1611.000000	98.623759 
1610.000000	98.624284 
1609.000000	98.624831 
1608.000000	98.625404 
1607.000000	98.626007 
1606.000000	98.626636 
1605.000000	98.627290 
1604.000000	98.627972 
1603.000000	98.628682 
1602.000000	98.629427 
1601.000000	98.630208 
1600.000000	98.631055 
1599.000000	98.631974 
1598.000000	98.632792 
1597.000000	98.633356 
1596.000000	98.633898 
1595.000000	98.634757 
1594.000000	98.635803 
1593.000000	98.636693 
1592.000000	98.637578 
1591.000000	98.638740 
1590.000000	98.639903 
1589.000000	98.640765 
1588.000000	98.641763 
1587.000000	98.643334 
1586.000000	98.644896 
1585.000000	98.645788 
1584.000000	98.646805 
1583.000000	98.648840 
1582.000000	98.651072 
1581.000000	98.652643 
1580.000000	98.654191 
1579.000000	98.655852 
1578.000000	98.656365 
1577.000000	98.655836 
1576.000000	98.657404 
1575.000000	98.661232 
1574.000000	98.662667 
1573.000000	98.660588 
1572.000000	98.658533 
1571.000000	98.659515 
1570.000000	98.662595 
1569.000000	98.666418 
1568.000000	98.671638 
1567.000000	98.676150 
1566.000000	98.677299 
1565.000000	98.676747 
1564.000000	98.677713 
1563.000000	98.679178 
1562.000000	98.677963 
1561.000000	98.676343 
1560.000000	98.683058 
1559.000000	98.692025 
1558.000000	98.689713 
1557.000000	98.681067 
1556.000000	98.674650 
1555.000000	98.672654 
1554.000000	98.672836 
1553.000000	98.672178 
1552.000000	98.670853 
1551.000000	98.670316 
1550.000000	98.671505 
1549.000000	98.672902 
1548.000000	98.673379 
1547.000000	98.673537 
1546.000000	98.673568 
1545.000000	98.672058 
1544.000000	98.668713 
1543.000000	98.665786 
1542.000000	98.665253 
1541.000000	98.662890 
1540.000000	98.656101 
1539.000000	98.651001 
1538.000000	98.647110 
1537.000000	98.638073 
1536.000000	98.624678 
1535.000000	98.612535 
1534.000000	98.604424 
1533.000000	98.599025 
1532.000000	98.594674 
1531.000000	98.591722 
1530.000000	98.589342 
1529.000000	98.583857 
1528.000000	98.573517 
1527.000000	98.562062 
1526.000000	98.554073 
1525.000000	98.548571 
1524.000000	98.541980 
1523.000000	98.534169 
1522.000000	98.526439 
1521.000000	98.517907 
1520.000000	98.507527 
1519.000000	98.495884 
1518.000000	98.484475 
1517.000000	98.474210 
1516.000000	98.465066 
1515.000000	98.457249 
1514.000000	98.451296 
1513.000000	98.446795 
1512.000000	98.440692 
1511.000000	98.431756 
1510.000000	98.422411 
1509.000000	98.414044 
1508.000000	98.402894 
1507.000000	98.387358 
1506.000000	98.374586 
1505.000000	98.365856 
1504.000000	98.356148 
1503.000000	98.344436 
1502.000000	98.332347 
1501.000000	98.320565 
1500.000000	98.308168 
1499.000000	98.295216 
1498.000000	98.284701 
1497.000000	98.277901 
1496.000000	98.271765 
1495.000000	98.265067 
1494.000000	98.259689 
1493.000000	98.255629 
1492.000000	98.250119 
1491.000000	98.240624 
1490.000000	98.227896 
1489.000000	98.213562 
1488.000000	98.197984 
1487.000000	98.184282 
1486.000000	98.174254 
1485.000000	98.165026 
1484.000000	98.154855 
1483.000000	98.144443 
1482.000000	98.135042 
1481.000000	98.126100 
1480.000000	98.116668 
1479.000000	98.108237 
1478.000000	98.102536 
1477.000000	98.097492 
1476.000000	98.090043 
1475.000000	98.082043 
1474.000000	98.075079 
1473.000000	98.065061 
1472.000000	98.049711 
1471.000000	98.035415 
1470.000000	98.027423 
1469.000000	98.022785 
1468.000000	98.016508 
1467.000000	98.008099 
1466.000000	97.999897 
1465.000000	97.992392 
1464.000000	97.985222 
1463.000000	97.978980 
1462.000000	97.974447 
1461.000000	97.970353 
1460.000000	97.964160 
1459.000000	97.953475 
1458.000000	97.938095 
1457.000000	97.921198 
1456.000000	97.904997 
1455.000000	97.889062 
1454.000000	97.874895 
1453.000000	97.865853 
1452.000000	97.862044 
1451.000000	97.861327 
1450.000000	97.864910 
1449.000000	97.874342 
1448.000000	97.885005 
1447.000000	97.890938 
1446.000000	97.891693 
1445.000000	97.891442 
1444.000000	97.892478 
1443.000000	97.893691 
1442.000000	97.895668 
1441.000000	97.900660 
1440.000000	97.906461 
1439.000000	97.907404 
1438.000000	97.904081 
1437.000000	97.903114 
1436.000000	97.906510 
1435.000000	97.909832 
1434.000000	97.911294 
1433.000000	97.912097 
1432.000000	97.912075 
1431.000000	97.908553 
1430.000000	97.902028 
1429.000000	97.896742 
1428.000000	97.893254 
1427.000000	97.888418 
1426.000000	97.880503 
1425.000000	97.873227 
1424.000000	97.869534 
1423.000000	97.865915 
1422.000000	97.859129 
1421.000000	97.850412 
1420.000000	97.839832 
1419.000000	97.823931 
1418.000000	97.805375 
1417.000000	97.789700 
1416.000000	97.775286 
1415.000000	97.758376 
1414.000000	97.738599 
1413.000000	97.718902 
1412.000000	97.701923 
1411.000000	97.688083 
1410.000000	97.678621 
1409.000000	97.674575 
1408.000000	97.674225 
1407.000000	97.676085 
1406.000000	97.681719 
1405.000000	97.695138 
1404.000000	97.716826 
1403.000000	97.741353 
1402.000000	97.764362 
1401.000000	97.786185 
1400.000000	97.807755 
1399.000000	97.825109 
1398.000000	97.830484 
1397.000000	97.817750 
1396.000000	97.788282 
1395.000000	97.757440 
1394.000000	97.749393 
1393.000000	97.775802 
1392.000000	97.824942 
1391.000000	97.874672 
1390.000000	97.910518 
1389.000000	97.930266 
1388.000000	97.938206 
1387.000000	97.939601 
1386.000000	97.939212 
1385.000000	97.940920 
1384.000000	97.946340 
1383.000000	97.954565 
1382.000000	97.964525 
1381.000000	97.976585 
1380.000000	97.991871 
1379.000000	98.010245 
1378.000000	98.030013 
1377.000000	98.050062 
1376.000000	98.070895 
1375.000000	98.092882 
1374.000000	98.115234 
1373.000000	98.137390 
1372.000000	98.159340 
1371.000000	98.180758 
1370.000000	98.201111 
1369.000000	98.221541 
1368.000000	98.243574 
1367.000000	98.265813 
1366.000000	98.285094 
1365.000000	98.300169 
1364.000000	98.312892 
1363.000000	98.326356 
1362.000000	98.342370 
1361.000000	98.360646 
1360.000000	98.379848 
1359.000000	98.398615 
1358.000000	98.416118 
1357.000000	98.432695 
1356.000000	98.449066 
1355.000000	98.464606 
1354.000000	98.478180 
1353.000000	98.490074 
1352.000000	98.502028 
1351.000000	98.515062 
1350.000000	98.527315 
1349.000000	98.537564 
1348.000000	98.546168 
1347.000000	98.553191 
1346.000000	98.559174 
1345.000000	98.566141 
1344.000000	98.575660 
1343.000000	98.586095 
1342.000000	98.594080 
1341.000000	98.598657 
1340.000000	98.601952 
1339.000000	98.605615 
1338.000000	98.609491 
1337.000000	98.613755 
1336.000000	98.619112 
1335.000000	98.625236 
1334.000000	98.631333 
1333.000000	98.637678 
1332.000000	98.644486 
1331.000000	98.649567 
1330.000000	98.650006 
1329.000000	98.646508 
1328.000000	98.643211 
1327.000000	98.642626 
1326.000000	98.643334 
1325.000000	98.643943 
1324.000000	98.644965 
1323.000000	98.646407 
1322.000000	98.647231 
1321.000000	98.647379 
1320.000000	98.647944 
1319.000000	98.649309 
1318.000000	98.651179 
1317.000000	98.653814 
1316.000000	98.657372 
1315.000000	98.660806 
1314.000000	98.663418 
1313.000000	98.666468 
1312.000000	98.671232 
1311.000000	98.676371 
1310.000000	98.679567 
1309.000000	98.680798 
1308.000000	98.681855 
1307.000000	98.683373 
1306.000000	98.684163 
1305.000000	98.683924 
1304.000000	98.683633 
1303.000000	98.683479 
1302.000000	98.682719 
1301.000000	98.681396 
1300.000000	98.680503 
1299.000000	98.680611 
1298.000000	98.681742 
1297.000000	98.683886 
1296.000000	98.686343 
1295.000000	98.687088 
1294.000000	98.684635 
1293.000000	98.680107 
1292.000000	98.675971 
1291.000000	98.673196 
1290.000000	98.670811 
1289.000000	98.667670 
1288.000000	98.663309 
1287.000000	98.657514 
1286.000000	98.650516 
1285.000000	98.643405 
1284.000000	98.637364 
1283.000000	98.632853 
1282.000000	98.629508 
1281.000000	98.626193 
1280.000000	98.621431 
1279.000000	98.614261 
1278.000000	98.605194 
1277.000000	98.595929 
1276.000000	98.587598 
1275.000000	98.579684 
1274.000000	98.571020 
1273.000000	98.561252 
1272.000000	98.550814 
1271.000000	98.540030 
1270.000000	98.528585 
1269.000000	98.515545 
1268.000000	98.499931 
1267.000000	98.482012 
1266.000000	98.463990 
1265.000000	98.448056 
1264.000000	98.433796 
1263.000000	98.419054 
1262.000000	98.403230 
1261.000000	98.387966 
1260.000000	98.374285 
1259.000000	98.360804 
1258.000000	98.345914 
1257.000000	98.330194 
1256.000000	98.315540 
1255.000000	98.302904 
1254.000000	98.291545 
1253.000000	98.279805 
1252.000000	98.266740 
1251.000000	98.254132 
1250.000000	98.246634 
1249.000000	98.248096 
1248.000000	98.257350 
1247.000000	98.268579 
1246.000000	98.275322 
1245.000000	98.272404 
1244.000000	98.256413 
1243.000000	98.230028 
1242.000000	98.205930 
1241.000000	98.199127 
1240.000000	98.211564 
1239.000000	98.228343 
1238.000000	98.232775 
1237.000000	98.221684 
1236.000000	98.202748 
1235.000000	98.181843 
1234.000000	98.158770 
1233.000000	98.133346 
1232.000000	98.109119 
1231.000000	98.089904 
1230.000000	98.076258 
1229.000000	98.065916 
1228.000000	98.055311 
1227.000000	98.040984 
1226.000000	98.022125 
1225.000000	98.001649 
1224.000000	97.982803 
1223.000000	97.965385 
1222.000000	97.947180 
1221.000000	97.927722 
1220.000000	97.907904 
1219.000000	97.886867 
1218.000000	97.862406 
1217.000000	97.833971 
1216.000000	97.802542 
1215.000000	97.768019 
1214.000000	97.729525 
1213.000000	97.688023 
1212.000000	97.645818 
1211.000000	97.603279 
1210.000000	97.558334 
1209.000000	97.509536 
1208.000000	97.457917 
1207.000000	97.405840 
1206.000000	97.355506 
1205.000000	97.308063 
1204.000000	97.262353 
1203.000000	97.214840 
1202.000000	97.162740 
1201.000000	97.107115 
1200.000000	97.051245 
1199.000000	96.996504 
1198.000000	96.942249 
1197.000000	96.889177 
1196.000000	96.839493 
1195.000000	96.793285 
1194.000000	96.747464 
1193.000000	96.699359 
1192.000000	96.649157 
1191.000000	96.597790 
1190.000000	96.544699 
1189.000000	96.489243 
1188.000000	96.432459 
1187.000000	96.375554 
1186.000000	96.317901 
1185.000000	96.258240 
1184.000000	96.196988 
1183.000000	96.135659 
1182.000000	96.074418 
1181.000000	96.011761 
1180.000000	95.946533 
1179.000000	95.879018 
1178.000000	95.810104 
1177.000000	95.740117 
1176.000000	95.668292 
1175.000000	95.592846 
1174.000000	95.512186 
1173.000000	95.426899 
1172.000000	95.339907 
1171.000000	95.253787 
1170.000000	95.168603 
1169.000000	95.083292 
1168.000000	94.998660 
1167.000000	94.918387 
1166.000000	94.848138 
1165.000000	94.794760 
1164.000000	94.764851 
1163.000000	94.761627 
1162.000000	94.782455 
1161.000000	94.819678 
1160.000000	94.862783 
1159.000000	94.899625 
1158.000000	94.918813 
1157.000000	94.913773 
1156.000000	94.884226 
1155.000000	94.833891 
1154.000000	94.768626 
1153.000000	94.696358 
1152.000000	94.624751 
1151.000000	94.556213 
1150.000000	94.487188 
1149.000000	94.414623 
1148.000000	94.341010 
1147.000000	94.270674 
1146.000000	94.203307 
1145.000000	94.134478 
1144.000000	94.061187 
1143.000000	93.983921 
1142.000000	93.904639 
1141.000000	93.825807 
1140.000000	93.750297 
1139.000000	93.678992 
1138.000000	93.609013 
1137.000000	93.536783 
1136.000000	93.461803 
1135.000000	93.385451 
1134.000000	93.308281 
1133.000000	93.231333 
1132.000000	93.157352 
1131.000000	93.086567 
1130.000000	93.013661 
1129.000000	92.933882 
1128.000000	92.850326 
1127.000000	92.769939 
1126.000000	92.693625 
1125.000000	92.616138 
1124.000000	92.535092 
1123.000000	92.453761 
1122.000000	92.374587 
1121.000000	92.295907 
1120.000000	92.216415 
1119.000000	92.137449 
1118.000000	92.059291 
1117.000000	91.979837 
1116.000000	91.898274 
1115.000000	91.815923 
1114.000000	91.732708 
1113.000000	91.646940 
1112.000000	91.559150 
1111.000000	91.471834 
1110.000000	91.385755 
1109.000000	91.301045 
1108.000000	91.219717 
1107.000000	91.142806 
1106.000000	91.067153 
1105.000000	90.989703 
1104.000000	90.913532 
1103.000000	90.844314 
1102.000000	90.781790 
1101.000000	90.721112 
1100.000000	90.660581 
1099.000000	90.603377 
1098.000000	90.550465 
1097.000000	90.498349 
1096.000000	90.444469 
1095.000000	90.388779 
1094.000000	90.329499 
1093.000000	90.262632 
1092.000000	90.187417 
1091.000000	90.108148 
1090.000000	90.029698 
1089.000000	89.954975 
1088.000000	89.886682 
1087.000000	89.826530 
1086.000000	89.771990 
1085.000000	89.718416 
1084.000000	89.664842 
1083.000000	89.613427 
1082.000000	89.564115 
1081.000000	89.515511 
1080.000000	89.470360 
1079.000000	89.433832 
1078.000000	89.406644 
1077.000000	89.386379 
1076.000000	89.374740 
1075.000000	89.375487 
1074.000000	89.385202 
1073.000000	89.393981 
1072.000000	89.394216 
1071.000000	89.378724 
1070.000000	89.331542 
1069.000000	89.236011 
1068.000000	89.099265 
1067.000000	88.959969 
1066.000000	88.860245 
1065.000000	88.811295 
1064.000000	88.791720 
1063.000000	88.770711 
1062.000000	88.725720 
1061.000000	88.646446 
1060.000000	88.536930 
1059.000000	88.417173 
1058.000000	88.313987 
1057.000000	88.243532 
1056.000000	88.202147 
1055.000000	88.172601 
1054.000000	88.138150 
1053.000000	88.093694 
1052.000000	88.046705 
1051.000000	88.007272 
1050.000000	87.977090 
1049.000000	87.950102 
1048.000000	87.922495 
1047.000000	87.897094 
1046.000000	87.877970 
1045.000000	87.865685 
1044.000000	87.858530 
1043.000000	87.854263 
1042.000000	87.849659 
1041.000000	87.841555 
1040.000000	87.830124 
1039.000000	87.820473 
1038.000000	87.821146 
1037.000000	87.840544 
1036.000000	87.881288 
1035.000000	87.936117 
1034.000000	87.992422 
1033.000000	88.041978 
1032.000000	88.081204 
1031.000000	88.101954 
1030.000000	88.093887 
1029.000000	88.064241 
1028.000000	88.046067 
1027.000000	88.072365 
1026.000000	88.143003 
1025.000000	88.226655 
1024.000000	88.293892 
1023.000000	88.338338 
1022.000000	88.367993 
1021.000000	88.390444 
1020.000000	88.410470 
1019.000000	88.431988 
1018.000000	88.455790 
1017.000000	88.479710 
1016.000000	88.503773 
1015.000000	88.530876 
1014.000000	88.561334 
1013.000000	88.592144 
1012.000000	88.622965 
1011.000000	88.657515 
1010.000000	88.697545 
1009.000000	88.740146 
1008.000000	88.782386 
1007.000000	88.824678 
1006.000000	88.868873 
1005.000000	88.916714 
1004.000000	88.970302 
1003.000000	89.030373 
1002.000000	89.094067 
1001.000000	89.157657 
1000.000000	89.220624 
999.000000	 89.283825 
998.000000	 89.345640 
997.000000	 89.404299 
996.000000	 89.462169 
995.000000	 89.522838 
994.000000	 89.585394 
993.000000	 89.646597 
992.000000	 89.707483 
991.000000	 89.772638 
990.000000	 89.843867 
989.000000	 89.919313 
988.000000	 89.997495 
987.000000	 90.077225 
986.000000	 90.155304 
985.000000	 90.230201 
984.000000	 90.306361 
983.000000	 90.388956 
982.000000	 90.477065 
981.000000	 90.566876 
980.000000	 90.658581 
979.000000	 90.755131 
978.000000	 90.855813 
977.000000	 90.956983 
976.000000	 91.058111 
975.000000	 91.161275 
974.000000	 91.265797 
973.000000	 91.369331 
972.000000	 91.473500 
971.000000	 91.582556 
970.000000	 91.696547 
969.000000	 91.810877 
968.000000	 91.922504 
967.000000	 92.032016 
966.000000	 92.140058 
965.000000	 92.246232 
964.000000	 92.351380 
963.000000	 92.457031 
962.000000	 92.562629 
961.000000	 92.666343 
960.000000	 92.767766 
959.000000	 92.866868 
958.000000	 92.961926 
957.000000	 93.052012 
956.000000	 93.140037 
955.000000	 93.229552 
954.000000	 93.319328 
953.000000	 93.404574 
952.000000	 93.482894 
951.000000	 93.556213 
950.000000	 93.627659 
949.000000	 93.699005 
948.000000	 93.770407 
947.000000	 93.840692 
946.000000	 93.908601 
945.000000	 93.974612 
944.000000	 94.039959 
943.000000	 94.103668 
942.000000	 94.163648 
941.000000	 94.221058 
940.000000	 94.279480 
939.000000	 94.338673 
938.000000	 94.394167 
937.000000	 94.445360 
936.000000	 94.498504 
935.000000	 94.558176 
934.000000	 94.620940 
933.000000	 94.681924 
932.000000	 94.742546 
931.000000	 94.806275 
930.000000	 94.870678 
929.000000	 94.929524 
928.000000	 94.980292 
927.000000	 95.024871 
926.000000	 95.065587 
925.000000	 95.105168 
924.000000	 95.147826 
923.000000	 95.194884 
922.000000	 95.240864 
921.000000	 95.278975 
920.000000	 95.309443 
919.000000	 95.338414 
918.000000	 95.370169 
917.000000	 95.404324 
916.000000	 95.439135 
915.000000	 95.473065 
914.000000	 95.503883 
913.000000	 95.530601 
912.000000	 95.556729 
911.000000	 95.588489 
910.000000	 95.629256 
909.000000	 95.677599 
908.000000	 95.730127 
907.000000	 95.783948 
906.000000	 95.836744 
905.000000	 95.886499 
904.000000	 95.931860 
903.000000	 95.973460 
902.000000	 96.016145 
901.000000	 96.068138 
900.000000	 96.133596 
899.000000	 96.205930 
898.000000	 96.272996 
897.000000	 96.330233 
896.000000	 96.383211 
895.000000	 96.436481 
894.000000	 96.487642 
893.000000	 96.536032 
892.000000	 96.589309 
891.000000	 96.653867 
890.000000	 96.722805 
889.000000	 96.780498 
888.000000	 96.816667 
887.000000	 96.831218 
886.000000	 96.829556 
885.000000	 96.819156 
884.000000	 96.807530 
883.000000	 96.796545 
882.000000	 96.780329 
881.000000	 96.755559 
880.000000	 96.732643 
879.000000	 96.729081 
878.000000	 96.751323 
877.000000	 96.789706 
876.000000	 96.831547 
875.000000	 96.873264 
874.000000	 96.919706 
873.000000	 96.978651 
872.000000	 97.056901 
871.000000	 97.154629 
870.000000	 97.260885 
869.000000	 97.359972 
868.000000	 97.444775 
867.000000	 97.520615 
866.000000	 97.595774 
865.000000	 97.672102 
864.000000	 97.745673 
863.000000	 97.812685 
862.000000	 97.872497 
861.000000	 97.927292 
860.000000	 97.981073 
859.000000	 98.037955 
858.000000	 98.099220 
857.000000	 98.161405 
856.000000	 98.217876 
855.000000	 98.263492 
854.000000	 98.298748 
853.000000	 98.328629 
852.000000	 98.356420 
851.000000	 98.380556 
850.000000	 98.400069 
849.000000	 98.420825 
848.000000	 98.450926 
847.000000	 98.489563 
846.000000	 98.526065 
845.000000	 98.552229 
844.000000	 98.570599 
843.000000	 98.587786 
842.000000	 98.604793 
841.000000	 98.618612 
840.000000	 98.629702 
839.000000	 98.642227 
838.000000	 98.657965 
837.000000	 98.673901 
836.000000	 98.685290 
835.000000	 98.688673 
834.000000	 98.683660 
833.000000	 98.674833 
832.000000	 98.670359 
831.000000	 98.675019 
830.000000	 98.684786 
829.000000	 98.690927 
828.000000	 98.688956 
827.000000	 98.681591 
826.000000	 98.674969 
825.000000	 98.674960 
824.000000	 98.684461 
823.000000	 98.698892 
822.000000	 98.705556 
821.000000	 98.693183 
820.000000	 98.662699 
819.000000	 98.625840 
818.000000	 98.593526 
817.000000	 98.567211 
816.000000	 98.539739 
815.000000	 98.500544 
814.000000	 98.439164 
813.000000	 98.346558 
812.000000	 98.215885 
811.000000	 98.043356 
810.000000	 97.828816 
809.000000	 97.575393 
808.000000	 97.287680 
807.000000	 96.969291 
806.000000	 96.622358 
805.000000	 96.251352 
804.000000	 95.868523 
803.000000	 95.494280 
802.000000	 95.151418 
801.000000	 94.859801 
800.000000	 94.634560 
799.000000	 94.483278 
798.000000	 94.403001 
797.000000	 94.384146 
796.000000	 94.417598 
795.000000	 94.493892 
794.000000	 94.597654 
793.000000	 94.709872 
792.000000	 94.815818 
791.000000	 94.906376 
790.000000	 94.973645 
789.000000	 95.010653 
788.000000	 95.013989 
787.000000	 94.981812 
786.000000	 94.910745 
785.000000	 94.800149 
784.000000	 94.659150 
783.000000	 94.504805 
782.000000	 94.353539 
781.000000	 94.218369 
780.000000	 94.112823 
779.000000	 94.050498 
778.000000	 94.039406 
777.000000	 94.081376 
776.000000	 94.175706 
775.000000	 94.316447 
774.000000	 94.486822 
773.000000	 94.664445 
772.000000	 94.834164 
771.000000	 94.992123 
770.000000	 95.139154 
769.000000	 95.275745 
768.000000	 95.402435 
767.000000	 95.519694 
766.000000	 95.627055 
765.000000	 95.725363 
764.000000	 95.818198 
763.000000	 95.908043 
762.000000	 95.993748 
761.000000	 96.075511 
760.000000	 96.158699 
759.000000	 96.247379 
758.000000	 96.337089 
757.000000	 96.420139 
756.000000	 96.495734 
755.000000	 96.568639 
754.000000	 96.640093 
753.000000	 96.706980 
752.000000	 96.768613 
751.000000	 96.827258 
750.000000	 96.881969 
749.000000	 96.928635 
748.000000	 96.967579 
747.000000	 97.005861 
746.000000	 97.050056 
745.000000	 97.100483 
744.000000	 97.153846 
743.000000	 97.208050 
742.000000	 97.263223 
741.000000	 97.320630 
740.000000	 97.381431 
739.000000	 97.444576 
738.000000	 97.505746 
737.000000	 97.560060 
736.000000	 97.605460 
735.000000	 97.642255 
734.000000	 97.671142 
733.000000	 97.693317 
732.000000	 97.710423 
731.000000	 97.723087 
730.000000	 97.731932 
729.000000	 97.741165 
728.000000	 97.756801 
727.000000	 97.779139 
726.000000	 97.802000 
725.000000	 97.821976 
724.000000	 97.843402 
723.000000	 97.870469 
722.000000	 97.899604 
721.000000	 97.925019 
720.000000	 97.947706 
719.000000	 97.972239 
718.000000	 97.997123 
717.000000	 98.015568 
716.000000	 98.025376 
715.000000	 98.032691 
714.000000	 98.045804 
713.000000	 98.068630 
712.000000	 98.099564 
711.000000	 98.134197 
710.000000	 98.170166 
709.000000	 98.210247 
708.000000	 98.256165 
707.000000	 98.297245 
706.000000	 98.313438 
705.000000	 98.295087 
704.000000	 98.252604 
703.000000	 98.199081 
702.000000	 98.128289 
701.000000	 98.019957 
700.000000	 97.865251 
699.000000	 97.677176 
698.000000	 97.478867 
697.000000	 97.294133 
696.000000	 97.149759 
695.000000	 97.072430 
694.000000	 97.072775 
693.000000	 97.137106 
692.000000	 97.239908 
691.000000	 97.360879 
690.000000	 97.489487 
689.000000	 97.619435 
688.000000	 97.744187 
687.000000	 97.856700 
686.000000	 97.949711 
685.000000	 98.019206 
684.000000	 98.070841 
683.000000	 98.118128 
682.000000	 98.170495 
681.000000	 98.224996 
680.000000	 98.271938 
679.000000	 98.305871 
678.000000	 98.328251 
677.000000	 98.343676 
676.000000	 98.356215 
675.000000	 98.366724 
674.000000	 98.375477 
673.000000	 98.385139 
672.000000	 98.397313 
671.000000	 98.407732 
670.000000	 98.409956 
669.000000	 98.402484 
668.000000	 98.401749 
667.000000	 98.436265 
666.000000	 98.487236 
665.000000	 98.526488 
664.000000	 98.557228 
663.000000	 98.587759 
662.000000	 98.618970 
661.000000	 98.653434 
660.000000	 98.698155 
659.000000	 98.750050 
658.000000	 98.790094 
657.000000	 98.804490 
656.000000	 98.798468 
655.000000	 98.780663 
654.000000	 98.748674 
653.000000	 98.698044 
652.000000	 98.637572 
651.000000	 98.591054 
650.000000	 98.583434 

