4000.000000	100.767292 
3999.000000	100.766974 
3998.000000	100.766829 
3997.000000	100.766796 
3996.000000	100.766713 
3995.000000	100.766449 
3994.000000	100.766011 
3993.000000	100.765512 
3992.000000	100.765080 
3991.000000	100.764762 
3990.000000	100.764552 
3989.000000	100.764465 
3988.000000	100.764527 
3987.000000	100.764659 
3986.000000	100.764634 
3985.000000	100.764240 
3984.000000	100.763508 
3983.000000	100.762711 
3982.000000	100.762110 
3981.000000	100.761711 
3980.000000	100.761340 
3979.000000	100.760865 
3978.000000	100.760305 
3977.000000	100.759753 
3976.000000	100.759259 
3975.000000	100.758804 
3974.000000	100.758344 
3973.000000	100.757850 
3972.000000	100.757326 
3971.000000	100.756787 
3970.000000	100.756219 
3969.000000	100.755568 
3968.000000	100.754811 
3967.000000	100.754055 
3966.000000	100.753496 
3965.000000	100.753216 
3964.000000	100.753100 
3963.000000	100.752914 
3962.000000	100.752499 
3961.000000	100.751887 
3960.000000	100.751240 
3959.000000	100.750713 
3958.000000	100.750328 
3957.000000	100.749987 
3956.000000	100.749574 
3955.000000	100.749059 
3954.000000	100.748495 
3953.000000	100.747946 
3952.000000	100.747447 
3951.000000	100.747020 
3950.000000	100.746672 
3949.000000	100.746356 
3948.000000	100.745978 
3947.000000	100.745467 
3946.000000	100.744814 
3945.000000	100.744068 
3944.000000	100.743335 
3943.000000	100.742752 
3942.000000	100.742406 
3941.000000	100.742229 
3940.000000	100.742011 
3939.000000	100.741578 
3938.000000	100.740951 
3937.000000	100.740328 
3936.000000	100.739909 
3935.000000	100.739732 
3934.000000	100.739681 
3933.000000	100.739612 
3932.000000	100.739506 
3931.000000	100.739463 
3930.000000	100.739532 
3929.000000	100.739578 
3928.000000	100.739371 
3927.000000	100.738801 
3926.000000	100.737967 
3925.000000	100.737142 
3924.000000	100.736552 
3923.000000	100.736237 
3922.000000	100.736062 
3921.000000	100.735818 
3920.000000	100.735365 
3919.000000	100.734719 
3918.000000	100.734010 
3917.000000	100.733361 
3916.000000	100.732821 
3915.000000	100.732382 
3914.000000	100.732025 
3913.000000	100.731717 
3912.000000	100.731406 
3911.000000	100.731034 
3910.000000	100.730570 
3909.000000	100.730026 
3908.000000	100.729449 
3907.000000	100.728884 
3906.000000	100.728348 
3905.000000	100.727836 
3904.000000	100.727342 
3903.000000	100.726861 
3902.000000	100.726387 
3901.000000	100.725912 
3900.000000	100.725422 
3899.000000	100.724906 
3898.000000	100.724359 
3897.000000	100.723788 
3896.000000	100.723203 
3895.000000	100.722613 
3894.000000	100.722019 
3893.000000	100.721419 
3892.000000	100.720810 
3891.000000	100.720193 
3890.000000	100.719571 
3889.000000	100.718947 
3888.000000	100.718323 
3887.000000	100.717704 
3886.000000	100.717087 
3885.000000	100.716468 
3884.000000	100.715853 
3883.000000	100.715267 
3882.000000	100.714727 
3881.000000	100.714208 
3880.000000	100.713642 
3879.000000	100.713000 
3878.000000	100.712357 
3877.000000	100.711826 
3876.000000	100.711439 
3875.000000	100.711078 
3874.000000	100.710565 
3873.000000	100.709849 
3872.000000	100.709079 
3871.000000	100.708460 
3870.000000	100.708035 
3869.000000	100.707680 
3868.000000	100.707408 
3867.000000	100.707445 
3866.000000	100.707902 
3865.000000	100.708496 
3864.000000	100.708676 
3863.000000	100.708200 
3862.000000	100.707296 
3861.000000	100.706098 
3860.000000	100.704474 
3859.000000	100.702427 
3858.000000	100.700373 
3857.000000	100.698945 
3856.000000	100.698619 
3855.000000	100.699430 
3854.000000	100.700584 
3853.000000	100.700973 
3852.000000	100.700703 
3851.000000	100.700609 
3850.000000	100.700912 
3849.000000	100.701147 
3848.000000	100.700888 
3847.000000	100.700141 
3846.000000	100.699358 
3845.000000	100.698939 
3844.000000	100.698782 
3843.000000	100.698615 
3842.000000	100.698477 
3841.000000	100.698530 
3840.000000	100.698795 
3839.000000	100.699078 
3838.000000	100.699193 
3837.000000	100.699220 
3836.000000	100.699283 
3835.000000	100.699324 
3834.000000	100.699174 
3833.000000	100.698755 
3832.000000	100.698162 
3831.000000	100.697590 
3830.000000	100.697184 
3829.000000	100.696951 
3828.000000	100.696727 
3827.000000	100.696323 
3826.000000	100.695745 
3825.000000	100.695151 
3824.000000	100.694664 
3823.000000	100.694252 
3822.000000	100.693811 
3821.000000	100.693331 
3820.000000	100.692881 
3819.000000	100.692488 
3818.000000	100.692115 
3817.000000	100.691737 
3816.000000	100.691347 
3815.000000	100.690936 
3814.000000	100.690505 
3813.000000	100.690061 
3812.000000	100.689611 
3811.000000	100.689159 
3810.000000	100.688708 
3809.000000	100.688261 
3808.000000	100.687814 
3807.000000	100.687366 
3806.000000	100.686913 
3805.000000	100.686460 
3804.000000	100.686010 
3803.000000	100.685568 
3802.000000	100.685129 
3801.000000	100.684688 
3800.000000	100.684246 
3799.000000	100.683803 
3798.000000	100.683354 
3797.000000	100.682891 
3796.000000	100.682402 
3795.000000	100.681886 
3794.000000	100.681347 
3793.000000	100.680792 
3792.000000	100.680222 
3791.000000	100.679629 
3790.000000	100.678985 
3789.000000	100.678298 
3788.000000	100.677649 
3787.000000	100.677102 
3786.000000	100.676600 
3785.000000	100.676054 
3784.000000	100.675499 
3783.000000	100.675100 
3782.000000	100.674991 
3781.000000	100.675091 
3780.000000	100.675107 
3779.000000	100.674760 
3778.000000	100.674120 
3777.000000	100.673522 
3776.000000	100.673098 
3775.000000	100.672655 
3774.000000	100.671993 
3773.000000	100.671154 
3772.000000	100.670207 
3771.000000	100.668942 
3770.000000	100.667240 
3769.000000	100.665799 
3768.000000	100.665906 
3767.000000	100.667973 
3766.000000	100.670548 
3765.000000	100.671613 
3764.000000	100.670730 
3763.000000	100.669497 
3762.000000	100.669719 
3761.000000	100.671404 
3760.000000	100.672741 
3759.000000	100.671681 
3758.000000	100.667951 
3757.000000	100.662794 
3756.000000	100.657196 
3755.000000	100.651669 
3754.000000	100.646945 
3753.000000	100.644143 
3752.000000	100.643634 
3751.000000	100.644178 
3750.000000	100.644602 
3749.000000	100.645267 
3748.000000	100.647137 
3747.000000	100.650453 
3746.000000	100.653906 
3745.000000	100.654651 
3744.000000	100.650993 
3743.000000	100.646969 
3742.000000	100.647996 
3741.000000	100.653879 
3740.000000	100.660089 
3739.000000	100.662181 
3738.000000	100.659381 
3737.000000	100.655531 
3736.000000	100.655836 
3735.000000	100.662870 
3734.000000	100.674105 
3733.000000	100.683561 
3732.000000	100.686150 
3731.000000	100.680499 
3730.000000	100.669052 
3729.000000	100.655665 
3728.000000	100.643249 
3727.000000	100.633435 
3726.000000	100.627149 
3725.000000	100.624676 
3724.000000	100.624879 
3723.000000	100.625481 
3722.000000	100.624553 
3721.000000	100.621724 
3720.000000	100.618027 
3719.000000	100.613704 
3718.000000	100.607755 
3717.000000	100.599698 
3716.000000	100.590766 
3715.000000	100.582873 
3714.000000	100.576229 
3713.000000	100.568812 
3712.000000	100.559045 
3711.000000	100.548391 
3710.000000	100.539881 
3709.000000	100.534622 
3708.000000	100.530701 
3707.000000	100.525088 
3706.000000	100.515930 
3705.000000	100.503413 
3704.000000	100.488940 
3703.000000	100.473469 
3702.000000	100.456830 
3701.000000	100.438584 
3700.000000	100.419222 
3699.000000	100.399801 
3698.000000	100.380415 
3697.000000	100.360112 
3696.000000	100.338252 
3695.000000	100.315743 
3694.000000	100.295394 
3693.000000	100.280860 
3692.000000	100.274719 
3691.000000	100.276455 
3690.000000	100.280871 
3689.000000	100.279630 
3688.000000	100.268177 
3687.000000	100.250425 
3686.000000	100.234133 
3685.000000	100.224317 
3684.000000	100.221873 
3683.000000	100.224769 
3682.000000	100.228942 
3681.000000	100.228711 
3680.000000	100.218258 
3679.000000	100.195792 
3678.000000	100.166335 
3677.000000	100.140379 
3676.000000	100.127004 
3675.000000	100.126360 
3674.000000	100.133021 
3673.000000	100.143660 
3672.000000	100.156831 
3671.000000	100.168500 
3670.000000	100.172938 
3669.000000	100.169370 
3668.000000	100.163164 
3667.000000	100.158598 
3666.000000	100.154827 
3665.000000	100.149431 
3664.000000	100.142696 
3663.000000	100.137245 
3662.000000	100.135230 
3661.000000	100.136906 
3660.000000	100.141649 
3659.000000	100.149655 
3658.000000	100.161179 
3657.000000	100.174838 
3656.000000	100.187934 
3655.000000	100.199321 
3654.000000	100.210655 
3653.000000	100.223786 
3652.000000	100.238438 
3651.000000	100.252316 
3650.000000	100.263484 
3649.000000	100.272887 
3648.000000	100.282682 
3647.000000	100.293128 
3646.000000	100.303006 
3645.000000	100.311796 
3644.000000	100.319844 
3643.000000	100.327343 
3642.000000	100.334656 
3641.000000	100.342729 
3640.000000	100.352184 
3639.000000	100.362408 
3638.000000	100.372175 
3637.000000	100.381141 
3636.000000	100.389539 
3635.000000	100.396930 
3634.000000	100.402480 
3633.000000	100.406660 
3632.000000	100.411352 
3631.000000	100.417311 
3630.000000	100.422328 
3629.000000	100.423988 
3628.000000	100.424934 
3627.000000	100.430114 
3626.000000	100.439930 
3625.000000	100.450334 
3624.000000	100.458286 
3623.000000	100.464801 
3622.000000	100.472732 
3621.000000	100.482230 
3620.000000	100.489177 
3619.000000	100.489401 
3618.000000	100.483996 
3617.000000	100.478440 
3616.000000	100.477016 
3615.000000	100.479661 
3614.000000	100.483206 
3613.000000	100.484667 
3612.000000	100.484025 
3611.000000	100.483879 
3610.000000	100.486417 
3609.000000	100.491736 
3608.000000	100.498462 
3607.000000	100.505226 
3606.000000	100.511449 
3605.000000	100.516734 
3604.000000	100.520674 
3603.000000	100.523323 
3602.000000	100.525488 
3601.000000	100.528186 
3600.000000	100.531617 
3599.000000	100.534762 
3598.000000	100.536214 
3597.000000	100.535607 
3596.000000	100.534063 
3595.000000	100.533594 
3594.000000	100.535349 
3593.000000	100.538336 
3592.000000	100.540506 
3591.000000	100.541003 
3590.000000	100.540909 
3589.000000	100.542032 
3588.000000	100.544829 
3587.000000	100.547873 
3586.000000	100.549613 
3585.000000	100.549786 
3584.000000	100.549170 
3583.000000	100.548720 
3582.000000	100.549195 
3581.000000	100.550917 
3580.000000	100.553452 
3579.000000	100.555701 
3578.000000	100.556674 
3577.000000	100.556333 
3576.000000	100.555478 
3575.000000	100.554869 
3574.000000	100.554510 
3573.000000	100.553838 
3572.000000	100.552563 
3571.000000	100.551195 
3570.000000	100.550689 
3569.000000	100.551608 
3568.000000	100.553566 
3567.000000	100.555567 
3566.000000	100.557093 
3565.000000	100.558590 
3564.000000	100.560781 
3563.000000	100.563763 
3562.000000	100.566748 
3561.000000	100.568577 
3560.000000	100.568670 
3559.000000	100.567571 
3558.000000	100.566572 
3557.000000	100.566578 
3556.000000	100.567325 
3555.000000	100.567721 
3554.000000	100.566965 
3553.000000	100.565257 
3552.000000	100.563483 
3551.000000	100.562386 
3550.000000	100.562115 
3549.000000	100.562486 
3548.000000	100.563354 
3547.000000	100.564643 
3546.000000	100.566159 
3545.000000	100.567508 
3544.000000	100.568333 
3543.000000	100.568609 
3542.000000	100.568683 
3541.000000	100.568957 
3540.000000	100.569601 
3539.000000	100.570533 
3538.000000	100.571583 
3537.000000	100.572586 
3536.000000	100.573366 
3535.000000	100.573771 
3534.000000	100.573711 
3533.000000	100.573165 
3532.000000	100.572213 
3531.000000	100.571151 
3530.000000	100.570487 
3529.000000	100.570634 
3528.000000	100.571572 
3527.000000	100.572887 
3526.000000	100.574167 
3525.000000	100.575294 
3524.000000	100.576326 
3523.000000	100.577233 
3522.000000	100.577863 
3521.000000	100.578092 
3520.000000	100.577946 
3519.000000	100.577599 
3518.000000	100.577312 
3517.000000	100.577338 
3516.000000	100.577798 
3515.000000	100.578625 
3514.000000	100.579598 
3513.000000	100.580424 
3512.000000	100.580858 
3511.000000	100.580798 
3510.000000	100.580364 
3509.000000	100.579889 
3508.000000	100.579768 
3507.000000	100.580242 
3506.000000	100.581276 
3505.000000	100.582556 
3504.000000	100.583639 
3503.000000	100.584253 
3502.000000	100.584469 
3501.000000	100.584544 
3500.000000	100.584561 
3499.000000	100.584319 
3498.000000	100.583606 
3497.000000	100.582506 
3496.000000	100.581437 
3495.000000	100.580908 
3494.000000	100.581286 
3493.000000	100.582667 
3492.000000	100.584777 
3491.000000	100.586961 
3490.000000	100.588493 
3489.000000	100.589048 
3488.000000	100.588929 
3487.000000	100.588815 
3486.000000	100.589127 
3485.000000	100.589587 
3484.000000	100.589499 
3483.000000	100.588563 
3482.000000	100.587354 
3481.000000	100.586782 
3480.000000	100.587031 
3479.000000	100.587348 
3478.000000	100.587000 
3477.000000	100.586147 
3476.000000	100.585538 
3475.000000	100.585596 
3474.000000	100.586180 
3473.000000	100.587127 
3472.000000	100.588511 
3471.000000	100.590281 
3470.000000	100.591999 
3469.000000	100.593173 
3468.000000	100.593648 
3467.000000	100.593479 
3466.000000	100.592577 
3465.000000	100.590728 
3464.000000	100.587995 
3463.000000	100.584985 
3462.000000	100.582605 
3461.000000	100.581454 
3460.000000	100.581398 
3459.000000	100.581757 
3458.000000	100.582010 
3457.000000	100.582208 
3456.000000	100.582536 
3455.000000	100.582708 
3454.000000	100.582086 
3453.000000	100.580440 
3452.000000	100.578345 
3451.000000	100.576816 
3450.000000	100.576651 
3449.000000	100.578039 
3448.000000	100.580555 
3447.000000	100.583417 
3446.000000	100.585889 
3445.000000	100.587579 
3444.000000	100.588404 
3443.000000	100.588536 
3442.000000	100.588458 
3441.000000	100.588710 
3440.000000	100.589260 
3439.000000	100.589344 
3438.000000	100.588241 
3437.000000	100.586102 
3436.000000	100.583798 
3435.000000	100.582095 
3434.000000	100.581201 
3433.000000	100.580954 
3432.000000	100.581031 
3431.000000	100.581024 
3430.000000	100.580686 
3429.000000	100.580192 
3428.000000	100.579937 
3427.000000	100.580042 
3426.000000	100.580230 
3425.000000	100.580199 
3424.000000	100.579938 
3423.000000	100.579619 
3422.000000	100.579320 
3421.000000	100.578965 
3420.000000	100.578488 
3419.000000	100.577975 
3418.000000	100.577610 
3417.000000	100.577482 
3416.000000	100.577494 
3415.000000	100.577458 
3414.000000	100.577275 
3413.000000	100.576999 
3412.000000	100.576726 
3411.000000	100.576500 
3410.000000	100.576299 
3409.000000	100.576092 
3408.000000	100.575867 
3407.000000	100.575624 
3406.000000	100.575359 
3405.000000	100.575077 
3404.000000	100.574788 
3403.000000	100.574498 
3402.000000	100.574212 
3401.000000	100.573930 
3400.000000	100.573649 
3399.000000	100.573369 
3398.000000	100.573091 
3397.000000	100.572822 
3396.000000	100.572568 
3395.000000	100.572330 
3394.000000	100.572107 
3393.000000	100.571895 
3392.000000	100.571693 
3391.000000	100.571491 
3390.000000	100.571275 
3389.000000	100.571030 
3388.000000	100.570752 
3387.000000	100.570451 
3386.000000	100.570156 
3385.000000	100.569894 
3384.000000	100.569669 
3383.000000	100.569451 
3382.000000	100.569206 
3381.000000	100.568952 
3380.000000	100.568758 
3379.000000	100.568671 
3378.000000	100.568649 
3377.000000	100.568609 
3376.000000	100.568513 
3375.000000	100.568396 
3374.000000	100.568302 
3373.000000	100.568249 
3372.000000	100.568264 
3371.000000	100.568375 
3370.000000	100.568510 
3369.000000	100.568462 
3368.000000	100.568050 
3367.000000	100.567307 
3366.000000	100.566471 
3365.000000	100.565771 
3364.000000	100.565295 
3363.000000	100.565033 
3362.000000	100.564953 
3361.000000	100.564996 
3360.000000	100.565039 
3359.000000	100.564952 
3358.000000	100.564699 
3357.000000	100.564343 
3356.000000	100.563975 
3355.000000	100.563643 
3354.000000	100.563356 
3353.000000	100.563105 
3352.000000	100.562875 
3351.000000	100.562637 
3350.000000	100.562371 
3349.000000	100.562091 
3348.000000	100.561825 
3347.000000	100.561582 
3346.000000	100.561334 
3345.000000	100.561040 
3344.000000	100.560682 
3343.000000	100.560272 
3342.000000	100.559839 
3341.000000	100.559411 
3340.000000	100.559020 
3339.000000	100.558691 
3338.000000	100.558386 
3337.000000	100.557997 
3336.000000	100.557436 
3335.000000	100.556747 
3334.000000	100.556096 
3333.000000	100.555575 
3332.000000	100.555095 
3331.000000	100.554506 
3330.000000	100.553815 
3329.000000	100.553193 
3328.000000	100.552734 
3327.000000	100.552298 
3326.000000	100.551657 
3325.000000	100.550769 
3324.000000	100.549843 
3323.000000	100.549094 
3322.000000	100.548547 
3321.000000	100.548101 
3320.000000	100.547721 
3319.000000	100.547492 
3318.000000	100.547434 
3317.000000	100.547322 
3316.000000	100.546761 
3315.000000	100.545560 
3314.000000	100.544062 
3313.000000	100.542948 
3312.000000	100.542622 
3311.000000	100.542869 
3310.000000	100.543154 
3309.000000	100.543177 
3308.000000	100.542960 
3307.000000	100.542441 
3306.000000	100.541262 
3305.000000	100.539141 
3304.000000	100.536335 
3303.000000	100.533568 
3302.000000	100.531445 
3301.000000	100.530047 
3300.000000	100.529072 
3299.000000	100.528267 
3298.000000	100.527642 
3297.000000	100.527365 
3296.000000	100.527585 
3295.000000	100.528328 
3294.000000	100.529367 
3293.000000	100.530133 
3292.000000	100.530023 
3291.000000	100.528938 
3290.000000	100.527486 
3289.000000	100.526484 
3288.000000	100.526198 
3287.000000	100.526172 
3286.000000	100.525760 
3285.000000	100.524688 
3284.000000	100.523145 
3283.000000	100.521540 
3282.000000	100.520242 
3281.000000	100.519420 
3280.000000	100.518991 
3279.000000	100.518744 
3278.000000	100.518489 
3277.000000	100.518030 
3276.000000	100.517080 
3275.000000	100.515448 
3274.000000	100.513372 
3273.000000	100.511502 
3272.000000	100.510359 
3271.000000	100.509923 
3270.000000	100.509829 
3269.000000	100.509773 
3268.000000	100.509605 
3267.000000	100.509120 
3266.000000	100.508067 
3265.000000	100.506401 
3264.000000	100.504389 
3263.000000	100.502379 
3262.000000	100.500581 
3261.000000	100.499114 
3260.000000	100.498086 
3259.000000	100.497499 
3258.000000	100.497103 
3257.000000	100.496502 
3256.000000	100.495462 
3255.000000	100.494092 
3254.000000	100.492732 
3253.000000	100.491631 
3252.000000	100.490701 
3251.000000	100.489578 
3250.000000	100.487965 
3249.000000	100.485947 
3248.000000	100.484017 
3247.000000	100.482767 
3246.000000	100.482491 
3245.000000	100.483001 
3244.000000	100.483726 
3243.000000	100.484056 
3242.000000	100.483657 
3241.000000	100.482510 
3240.000000	100.480811 
3239.000000	100.478934 
3238.000000	100.477392 
3237.000000	100.476546 
3236.000000	100.476246 
3235.000000	100.475903 
3234.000000	100.475075 
3233.000000	100.473865 
3232.000000	100.472632 
3231.000000	100.471419 
3230.000000	100.469886 
3229.000000	100.467788 
3228.000000	100.465331 
3227.000000	100.463082 
3226.000000	100.461592 
3225.000000	100.461031 
3224.000000	100.461035 
3223.000000	100.460934 
3222.000000	100.460321 
3221.000000	100.459369 
3220.000000	100.458536 
3219.000000	100.458056 
3218.000000	100.457810 
3217.000000	100.457567 
3216.000000	100.457171 
3215.000000	100.456567 
3214.000000	100.455858 
3213.000000	100.455334 
3212.000000	100.455249 
3211.000000	100.455538 
3210.000000	100.455811 
3209.000000	100.455628 
3208.000000	100.454778 
3207.000000	100.453361 
3206.000000	100.451797 
3205.000000	100.450661 
3204.000000	100.450292 
3203.000000	100.450548 
3202.000000	100.450960 
3201.000000	100.451208 
3200.000000	100.451335 
3199.000000	100.451449 
3198.000000	100.451431 
3197.000000	100.451049 
3196.000000	100.450299 
3195.000000	100.449486 
3194.000000	100.448970 
3193.000000	100.448829 
3192.000000	100.448833 
3191.000000	100.448662 
3190.000000	100.448177 
3189.000000	100.447470 
3188.000000	100.446745 
3187.000000	100.446160 
3186.000000	100.445781 
3185.000000	100.445607 
3184.000000	100.445564 
3183.000000	100.445503 
3182.000000	100.445289 
3181.000000	100.444928 
3180.000000	100.444582 
3179.000000	100.444419 
3178.000000	100.444444 
3177.000000	100.444484 
3176.000000	100.444332 
3175.000000	100.443926 
3174.000000	100.443402 
3173.000000	100.442990 
3172.000000	100.442838 
3171.000000	100.442922 
3170.000000	100.443094 
3169.000000	100.443184 
3168.000000	100.443046 
3167.000000	100.442539 
3166.000000	100.441608 
3165.000000	100.440429 
3164.000000	100.439379 
3163.000000	100.438738 
3162.000000	100.438484 
3161.000000	100.438332 
3160.000000	100.437965 
3159.000000	100.437297 
3158.000000	100.436536 
3157.000000	100.436010 
3156.000000	100.435866 
3155.000000	100.435967 
3154.000000	100.436099 
3153.000000	100.436208 
3152.000000	100.436317 
3151.000000	100.436299 
3150.000000	100.435967 
3149.000000	100.435393 
3148.000000	100.434915 
3147.000000	100.434776 
3146.000000	100.434974 
3145.000000	100.435456 
3144.000000	100.436181 
3143.000000	100.436887 
3142.000000	100.437094 
3141.000000	100.436515 
3140.000000	100.435306 
3139.000000	100.433895 
3138.000000	100.432760 
3137.000000	100.432347 
3136.000000	100.432817 
3135.000000	100.433647 
3134.000000	100.433845 
3133.000000	100.432879 
3132.000000	100.431187 
3131.000000	100.429631 
3130.000000	100.428736 
3129.000000	100.428675 
3128.000000	100.429583 
3127.000000	100.431470 
3126.000000	100.433946 
3125.000000	100.436395 
3124.000000	100.438380 
3123.000000	100.439706 
3122.000000	100.440273 
3121.000000	100.440108 
3120.000000	100.439433 
3119.000000	100.438523 
3118.000000	100.437562 
3117.000000	100.436760 
3116.000000	100.436352 
3115.000000	100.436318 
3114.000000	100.436343 
3113.000000	100.436258 
3112.000000	100.436268 
3111.000000	100.436586 
3110.000000	100.437070 
3109.000000	100.437411 
3108.000000	100.437407 
3107.000000	100.436853 
3106.000000	100.435541 
3105.000000	100.433660 
3104.000000	100.431965 
3103.000000	100.431169 
3102.000000	100.431255 
3101.000000	100.431574 
3100.000000	100.431370 
3099.000000	100.430102 
3098.000000	100.427714 
3097.000000	100.425066 
3096.000000	100.423703 
3095.000000	100.424510 
3094.000000	100.426681 
3093.000000	100.428566 
3092.000000	100.429324 
3091.000000	100.429051 
3090.000000	100.427774 
3089.000000	100.425619 
3088.000000	100.423856 
3087.000000	100.424299 
3086.000000	100.427099 
3085.000000	100.430191 
3084.000000	100.431601 
3083.000000	100.431503 
3082.000000	100.431351 
3081.000000	100.431713 
3080.000000	100.431815 
3079.000000	100.430929 
3078.000000	100.429398 
3077.000000	100.428146 
3076.000000	100.427571 
3075.000000	100.427141 
3074.000000	100.426010 
3073.000000	100.423884 
3072.000000	100.421112 
3071.000000	100.418016 
3070.000000	100.414692 
3069.000000	100.411737 
3068.000000	100.410504 
3067.000000	100.411682 
3066.000000	100.413751 
3065.000000	100.413825 
3064.000000	100.410466 
3063.000000	100.405169 
3062.000000	100.400817 
3061.000000	100.399019 
3060.000000	100.399081 
3059.000000	100.399207 
3058.000000	100.398452 
3057.000000	100.397622 
3056.000000	100.398140 
3055.000000	100.399755 
3054.000000	100.399817 
3053.000000	100.395697 
3052.000000	100.387995 
3051.000000	100.380422 
3050.000000	100.375915 
3049.000000	100.373508 
3048.000000	100.369804 
3047.000000	100.363060 
3046.000000	100.354714 
3045.000000	100.346957 
3044.000000	100.339910 
3043.000000	100.331790 
3042.000000	100.321291 
3041.000000	100.308877 
3040.000000	100.295716 
3039.000000	100.282070 
3038.000000	100.267423 
3037.000000	100.251875 
3036.000000	100.236390 
3035.000000	100.221291 
3034.000000	100.205183 
3033.000000	100.185839 
3032.000000	100.162331 
3031.000000	100.136120 
3030.000000	100.109445 
3029.000000	100.083187 
3028.000000	100.057258 
3027.000000	100.032116 
3026.000000	100.008586 
3025.000000	99.986208  
3024.000000	99.962686  
3023.000000	99.935622  
3022.000000	99.904673  
3021.000000	99.871787  
3020.000000	99.839376  
3019.000000	99.808211  
3018.000000	99.776777  
3017.000000	99.742371  
3016.000000	99.703020  
3015.000000	99.658895  
3014.000000	99.612367  
3013.000000	99.566732  
3012.000000	99.524351  
3011.000000	99.485245  
3010.000000	99.447057  
3009.000000	99.406764  
3008.000000	99.363143  
3007.000000	99.317960  
3006.000000	99.274575  
3005.000000	99.234983  
3004.000000	99.197944  
3003.000000	99.159910  
3002.000000	99.118025  
3001.000000	99.072723  
3000.000000	99.027710  
2999.000000	98.987250  
2998.000000	98.953371  
2997.000000	98.925728  
2996.000000	98.903119  
2995.000000	98.882622  
2994.000000	98.856180  
2993.000000	98.811357  
2992.000000	98.741087  
2991.000000	98.654759  
2990.000000	98.576447  
2989.000000	98.528402  
2988.000000	98.516408  
2987.000000	98.530661  
2986.000000	98.557033  
2985.000000	98.585238  
2984.000000	98.608588  
2983.000000	98.622379  
2982.000000	98.625672  
2981.000000	98.622171  
2980.000000	98.616703  
2979.000000	98.611497  
2978.000000	98.606638  
2977.000000	98.602067  
2976.000000	98.597334  
2975.000000	98.590983  
2974.000000	98.582719  
2973.000000	98.575815  
2972.000000	98.575430  
2971.000000	98.584495  
2970.000000	98.602461  
2969.000000	98.627546  
2968.000000	98.658428  
2967.000000	98.693565  
2966.000000	98.730497  
2965.000000	98.766708  
2964.000000	98.800592  
2963.000000	98.831267  
2962.000000	98.858199  
2961.000000	98.881452  
2960.000000	98.901929  
2959.000000	98.921221  
2958.000000	98.941337  
2957.000000	98.963992  
2956.000000	98.989202  
2955.000000	99.014739  
2954.000000	99.038074  
2953.000000	99.059229  
2952.000000	99.080941  
2951.000000	99.105555  
2950.000000	99.132035  
2949.000000	99.156130  
2948.000000	99.173151  
2947.000000	99.180821  
2946.000000	99.180967  
2945.000000	99.179045  
2944.000000	99.180779  
2943.000000	99.188547  
2942.000000	99.201036  
2941.000000	99.215741  
2940.000000	99.230855  
2939.000000	99.244863  
2938.000000	99.255700  
2937.000000	99.261774  
2936.000000	99.263959  
2935.000000	99.265593  
2934.000000	99.269818  
2933.000000	99.276860  
2932.000000	99.283874  
2931.000000	99.287400  
2930.000000	99.286115  
2929.000000	99.281608  
2928.000000	99.276832  
2927.000000	99.273696  
2926.000000	99.271735  
2925.000000	99.268680  
2924.000000	99.262392  
2923.000000	99.252704  
2922.000000	99.241602  
2921.000000	99.231409  
2920.000000	99.222770  
2919.000000	99.214499  
2918.000000	99.204894  
2917.000000	99.192281  
2916.000000	99.174467  
2915.000000	99.149417  
2914.000000	99.118002  
2913.000000	99.085641  
2912.000000	99.059588  
2911.000000	99.043623  
2910.000000	99.035524  
2909.000000	99.029670  
2908.000000	99.021704  
2907.000000	99.010233  
2906.000000	98.994328  
2905.000000	98.970990  
2904.000000	98.937625  
2903.000000	98.898749  
2902.000000	98.868811  
2901.000000	98.864213  
2900.000000	98.890384  
2899.000000	98.936215  
2898.000000	98.981703  
2897.000000	99.012427  
2896.000000	99.026817  
2895.000000	99.031834  
2894.000000	99.035162  
2893.000000	99.041337  
2892.000000	99.051777  
2891.000000	99.065326  
2890.000000	99.078783  
2889.000000	99.088671  
2888.000000	99.093528  
2887.000000	99.094849  
2886.000000	99.096181  
2885.000000	99.101419  
2884.000000	99.113237  
2883.000000	99.132035  
2882.000000	99.155961  
2881.000000	99.182289  
2880.000000	99.209292  
2879.000000	99.237089  
2878.000000	99.266531  
2877.000000	99.297157  
2876.000000	99.326463  
2875.000000	99.351632  
2874.000000	99.371980  
2873.000000	99.389173  
2872.000000	99.405002  
2871.000000	99.419733  
2870.000000	99.433247  
2869.000000	99.447064  
2868.000000	99.464104  
2867.000000	99.486363  
2866.000000	99.513423  
2865.000000	99.543366  
2864.000000	99.574674  
2863.000000	99.607133  
2862.000000	99.641019  
2861.000000	99.675623  
2860.000000	99.709037  
2859.000000	99.740019  
2858.000000	99.769884  
2857.000000	99.801345  
2856.000000	99.834696  
2855.000000	99.866154  
2854.000000	99.891254  
2853.000000	99.909161  
2852.000000	99.922355  
2851.000000	99.933382  
2850.000000	99.943627  
2849.000000	99.954257  
2848.000000	99.966034  
2847.000000	99.977946  
2846.000000	99.987725  
2845.000000	99.994247  
2844.000000	99.998454  
2843.000000	100.001843 
2842.000000	100.005200 
2841.000000	100.008877 
2840.000000	100.012958 
2839.000000	100.016936 
2838.000000	100.020510 
2837.000000	100.025060 
2836.000000	100.032852 
2835.000000	100.043982 
2834.000000	100.055233 
2833.000000	100.062929 
2832.000000	100.066433 
2831.000000	100.068340 
2830.000000	100.071834 
2829.000000	100.078218 
2828.000000	100.086246 
2827.000000	100.093245 
2826.000000	100.097306 
2825.000000	100.098820 
2824.000000	100.099656 
2823.000000	100.100957 
2822.000000	100.102495 
2821.000000	100.104036 
2820.000000	100.106135 
2819.000000	100.109206 
2818.000000	100.112893 
2817.000000	100.116897 
2816.000000	100.121423 
2815.000000	100.126211 
2814.000000	100.130093 
2813.000000	100.132271 
2812.000000	100.133369 
2811.000000	100.134513 
2810.000000	100.136067 
2809.000000	100.137913 
2808.000000	100.140256 
2807.000000	100.143283 
2806.000000	100.146450 
2805.000000	100.148883 
2804.000000	100.150268 
2803.000000	100.150841 
2802.000000	100.150880 
2801.000000	100.150719 
2800.000000	100.150880 
2799.000000	100.151611 
2798.000000	100.152526 
2797.000000	100.153243 
2796.000000	100.154175 
2795.000000	100.156178 
2794.000000	100.159367 
2793.000000	100.162615 
2792.000000	100.164385 
2791.000000	100.164035 
2790.000000	100.162400 
2789.000000	100.161206 
2788.000000	100.161705 
2787.000000	100.163829 
2786.000000	100.166630 
2785.000000	100.169306 
2784.000000	100.171599 
2783.000000	100.173418 
2782.000000	100.174640 
2781.000000	100.175314 
2780.000000	100.175688 
2779.000000	100.175925 
2778.000000	100.176067 
2777.000000	100.176332 
2776.000000	100.177027 
2775.000000	100.178039 
2774.000000	100.178807 
2773.000000	100.179074 
2772.000000	100.179362 
2771.000000	100.180417 
2770.000000	100.182353 
2769.000000	100.184537 
2768.000000	100.186193 
2767.000000	100.186975 
2766.000000	100.187004 
2765.000000	100.186640 
2764.000000	100.186219 
2763.000000	100.185893 
2762.000000	100.185692 
2761.000000	100.185729 
2760.000000	100.186216 
2759.000000	100.187217 
2758.000000	100.188552 
2757.000000	100.190066 
2756.000000	100.191846 
2755.000000	100.193982 
2754.000000	100.196175 
2753.000000	100.197824 
2752.000000	100.198573 
2751.000000	100.198639 
2750.000000	100.198638 
2749.000000	100.199100 
2748.000000	100.200097 
2747.000000	100.201255 
2746.000000	100.202110 
2745.000000	100.202527 
2744.000000	100.202782 
2743.000000	100.203250 
2742.000000	100.204096 
2741.000000	100.205290 
2740.000000	100.206752 
2739.000000	100.208372 
2738.000000	100.209942 
2737.000000	100.211218 
2736.000000	100.212067 
2735.000000	100.212505 
2734.000000	100.212678 
2733.000000	100.212927 
2732.000000	100.213760 
2731.000000	100.215531 
2730.000000	100.218009 
2729.000000	100.220384 
2728.000000	100.221939 
2727.000000	100.222726 
2726.000000	100.223475 
2725.000000	100.224752 
2724.000000	100.226283 
2723.000000	100.227282 
2722.000000	100.227311 
2721.000000	100.226647 
2720.000000	100.225915 
2719.000000	100.225566 
2718.000000	100.225749 
2717.000000	100.226390 
2716.000000	100.227170 
2715.000000	100.227621 
2714.000000	100.227485 
2713.000000	100.226999 
2712.000000	100.226752 
2711.000000	100.227263 
2710.000000	100.228678 
2709.000000	100.230665 
2708.000000	100.232560 
2707.000000	100.233864 
2706.000000	100.234709 
2705.000000	100.235620 
2704.000000	100.236704 
2703.000000	100.237438 
2702.000000	100.237447 
2701.000000	100.237076 
2700.000000	100.236835 
2699.000000	100.236645 
2698.000000	100.236151 
2697.000000	100.235422 
2696.000000	100.234775 
2695.000000	100.234130 
2694.000000	100.233256 
2693.000000	100.232569 
2692.000000	100.232939 
2691.000000	100.234583 
2690.000000	100.236659 
2689.000000	100.238179 
2688.000000	100.238992 
2687.000000	100.239522 
2686.000000	100.239912 
2685.000000	100.239854 
2684.000000	100.239092 
2683.000000	100.237745 
2682.000000	100.236166 
2681.000000	100.234704 
2680.000000	100.233661 
2679.000000	100.233254 
2678.000000	100.233538 
2677.000000	100.234327 
2676.000000	100.235186 
2675.000000	100.235627 
2674.000000	100.235442 
2673.000000	100.234876 
2672.000000	100.234376 
2671.000000	100.234160 
2670.000000	100.234070 
2669.000000	100.233785 
2668.000000	100.233073 
2667.000000	100.231903 
2666.000000	100.230444 
2665.000000	100.229007 
2664.000000	100.227883 
2663.000000	100.227202 
2662.000000	100.226936 
2661.000000	100.226920 
2660.000000	100.226856 
2659.000000	100.226421 
2658.000000	100.225525 
2657.000000	100.224414 
2656.000000	100.223462 
2655.000000	100.222885 
2654.000000	100.222697 
2653.000000	100.222784 
2652.000000	100.222855 
2651.000000	100.222483 
2650.000000	100.221467 
2649.000000	100.220074 
2648.000000	100.218740 
2647.000000	100.217588 
2646.000000	100.216490 
2645.000000	100.215493 
2644.000000	100.214830 
2643.000000	100.214485 
2642.000000	100.214037 
2641.000000	100.213060 
2640.000000	100.211536 
2639.000000	100.209857 
2638.000000	100.208524 
2637.000000	100.207801 
2636.000000	100.207528 
2635.000000	100.207213 
2634.000000	100.206537 
2633.000000	100.205764 
2632.000000	100.205398 
2631.000000	100.205523 
2630.000000	100.205725 
2629.000000	100.205604 
2628.000000	100.205127 
2627.000000	100.204397 
2626.000000	100.203415 
2625.000000	100.202214 
2624.000000	100.201043 
2623.000000	100.200164 
2622.000000	100.199576 
2621.000000	100.199132 
2620.000000	100.198799 
2619.000000	100.198620 
2618.000000	100.198505 
2617.000000	100.198285 
2616.000000	100.197934 
2615.000000	100.197562 
2614.000000	100.197195 
2613.000000	100.196715 
2612.000000	100.196019 
2611.000000	100.195155 
2610.000000	100.194299 
2609.000000	100.193640 
2608.000000	100.193242 
2607.000000	100.193012 
2606.000000	100.192770 
2605.000000	100.192394 
2604.000000	100.191880 
2603.000000	100.191296 
2602.000000	100.190722 
2601.000000	100.190231 
2600.000000	100.189837 
2599.000000	100.189462 
2598.000000	100.189004 
2597.000000	100.188472 
2596.000000	100.187974 
2595.000000	100.187556 
2594.000000	100.187153 
2593.000000	100.186677 
2592.000000	100.186122 
2591.000000	100.185538 
2590.000000	100.184967 
2589.000000	100.184407 
2588.000000	100.183861 
2587.000000	100.183355 
2586.000000	100.182909 
2585.000000	100.182514 
2584.000000	100.182155 
2583.000000	100.181826 
2582.000000	100.181510 
2581.000000	100.181204 
2580.000000	100.180928 
2579.000000	100.180669 
2578.000000	100.180339 
2577.000000	100.179870 
2576.000000	100.179334 
2575.000000	100.178913 
2574.000000	100.178679 
2573.000000	100.178492 
2572.000000	100.178160 
2571.000000	100.177639 
2570.000000	100.177060 
2569.000000	100.176574 
2568.000000	100.176205 
2567.000000	100.175847 
2566.000000	100.175388 
2565.000000	100.174843 
2564.000000	100.174378 
2563.000000	100.174115 
2562.000000	100.173932 
2561.000000	100.173559 
2560.000000	100.172945 
2559.000000	100.172318 
2558.000000	100.171924 
2557.000000	100.171932 
2556.000000	100.172454 
2555.000000	100.173280 
2554.000000	100.173746 
2553.000000	100.173383 
2552.000000	100.172596 
2551.000000	100.172330 
2550.000000	100.172967 
2549.000000	100.173930 
2548.000000	100.174367 
2547.000000	100.173945 
2546.000000	100.172966 
2545.000000	100.171992 
2544.000000	100.171313 
2543.000000	100.170610 
2542.000000	100.169272 
2541.000000	100.167218 
2540.000000	100.165171 
2539.000000	100.163901 
2538.000000	100.163437 
2537.000000	100.163318 
2536.000000	100.163274 
2535.000000	100.163221 
2534.000000	100.162855 
2533.000000	100.161789 
2532.000000	100.160005 
2531.000000	100.157868 
2530.000000	100.155899 
2529.000000	100.154790 
2528.000000	100.155221 
2527.000000	100.157142 
2526.000000	100.159466 
2525.000000	100.161057 
2524.000000	100.161899 
2523.000000	100.162692 
2522.000000	100.163438 
2521.000000	100.163121 
2520.000000	100.160911 
2519.000000	100.157058 
2518.000000	100.152657 
2517.000000	100.148958 
2516.000000	100.146784 
2515.000000	100.146127 
2514.000000	100.146059 
2513.000000	100.145375 
2512.000000	100.143640 
2511.000000	100.141461 
2510.000000	100.139738 
2509.000000	100.138851 
2508.000000	100.138564 
2507.000000	100.138374 
2506.000000	100.137825 
2505.000000	100.136709 
2504.000000	100.135154 
2503.000000	100.133530 
2502.000000	100.132208 
2501.000000	100.131394 
2500.000000	100.131141 
2499.000000	100.131324 
2498.000000	100.131613 
2497.000000	100.131560 
2496.000000	100.130840 
2495.000000	100.129509 
2494.000000	100.128057 
2493.000000	100.127077 
2492.000000	100.126750 
2491.000000	100.126681 
2490.000000	100.126277 
2489.000000	100.125336 
2488.000000	100.124136 
2487.000000	100.123041 
2486.000000	100.122154 
2485.000000	100.121355 
2484.000000	100.120541 
2483.000000	100.119726 
2482.000000	100.118979 
2481.000000	100.118343 
2480.000000	100.117805 
2479.000000	100.117306 
2478.000000	100.116783 
2477.000000	100.116189 
2476.000000	100.115483 
2475.000000	100.114619 
2474.000000	100.113590 
2473.000000	100.112536 
2472.000000	100.111670 
2471.000000	100.111053 
2470.000000	100.110591 
2469.000000	100.110269 
2468.000000	100.110199 
2467.000000	100.110309 
2466.000000	100.110208 
2465.000000	100.109555 
2464.000000	100.108393 
2463.000000	100.107038 
2462.000000	100.105828 
2461.000000	100.105112 
2460.000000	100.105185 
2459.000000	100.105923 
2458.000000	100.106617 
2457.000000	100.106530 
2456.000000	100.105476 
2455.000000	100.103687 
2454.000000	100.101510 
2453.000000	100.099497 
2452.000000	100.098333 
2451.000000	100.098118 
2450.000000	100.098027 
2449.000000	100.097290 
2448.000000	100.096316 
2447.000000	100.096078 
2446.000000	100.096530 
2445.000000	100.096453 
2444.000000	100.094962 
2443.000000	100.092420 
2442.000000	100.089807 
2441.000000	100.087774 
2440.000000	100.086555 
2439.000000	100.086232 
2438.000000	100.086651 
2437.000000	100.087439 
2436.000000	100.088319 
2435.000000	100.089180 
2434.000000	100.089784 
2433.000000	100.089779 
2432.000000	100.089218 
2431.000000	100.088727 
2430.000000	100.088935 
2429.000000	100.089848 
2428.000000	100.090917 
2427.000000	100.091608 
2426.000000	100.091830 
2425.000000	100.091909 
2424.000000	100.092201 
2423.000000	100.092668 
2422.000000	100.092893 
2421.000000	100.092605 
2420.000000	100.092094 
2419.000000	100.092039 
2418.000000	100.092945 
2417.000000	100.094720 
2416.000000	100.096612 
2415.000000	100.097632 
2414.000000	100.097295 
2413.000000	100.096041 
2412.000000	100.094718 
2411.000000	100.093758 
2410.000000	100.093121 
2409.000000	100.092781 
2408.000000	100.092831 
2407.000000	100.093257 
2406.000000	100.094110 
2405.000000	100.095606 
2404.000000	100.097403 
2403.000000	100.098148 
2402.000000	100.096792 
2401.000000	100.094370 
2400.000000	100.093362 
2399.000000	100.095102 
2398.000000	100.098802 
2397.000000	100.103062 
2396.000000	100.107028 
2395.000000	100.109707 
2394.000000	100.109695 
2393.000000	100.106966 
2392.000000	100.103897 
2391.000000	100.103055 
2390.000000	100.104486 
2389.000000	100.106000 
2388.000000	100.105672 
2387.000000	100.103115 
2386.000000	100.098962 
2385.000000	100.094485 
2384.000000	100.091537 
2383.000000	100.091718 
2382.000000	100.095508 
2381.000000	100.102457 
2380.000000	100.111747 
2379.000000	100.122073 
2378.000000	100.131611 
2377.000000	100.138851 
2376.000000	100.142969 
2375.000000	100.143362 
2374.000000	100.140143 
2373.000000	100.135238 
2372.000000	100.131484 
2371.000000	100.129739 
2370.000000	100.128409 
2369.000000	100.126519 
2368.000000	100.125215 
2367.000000	100.125627 
2366.000000	100.127399 
2365.000000	100.129839 
2364.000000	100.132304 
2363.000000	100.132980 
2362.000000	100.130378 
2361.000000	100.126753 
2360.000000	100.124875 
2359.000000	100.124579 
2358.000000	100.123966 
2357.000000	100.122983 
2356.000000	100.123019 
2355.000000	100.124203 
2354.000000	100.128795 
2353.000000	100.136438 
2352.000000	100.141619 
2351.000000	100.139831 
2350.000000	100.130774 
2349.000000	100.118760 
2348.000000	100.108066 
2347.000000	100.103196 
2346.000000	100.103823 
2345.000000	100.103133 
2344.000000	100.097569 
2343.000000	100.089834 
2342.000000	100.086015 
2341.000000	100.086380 
2340.000000	100.087593 
2339.000000	100.087565 
2338.000000	100.087691 
2337.000000	100.089110 
2336.000000	100.088773 
2335.000000	100.083362 
2334.000000	100.076053 
2333.000000	100.072141 
2332.000000	100.071276 
2331.000000	100.069777 
2330.000000	100.065295 
2329.000000	100.060008 
2328.000000	100.052389 
2327.000000	100.041465 
2326.000000	100.028832 
2325.000000	100.017005 
2324.000000	100.008515 
2323.000000	100.003064 
2322.000000	100.002019 
2321.000000	100.003724 
2320.000000	100.005827 
2319.000000	100.007105 
2318.000000	100.008806 
2317.000000	100.012937 
2316.000000	100.019441 
2315.000000	100.027543 
2314.000000	100.034697 
2313.000000	100.038144 
2312.000000	100.035854 
2311.000000	100.030030 
2310.000000	100.024974 
2309.000000	100.022766 
2308.000000	100.022112 
2307.000000	100.021756 
2306.000000	100.022634 
2305.000000	100.024923 
2304.000000	100.027055 
2303.000000	100.027548 
2302.000000	100.027107 
2301.000000	100.026826 
2300.000000	100.026503 
2299.000000	100.026231 
2298.000000	100.027299 
2297.000000	100.030931 
2296.000000	100.035343 
2295.000000	100.037381 
2294.000000	100.035926 
2293.000000	100.033105 
2292.000000	100.031562 
2291.000000	100.031726 
2290.000000	100.032227 
2289.000000	100.031736 
2288.000000	100.030390 
2287.000000	100.029474 
2286.000000	100.030354 
2285.000000	100.033030 
2284.000000	100.036071 
2283.000000	100.037942 
2282.000000	100.038572 
2281.000000	100.038918 
2280.000000	100.039529 
2279.000000	100.040247 
2278.000000	100.040943 
2277.000000	100.041619 
2276.000000	100.042278 
2275.000000	100.042919 
2274.000000	100.043545 
2273.000000	100.044159 
2272.000000	100.044768 
2271.000000	100.045378 
2270.000000	100.045994 
2269.000000	100.046621 
2268.000000	100.047262 
2267.000000	100.047912 
2266.000000	100.048564 
2265.000000	100.049210 
2264.000000	100.049845 
2263.000000	100.050467 
2262.000000	100.051078 
2261.000000	100.051685 
2260.000000	100.052292 
2259.000000	100.052904 
2258.000000	100.053525 
2257.000000	100.054161 
2256.000000	100.054809 
2255.000000	100.055455 
2254.000000	100.056087 
2253.000000	100.056705 
2252.000000	100.057322 
2251.000000	100.057952 
2250.000000	100.058596 
2249.000000	100.059243 
2248.000000	100.059879 
2247.000000	100.060496 
2246.000000	100.061091 
2245.000000	100.061664 
2244.000000	100.062212 
2243.000000	100.062731 
2242.000000	100.063223 
2241.000000	100.063706 
2240.000000	100.064202 
2239.000000	100.064718 
2238.000000	100.065239 
2237.000000	100.065744 
2236.000000	100.066217 
2235.000000	100.066658 
2234.000000	100.067076 
2233.000000	100.067481 
2232.000000	100.067877 
2231.000000	100.068265 
2230.000000	100.068647 
2229.000000	100.069025 
2228.000000	100.069399 
2227.000000	100.069761 
2226.000000	100.070102 
2225.000000	100.070422 
2224.000000	100.070731 
2223.000000	100.071041 
2222.000000	100.071360 
2221.000000	100.071690 
2220.000000	100.072031 
2219.000000	100.072378 
2218.000000	100.072723 
2217.000000	100.073061 
2216.000000	100.073389 
2215.000000	100.073708 
2214.000000	100.074020 
2213.000000	100.074326 
2212.000000	100.074627 
2211.000000	100.074922 
2210.000000	100.075207 
2209.000000	100.075481 
2208.000000	100.075752 
2207.000000	100.076030 
2206.000000	100.076327 
2205.000000	100.076651 
2204.000000	100.077014 
2203.000000	100.077420 
2202.000000	100.077875 
2201.000000	100.078384 
2200.000000	100.078957 
2199.000000	100.079590 
2198.000000	100.080266 
2197.000000	100.080966 
2196.000000	100.081698 
2195.000000	100.082491 
2194.000000	100.083372 
2193.000000	100.084348 
2192.000000	100.085392 
2191.000000	100.086497 
2190.000000	100.087635 
2189.000000	100.088696 
2188.000000	100.089591 
2187.000000	100.090299 
2186.000000	100.090937 
2185.000000	100.091839 
2184.000000	100.093433 
2183.000000	100.095815 
2182.000000	100.098369 
2181.000000	100.100163 
2180.000000	100.100852 
2179.000000	100.101145 
2178.000000	100.102249 
2177.000000	100.104753 
2176.000000	100.107887 
2175.000000	100.109944 
2174.000000	100.109829 
2173.000000	100.108140 
2172.000000	100.106307 
2171.000000	100.104951 
2170.000000	100.104121 
2169.000000	100.104794 
2168.000000	100.108256 
2167.000000	100.113582 
2166.000000	100.117686 
2165.000000	100.119211 
2164.000000	100.120351 
2163.000000	100.123320 
2162.000000	100.127109 
2161.000000	100.129838 
2160.000000	100.132298 
2159.000000	100.136289 
2158.000000	100.141076 
2157.000000	100.144921 
2156.000000	100.148631 
2155.000000	100.154000 
2154.000000	100.160071 
2153.000000	100.163858 
2152.000000	100.163371 
2151.000000	100.158021 
2150.000000	100.148537 
2149.000000	100.138311 
2148.000000	100.132489 
2147.000000	100.133132 
2146.000000	100.136787 
2145.000000	100.139032 
2144.000000	100.139938 
2143.000000	100.142118 
2142.000000	100.144901 
2141.000000	100.144361 
2140.000000	100.139018 
2139.000000	100.132013 
2138.000000	100.127104 
2137.000000	100.124758 
2136.000000	100.123224 
2135.000000	100.121282 
2134.000000	100.118647 
2133.000000	100.115181 
2132.000000	100.111268 
2131.000000	100.108280 
2130.000000	100.107381 
2129.000000	100.107954 
2128.000000	100.107941 
2127.000000	100.106066 
2126.000000	100.103456 
2125.000000	100.102532 
2124.000000	100.104236 
2123.000000	100.106870 
2122.000000	100.107836 
2121.000000	100.106317 
2120.000000	100.103540 
2119.000000	100.100868 
2118.000000	100.098534 
2117.000000	100.096337 
2116.000000	100.094598 
2115.000000	100.093831 
2114.000000	100.093932 
2113.000000	100.094193 
2112.000000	100.093948 
2111.000000	100.093010 
2110.000000	100.091688 
2109.000000	100.090598 
2108.000000	100.090250 
2107.000000	100.090650 
2106.000000	100.091264 
2105.000000	100.091453 
2104.000000	100.091064 
2103.000000	100.090416 
2102.000000	100.089864 
2101.000000	100.089556 
2100.000000	100.089492 
2099.000000	100.089595 
2098.000000	100.089687 
2097.000000	100.089570 
2096.000000	100.089266 
2095.000000	100.089110 
2094.000000	100.089438 
2093.000000	100.090157 
2092.000000	100.090720 
2091.000000	100.090651 
2090.000000	100.089972 
2089.000000	100.089216 
2088.000000	100.088856 
2087.000000	100.088816 
2086.000000	100.088694 
2085.000000	100.088423 
2084.000000	100.088469 
2083.000000	100.089272 
2082.000000	100.090686 
2081.000000	100.092028 
2080.000000	100.092688 
2079.000000	100.092493 
2078.000000	100.091623 
2077.000000	100.090482 
2076.000000	100.089492 
2075.000000	100.088777 
2074.000000	100.088172 
2073.000000	100.087697 
2072.000000	100.087812 
2071.000000	100.088822 
2070.000000	100.090253 
2069.000000	100.091290 
2068.000000	100.091819 
2067.000000	100.092515 
2066.000000	100.093839 
2065.000000	100.095361 
2064.000000	100.096262 
2063.000000	100.096168 
2062.000000	100.095257 
2061.000000	100.093905 
2060.000000	100.092400 
2059.000000	100.090940 
2058.000000	100.089857 
2057.000000	100.089710 
2056.000000	100.090979 
2055.000000	100.093517 
2054.000000	100.096425 
2053.000000	100.098634 
2052.000000	100.099537 
2051.000000	100.098921 
2050.000000	100.096824 
2049.000000	100.094015 
2048.000000	100.092299 
2047.000000	100.093296 
2046.000000	100.097019 
2045.000000	100.101903 
2044.000000	100.106091 
2043.000000	100.108549 
2042.000000	100.109138 
2041.000000	100.108533 
2040.000000	100.107820 
2039.000000	100.107228 
2038.000000	100.105557 
2037.000000	100.102003 
2036.000000	100.098302 
2035.000000	100.097500 
2034.000000	100.100284 
2033.000000	100.103887 
2032.000000	100.105414 
2031.000000	100.105179 
2030.000000	100.105361 
2029.000000	100.106515 
2028.000000	100.107074 
2027.000000	100.106155 
2026.000000	100.105433 
2025.000000	100.107597 
2024.000000	100.113536 
2023.000000	100.121502 
2022.000000	100.128663 
2021.000000	100.133062 
2020.000000	100.134176 
2019.000000	100.132432 
2018.000000	100.128866 
2017.000000	100.124967 
2016.000000	100.121545 
2015.000000	100.117638 
2014.000000	100.111680 
2013.000000	100.103859 
2012.000000	100.096431 
2011.000000	100.091615 
2010.000000	100.090219 
2009.000000	100.092263 
2008.000000	100.097290 
2007.000000	100.103370 
2006.000000	100.107236 
2005.000000	100.106860 
2004.000000	100.103371 
2003.000000	100.099855 
2002.000000	100.098821 
2001.000000	100.101142 
2000.000000	100.106130 
1999.000000	100.111720 
1998.000000	100.115460 
1997.000000	100.116360 
1996.000000	100.115619 
1995.000000	100.115046 
1994.000000	100.114978 
1993.000000	100.114303 
1992.000000	100.112107 
1991.000000	100.108597 
1990.000000	100.104657 
1989.000000	100.101319 
1988.000000	100.099460 
1987.000000	100.099310 
1986.000000	100.100291 
1985.000000	100.101585 
1984.000000	100.102715 
1983.000000	100.103473 
1982.000000	100.103712 
1981.000000	100.103533 
1980.000000	100.103179 
1979.000000	100.102420 
1978.000000	100.100635 
1977.000000	100.097911 
1976.000000	100.095575 
1975.000000	100.095027 
1974.000000	100.096284 
1973.000000	100.097867 
1972.000000	100.098067 
1971.000000	100.096298 
1970.000000	100.093303 
1969.000000	100.090487 
1968.000000	100.088732 
1967.000000	100.087694 
1966.000000	100.086400 
1965.000000	100.084751 
1964.000000	100.084004 
1963.000000	100.085343 
1962.000000	100.088273 
1961.000000	100.090871 
1960.000000	100.091761 
1959.000000	100.091072 
1958.000000	100.089530 
1957.000000	100.087252 
1956.000000	100.083879 
1955.000000	100.079567 
1954.000000	100.075388 
1953.000000	100.072597 
1952.000000	100.071566 
1951.000000	100.071461 
1950.000000	100.070854 
1949.000000	100.068822 
1948.000000	100.065479 
1947.000000	100.061652 
1946.000000	100.058229 
1945.000000	100.055588 
1944.000000	100.053342 
1943.000000	100.050655 
1942.000000	100.047252 
1941.000000	100.044092 
1940.000000	100.042515 
1939.000000	100.042842 
1938.000000	100.044089 
1937.000000	100.044820 
1936.000000	100.044208 
1935.000000	100.042226 
1934.000000	100.039320 
1933.000000	100.036221 
1932.000000	100.033736 
1931.000000	100.032235 
1930.000000	100.031297 
1929.000000	100.030079 
1928.000000	100.028057 
1927.000000	100.025426 
1926.000000	100.022746 
1925.000000	100.020209 
1924.000000	100.017339 
1923.000000	100.013587 
1922.000000	100.009350 
1921.000000	100.005983 
1920.000000	100.004431 
1919.000000	100.004323 
1918.000000	100.004488 
1917.000000	100.004161 
1916.000000	100.003327 
1915.000000	100.001961 
1914.000000	99.999803  
1913.000000	99.996976  
1912.000000	99.994332  
1911.000000	99.992730  
1910.000000	99.992172  
1909.000000	99.991862  
1908.000000	99.991037  
1907.000000	99.989572  
1906.000000	99.987821  
1905.000000	99.986230  
1904.000000	99.985010  
1903.000000	99.983969  
1902.000000	99.982764  
1901.000000	99.981333  
1900.000000	99.979869  
1899.000000	99.978511  
1898.000000	99.977381  
1897.000000	99.976829  
1896.000000	99.977108  
1895.000000	99.977764  
1894.000000	99.977913  
1893.000000	99.977296  
1892.000000	99.976507  
1891.000000	99.976060  
1890.000000	99.975752  
1889.000000	99.975113  
1888.000000	99.974082  
1887.000000	99.972916  
1886.000000	99.971880  
1885.000000	99.971318  
1884.000000	99.971576  
1883.000000	99.972564  
1882.000000	99.973732  
1881.000000	99.974624  
1880.000000	99.975139  
1879.000000	99.975288  
1878.000000	99.975131  
1877.000000	99.974933  
1876.000000	99.974941  
1875.000000	99.974950  
1874.000000	99.974544  
1873.000000	99.973799  
1872.000000	99.973130  
1871.000000	99.972575  
1870.000000	99.971978  
1869.000000	99.971893  
1868.000000	99.973094  
1867.000000	99.975006  
1866.000000	99.976064  
1865.000000	99.975558  
1864.000000	99.973931  
1863.000000	99.971614  
1862.000000	99.968612  
1861.000000	99.965607  
1860.000000	99.964209  
1859.000000	99.965317  
1858.000000	99.968153  
1857.000000	99.971243  
1856.000000	99.973948  
1855.000000	99.976217  
1854.000000	99.977634  
1853.000000	99.977922  
1852.000000	99.977688  
1851.000000	99.977684  
1850.000000	99.977743  
1849.000000	99.977167  
1848.000000	99.976019  
1847.000000	99.975115  
1846.000000	99.974975  
1845.000000	99.975393  
1844.000000	99.975905  
1843.000000	99.976256  
1842.000000	99.976345  
1841.000000	99.976047  
1840.000000	99.975062  
1839.000000	99.972932  
1838.000000	99.969591  
1837.000000	99.966462  
1836.000000	99.965996  
1835.000000	99.968883  
1834.000000	99.972696  
1833.000000	99.974347  
1832.000000	99.972951  
1831.000000	99.970247  
1830.000000	99.969100  
1829.000000	99.970933  
1828.000000	99.974671  
1827.000000	99.977666  
1826.000000	99.977406  
1825.000000	99.974107  
1824.000000	99.971024  
1823.000000	99.970125  
1822.000000	99.969702  
1821.000000	99.968125  
1820.000000	99.967221  
1819.000000	99.969582  
1818.000000	99.973898  
1817.000000	99.976615  
1816.000000	99.977605  
1815.000000	99.979626  
1814.000000	99.983236  
1813.000000	99.985896  
1812.000000	99.986115  
1811.000000	99.985367  
1810.000000	99.984872  
1809.000000	99.984466  
1808.000000	99.984871  
1807.000000	99.987440  
1806.000000	99.992089  
1805.000000	99.997310  
1804.000000	100.001594 
1803.000000	100.003686 
1802.000000	100.003500 
1801.000000	100.003739 
1800.000000	100.008140 
1799.000000	100.016907 
1798.000000	100.025909 
1797.000000	100.032255 
1796.000000	100.038063 
1795.000000	100.047183 
1794.000000	100.060204 
1793.000000	100.073334 
1792.000000	100.082776 
1791.000000	100.088876 
1790.000000	100.094274 
1789.000000	100.101422 
1788.000000	100.111604 
1787.000000	100.123479 
1786.000000	100.133654 
1785.000000	100.141206 
1784.000000	100.149981 
1783.000000	100.163342 
1782.000000	100.180125 
1781.000000	100.196733 
1780.000000	100.211084 
1779.000000	100.224152 
1778.000000	100.237371 
1777.000000	100.251002 
1776.000000	100.264819 
1775.000000	100.279194 
1774.000000	100.295211 
1773.000000	100.313558 
1772.000000	100.333663 
1771.000000	100.354844 
1770.000000	100.376834 
1769.000000	100.399226 
1768.000000	100.422998 
1767.000000	100.450266 
1766.000000	100.481040 
1765.000000	100.512514 
1764.000000	100.541854 
1763.000000	100.568245 
1762.000000	100.592649 
1761.000000	100.616772 
1760.000000	100.642632 
1759.000000	100.670925 
1758.000000	100.698614 
1757.000000	100.720695 
1756.000000	100.735973 
1755.000000	100.749966 
1754.000000	100.766939 
1753.000000	100.782666 
1752.000000	100.788675 
1751.000000	100.783947 
1750.000000	100.777345 
1749.000000	100.774298 
1748.000000	100.770765 
1747.000000	100.762149 
1746.000000	100.749155 
1745.000000	100.732566 
1744.000000	100.710369 
1743.000000	100.682143 
1742.000000	100.649784 
1741.000000	100.613175 
1740.000000	100.571169 
1739.000000	100.528171 
1738.000000	100.492760 
1737.000000	100.466147 
1736.000000	100.440035 
1735.000000	100.403382 
1734.000000	100.355132 
1733.000000	100.311208 
1732.000000	100.283605 
1731.000000	100.267564 
1730.000000	100.253908 
1729.000000	100.238625 
1728.000000	100.222522 
1727.000000	100.208529 
1726.000000	100.198593 
1725.000000	100.191911 
1724.000000	100.185861 
1723.000000	100.179017 
1722.000000	100.171981 
1721.000000	100.166714 
1720.000000	100.164391 
1719.000000	100.163680 
1718.000000	100.159437 
1717.000000	100.147876 
1716.000000	100.134643 
1715.000000	100.126850 
1714.000000	100.123534 
1713.000000	100.121412 
1712.000000	100.120184 
1711.000000	100.120326 
1710.000000	100.120919 
1709.000000	100.121359 
1708.000000	100.122217 
1707.000000	100.123500 
1706.000000	100.123379 
1705.000000	100.120563 
1704.000000	100.117829 
1703.000000	100.117069 
1702.000000	100.116694 
1701.000000	100.113849 
1700.000000	100.109987 
1699.000000	100.111763 
1698.000000	100.119016 
1697.000000	100.124580 
1696.000000	100.123132 
1695.000000	100.115483 
1694.000000	100.107479 
1693.000000	100.103070 
1692.000000	100.102017 
1691.000000	100.103713 
1690.000000	100.107208 
1689.000000	100.111331 
1688.000000	100.115823 
1687.000000	100.121646 
1686.000000	100.130015 
1685.000000	100.139511 
1684.000000	100.146038 
1683.000000	100.147967 
1682.000000	100.147902 
1681.000000	100.147254 
1680.000000	100.145486 
1679.000000	100.144710 
1678.000000	100.147188 
1677.000000	100.152178 
1676.000000	100.155685 
1675.000000	100.155594 
1674.000000	100.155257 
1673.000000	100.157937 
1672.000000	100.162314 
1671.000000	100.165886 
1670.000000	100.167827 
1669.000000	100.169165 
1668.000000	100.170908 
1667.000000	100.173131 
1666.000000	100.175531 
1665.000000	100.177908 
1664.000000	100.180612 
1663.000000	100.183923 
1662.000000	100.187344 
1661.000000	100.190176 
1660.000000	100.192024 
1659.000000	100.193384 
1658.000000	100.195189 
1657.000000	100.197900 
1656.000000	100.200896 
1655.000000	100.203681 
1654.000000	100.206548 
1653.000000	100.208903 
1652.000000	100.210219 
1651.000000	100.211713 
1650.000000	100.213708 
1649.000000	100.215579 
1648.000000	100.217440 
1647.000000	100.219423 
1646.000000	100.221534 
1645.000000	100.223700 
1644.000000	100.225988 
1643.000000	100.228374 
1642.000000	100.230741 
1641.000000	100.233003 
1640.000000	100.235168 
1639.000000	100.237303 
1638.000000	100.239448 
1637.000000	100.241632 
1636.000000	100.243869 
1635.000000	100.246062 
1634.000000	100.248157 
1633.000000	100.250222 
1632.000000	100.252331 
1631.000000	100.254505 
1630.000000	100.256716 
1629.000000	100.258910 
1628.000000	100.261054 
1627.000000	100.263153 
1626.000000	100.265241 
1625.000000	100.267354 
1624.000000	100.269502 
1623.000000	100.271654 
1622.000000	100.273767 
1621.000000	100.275860 
1620.000000	100.277917 
1619.000000	100.279844 
1618.000000	100.281618 
1617.000000	100.283424 
1616.000000	100.285485 
1615.000000	100.287782 
1614.000000	100.290117 
1613.000000	100.292282 
1612.000000	100.294206 
1611.000000	100.295896 
1610.000000	100.297461 
1609.000000	100.299171 
1608.000000	100.301193 
1607.000000	100.303299 
1606.000000	100.305168 
1605.000000	100.306824 
1604.000000	100.308452 
1603.000000	100.310224 
1602.000000	100.312259 
1601.000000	100.314511 
1600.000000	100.316695 
1599.000000	100.318475 
1598.000000	100.319830 
1597.000000	100.321091 
1596.000000	100.322661 
1595.000000	100.324671 
1594.000000	100.326851 
1593.000000	100.328871 
1592.000000	100.330676 
1591.000000	100.332377 
1590.000000	100.334043 
1589.000000	100.335656 
1588.000000	100.337241 
1587.000000	100.338980 
1586.000000	100.341022 
1585.000000	100.343248 
1584.000000	100.344975 
1583.000000	100.345442 
1582.000000	100.345016 
1581.000000	100.344876 
1580.000000	100.345345 
1579.000000	100.345597 
1578.000000	100.345246 
1577.000000	100.345225 
1576.000000	100.346229 
1575.000000	100.347551 
1574.000000	100.349196 
1573.000000	100.351456 
1572.000000	100.353566 
1571.000000	100.354943 
1570.000000	100.355545 
1569.000000	100.356175 
1568.000000	100.357230 
1567.000000	100.358643 
1566.000000	100.360204 
1565.000000	100.361614 
1564.000000	100.362019 
1563.000000	100.361110 
1562.000000	100.359599 
1561.000000	100.358905 
1560.000000	100.359184 
1559.000000	100.359148 
1558.000000	100.357374 
1557.000000	100.355649 
1556.000000	100.356641 
1555.000000	100.358331 
1554.000000	100.360444 
1553.000000	100.362537 
1552.000000	100.363805 
1551.000000	100.363034 
1550.000000	100.361084 
1549.000000	100.360876 
1548.000000	100.364432 
1547.000000	100.370200 
1546.000000	100.374386 
1545.000000	100.374310 
1544.000000	100.371106 
1543.000000	100.368418 
1542.000000	100.368109 
1541.000000	100.368935 
1540.000000	100.368321 
1539.000000	100.364108 
1538.000000	100.358471 
1537.000000	100.354956 
1536.000000	100.352938 
1535.000000	100.350841 
1534.000000	100.347913 
1533.000000	100.344202 
1532.000000	100.340375 
1531.000000	100.337533 
1530.000000	100.335650 
1529.000000	100.333854 
1528.000000	100.331539 
1527.000000	100.328556 
1526.000000	100.325170 
1525.000000	100.321956 
1524.000000	100.319228 
1523.000000	100.316738 
1522.000000	100.313564 
1521.000000	100.308978 
1520.000000	100.304607 
1519.000000	100.302571 
1518.000000	100.301997 
1517.000000	100.300105 
1516.000000	100.295581 
1515.000000	100.290030 
1514.000000	100.285423 
1513.000000	100.281296 
1512.000000	100.276804 
1511.000000	100.272743 
1510.000000	100.269528 
1509.000000	100.265329 
1508.000000	100.258963 
1507.000000	100.254865 
1506.000000	100.254054 
1505.000000	100.252122 
1504.000000	100.249947 
1503.000000	100.248802 
1502.000000	100.247882 
1501.000000	100.246069 
1500.000000	100.243017 
1499.000000	100.239790 
1498.000000	100.236702 
1497.000000	100.231373 
1496.000000	100.222580 
1495.000000	100.213741 
1494.000000	100.208217 
1493.000000	100.205724 
1492.000000	100.204560 
1491.000000	100.203776 
1490.000000	100.202917 
1489.000000	100.201131 
1488.000000	100.197878 
1487.000000	100.193531 
1486.000000	100.188227 
1485.000000	100.182655 
1484.000000	100.177467 
1483.000000	100.172148 
1482.000000	100.166131 
1481.000000	100.160514 
1480.000000	100.157702 
1479.000000	100.158084 
1478.000000	100.158790 
1477.000000	100.156711 
1476.000000	100.152757 
1475.000000	100.150421 
1474.000000	100.151766 
1473.000000	100.156675 
1472.000000	100.163741 
1471.000000	100.171652 
1470.000000	100.179516 
1469.000000	100.186535 
1468.000000	100.192059 
1467.000000	100.195617 
1466.000000	100.196987 
1465.000000	100.197226 
1464.000000	100.198778 
1463.000000	100.203667 
1462.000000	100.210941 
1461.000000	100.217651 
1460.000000	100.221848 
1459.000000	100.223286 
1458.000000	100.220548 
1457.000000	100.208285 
1456.000000	100.186859 
1455.000000	100.167623 
1454.000000	100.157871 
1453.000000	100.154566 
1452.000000	100.152926 
1451.000000	100.151645 
1450.000000	100.153111 
1449.000000	100.158975 
1448.000000	100.167847 
1447.000000	100.176244 
1446.000000	100.181894 
1445.000000	100.184736 
1444.000000	100.185359 
1443.000000	100.184643 
1442.000000	100.183036 
1441.000000	100.181058 
1440.000000	100.180500 
1439.000000	100.183834 
1438.000000	100.190862 
1437.000000	100.196838 
1436.000000	100.198704 
1435.000000	100.200501 
1434.000000	100.206122 
1433.000000	100.214019 
1432.000000	100.221204 
1431.000000	100.226410 
1430.000000	100.229147 
1429.000000	100.227980 
1428.000000	100.222770 
1427.000000	100.215982 
1426.000000	100.209731 
1425.000000	100.203186 
1424.000000	100.194514 
1423.000000	100.184361 
1422.000000	100.173197 
1421.000000	100.157750 
1420.000000	100.133133 
1419.000000	100.100496 
1418.000000	100.067448 
1417.000000	100.037120 
1416.000000	100.007459 
1415.000000	99.978045  
1414.000000	99.949978  
1413.000000	99.922902  
1412.000000	99.896494  
1411.000000	99.873078  
1410.000000	99.855244  
1409.000000	99.842943  
1408.000000	99.835863  
1407.000000	99.835282  
1406.000000	99.842059  
1405.000000	99.855462  
1404.000000	99.874688  
1403.000000	99.899572  
1402.000000	99.928515  
1401.000000	99.958146  
1400.000000	99.984857  
1399.000000	100.004195 
1398.000000	100.008364 
1397.000000	99.988615  
1396.000000	99.945999  
1395.000000	99.902731  
1394.000000	99.891584  
1393.000000	99.924210  
1392.000000	99.982727  
1391.000000	100.040431 
1390.000000	100.081413 
1389.000000	100.103356 
1388.000000	100.110833 
1387.000000	100.109772 
1386.000000	100.105817 
1385.000000	100.103539 
1384.000000	100.105179 
1383.000000	100.110584 
1382.000000	100.118491 
1381.000000	100.128250 
1380.000000	100.140236 
1379.000000	100.154610 
1378.000000	100.170568 
1377.000000	100.187229 
1376.000000	100.204764 
1375.000000	100.224021 
1374.000000	100.245159 
1373.000000	100.267137 
1372.000000	100.289016 
1371.000000	100.310909 
1370.000000	100.332976 
1369.000000	100.354433 
1368.000000	100.374449 
1367.000000	100.393569 
1366.000000	100.413073 
1365.000000	100.432911 
1364.000000	100.451010 
1363.000000	100.465271 
1362.000000	100.475901 
1361.000000	100.484898 
1360.000000	100.493774 
1359.000000	100.503060 
1358.000000	100.513418 
1357.000000	100.525791 
1356.000000	100.540236 
1355.000000	100.555334 
1354.000000	100.569190 
1353.000000	100.580927 
1352.000000	100.590654 
1351.000000	100.598293 
1350.000000	100.604478 
1349.000000	100.610798 
1348.000000	100.617407 
1347.000000	100.623363 
1346.000000	100.628213 
1345.000000	100.631949 
1344.000000	100.634584 
1343.000000	100.636656 
1342.000000	100.639059 
1341.000000	100.641579 
1340.000000	100.642738 
1339.000000	100.642418 
1338.000000	100.643332 
1337.000000	100.647932 
1336.000000	100.654816 
1335.000000	100.660047 
1334.000000	100.661726 
1333.000000	100.661874 
1332.000000	100.663584 
1331.000000	100.667667 
1330.000000	100.672707 
1329.000000	100.677332 
1328.000000	100.681367 
1327.000000	100.685130 
1326.000000	100.688729 
1325.000000	100.692316 
1324.000000	100.696608 
1323.000000	100.702228 
1322.000000	100.708331 
1321.000000	100.712788 
1320.000000	100.714515 
1319.000000	100.715048 
1318.000000	100.716762 
1317.000000	100.720037 
1316.000000	100.723533 
1315.000000	100.726775 
1314.000000	100.730610 
1313.000000	100.734962 
1312.000000	100.738062 
1311.000000	100.738980 
1310.000000	100.739512 
1309.000000	100.742220 
1308.000000	100.747389 
1307.000000	100.752943 
1306.000000	100.756828 
1305.000000	100.758459 
1304.000000	100.758405 
1303.000000	100.757892 
1302.000000	100.758488 
1301.000000	100.761040 
1300.000000	100.764672 
1299.000000	100.767504 
1298.000000	100.768468 
1297.000000	100.768014 
1296.000000	100.767198 
1295.000000	100.766835 
1294.000000	100.767437 
1293.000000	100.769107 
1292.000000	100.771093 
1291.000000	100.772001 
1290.000000	100.770901 
1289.000000	100.768124 
1288.000000	100.764826 
1287.000000	100.762026 
1286.000000	100.760357 
1285.000000	100.760305 
1284.000000	100.761969 
1283.000000	100.764577 
1282.000000	100.766468 
1281.000000	100.766094 
1280.000000	100.763487 
1279.000000	100.759935 
1278.000000	100.756186 
1277.000000	100.751971 
1276.000000	100.746969 
1275.000000	100.740951 
1274.000000	100.732899 
1273.000000	100.721414 
1272.000000	100.706733 
1271.000000	100.691221 
1270.000000	100.676867 
1269.000000	100.663129 
1268.000000	100.648189 
1267.000000	100.631289 
1266.000000	100.612773 
1265.000000	100.592947 
1264.000000	100.572334 
1263.000000	100.552280 
1262.000000	100.533963 
1261.000000	100.517514 
1260.000000	100.503184 
1259.000000	100.492063 
1258.000000	100.484086 
1257.000000	100.476718 
1256.000000	100.467674 
1255.000000	100.457829 
1254.000000	100.449190 
1253.000000	100.441185 
1252.000000	100.432157 
1251.000000	100.424253 
1250.000000	100.423215 
1249.000000	100.432439 
1248.000000	100.449736 
1247.000000	100.469856 
1246.000000	100.486872 
1245.000000	100.493790 
1244.000000	100.485366 
1243.000000	100.465891 
1242.000000	100.451237 
1241.000000	100.456503 
1240.000000	100.481230 
1239.000000	100.509265 
1238.000000	100.524320 
1237.000000	100.523342 
1236.000000	100.513483 
1235.000000	100.501241 
1234.000000	100.487995 
1233.000000	100.474039 
1232.000000	100.461983 
1231.000000	100.454655 
1230.000000	100.452161 
1229.000000	100.452648 
1228.000000	100.454672 
1227.000000	100.457494 
1226.000000	100.460080 
1225.000000	100.461455 
1224.000000	100.461973 
1223.000000	100.463102 
1222.000000	100.465695 
1221.000000	100.468984 
1220.000000	100.471282 
1219.000000	100.471188 
1218.000000	100.468310 
1217.000000	100.463541 
1216.000000	100.458584 
1215.000000	100.454345 
1214.000000	100.449440 
1213.000000	100.441101 
1212.000000	100.428119 
1211.000000	100.412347 
1210.000000	100.396683 
1209.000000	100.382090 
1208.000000	100.367442 
1207.000000	100.351742 
1206.000000	100.335140 
1205.000000	100.317652 
1204.000000	100.298315 
1203.000000	100.276834 
1202.000000	100.255564 
1201.000000	100.238472 
1200.000000	100.227386 
1199.000000	100.219655 
1198.000000	100.210186 
1197.000000	100.196071 
1196.000000	100.178409 
1195.000000	100.159945 
1194.000000	100.142486 
1193.000000	100.126533 
1192.000000	100.112041 
1191.000000	100.098310 
1190.000000	100.083862 
1189.000000	100.067937 
1188.000000	100.051653 
1187.000000	100.036226 
1186.000000	100.020519 
1185.000000	100.002246 
1184.000000	99.981476  
1183.000000	99.960914  
1182.000000	99.942293  
1181.000000	99.924350  
1180.000000	99.905001  
1179.000000	99.883771  
1178.000000	99.861187  
1177.000000	99.837276  
1176.000000	99.811658  
1175.000000	99.783920  
1174.000000	99.753185  
1173.000000	99.718649  
1172.000000	99.681412  
1171.000000	99.644435  
1170.000000	99.609601  
1169.000000	99.575882  
1168.000000	99.541264  
1167.000000	99.505383  
1166.000000	99.469824  
1165.000000	99.437562  
1164.000000	99.412878  
1163.000000	99.399624  
1162.000000	99.397658  
1161.000000	99.402008  
1160.000000	99.406570  
1159.000000	99.407407  
1158.000000	99.401917  
1157.000000	99.387384  
1156.000000	99.362333  
1155.000000	99.327926  
1154.000000	99.286501  
1153.000000	99.240013  
1152.000000	99.191159  
1151.000000	99.143993  
1150.000000	99.101059  
1149.000000	99.061241  
1148.000000	99.022440  
1147.000000	98.984857  
1146.000000	98.949632  
1145.000000	98.915985  
1144.000000	98.882423  
1143.000000	98.849799  
1142.000000	98.820652  
1141.000000	98.795958  
1140.000000	98.774356  
1139.000000	98.753763  
1138.000000	98.732011  
1137.000000	98.706826  
1136.000000	98.677159  
1135.000000	98.644156  
1134.000000	98.609423  
1133.000000	98.572777  
1132.000000	98.533096  
1131.000000	98.490660  
1130.000000	98.446964  
1129.000000	98.402629  
1128.000000	98.356753  
1127.000000	98.307811  
1126.000000	98.254593  
1125.000000	98.197566  
1124.000000	98.139965  
1123.000000	98.085733  
1122.000000	98.035140  
1121.000000	97.984074  
1120.000000	97.928666  
1119.000000	97.868865  
1118.000000	97.806731  
1117.000000	97.743599  
1116.000000	97.680263  
1115.000000	97.617728  
1114.000000	97.556191  
1113.000000	97.495076  
1112.000000	97.435137  
1111.000000	97.378221  
1110.000000	97.324123  
1109.000000	97.270644  
1108.000000	97.217272  
1107.000000	97.165973  
1106.000000	97.117583  
1105.000000	97.070423  
1104.000000	97.023406  
1103.000000	96.977636  
1102.000000	96.933865  
1101.000000	96.891394  
1100.000000	96.850462  
1099.000000	96.812508  
1098.000000	96.776730  
1097.000000	96.739472  
1096.000000	96.698446  
1095.000000	96.654023  
1094.000000	96.604311  
1093.000000	96.542800  
1092.000000	96.464666  
1091.000000	96.373946  
1090.000000	96.281643  
1089.000000	96.196866  
1088.000000	96.121149  
1087.000000	96.049781  
1086.000000	95.976429  
1085.000000	95.897621  
1084.000000	95.814665  
1083.000000	95.731171  
1082.000000	95.648855  
1081.000000	95.567443  
1080.000000	95.488355  
1079.000000	95.415400  
1078.000000	95.351458  
1077.000000	95.297654  
1076.000000	95.255700  
1075.000000	95.226779  
1074.000000	95.207768  
1073.000000	95.192842  
1072.000000	95.177836  
1071.000000	95.156246  
1070.000000	95.111742  
1069.000000	95.026909  
1068.000000	94.907397  
1067.000000	94.790973  
1066.000000	94.720637  
1065.000000	94.709228  
1064.000000	94.734256  
1063.000000	94.759970  
1062.000000	94.759436  
1061.000000	94.720299  
1060.000000	94.644446  
1059.000000	94.550351  
1058.000000	94.467289  
1057.000000	94.416184  
1056.000000	94.394993  
1055.000000	94.384285  
1054.000000	94.366192  
1053.000000	94.337405  
1052.000000	94.306004  
1051.000000	94.279843  
1050.000000	94.259672  
1049.000000	94.241624  
1048.000000	94.223226  
1047.000000	94.205524  
1046.000000	94.190858  
1045.000000	94.180748  
1044.000000	94.175874  
1043.000000	94.176013  
1042.000000	94.178623  
1041.000000	94.178566  
1040.000000	94.171826  
1039.000000	94.161567  
1038.000000	94.159722  
1037.000000	94.179048  
1036.000000	94.221245  
1035.000000	94.274433  
1034.000000	94.324590  
1033.000000	94.366626  
1032.000000	94.399038  
1031.000000	94.411995  
1030.000000	94.393366  
1029.000000	94.351225  
1028.000000	94.320105  
1027.000000	94.333095  
1026.000000	94.390362  
1025.000000	94.461719  
1024.000000	94.517909  
1023.000000	94.551899  
1022.000000	94.571912  
1021.000000	94.586214  
1020.000000	94.598576  
1019.000000	94.610681  
1018.000000	94.622629  
1017.000000	94.633817  
1016.000000	94.646161  
1015.000000	94.663789  
1014.000000	94.688027  
1013.000000	94.715716  
1012.000000	94.743578  
1011.000000	94.770937  
1010.000000	94.797733  
1009.000000	94.823900  
1008.000000	94.851522  
1007.000000	94.883895  
1006.000000	94.921516  
1005.000000	94.962108  
1004.000000	95.004656  
1003.000000	95.049565  
1002.000000	95.094784  
1001.000000	95.136566  
1000.000000	95.175196  
999.000000	 95.215471  
998.000000	 95.259781  
997.000000	 95.304699  
996.000000	 95.346282  
995.000000	 95.385029  
994.000000	 95.423555  
993.000000	 95.462990  
992.000000	 95.504091  
991.000000	 95.548471  
990.000000	 95.595902  
989.000000	 95.643219  
988.000000	 95.688344  
987.000000	 95.732827  
986.000000	 95.778574  
985.000000	 95.825270  
984.000000	 95.872313  
983.000000	 95.919879  
982.000000	 95.968245  
981.000000	 96.018406  
980.000000	 96.072983  
979.000000	 96.134402  
978.000000	 96.201174  
977.000000	 96.268802  
976.000000	 96.335396  
975.000000	 96.403113  
974.000000	 96.473395  
973.000000	 96.544741  
972.000000	 96.616263  
971.000000	 96.689364  
970.000000	 96.764119  
969.000000	 96.837603  
968.000000	 96.907851  
967.000000	 96.976554  
966.000000	 97.046061  
965.000000	 97.116266  
964.000000	 97.185656  
963.000000	 97.252558  
962.000000	 97.314207  
961.000000	 97.368119  
960.000000	 97.416332  
959.000000	 97.465089  
958.000000	 97.517708  
957.000000	 97.570465  
956.000000	 97.618543  
955.000000	 97.663607  
954.000000	 97.711894  
953.000000	 97.765672  
952.000000	 97.819800  
951.000000	 97.867117  
950.000000	 97.905320  
949.000000	 97.938393  
948.000000	 97.972364  
947.000000	 98.009566  
946.000000	 98.046486  
945.000000	 98.077691  
944.000000	 98.102004  
943.000000	 98.123904  
942.000000	 98.148560  
941.000000	 98.176688  
940.000000	 98.205203  
939.000000	 98.231745  
938.000000	 98.257211  
937.000000	 98.284055  
936.000000	 98.312917  
935.000000	 98.341323  
934.000000	 98.366239  
933.000000	 98.388135  
932.000000	 98.411014  
931.000000	 98.437247  
930.000000	 98.464040  
929.000000	 98.487346  
928.000000	 98.508252  
927.000000	 98.532142  
926.000000	 98.561135  
925.000000	 98.590613  
924.000000	 98.614776  
923.000000	 98.632963  
922.000000	 98.648388  
921.000000	 98.662678  
920.000000	 98.674440  
919.000000	 98.682761  
918.000000	 98.689638  
917.000000	 98.698134  
916.000000	 98.709574  
915.000000	 98.723557  
914.000000	 98.739715  
913.000000	 98.757942  
912.000000	 98.776772  
911.000000	 98.793213  
910.000000	 98.805863  
909.000000	 98.817597  
908.000000	 98.833194  
907.000000	 98.854073  
906.000000	 98.877140  
905.000000	 98.899458  
904.000000	 98.922409  
903.000000	 98.950230  
902.000000	 98.985637  
901.000000	 99.027443  
900.000000	 99.071085  
899.000000	 99.111261  
898.000000	 99.146023  
897.000000	 99.178507  
896.000000	 99.212054  
895.000000	 99.243907  
894.000000	 99.267930  
893.000000	 99.285080  
892.000000	 99.306449  
891.000000	 99.341904  
890.000000	 99.388647  
889.000000	 99.434824  
888.000000	 99.472511  
887.000000	 99.502375  
886.000000	 99.527562  
885.000000	 99.549132  
884.000000	 99.567423  
883.000000	 99.582356  
882.000000	 99.591733  
881.000000	 99.594993  
880.000000	 99.599882  
879.000000	 99.618646  
878.000000	 99.654339  
877.000000	 99.696148  
876.000000	 99.731908  
875.000000	 99.760709  
874.000000	 99.788792  
873.000000	 99.818630  
872.000000	 99.848434  
871.000000	 99.878911  
870.000000	 99.913504  
869.000000	 99.952528  
868.000000	 99.992234  
867.000000	 100.030131 
866.000000	 100.067687 
865.000000	 100.106880 
864.000000	 100.146388 
863.000000	 100.182503 
862.000000	 100.213465 
861.000000	 100.242466 
860.000000	 100.275543 
859.000000	 100.315143 
858.000000	 100.356354 
857.000000	 100.391946 
856.000000	 100.420966 
855.000000	 100.449351 
854.000000	 100.481559 
853.000000	 100.514997 
852.000000	 100.544134 
851.000000	 100.566546 
850.000000	 100.583112 
849.000000	 100.595916 
848.000000	 100.608724 
847.000000	 100.626197 
846.000000	 100.648647 
845.000000	 100.669564 
844.000000	 100.681799 
843.000000	 100.684989 
842.000000	 100.684694 
841.000000	 100.685781 
840.000000	 100.689042 
839.000000	 100.692644 
838.000000	 100.694124 
837.000000	 100.691978 
836.000000	 100.687255 
835.000000	 100.682401 
834.000000	 100.677517 
833.000000	 100.670553 
832.000000	 100.662847 
831.000000	 100.660331 
830.000000	 100.665621 
829.000000	 100.672818 
828.000000	 100.675400 
827.000000	 100.676104 
826.000000	 100.682522 
825.000000	 100.695013 
824.000000	 100.706379 
823.000000	 100.712251 
822.000000	 100.713677 
821.000000	 100.710444 
820.000000	 100.700862 
819.000000	 100.688328 
818.000000	 100.679760 
817.000000	 100.675662 
816.000000	 100.667956 
815.000000	 100.649861 
814.000000	 100.622439 
813.000000	 100.587981 
812.000000	 100.541423 
811.000000	 100.473226 
810.000000	 100.378889 
809.000000	 100.262165 
808.000000	 100.130299 
807.000000	 99.988999  
806.000000	 99.841252  
805.000000	 99.689018  
804.000000	 99.536182  
803.000000	 99.390030  
802.000000	 99.259020  
801.000000	 99.149787  
800.000000	 99.067118  
799.000000	 99.014269  
798.000000	 98.990725  
797.000000	 98.991550  
796.000000	 99.011081  
795.000000	 99.045324  
794.000000	 99.089451  
793.000000	 99.136586  
792.000000	 99.181645  
791.000000	 99.222896  
790.000000	 99.256854  
789.000000	 99.275672  
788.000000	 99.274066  
787.000000	 99.255438  
786.000000	 99.225380  
785.000000	 99.181425  
784.000000	 99.116580  
783.000000	 99.033422  
782.000000	 98.948435  
781.000000	 98.880859  
780.000000	 98.841783  
779.000000	 98.833526  
778.000000	 98.852793  
777.000000	 98.892576  
776.000000	 98.945478  
775.000000	 99.006988  
774.000000	 99.073085  
773.000000	 99.135951  
772.000000	 99.187529  
771.000000	 99.228068  
770.000000	 99.265723  
769.000000	 99.305985  
768.000000	 99.346625  
767.000000	 99.384846  
766.000000	 99.422978  
765.000000	 99.462531  
764.000000	 99.497531  
763.000000	 99.520082  
762.000000	 99.531115  
761.000000	 99.541231  
760.000000	 99.561221  
759.000000	 99.593724  
758.000000	 99.632601  
757.000000	 99.669030  
756.000000	 99.700214  
755.000000	 99.732597  
754.000000	 99.772965  
753.000000	 99.816021  
752.000000	 99.847376  
751.000000	 99.861608  
750.000000	 99.870359  
749.000000	 99.887608  
748.000000	 99.912846  
747.000000	 99.935996  
746.000000	 99.953851  
745.000000	 99.972272  
744.000000	 99.994574  
743.000000	 100.017573 
742.000000	 100.038948 
741.000000	 100.060053 
740.000000	 100.081236 
739.000000	 100.101947 
738.000000	 100.125549 
737.000000	 100.156139 
736.000000	 100.189512 
735.000000	 100.215293 
734.000000	 100.229372 
733.000000	 100.237068 
732.000000	 100.243593 
731.000000	 100.249136 
730.000000	 100.254498 
729.000000	 100.261759 
728.000000	 100.270183 
727.000000	 100.277925 
726.000000	 100.285984 
725.000000	 100.297690 
724.000000	 100.313610 
723.000000	 100.331075 
722.000000	 100.349464 
721.000000	 100.370757 
720.000000	 100.393612 
719.000000	 100.411509 
718.000000	 100.419298 
717.000000	 100.419269 
716.000000	 100.418169 
715.000000	 100.421514 
714.000000	 100.432016 
713.000000	 100.448762 
712.000000	 100.467608 
711.000000	 100.483263 
710.000000	 100.493960 
709.000000	 100.504918 
708.000000	 100.517088 
707.000000	 100.527389 
706.000000	 100.532110 
705.000000	 100.528266 
704.000000	 100.516043 
703.000000	 100.498677 
702.000000	 100.480576 
701.000000	 100.462650 
700.000000	 100.438682 
699.000000	 100.403005 
698.000000	 100.358327 
697.000000	 100.314796 
696.000000	 100.283158 
695.000000	 100.267896 
694.000000	 100.269682 
693.000000	 100.287580 
692.000000	 100.316503 
691.000000	 100.350896 
690.000000	 100.388799 
689.000000	 100.430133 
688.000000	 100.471071 
687.000000	 100.503670 
686.000000	 100.525300 
685.000000	 100.540265 
684.000000	 100.550288 
683.000000	 100.553208 
682.000000	 100.551199 
681.000000	 100.552202 
680.000000	 100.560098 
679.000000	 100.571360 
678.000000	 100.582712 
677.000000	 100.592198 
676.000000	 100.598606 
675.000000	 100.602421 
674.000000	 100.607969 
673.000000	 100.622305 
672.000000	 100.651111 
671.000000	 100.697811 
670.000000	 100.766333 
669.000000	 100.846382 
668.000000	 100.880227 
667.000000	 100.835989 
666.000000	 100.768103 
665.000000	 100.720768 
664.000000	 100.696267 
663.000000	 100.691578 
662.000000	 100.700317 
661.000000	 100.712753 
660.000000	 100.723109 
659.000000	 100.731950 
658.000000	 100.738728 
657.000000	 100.738182 
656.000000	 100.731399 
655.000000	 100.728856 
654.000000	 100.736366 
653.000000	 100.748706 
652.000000	 100.759839 
651.000000	 100.767324 
650.000000	 100.767425 

