4000.000000	99.804547 
3999.000000	99.804938 
3998.000000	99.805281 
3997.000000	99.805498 
3996.000000	99.805672 
3995.000000	99.805721 
3994.000000	99.805478 
3993.000000	99.805101 
3992.000000	99.805112 
3991.000000	99.805809 
3990.000000	99.806778 
3989.000000	99.807194 
3988.000000	99.806594 
3987.000000	99.805367 
3986.000000	99.804464 
3985.000000	99.804559 
3984.000000	99.805470 
3983.000000	99.806352 
3982.000000	99.806444 
3981.000000	99.805647 
3980.000000	99.804463 
3979.000000	99.803428 
3978.000000	99.802597 
3977.000000	99.801523 
3976.000000	99.799756 
3975.000000	99.797382 
3974.000000	99.795124 
3973.000000	99.793866 
3972.000000	99.794102 
3971.000000	99.795832 
3970.000000	99.798799 
3969.000000	99.802518 
3968.000000	99.806094 
3967.000000	99.808382 
3966.000000	99.808732 
3965.000000	99.807583 
3964.000000	99.806139 
3963.000000	99.805310 
3962.000000	99.804998 
3961.000000	99.804583 
3960.000000	99.803844 
3959.000000	99.803111 
3958.000000	99.802671 
3957.000000	99.802387 
3956.000000	99.801993 
3955.000000	99.801584 
3954.000000	99.801628 
3953.000000	99.802361 
3952.000000	99.803320 
3951.000000	99.803692 
3950.000000	99.803248 
3949.000000	99.802612 
3948.000000	99.802412 
3947.000000	99.802465 
3946.000000	99.802047 
3945.000000	99.800626 
3944.000000	99.798122 
3943.000000	99.794786 
3942.000000	99.791100 
3941.000000	99.787711 
3940.000000	99.785243 
3939.000000	99.784024 
3938.000000	99.784010 
3937.000000	99.785023 
3936.000000	99.786947 
3935.000000	99.789594 
3934.000000	99.792504 
3933.000000	99.794914 
3932.000000	99.795989 
3931.000000	99.795195 
3930.000000	99.792629 
3929.000000	99.789115 
3928.000000	99.785903 
3927.000000	99.784074 
3926.000000	99.783953 
3925.000000	99.785082 
3924.000000	99.786845 
3923.000000	99.788791 
3922.000000	99.790376 
3921.000000	99.790910 
3920.000000	99.790067 
3919.000000	99.788344 
3918.000000	99.786684 
3917.000000	99.785642 
3916.000000	99.785113 
3915.000000	99.784786 
3914.000000	99.784559 
3913.000000	99.784566 
3912.000000	99.785039 
3911.000000	99.786029 
3910.000000	99.787285 
3909.000000	99.788465 
3908.000000	99.789460 
3907.000000	99.790352 
3906.000000	99.791189 
3905.000000	99.791737 
3904.000000	99.791654 
3903.000000	99.790845 
3902.000000	99.789572 
3901.000000	99.788298 
3900.000000	99.787386 
3899.000000	99.786990 
3898.000000	99.787126 
3897.000000	99.787645 
3896.000000	99.788258 
3895.000000	99.788695 
3894.000000	99.788812 
3893.000000	99.788607 
3892.000000	99.788145 
3891.000000	99.787501 
3890.000000	99.786863 
3889.000000	99.786489 
3888.000000	99.786534 
3887.000000	99.786899 
3886.000000	99.787304 
3885.000000	99.787543 
3884.000000	99.787623 
3883.000000	99.787590 
3882.000000	99.787419 
3881.000000	99.787118 
3880.000000	99.786772 
3879.000000	99.786499 
3878.000000	99.786366 
3877.000000	99.786337 
3876.000000	99.786295 
3875.000000	99.786112 
3874.000000	99.785790 
3873.000000	99.785516 
3872.000000	99.785490 
3871.000000	99.785690 
3870.000000	99.785832 
3869.000000	99.785669 
3868.000000	99.785218 
3867.000000	99.784619 
3866.000000	99.783947 
3865.000000	99.783260 
3864.000000	99.782744 
3863.000000	99.782559 
3862.000000	99.782661 
3861.000000	99.782909 
3860.000000	99.783214 
3859.000000	99.783470 
3858.000000	99.783538 
3857.000000	99.783358 
3856.000000	99.783031 
3855.000000	99.782684 
3854.000000	99.782319 
3853.000000	99.781941 
3852.000000	99.781648 
3851.000000	99.781457 
3850.000000	99.781229 
3849.000000	99.780866 
3848.000000	99.780482 
3847.000000	99.780290 
3846.000000	99.780341 
3845.000000	99.780485 
3844.000000	99.780543 
3843.000000	99.780438 
3842.000000	99.780270 
3841.000000	99.780237 
3840.000000	99.780409 
3839.000000	99.780632 
3838.000000	99.780661 
3837.000000	99.780315 
3836.000000	99.779575 
3835.000000	99.778566 
3834.000000	99.777563 
3833.000000	99.776904 
3832.000000	99.776783 
3831.000000	99.777132 
3830.000000	99.777650 
3829.000000	99.778008 
3828.000000	99.778082 
3827.000000	99.777940 
3826.000000	99.777706 
3825.000000	99.777493 
3824.000000	99.777345 
3823.000000	99.777154 
3822.000000	99.776793 
3821.000000	99.776318 
3820.000000	99.775973 
3819.000000	99.775890 
3818.000000	99.775900 
3817.000000	99.775651 
3816.000000	99.774919 
3815.000000	99.773864 
3814.000000	99.772942 
3813.000000	99.772426 
3812.000000	99.772271 
3811.000000	99.772350 
3810.000000	99.772585 
3809.000000	99.772887 
3808.000000	99.773085 
3807.000000	99.773023 
3806.000000	99.772741 
3805.000000	99.772419 
3804.000000	99.772122 
3803.000000	99.771758 
3802.000000	99.771246 
3801.000000	99.770695 
3800.000000	99.770340 
3799.000000	99.770201 
3798.000000	99.770036 
3797.000000	99.769655 
3796.000000	99.769147 
3795.000000	99.768792 
3794.000000	99.768736 
3793.000000	99.768833 
3792.000000	99.768776 
3791.000000	99.768431 
3790.000000	99.767993 
3789.000000	99.767810 
3788.000000	99.768032 
3787.000000	99.768515 
3786.000000	99.768956 
3785.000000	99.769174 
3784.000000	99.769318 
3783.000000	99.769798 
3782.000000	99.770804 
3781.000000	99.771847 
3780.000000	99.771991 
3779.000000	99.770719 
3778.000000	99.768572 
3777.000000	99.766810 
3776.000000	99.766330 
3775.000000	99.767044 
3774.000000	99.768324 
3773.000000	99.769751 
3772.000000	99.771241 
3771.000000	99.772580 
3770.000000	99.773447 
3769.000000	99.773839 
3768.000000	99.773805 
3767.000000	99.773039 
3766.000000	99.771241 
3765.000000	99.768827 
3764.000000	99.767096 
3763.000000	99.767172 
3762.000000	99.768803 
3761.000000	99.770646 
3760.000000	99.771919 
3759.000000	99.773160 
3758.000000	99.774815 
3757.000000	99.776354 
3756.000000	99.777571 
3755.000000	99.779155 
3754.000000	99.781868 
3753.000000	99.785602 
3752.000000	99.789390 
3751.000000	99.791910 
3750.000000	99.791604 
3749.000000	99.787901 
3748.000000	99.782404 
3747.000000	99.777759 
3746.000000	99.775185 
3745.000000	99.773313 
3744.000000	99.770533 
3743.000000	99.767979 
3742.000000	99.767362 
3741.000000	99.768212 
3740.000000	99.769337 
3739.000000	99.770856 
3738.000000	99.773577 
3737.000000	99.777116 
3736.000000	99.780305 
3735.000000	99.782435 
3734.000000	99.783152 
3733.000000	99.781838 
3732.000000	99.778641 
3731.000000	99.775342 
3730.000000	99.773717 
3729.000000	99.773903 
3728.000000	99.774591 
3727.000000	99.774496 
3726.000000	99.773667 
3725.000000	99.773029 
3724.000000	99.772751 
3723.000000	99.771992 
3722.000000	99.770250 
3721.000000	99.768019 
3720.000000	99.766235 
3719.000000	99.765653 
3718.000000	99.766224 
3717.000000	99.767110 
3716.000000	99.767678 
3715.000000	99.767843 
3714.000000	99.767622 
3713.000000	99.766705 
3712.000000	99.764872 
3711.000000	99.762630 
3710.000000	99.760964 
3709.000000	99.760577 
3708.000000	99.761321 
3707.000000	99.762349 
3706.000000	99.762936 
3705.000000	99.762823 
3704.000000	99.761967 
3703.000000	99.760401 
3702.000000	99.758460 
3701.000000	99.756661 
3700.000000	99.755213 
3699.000000	99.754150 
3698.000000	99.753636 
3697.000000	99.754028 
3696.000000	99.755957 
3695.000000	99.759738 
3694.000000	99.764293 
3693.000000	99.767524 
3692.000000	99.768192 
3691.000000	99.766900 
3690.000000	99.765203 
3689.000000	99.763997 
3688.000000	99.763156 
3687.000000	99.762481 
3686.000000	99.762026 
3685.000000	99.761282 
3684.000000	99.759463 
3683.000000	99.756748 
3682.000000	99.754550 
3681.000000	99.754163 
3680.000000	99.755780 
3679.000000	99.759311 
3678.000000	99.764895 
3677.000000	99.771096 
3676.000000	99.774070 
3675.000000	99.771767 
3674.000000	99.766252 
3673.000000	99.760354 
3672.000000	99.754748 
3671.000000	99.748694 
3670.000000	99.742240 
3669.000000	99.736709 
3668.000000	99.733106 
3667.000000	99.731603 
3666.000000	99.732375 
3665.000000	99.735041 
3664.000000	99.737624 
3663.000000	99.737262 
3662.000000	99.732307 
3661.000000	99.723747 
3660.000000	99.714738 
3659.000000	99.708292 
3658.000000	99.705115 
3657.000000	99.703309 
3656.000000	99.700383 
3655.000000	99.696084 
3654.000000	99.692083 
3653.000000	99.689449 
3652.000000	99.687316 
3651.000000	99.683673 
3650.000000	99.677462 
3649.000000	99.669606 
3648.000000	99.661610 
3647.000000	99.654288 
3646.000000	99.648258 
3645.000000	99.644294 
3644.000000	99.642750 
3643.000000	99.642912 
3642.000000	99.642911 
3641.000000	99.640986 
3640.000000	99.636895 
3639.000000	99.631797 
3638.000000	99.626991 
3637.000000	99.622824 
3636.000000	99.618827 
3635.000000	99.614579 
3634.000000	99.610503 
3633.000000	99.607832 
3632.000000	99.607309 
3631.000000	99.607980 
3630.000000	99.607260 
3629.000000	99.603280 
3628.000000	99.597384 
3627.000000	99.592617 
3626.000000	99.590317 
3625.000000	99.589777 
3624.000000	99.589656 
3623.000000	99.588793 
3622.000000	99.586510 
3621.000000	99.582723 
3620.000000	99.578396 
3619.000000	99.575333 
3618.000000	99.574601 
3617.000000	99.575801 
3616.000000	99.577934 
3615.000000	99.579908 
3614.000000	99.580825 
3613.000000	99.580610 
3612.000000	99.580115 
3611.000000	99.580193 
3610.000000	99.580611 
3609.000000	99.580154 
3608.000000	99.578009 
3607.000000	99.574806 
3606.000000	99.571943 
3605.000000	99.570257 
3604.000000	99.569557 
3603.000000	99.569028 
3602.000000	99.568087 
3601.000000	99.566933 
3600.000000	99.566413 
3599.000000	99.567104 
3598.000000	99.568402 
3597.000000	99.568967 
3596.000000	99.568128 
3595.000000	99.566465 
3594.000000	99.565123 
3593.000000	99.564653 
3592.000000	99.564622 
3591.000000	99.564355 
3590.000000	99.563627 
3589.000000	99.562716 
3588.000000	99.562017 
3587.000000	99.561636 
3586.000000	99.561367 
3585.000000	99.561037 
3584.000000	99.560682 
3583.000000	99.560390 
3582.000000	99.560154 
3581.000000	99.559882 
3580.000000	99.559500 
3579.000000	99.559023 
3578.000000	99.558533 
3577.000000	99.558113 
3576.000000	99.557794 
3575.000000	99.557553 
3574.000000	99.557330 
3573.000000	99.557057 
3572.000000	99.556721 
3571.000000	99.556394 
3570.000000	99.556167 
3569.000000	99.556013 
3568.000000	99.555756 
3567.000000	99.555275 
3566.000000	99.554671 
3565.000000	99.554156 
3564.000000	99.553802 
3563.000000	99.553504 
3562.000000	99.553085 
3561.000000	99.552453 
3560.000000	99.551697 
3559.000000	99.551046 
3558.000000	99.550636 
3557.000000	99.550373 
3556.000000	99.550062 
3555.000000	99.549660 
3554.000000	99.549327 
3553.000000	99.549211 
3552.000000	99.549285 
3551.000000	99.549398 
3550.000000	99.549417 
3549.000000	99.549287 
3548.000000	99.548998 
3547.000000	99.548581 
3546.000000	99.548116 
3545.000000	99.547683 
3544.000000	99.547345 
3543.000000	99.547159 
3542.000000	99.547163 
3541.000000	99.547317 
3540.000000	99.547459 
3539.000000	99.547406 
3538.000000	99.547112 
3537.000000	99.546715 
3536.000000	99.546422 
3535.000000	99.546316 
3534.000000	99.546347 
3533.000000	99.546444 
3532.000000	99.546588 
3531.000000	99.546755 
3530.000000	99.546881 
3529.000000	99.546943 
3528.000000	99.547035 
3527.000000	99.547265 
3526.000000	99.547563 
3525.000000	99.547673 
3524.000000	99.547397 
3523.000000	99.546827 
3522.000000	99.546351 
3521.000000	99.546326 
3520.000000	99.546823 
3519.000000	99.547667 
3518.000000	99.548575 
3517.000000	99.549305 
3516.000000	99.549733 
3515.000000	99.549906 
3514.000000	99.550038 
3513.000000	99.550374 
3512.000000	99.550986 
3511.000000	99.551724 
3510.000000	99.552329 
3509.000000	99.552613 
3508.000000	99.552538 
3507.000000	99.552200 
3506.000000	99.551814 
3505.000000	99.551659 
3504.000000	99.551930 
3503.000000	99.552579 
3502.000000	99.553297 
3501.000000	99.553748 
3500.000000	99.553806 
3499.000000	99.553578 
3498.000000	99.553291 
3497.000000	99.553169 
3496.000000	99.553325 
3495.000000	99.553672 
3494.000000	99.553916 
3493.000000	99.553791 
3492.000000	99.553302 
3491.000000	99.552730 
3490.000000	99.552379 
3489.000000	99.552337 
3488.000000	99.552439 
3487.000000	99.552417 
3486.000000	99.552065 
3485.000000	99.551337 
3484.000000	99.550383 
3483.000000	99.549497 
3482.000000	99.548930 
3481.000000	99.548695 
3480.000000	99.548566 
3479.000000	99.548349 
3478.000000	99.548091 
3477.000000	99.547949 
3476.000000	99.547885 
3475.000000	99.547551 
3474.000000	99.546622 
3473.000000	99.545174 
3472.000000	99.543668 
3471.000000	99.542538 
3470.000000	99.541880 
3469.000000	99.541507 
3468.000000	99.541113 
3467.000000	99.540428 
3466.000000	99.539359 
3465.000000	99.538159 
3464.000000	99.537332 
3463.000000	99.537165 
3462.000000	99.537396 
3461.000000	99.537427 
3460.000000	99.536981 
3459.000000	99.536333 
3458.000000	99.535884 
3457.000000	99.535716 
3456.000000	99.535598 
3455.000000	99.535292 
3454.000000	99.534761 
3453.000000	99.534132 
3452.000000	99.533544 
3451.000000	99.533040 
3450.000000	99.532564 
3449.000000	99.532037 
3448.000000	99.531438 
3447.000000	99.530811 
3446.000000	99.530175 
3445.000000	99.529498 
3444.000000	99.528787 
3443.000000	99.528154 
3442.000000	99.527710 
3441.000000	99.527434 
3440.000000	99.527172 
3439.000000	99.526786 
3438.000000	99.526265 
3437.000000	99.525704 
3436.000000	99.525197 
3435.000000	99.524774 
3434.000000	99.524398 
3433.000000	99.523997 
3432.000000	99.523521 
3431.000000	99.522979 
3430.000000	99.522433 
3429.000000	99.521952 
3428.000000	99.521570 
3427.000000	99.521271 
3426.000000	99.521008 
3425.000000	99.520735 
3424.000000	99.520415 
3423.000000	99.520045 
3422.000000	99.519646 
3421.000000	99.519240 
3420.000000	99.518826 
3419.000000	99.518385 
3418.000000	99.517912 
3417.000000	99.517421 
3416.000000	99.516941 
3415.000000	99.516489 
3414.000000	99.516071 
3413.000000	99.515671 
3412.000000	99.515264 
3411.000000	99.514838 
3410.000000	99.514397 
3409.000000	99.513961 
3408.000000	99.513547 
3407.000000	99.513158 
3406.000000	99.512785 
3405.000000	99.512409 
3404.000000	99.512027 
3403.000000	99.511634 
3402.000000	99.511146 
3401.000000	99.510467 
3400.000000	99.509686 
3399.000000	99.509115 
3398.000000	99.508998 
3397.000000	99.509202 
3396.000000	99.509266 
3395.000000	99.508854 
3394.000000	99.508036 
3393.000000	99.507102 
3392.000000	99.506217 
3391.000000	99.505401 
3390.000000	99.504768 
3389.000000	99.504509 
3388.000000	99.504631 
3387.000000	99.504963 
3386.000000	99.505474 
3385.000000	99.506324 
3384.000000	99.507400 
3383.000000	99.508099 
3382.000000	99.507872 
3381.000000	99.506830 
3380.000000	99.505571 
3379.000000	99.504479 
3378.000000	99.503470 
3377.000000	99.502365 
3376.000000	99.501155 
3375.000000	99.500005 
3374.000000	99.499278 
3373.000000	99.499461 
3372.000000	99.500587 
3371.000000	99.501703 
3370.000000	99.501494 
3369.000000	99.499633 
3368.000000	99.497138 
3367.000000	99.495129 
3366.000000	99.493675 
3365.000000	99.492295 
3364.000000	99.491252 
3363.000000	99.491605 
3362.000000	99.493954 
3361.000000	99.497683 
3360.000000	99.501427 
3359.000000	99.504058 
3358.000000	99.505207 
3357.000000	99.505178 
3356.000000	99.504691 
3355.000000	99.504466 
3354.000000	99.504765 
3353.000000	99.505352 
3352.000000	99.505965 
3351.000000	99.506703 
3350.000000	99.507769 
3349.000000	99.508960 
3348.000000	99.509690 
3347.000000	99.509658 
3346.000000	99.509313 
3345.000000	99.509434 
3344.000000	99.510234 
3343.000000	99.511039 
3342.000000	99.511028 
3341.000000	99.510155 
3340.000000	99.509151 
3339.000000	99.508607 
3338.000000	99.508316 
3337.000000	99.507742 
3336.000000	99.506940 
3335.000000	99.506634 
3334.000000	99.507341 
3333.000000	99.508681 
3332.000000	99.509690 
3331.000000	99.509706 
3330.000000	99.508811 
3329.000000	99.507600 
3328.000000	99.506762 
3327.000000	99.506732 
3326.000000	99.507445 
3325.000000	99.508295 
3324.000000	99.508558 
3323.000000	99.508105 
3322.000000	99.507621 
3321.000000	99.507955 
3320.000000	99.509303 
3319.000000	99.511080 
3318.000000	99.512547 
3317.000000	99.513446 
3316.000000	99.513970 
3315.000000	99.514333 
3314.000000	99.514528 
3313.000000	99.514448 
3312.000000	99.514089 
3311.000000	99.513638 
3310.000000	99.513417 
3309.000000	99.513683 
3308.000000	99.514344 
3307.000000	99.514906 
3306.000000	99.514846 
3305.000000	99.514073 
3304.000000	99.512997 
3303.000000	99.512161 
3302.000000	99.511844 
3301.000000	99.511976 
3300.000000	99.512310 
3299.000000	99.512569 
3298.000000	99.512530 
3297.000000	99.512123 
3296.000000	99.511533 
3295.000000	99.511189 
3294.000000	99.511499 
3293.000000	99.512478 
3292.000000	99.513590 
3291.000000	99.514101 
3290.000000	99.513736 
3289.000000	99.512891 
3288.000000	99.512132 
3287.000000	99.511529 
3286.000000	99.510662 
3285.000000	99.509281 
3284.000000	99.507765 
3283.000000	99.506862 
3282.000000	99.507053 
3281.000000	99.508268 
3280.000000	99.510007 
3279.000000	99.511674 
3278.000000	99.512882 
3277.000000	99.513551 
3276.000000	99.513750 
3275.000000	99.513451 
3274.000000	99.512504 
3273.000000	99.510893 
3272.000000	99.508925 
3271.000000	99.507183 
3270.000000	99.506294 
3269.000000	99.506678 
3268.000000	99.508310 
3267.000000	99.510549 
3266.000000	99.512391 
3265.000000	99.513217 
3264.000000	99.513195 
3263.000000	99.512967 
3262.000000	99.512959 
3261.000000	99.513059 
3260.000000	99.512920 
3259.000000	99.512424 
3258.000000	99.511852 
3257.000000	99.511714 
3256.000000	99.512397 
3255.000000	99.513858 
3254.000000	99.515583 
3253.000000	99.516986 
3252.000000	99.517868 
3251.000000	99.518381 
3250.000000	99.518600 
3249.000000	99.518367 
3248.000000	99.517625 
3247.000000	99.516721 
3246.000000	99.516172 
3245.000000	99.516188 
3244.000000	99.516568 
3243.000000	99.516991 
3242.000000	99.517308 
3241.000000	99.517564 
3240.000000	99.517856 
3239.000000	99.518212 
3238.000000	99.518587 
3237.000000	99.518931 
3236.000000	99.519259 
3235.000000	99.519621 
3234.000000	99.520009 
3233.000000	99.520335 
3232.000000	99.520533 
3231.000000	99.520639 
3230.000000	99.520725 
3229.000000	99.520793 
3228.000000	99.520791 
3227.000000	99.520759 
3226.000000	99.520880 
3225.000000	99.521337 
3224.000000	99.522113 
3223.000000	99.522938 
3222.000000	99.523433 
3221.000000	99.523444 
3220.000000	99.523109 
3219.000000	99.522726 
3218.000000	99.522542 
3217.000000	99.522596 
3216.000000	99.522767 
3215.000000	99.522917 
3214.000000	99.523006 
3213.000000	99.523076 
3212.000000	99.523163 
3211.000000	99.523244 
3210.000000	99.523289 
3209.000000	99.523301 
3208.000000	99.523292 
3207.000000	99.523243 
3206.000000	99.523162 
3205.000000	99.523150 
3204.000000	99.523357 
3203.000000	99.523815 
3202.000000	99.524393 
3201.000000	99.524914 
3200.000000	99.525309 
3199.000000	99.525585 
3198.000000	99.525724 
3197.000000	99.525681 
3196.000000	99.525486 
3195.000000	99.525262 
3194.000000	99.525152 
3193.000000	99.525228 
3192.000000	99.525471 
3191.000000	99.525797 
3190.000000	99.526099 
3189.000000	99.526322 
3188.000000	99.526474 
3187.000000	99.526587 
3186.000000	99.526677 
3185.000000	99.526760 
3184.000000	99.526883 
3183.000000	99.527096 
3182.000000	99.527404 
3181.000000	99.527740 
3180.000000	99.528018 
3179.000000	99.528203 
3178.000000	99.528331 
3177.000000	99.528479 
3176.000000	99.528670 
3175.000000	99.528876 
3174.000000	99.529086 
3173.000000	99.529328 
3172.000000	99.529633 
3171.000000	99.530013 
3170.000000	99.530451 
3169.000000	99.530903 
3168.000000	99.531303 
3167.000000	99.531600 
3166.000000	99.531795 
3165.000000	99.531939 
3164.000000	99.532093 
3163.000000	99.532316 
3162.000000	99.532630 
3161.000000	99.532978 
3160.000000	99.533260 
3159.000000	99.533475 
3158.000000	99.533772 
3157.000000	99.534273 
3156.000000	99.534854 
3155.000000	99.535200 
3154.000000	99.535138 
3153.000000	99.534880 
3152.000000	99.534863 
3151.000000	99.535294 
3150.000000	99.535921 
3149.000000	99.536272 
3148.000000	99.536175 
3147.000000	99.535961 
3146.000000	99.536109 
3145.000000	99.536762 
3144.000000	99.537760 
3143.000000	99.539075 
3142.000000	99.540887 
3141.000000	99.543097 
3140.000000	99.545009 
3139.000000	99.545896 
3138.000000	99.545694 
3137.000000	99.544947 
3136.000000	99.544276 
3135.000000	99.543996 
3134.000000	99.544221 
3133.000000	99.544865 
3132.000000	99.545463 
3131.000000	99.545441 
3130.000000	99.544769 
3129.000000	99.544135 
3128.000000	99.544260 
3127.000000	99.545214 
3126.000000	99.546526 
3125.000000	99.547742 
3124.000000	99.548685 
3123.000000	99.549323 
3122.000000	99.549617 
3121.000000	99.549544 
3120.000000	99.549112 
3119.000000	99.548375 
3118.000000	99.547547 
3117.000000	99.547050 
3116.000000	99.547287 
3115.000000	99.548340 
3114.000000	99.549911 
3113.000000	99.551556 
3112.000000	99.552953 
3111.000000	99.554030 
3110.000000	99.554895 
3109.000000	99.555631 
3108.000000	99.556123 
3107.000000	99.556139 
3106.000000	99.555625 
3105.000000	99.554855 
3104.000000	99.554166 
3103.000000	99.553603 
3102.000000	99.552938 
3101.000000	99.552059 
3100.000000	99.551227 
3099.000000	99.550845 
3098.000000	99.551015 
3097.000000	99.551460 
3096.000000	99.551900 
3095.000000	99.552446 
3094.000000	99.553451 
3093.000000	99.554986 
3092.000000	99.556567 
3091.000000	99.557500 
3090.000000	99.557437 
3089.000000	99.556528 
3088.000000	99.555255 
3087.000000	99.554245 
3086.000000	99.554027 
3085.000000	99.554709 
3084.000000	99.555795 
3083.000000	99.556518 
3082.000000	99.556555 
3081.000000	99.556287 
3080.000000	99.556309 
3079.000000	99.556882 
3078.000000	99.557872 
3077.000000	99.558937 
3076.000000	99.559672 
3075.000000	99.559812 
3074.000000	99.559512 
3073.000000	99.559247 
3072.000000	99.559192 
3071.000000	99.558905 
3070.000000	99.557938 
3069.000000	99.556582 
3068.000000	99.555592 
3067.000000	99.555278 
3066.000000	99.555385 
3065.000000	99.555854 
3064.000000	99.557064 
3063.000000	99.559003 
3062.000000	99.560721 
3061.000000	99.561193 
3060.000000	99.560546 
3059.000000	99.559994 
3058.000000	99.560562 
3057.000000	99.562178 
3056.000000	99.563999 
3055.000000	99.565282 
3054.000000	99.565872 
3053.000000	99.566090 
3052.000000	99.566392 
3051.000000	99.567064 
3050.000000	99.568043 
3049.000000	99.569000 
3048.000000	99.569613 
3047.000000	99.569820 
3046.000000	99.569925 
3045.000000	99.570575 
3044.000000	99.572532 
3043.000000	99.576130 
3042.000000	99.580665 
3041.000000	99.584429 
3040.000000	99.585732 
3039.000000	99.584260 
3038.000000	99.581575 
3037.000000	99.580009 
3036.000000	99.580768 
3035.000000	99.583305 
3034.000000	99.586426 
3033.000000	99.589722 
3032.000000	99.593554 
3031.000000	99.597907 
3030.000000	99.601971 
3029.000000	99.605051 
3028.000000	99.607360 
3027.000000	99.609575 
3026.000000	99.611930 
3025.000000	99.614224 
3024.000000	99.616569 
3023.000000	99.619564 
3022.000000	99.623531 
3021.000000	99.627905 
3020.000000	99.631653 
3019.000000	99.634193 
3018.000000	99.635734 
3017.000000	99.636941 
3016.000000	99.638629 
3015.000000	99.641727 
3014.000000	99.646985 
3013.000000	99.654276 
3012.000000	99.662272 
3011.000000	99.669206 
3010.000000	99.674183 
3009.000000	99.677517 
3008.000000	99.679864 
3007.000000	99.681549 
3006.000000	99.683031 
3005.000000	99.685544 
3004.000000	99.690408 
3003.000000	99.697453 
3002.000000	99.704674 
3001.000000	99.709972 
3000.000000	99.713198 
2999.000000	99.716171 
2998.000000	99.720642 
2997.000000	99.726453 
2996.000000	99.731816 
2995.000000	99.735301 
2994.000000	99.737425 
2993.000000	99.740348 
2992.000000	99.746041 
2991.000000	99.754592 
2990.000000	99.764035 
2989.000000	99.771675 
2988.000000	99.775678 
2987.000000	99.775626 
2986.000000	99.772127 
2985.000000	99.766452 
2984.000000	99.760556 
2983.000000	99.756846 
2982.000000	99.756982 
2981.000000	99.760456 
2980.000000	99.764672 
2979.000000	99.767192 
2978.000000	99.768002 
2977.000000	99.769095 
2976.000000	99.771790 
2975.000000	99.775117 
2974.000000	99.777338 
2973.000000	99.778392 
2972.000000	99.779937 
2971.000000	99.782896 
2970.000000	99.785788 
2969.000000	99.786114 
2968.000000	99.783099 
2967.000000	99.778739 
2966.000000	99.776147 
2965.000000	99.776951 
2964.000000	99.780211 
2963.000000	99.783429 
2962.000000	99.784467 
2961.000000	99.782767 
2960.000000	99.779277 
2959.000000	99.775618 
2958.000000	99.773158 
2957.000000	99.772359 
2956.000000	99.772582 
2955.000000	99.772552 
2954.000000	99.771296 
2953.000000	99.768781 
2952.000000	99.765680 
2951.000000	99.762594 
2950.000000	99.759627 
2949.000000	99.756816 
2948.000000	99.754800 
2947.000000	99.754753 
2946.000000	99.757264 
2945.000000	99.761211 
2944.000000	99.764208 
2943.000000	99.764593 
2942.000000	99.762841 
2941.000000	99.760815 
2940.000000	99.760037 
2939.000000	99.761028 
2938.000000	99.763796 
2937.000000	99.768029 
2936.000000	99.772863 
2935.000000	99.777480 
2934.000000	99.782151 
2933.000000	99.787709 
2932.000000	99.793695 
2931.000000	99.798006 
2930.000000	99.799095 
2929.000000	99.797770 
2928.000000	99.796359 
2927.000000	99.796656 
2926.000000	99.799131 
2925.000000	99.803203 
2924.000000	99.807363 
2923.000000	99.809807 
2922.000000	99.810053 
2921.000000	99.809407 
2920.000000	99.808838 
2919.000000	99.807137 
2918.000000	99.802499 
2917.000000	99.795464 
2916.000000	99.788959 
2915.000000	99.785477 
2914.000000	99.785227 
2913.000000	99.786964 
2912.000000	99.789279 
2911.000000	99.790979 
2910.000000	99.791473 
2909.000000	99.791258 
2908.000000	99.791281 
2907.000000	99.791549 
2906.000000	99.791254 
2905.000000	99.790508 
2904.000000	99.790851 
2903.000000	99.793364 
2902.000000	99.797016 
2901.000000	99.799524 
2900.000000	99.799527 
2899.000000	99.797098 
2898.000000	99.792898 
2897.000000	99.787715 
2896.000000	99.782570 
2895.000000	99.778358 
2894.000000	99.775188 
2893.000000	99.772461 
2892.000000	99.769709 
2891.000000	99.767133 
2890.000000	99.765349 
2889.000000	99.764754 
2888.000000	99.765035 
2887.000000	99.765135 
2886.000000	99.763897 
2885.000000	99.761019 
2884.000000	99.757308 
2883.000000	99.753837 
2882.000000	99.750928 
2881.000000	99.748213 
2880.000000	99.745591 
2879.000000	99.743694 
2878.000000	99.743149 
2877.000000	99.743541 
2876.000000	99.743433 
2875.000000	99.741750 
2874.000000	99.739128 
2873.000000	99.737493 
2872.000000	99.737951 
2871.000000	99.739249 
2870.000000	99.738809 
2869.000000	99.735333 
2868.000000	99.729952 
2867.000000	99.724989 
2866.000000	99.721809 
2865.000000	99.720160 
2864.000000	99.719094 
2863.000000	99.717999 
2862.000000	99.716868 
2861.000000	99.716025 
2860.000000	99.715833 
2859.000000	99.716570 
2858.000000	99.718372 
2857.000000	99.721010 
2856.000000	99.723545 
2855.000000	99.724526 
2854.000000	99.722978 
2853.000000	99.719205 
2852.000000	99.714256 
2851.000000	99.708641 
2850.000000	99.702133 
2849.000000	99.694921 
2848.000000	99.688200 
2847.000000	99.683233 
2846.000000	99.680299 
2845.000000	99.678905 
2844.000000	99.678524 
2843.000000	99.678677 
2842.000000	99.678634 
2841.000000	99.677558 
2840.000000	99.674931 
2839.000000	99.670789 
2838.000000	99.665912 
2837.000000	99.661771 
2836.000000	99.659588 
2835.000000	99.659072 
2834.000000	99.658682 
2833.000000	99.657558 
2832.000000	99.656483 
2831.000000	99.656274 
2830.000000	99.656161 
2829.000000	99.654885 
2828.000000	99.652832 
2827.000000	99.651626 
2826.000000	99.651627 
2825.000000	99.651231 
2824.000000	99.649079 
2823.000000	99.645859 
2822.000000	99.643344 
2821.000000	99.642457 
2820.000000	99.642835 
2819.000000	99.643649 
2818.000000	99.644243 
2817.000000	99.644243 
2816.000000	99.643622 
2815.000000	99.642679 
2814.000000	99.641780 
2813.000000	99.641160 
2812.000000	99.640976 
2811.000000	99.641256 
2810.000000	99.641732 
2809.000000	99.642060 
2808.000000	99.642256 
2807.000000	99.642620 
2806.000000	99.643138 
2805.000000	99.643293 
2804.000000	99.642706 
2803.000000	99.641717 
2802.000000	99.641049 
2801.000000	99.641019 
2800.000000	99.641314 
2799.000000	99.641410 
2798.000000	99.641084 
2797.000000	99.640517 
2796.000000	99.640077 
2795.000000	99.640009 
2794.000000	99.640289 
2793.000000	99.640690 
2792.000000	99.640974 
2791.000000	99.641027 
2790.000000	99.640877 
2789.000000	99.640645 
2788.000000	99.640468 
2787.000000	99.640430 
2786.000000	99.640542 
2785.000000	99.640787 
2784.000000	99.641149 
2783.000000	99.641556 
2782.000000	99.641842 
2781.000000	99.641839 
2780.000000	99.641548 
2779.000000	99.641211 
2778.000000	99.641151 
2777.000000	99.641513 
2776.000000	99.642158 
2775.000000	99.642742 
2774.000000	99.643036 
2773.000000	99.643142 
2772.000000	99.643386 
2771.000000	99.643945 
2770.000000	99.644620 
2769.000000	99.645039 
2768.000000	99.645053 
2767.000000	99.644829 
2766.000000	99.644563 
2765.000000	99.644224 
2764.000000	99.643704 
2763.000000	99.643137 
2762.000000	99.642895 
2761.000000	99.643209 
2760.000000	99.643879 
2759.000000	99.644428 
2758.000000	99.644564 
2757.000000	99.644468 
2756.000000	99.644644 
2755.000000	99.645424 
2754.000000	99.646637 
2753.000000	99.647763 
2752.000000	99.648428 
2751.000000	99.648699 
2750.000000	99.648862 
2749.000000	99.649047 
2748.000000	99.649199 
2747.000000	99.649383 
2746.000000	99.649851 
2745.000000	99.650711 
2744.000000	99.651698 
2743.000000	99.652430 
2742.000000	99.652768 
2741.000000	99.652768 
2740.000000	99.652464 
2739.000000	99.651949 
2738.000000	99.651590 
2737.000000	99.651824 
2736.000000	99.652649 
2735.000000	99.653494 
2734.000000	99.653717 
2733.000000	99.653178 
2732.000000	99.652246 
2731.000000	99.651482 
2730.000000	99.651309 
2729.000000	99.651843 
2728.000000	99.652839 
2727.000000	99.653805 
2726.000000	99.654402 
2725.000000	99.654690 
2724.000000	99.654878 
2723.000000	99.654930 
2722.000000	99.654636 
2721.000000	99.654038 
2720.000000	99.653498 
2719.000000	99.653253 
2718.000000	99.653135 
2717.000000	99.652914 
2716.000000	99.652675 
2715.000000	99.652610 
2714.000000	99.652552 
2713.000000	99.652055 
2712.000000	99.651003 
2711.000000	99.649879 
2710.000000	99.649289 
2709.000000	99.649421 
2708.000000	99.650137 
2707.000000	99.651330 
2706.000000	99.652826 
2705.000000	99.654059 
2704.000000	99.654333 
2703.000000	99.653578 
2702.000000	99.652587 
2701.000000	99.652229 
2700.000000	99.652553 
2699.000000	99.652984 
2698.000000	99.653196 
2697.000000	99.653384 
2696.000000	99.653763 
2695.000000	99.654233 
2694.000000	99.654636 
2693.000000	99.654926 
2692.000000	99.654941 
2691.000000	99.654469 
2690.000000	99.653765 
2689.000000	99.653521 
2688.000000	99.653970 
2687.000000	99.654440 
2686.000000	99.654243 
2685.000000	99.653709 
2684.000000	99.653764 
2683.000000	99.654554 
2682.000000	99.655075 
2681.000000	99.654360 
2680.000000	99.652497 
2679.000000	99.650365 
2678.000000	99.648677 
2677.000000	99.647543 
2676.000000	99.646793 
2675.000000	99.646359 
2674.000000	99.646320 
2673.000000	99.646712 
2672.000000	99.647326 
2671.000000	99.647718 
2670.000000	99.647548 
2669.000000	99.646924 
2668.000000	99.646308 
2667.000000	99.645989 
2666.000000	99.645813 
2665.000000	99.645484 
2664.000000	99.644920 
2663.000000	99.644107 
2662.000000	99.642764 
2661.000000	99.640540 
2660.000000	99.637656 
2659.000000	99.635099 
2658.000000	99.633832 
2657.000000	99.633832 
2656.000000	99.634050 
2655.000000	99.633438 
2654.000000	99.632017 
2653.000000	99.630746 
2652.000000	99.630444 
2651.000000	99.631051 
2650.000000	99.631791 
2649.000000	99.631799 
2648.000000	99.630613 
2647.000000	99.628400 
2646.000000	99.626054 
2645.000000	99.624745 
2644.000000	99.625029 
2643.000000	99.626438 
2642.000000	99.627889 
2641.000000	99.628619 
2640.000000	99.628598 
2639.000000	99.628257 
2638.000000	99.628097 
2637.000000	99.628371 
2636.000000	99.628915 
2635.000000	99.629303 
2634.000000	99.629364 
2633.000000	99.629397 
2632.000000	99.629702 
2631.000000	99.630084 
2630.000000	99.630117 
2629.000000	99.629735 
2628.000000	99.629234 
2627.000000	99.628813 
2626.000000	99.628473 
2625.000000	99.628310 
2624.000000	99.628554 
2623.000000	99.629269 
2622.000000	99.630279 
2621.000000	99.631388 
2620.000000	99.632468 
2619.000000	99.633381 
2618.000000	99.634059 
2617.000000	99.634655 
2616.000000	99.635353 
2615.000000	99.636054 
2614.000000	99.636500 
2613.000000	99.636682 
2612.000000	99.636904 
2611.000000	99.637424 
2610.000000	99.638200 
2609.000000	99.639025 
2608.000000	99.639724 
2607.000000	99.640222 
2606.000000	99.640554 
2605.000000	99.640897 
2604.000000	99.641437 
2603.000000	99.642152 
2602.000000	99.642864 
2601.000000	99.643446 
2600.000000	99.643955 
2599.000000	99.644530 
2598.000000	99.645250 
2597.000000	99.646095 
2596.000000	99.647016 
2595.000000	99.647963 
2594.000000	99.648857 
2593.000000	99.649616 
2592.000000	99.650218 
2591.000000	99.650715 
2590.000000	99.651216 
2589.000000	99.651819 
2588.000000	99.652550 
2587.000000	99.653356 
2586.000000	99.654138 
2585.000000	99.654840 
2584.000000	99.655476 
2583.000000	99.656078 
2582.000000	99.656656 
2581.000000	99.657214 
2580.000000	99.657783 
2579.000000	99.658407 
2578.000000	99.659116 
2577.000000	99.659918 
2576.000000	99.660775 
2575.000000	99.661598 
2574.000000	99.662311 
2573.000000	99.662958 
2572.000000	99.663659 
2571.000000	99.664391 
2570.000000	99.664942 
2569.000000	99.665215 
2568.000000	99.665403 
2567.000000	99.665771 
2566.000000	99.666323 
2565.000000	99.666854 
2564.000000	99.667231 
2563.000000	99.667531 
2562.000000	99.667902 
2561.000000	99.668458 
2560.000000	99.669250 
2559.000000	99.670161 
2558.000000	99.670873 
2557.000000	99.671191 
2556.000000	99.671291 
2555.000000	99.671423 
2554.000000	99.671474 
2553.000000	99.671266 
2552.000000	99.671078 
2551.000000	99.671318 
2550.000000	99.671772 
2549.000000	99.671819 
2548.000000	99.671436 
2547.000000	99.671293 
2546.000000	99.671682 
2545.000000	99.672052 
2544.000000	99.671936 
2543.000000	99.671769 
2542.000000	99.672349 
2541.000000	99.673889 
2540.000000	99.675882 
2539.000000	99.677520 
2538.000000	99.678069 
2537.000000	99.677228 
2536.000000	99.675600 
2535.000000	99.674461 
2534.000000	99.674545 
2533.000000	99.675351 
2532.000000	99.675883 
2531.000000	99.675633 
2530.000000	99.674680 
2529.000000	99.673282 
2528.000000	99.671783 
2527.000000	99.670559 
2526.000000	99.669632 
2525.000000	99.668657 
2524.000000	99.667597 
2523.000000	99.666999 
2522.000000	99.667306 
2521.000000	99.668264 
2520.000000	99.669284 
2519.000000	99.670057 
2518.000000	99.670551 
2517.000000	99.670798 
2516.000000	99.671064 
2515.000000	99.671937 
2514.000000	99.673824 
2513.000000	99.676340 
2512.000000	99.678379 
2511.000000	99.678883 
2510.000000	99.677611 
2509.000000	99.675401 
2508.000000	99.673631 
2507.000000	99.673024 
2506.000000	99.673048 
2505.000000	99.672678 
2504.000000	99.671691 
2503.000000	99.670871 
2502.000000	99.670948 
2501.000000	99.671824 
2500.000000	99.672889 
2499.000000	99.673755 
2498.000000	99.674490 
2497.000000	99.675390 
2496.000000	99.676584 
2495.000000	99.677707 
2494.000000	99.678173 
2493.000000	99.678185 
2492.000000	99.679145 
2491.000000	99.682340 
2490.000000	99.687240 
2489.000000	99.691476 
2488.000000	99.693136 
2487.000000	99.692484 
2486.000000	99.691360 
2485.000000	99.691107 
2484.000000	99.691406 
2483.000000	99.691271 
2482.000000	99.690435 
2481.000000	99.689568 
2480.000000	99.689450 
2479.000000	99.690203 
2478.000000	99.691357 
2477.000000	99.692458 
2476.000000	99.693473 
2475.000000	99.694629 
2474.000000	99.696048 
2473.000000	99.697637 
2472.000000	99.699122 
2471.000000	99.700091 
2470.000000	99.700221 
2469.000000	99.699697 
2468.000000	99.699230 
2467.000000	99.699387 
2466.000000	99.699980 
2465.000000	99.700441 
2464.000000	99.700623 
2463.000000	99.700932 
2462.000000	99.701688 
2461.000000	99.702696 
2460.000000	99.703470 
2459.000000	99.703646 
2458.000000	99.703193 
2457.000000	99.702478 
2456.000000	99.702137 
2455.000000	99.702571 
2454.000000	99.703516 
2453.000000	99.704277 
2452.000000	99.704493 
2451.000000	99.704495 
2450.000000	99.704885 
2449.000000	99.706029 
2448.000000	99.707964 
2447.000000	99.710354 
2446.000000	99.712453 
2445.000000	99.713478 
2444.000000	99.713331 
2443.000000	99.712707 
2442.000000	99.712462 
2441.000000	99.712809 
2440.000000	99.713355 
2439.000000	99.713702 
2438.000000	99.713760 
2437.000000	99.713555 
2436.000000	99.713106 
2435.000000	99.712564 
2434.000000	99.712274 
2433.000000	99.712573 
2432.000000	99.713585 
2431.000000	99.715155 
2430.000000	99.716843 
2429.000000	99.718084 
2428.000000	99.718585 
2427.000000	99.718637 
2426.000000	99.718896 
2425.000000	99.719728 
2424.000000	99.720890 
2423.000000	99.721914 
2422.000000	99.722650 
2421.000000	99.723243 
2420.000000	99.723688 
2419.000000	99.723728 
2418.000000	99.723352 
2417.000000	99.723181 
2416.000000	99.723993 
2415.000000	99.725792 
2414.000000	99.727641 
2413.000000	99.728617 
2412.000000	99.728788 
2411.000000	99.729011 
2410.000000	99.729882 
2409.000000	99.731198 
2408.000000	99.732354 
2407.000000	99.732853 
2406.000000	99.732363 
2405.000000	99.730756 
2404.000000	99.728425 
2403.000000	99.726315 
2402.000000	99.725274 
2401.000000	99.725337 
2400.000000	99.725935 
2399.000000	99.726828 
2398.000000	99.728349 
2397.000000	99.730755 
2396.000000	99.733609 
2395.000000	99.735945 
2394.000000	99.737137 
2393.000000	99.737416 
2392.000000	99.737484 
2391.000000	99.737739 
2390.000000	99.738017 
2389.000000	99.737977 
2388.000000	99.737496 
2387.000000	99.736749 
2386.000000	99.736182 
2385.000000	99.736381 
2384.000000	99.737635 
2383.000000	99.739497 
2382.000000	99.741045 
2381.000000	99.741884 
2380.000000	99.742472 
2379.000000	99.743321 
2378.000000	99.744138 
2377.000000	99.744211 
2376.000000	99.743486 
2375.000000	99.742792 
2374.000000	99.742931 
2373.000000	99.743805 
2372.000000	99.744595 
2371.000000	99.744571 
2370.000000	99.743673 
2369.000000	99.742425 
2368.000000	99.741421 
2367.000000	99.740861 
2366.000000	99.740547 
2365.000000	99.740280 
2364.000000	99.740037 
2363.000000	99.739741 
2362.000000	99.739193 
2361.000000	99.738381 
2360.000000	99.737653 
2359.000000	99.737363 
2358.000000	99.737391 
2357.000000	99.737238 
2356.000000	99.736570 
2355.000000	99.735456 
2354.000000	99.734192 
2353.000000	99.732990 
2352.000000	99.731946 
2351.000000	99.731027 
2350.000000	99.730075 
2349.000000	99.728939 
2348.000000	99.727579 
2347.000000	99.726119 
2346.000000	99.724754 
2345.000000	99.723666 
2344.000000	99.722964 
2343.000000	99.722584 
2342.000000	99.722260 
2341.000000	99.721595 
2340.000000	99.720435 
2339.000000	99.719006 
2338.000000	99.717696 
2337.000000	99.716638 
2336.000000	99.715637 
2335.000000	99.714500 
2334.000000	99.713289 
2333.000000	99.712243 
2332.000000	99.711506 
2331.000000	99.710984 
2330.000000	99.710313 
2329.000000	99.709106 
2328.000000	99.707030 
2327.000000	99.704076 
2326.000000	99.700731 
2325.000000	99.697976 
2324.000000	99.696666 
2323.000000	99.696858 
2322.000000	99.697609 
2321.000000	99.697749 
2320.000000	99.697028 
2319.000000	99.696018 
2318.000000	99.695190 
2317.000000	99.694400 
2316.000000	99.693275 
2315.000000	99.691901 
2314.000000	99.690611 
2313.000000	99.689807 
2312.000000	99.689720 
2311.000000	99.690564 
2310.000000	99.692015 
2309.000000	99.693272 
2308.000000	99.693525 
2307.000000	99.692840 
2306.000000	99.691881 
2305.000000	99.691229 
2304.000000	99.690705 
2303.000000	99.689669 
2302.000000	99.687601 
2301.000000	99.684800 
2300.000000	99.682256 
2299.000000	99.680945 
2298.000000	99.680958 
2297.000000	99.681876 
2296.000000	99.683330 
2295.000000	99.685004 
2294.000000	99.685784 
2293.000000	99.684194 
2292.000000	99.679757 
2291.000000	99.673629 
2290.000000	99.667441 
2289.000000	99.662198 
2288.000000	99.658479 
2287.000000	99.656855 
2286.000000	99.657421 
2285.000000	99.659555 
2284.000000	99.662873 
2283.000000	99.667808 
2282.000000	99.674496 
2281.000000	99.681420 
2280.000000	99.686060 
2279.000000	99.686780 
2278.000000	99.683942 
2277.000000	99.679867 
2276.000000	99.677691 
2275.000000	99.679134 
2274.000000	99.682836 
2273.000000	99.685568 
2272.000000	99.685855 
2271.000000	99.685746 
2270.000000	99.688213 
2269.000000	99.693403 
2268.000000	99.698402 
2267.000000	99.700371 
2266.000000	99.698851 
2265.000000	99.695414 
2264.000000	99.692060 
2263.000000	99.689800 
2262.000000	99.687990 
2261.000000	99.684996 
2260.000000	99.680217 
2259.000000	99.675493 
2258.000000	99.673683 
2257.000000	99.675729 
2256.000000	99.679795 
2255.000000	99.683234 
2254.000000	99.685046 
2253.000000	99.686111 
2252.000000	99.687675 
2251.000000	99.690212 
2250.000000	99.693393 
2249.000000	99.696667 
2248.000000	99.699627 
2247.000000	99.701795 
2246.000000	99.702402 
2245.000000	99.700891 
2244.000000	99.697744 
2243.000000	99.694522 
2242.000000	99.692751 
2241.000000	99.692833 
2240.000000	99.694202 
2239.000000	99.696075 
2238.000000	99.697731 
2237.000000	99.698395 
2236.000000	99.697670 
2235.000000	99.696300 
2234.000000	99.695865 
2233.000000	99.697315 
2232.000000	99.700174 
2231.000000	99.703203 
2230.000000	99.705491 
2229.000000	99.706588 
2228.000000	99.706089 
2227.000000	99.703682 
2226.000000	99.699716 
2225.000000	99.695450 
2224.000000	99.692567 
2223.000000	99.692127 
2222.000000	99.693843 
2221.000000	99.696060 
2220.000000	99.696894 
2219.000000	99.695895 
2218.000000	99.694361 
2217.000000	99.693907 
2216.000000	99.694959 
2215.000000	99.696934 
2214.000000	99.699235 
2213.000000	99.701377 
2212.000000	99.702470 
2211.000000	99.701718 
2210.000000	99.699815 
2209.000000	99.698943 
2208.000000	99.700524 
2207.000000	99.703523 
2206.000000	99.705770 
2205.000000	99.706809 
2204.000000	99.708290 
2203.000000	99.711447 
2202.000000	99.715050 
2201.000000	99.716672 
2200.000000	99.715256 
2199.000000	99.711702 
2198.000000	99.707701 
2197.000000	99.704613 
2196.000000	99.703304 
2195.000000	99.703782 
2194.000000	99.704504 
2193.000000	99.703011 
2192.000000	99.698166 
2191.000000	99.691751 
2190.000000	99.687316 
2189.000000	99.686899 
2188.000000	99.689152 
2187.000000	99.691097 
2186.000000	99.691925 
2185.000000	99.693982 
2184.000000	99.699149 
2183.000000	99.705300 
2182.000000	99.708120 
2181.000000	99.706526 
2180.000000	99.704187 
2179.000000	99.704714 
2178.000000	99.707361 
2177.000000	99.709267 
2176.000000	99.710247 
2175.000000	99.712787 
2174.000000	99.717749 
2173.000000	99.722787 
2172.000000	99.725442 
2171.000000	99.725599 
2170.000000	99.724271 
2169.000000	99.722028 
2168.000000	99.719576 
2167.000000	99.718165 
2166.000000	99.717871 
2165.000000	99.716404 
2164.000000	99.711261 
2163.000000	99.703053 
2162.000000	99.696035 
2161.000000	99.695510 
2160.000000	99.704767 
2159.000000	99.723070 
2158.000000	99.744774 
2157.000000	99.762134 
2156.000000	99.771161 
2155.000000	99.773122 
2154.000000	99.771195 
2153.000000	99.767240 
2152.000000	99.762081 
2151.000000	99.757337 
2150.000000	99.754948 
2149.000000	99.755127 
2148.000000	99.756473 
2147.000000	99.758404 
2146.000000	99.762116 
2145.000000	99.768615 
2144.000000	99.776896 
2143.000000	99.784654 
2142.000000	99.789929 
2141.000000	99.791562 
2140.000000	99.789211 
2139.000000	99.784112 
2138.000000	99.779313 
2137.000000	99.777530 
2136.000000	99.778486 
2135.000000	99.779339 
2134.000000	99.778091 
2133.000000	99.775932 
2132.000000	99.775855 
2131.000000	99.779436 
2130.000000	99.785224 
2129.000000	99.789656 
2128.000000	99.789562 
2127.000000	99.784506 
2126.000000	99.777275 
2125.000000	99.771567 
2124.000000	99.768482 
2123.000000	99.766019 
2122.000000	99.762429 
2121.000000	99.758890 
2120.000000	99.757566 
2119.000000	99.757935 
2118.000000	99.756979 
2117.000000	99.753038 
2116.000000	99.747730 
2115.000000	99.743321 
2114.000000	99.740194 
2113.000000	99.737969 
2112.000000	99.737377 
2111.000000	99.739349 
2110.000000	99.743020 
2109.000000	99.746290 
2108.000000	99.748209 
2107.000000	99.749320 
2106.000000	99.749661 
2105.000000	99.747953 
2104.000000	99.743278 
2103.000000	99.736738 
2102.000000	99.730843 
2101.000000	99.727383 
2100.000000	99.726281 
2099.000000	99.726501 
2098.000000	99.727788 
2097.000000	99.731049 
2096.000000	99.736756 
2095.000000	99.743200 
2094.000000	99.747204 
2093.000000	99.746971 
2092.000000	99.743179 
2091.000000	99.737825 
2090.000000	99.732669 
2089.000000	99.728486 
2088.000000	99.725279 
2087.000000	99.722622 
2086.000000	99.720268 
2085.000000	99.718841 
2084.000000	99.719367 
2083.000000	99.721735 
2082.000000	99.724188 
2081.000000	99.724954 
2080.000000	99.724033 
2079.000000	99.722802 
2078.000000	99.722355 
2077.000000	99.722883 
2076.000000	99.724127 
2075.000000	99.725442 
2074.000000	99.725707 
2073.000000	99.724256 
2072.000000	99.722006 
2071.000000	99.720818 
2070.000000	99.721537 
2069.000000	99.723238 
2068.000000	99.724390 
2067.000000	99.724165 
2066.000000	99.722617 
2065.000000	99.720547 
2064.000000	99.719282 
2063.000000	99.719639 
2062.000000	99.720868 
2061.000000	99.721361 
2060.000000	99.720748 
2059.000000	99.720611 
2058.000000	99.722810 
2057.000000	99.727699 
2056.000000	99.734069 
2055.000000	99.739924 
2054.000000	99.742919 
2053.000000	99.740976 
2052.000000	99.733430 
2051.000000	99.721857 
2050.000000	99.710040 
2049.000000	99.702330 
2048.000000	99.701269 
2047.000000	99.706376 
2046.000000	99.714741 
2045.000000	99.723162 
2044.000000	99.730104 
2043.000000	99.735402 
2042.000000	99.738894 
2041.000000	99.740199 
2040.000000	99.739591 
2039.000000	99.738283 
2038.000000	99.737782 
2037.000000	99.739301 
2036.000000	99.743258 
2035.000000	99.748604 
2034.000000	99.753089 
2033.000000	99.755266 
2032.000000	99.755877 
2031.000000	99.756162 
2030.000000	99.755513 
2029.000000	99.752742 
2028.000000	99.749214 
2027.000000	99.748195 
2026.000000	99.750419 
2025.000000	99.752451 
2024.000000	99.750928 
2023.000000	99.747045 
2022.000000	99.745111 
2021.000000	99.747289 
2020.000000	99.751340 
2019.000000	99.753492 
2018.000000	99.752326 
2017.000000	99.749490 
2016.000000	99.747562 
2015.000000	99.747907 
2014.000000	99.750452 
2013.000000	99.754130 
2012.000000	99.756782 
2011.000000	99.755902 
2010.000000	99.751136 
2009.000000	99.745796 
2008.000000	99.743552 
2007.000000	99.743316 
2006.000000	99.740500 
2005.000000	99.733977 
2004.000000	99.728466 
2003.000000	99.728098 
2002.000000	99.730511 
2001.000000	99.729844 
2000.000000	99.724489 
1999.000000	99.718384 
1998.000000	99.714912 
1997.000000	99.713149 
1996.000000	99.710961 
1995.000000	99.708255 
1994.000000	99.705208 
1993.000000	99.700311 
1992.000000	99.693186 
1991.000000	99.687552 
1990.000000	99.687787 
1989.000000	99.693593 
1988.000000	99.700044 
1987.000000	99.702895 
1986.000000	99.702807 
1985.000000	99.703538 
1984.000000	99.706923 
1983.000000	99.710485 
1982.000000	99.710355 
1981.000000	99.706140 
1980.000000	99.701745 
1979.000000	99.700871 
1978.000000	99.703111 
1977.000000	99.705915 
1976.000000	99.708986 
1975.000000	99.713844 
1974.000000	99.719974 
1973.000000	99.724672 
1972.000000	99.726673 
1971.000000	99.727320 
1970.000000	99.727798 
1969.000000	99.727451 
1968.000000	99.725716 
1967.000000	99.724000 
1966.000000	99.724249 
1965.000000	99.726579 
1964.000000	99.729418 
1963.000000	99.731439 
1962.000000	99.732637 
1961.000000	99.733741 
1960.000000	99.735078 
1959.000000	99.736195 
1958.000000	99.736556 
1957.000000	99.736453 
1956.000000	99.736823 
1955.000000	99.738109 
1954.000000	99.739773 
1953.000000	99.741001 
1952.000000	99.741649 
1951.000000	99.742144 
1950.000000	99.742851 
1949.000000	99.743743 
1948.000000	99.744631 
1947.000000	99.745421 
1946.000000	99.746106 
1945.000000	99.746707 
1944.000000	99.747239 
1943.000000	99.747706 
1942.000000	99.748101 
1941.000000	99.748419 
1940.000000	99.748670 
1939.000000	99.748874 
1938.000000	99.749049 
1937.000000	99.749203 
1936.000000	99.749329 
1935.000000	99.749412 
1934.000000	99.749429 
1933.000000	99.749361 
1932.000000	99.749199 
1931.000000	99.748955 
1930.000000	99.748656 
1929.000000	99.748331 
1928.000000	99.747995 
1927.000000	99.747654 
1926.000000	99.747311 
1925.000000	99.746970 
1924.000000	99.746647 
1923.000000	99.746370 
1922.000000	99.746108 
1921.000000	99.745727 
1920.000000	99.745090 
1919.000000	99.744213 
1918.000000	99.743302 
1917.000000	99.742531 
1916.000000	99.741890 
1915.000000	99.741250 
1914.000000	99.740508 
1913.000000	99.739653 
1912.000000	99.738826 
1911.000000	99.738314 
1910.000000	99.738245 
1909.000000	99.738220 
1908.000000	99.737538 
1907.000000	99.735857 
1906.000000	99.733569 
1905.000000	99.731549 
1904.000000	99.730432 
1903.000000	99.730185 
1902.000000	99.730177 
1901.000000	99.729854 
1900.000000	99.729388 
1899.000000	99.729487 
1898.000000	99.730522 
1897.000000	99.731811 
1896.000000	99.731982 
1895.000000	99.730122 
1894.000000	99.726488 
1893.000000	99.722327 
1892.000000	99.718803 
1891.000000	99.716218 
1890.000000	99.714436 
1889.000000	99.713744 
1888.000000	99.714692 
1887.000000	99.716913 
1886.000000	99.718776 
1885.000000	99.718693 
1884.000000	99.716641 
1883.000000	99.714103 
1882.000000	99.712597 
1881.000000	99.712741 
1880.000000	99.714281 
1879.000000	99.716288 
1878.000000	99.717718 
1877.000000	99.718449 
1876.000000	99.719528 
1875.000000	99.721762 
1874.000000	99.724301 
1873.000000	99.725519 
1872.000000	99.725158 
1871.000000	99.724555 
1870.000000	99.724849 
1869.000000	99.725842 
1868.000000	99.726929 
1867.000000	99.727943 
1866.000000	99.728723 
1865.000000	99.729384 
1864.000000	99.730943 
1863.000000	99.734335 
1862.000000	99.738591 
1861.000000	99.741139 
1860.000000	99.740764 
1859.000000	99.738994 
1858.000000	99.738022 
1857.000000	99.738206 
1856.000000	99.738669 
1855.000000	99.739275 
1854.000000	99.740714 
1853.000000	99.743073 
1852.000000	99.745415 
1851.000000	99.746845 
1850.000000	99.747634 
1849.000000	99.749075 
1848.000000	99.752247 
1847.000000	99.756850 
1846.000000	99.761240 
1845.000000	99.764024 
1844.000000	99.765882 
1843.000000	99.768461 
1842.000000	99.771064 
1841.000000	99.771459 
1840.000000	99.769031 
1839.000000	99.765610 
1838.000000	99.763658 
1837.000000	99.763740 
1836.000000	99.764734 
1835.000000	99.765911 
1834.000000	99.767544 
1833.000000	99.769716 
1832.000000	99.771403 
1831.000000	99.771065 
1830.000000	99.768161 
1829.000000	99.763820 
1828.000000	99.759719 
1827.000000	99.757140 
1826.000000	99.756903 
1825.000000	99.758877 
1824.000000	99.761718 
1823.000000	99.763912 
1822.000000	99.764791 
1821.000000	99.764642 
1820.000000	99.764614 
1819.000000	99.766214 
1818.000000	99.769423 
1817.000000	99.771486 
1816.000000	99.769670 
1815.000000	99.764743 
1814.000000	99.760250 
1813.000000	99.758542 
1812.000000	99.758507 
1811.000000	99.757693 
1810.000000	99.755117 
1809.000000	99.751209 
1808.000000	99.746659 
1807.000000	99.741948 
1806.000000	99.737658 
1805.000000	99.734863 
1804.000000	99.734541 
1803.000000	99.736224 
1802.000000	99.737800 
1801.000000	99.737599 
1800.000000	99.736249 
1799.000000	99.735191 
1798.000000	99.733819 
1797.000000	99.730801 
1796.000000	99.727612 
1795.000000	99.727791 
1794.000000	99.732532 
1793.000000	99.738482 
1792.000000	99.741228 
1791.000000	99.741071 
1790.000000	99.740811 
1789.000000	99.740971 
1788.000000	99.740754 
1787.000000	99.740766 
1786.000000	99.742821 
1785.000000	99.747349 
1784.000000	99.752451 
1783.000000	99.756039 
1782.000000	99.757968 
1781.000000	99.759734 
1780.000000	99.762354 
1779.000000	99.765334 
1778.000000	99.767477 
1777.000000	99.768321 
1776.000000	99.768348 
1775.000000	99.767984 
1774.000000	99.767287 
1773.000000	99.766511 
1772.000000	99.766083 
1771.000000	99.765964 
1770.000000	99.766073 
1769.000000	99.767114 
1768.000000	99.769877 
1767.000000	99.773787 
1766.000000	99.776890 
1765.000000	99.777855 
1764.000000	99.777247 
1763.000000	99.777075 
1762.000000	99.779271 
1761.000000	99.783821 
1760.000000	99.788645 
1759.000000	99.792008 
1758.000000	99.793587 
1757.000000	99.794128 
1756.000000	99.794786 
1755.000000	99.796146 
1754.000000	99.798057 
1753.000000	99.800030 
1752.000000	99.801458 
1751.000000	99.802158 
1750.000000	99.802810 
1749.000000	99.803793 
1748.000000	99.804535 
1747.000000	99.804497 
1746.000000	99.804194 
1745.000000	99.804640 
1744.000000	99.805836 
1743.000000	99.806764 
1742.000000	99.806728 
1741.000000	99.805969 
1740.000000	99.805193 
1739.000000	99.804973 
1738.000000	99.805215 
1737.000000	99.805445 
1736.000000	99.805439 
1735.000000	99.805199 
1734.000000	99.804768 
1733.000000	99.804160 
1732.000000	99.803225 
1731.000000	99.802483 
1730.000000	99.802862 
1729.000000	99.804521 
1728.000000	99.806473 
1727.000000	99.807489 
1726.000000	99.807286 
1725.000000	99.806510 
1724.000000	99.805846 
1723.000000	99.805427 
1722.000000	99.804892 
1721.000000	99.803955 
1720.000000	99.802807 
1719.000000	99.802002 
1718.000000	99.801821 
1717.000000	99.801509 
1716.000000	99.800382 
1715.000000	99.799083 
1714.000000	99.798388 
1713.000000	99.798259 
1712.000000	99.798281 
1711.000000	99.798147 
1710.000000	99.797801 
1709.000000	99.797314 
1708.000000	99.796760 
1707.000000	99.796190 
1706.000000	99.795581 
1705.000000	99.794877 
1704.000000	99.794126 
1703.000000	99.793444 
1702.000000	99.792881 
1701.000000	99.792388 
1700.000000	99.791859 
1699.000000	99.791285 
1698.000000	99.790692 
1697.000000	99.790105 
1696.000000	99.789547 
1695.000000	99.789007 
1694.000000	99.788431 
1693.000000	99.787807 
1692.000000	99.787187 
1691.000000	99.786621 
1690.000000	99.786116 
1689.000000	99.785650 
1688.000000	99.785205 
1687.000000	99.784773 
1686.000000	99.784353 
1685.000000	99.783958 
1684.000000	99.783619 
1683.000000	99.783330 
1682.000000	99.783054 
1681.000000	99.782787 
1680.000000	99.782541 
1679.000000	99.782319 
1678.000000	99.782122 
1677.000000	99.781948 
1676.000000	99.781792 
1675.000000	99.781650 
1674.000000	99.781510 
1673.000000	99.781363 
1672.000000	99.781210 
1671.000000	99.781058 
1670.000000	99.780917 
1669.000000	99.780799 
1668.000000	99.780705 
1667.000000	99.780627 
1666.000000	99.780556 
1665.000000	99.780489 
1664.000000	99.780432 
1663.000000	99.780395 
1662.000000	99.780388 
1661.000000	99.780411 
1660.000000	99.780461 
1659.000000	99.780530 
1658.000000	99.780612 
1657.000000	99.780701 
1656.000000	99.780789 
1655.000000	99.780873 
1654.000000	99.780950 
1653.000000	99.781025 
1652.000000	99.781102 
1651.000000	99.781177 
1650.000000	99.781247 
1649.000000	99.781311 
1648.000000	99.781363 
1647.000000	99.781399 
1646.000000	99.781418 
1645.000000	99.781424 
1644.000000	99.781423 
1643.000000	99.781420 
1642.000000	99.781418 
1641.000000	99.781417 
1640.000000	99.781418 
1639.000000	99.781425 
1638.000000	99.781437 
1637.000000	99.781454 
1636.000000	99.781477 
1635.000000	99.781506 
1634.000000	99.781540 
1633.000000	99.781583 
1632.000000	99.781638 
1631.000000	99.781707 
1630.000000	99.781789 
1629.000000	99.781877 
1628.000000	99.781970 
1627.000000	99.782067 
1626.000000	99.782171 
1625.000000	99.782290 
1624.000000	99.782434 
1623.000000	99.782630 
1622.000000	99.782887 
1621.000000	99.783161 
1620.000000	99.783394 
1619.000000	99.783603 
1618.000000	99.783856 
1617.000000	99.784188 
1616.000000	99.784534 
1615.000000	99.784356 
1614.000000	99.783193 
1613.000000	99.781869 
1612.000000	99.781864 
1611.000000	99.783366 
1610.000000	99.784459 
1609.000000	99.783672 
1608.000000	99.782208 
1607.000000	99.781919 
1606.000000	99.782572 
1605.000000	99.783075 
1604.000000	99.783698 
1603.000000	99.785192 
1602.000000	99.787019 
1601.000000	99.788096 
1600.000000	99.788387 
1599.000000	99.788350 
1598.000000	99.788126 
1597.000000	99.788304 
1596.000000	99.790135 
1595.000000	99.793598 
1594.000000	99.796278 
1593.000000	99.796188 
1592.000000	99.794258 
1591.000000	99.792434 
1590.000000	99.791052 
1589.000000	99.789889 
1588.000000	99.789888 
1587.000000	99.791853 
1586.000000	99.794885 
1585.000000	99.797959 
1584.000000	99.801546 
1583.000000	99.805667 
1582.000000	99.808788 
1581.000000	99.810041 
1580.000000	99.810329 
1579.000000	99.810046 
1578.000000	99.808320 
1577.000000	99.805454 
1576.000000	99.804366 
1575.000000	99.804848 
1574.000000	99.802309 
1573.000000	99.796208 
1572.000000	99.789629 
1571.000000	99.785025 
1570.000000	99.783268 
1569.000000	99.785710 
1568.000000	99.792233 
1567.000000	99.798594 
1566.000000	99.800809 
1565.000000	99.798500 
1564.000000	99.794570 
1563.000000	99.791509 
1562.000000	99.789705 
1561.000000	99.789343 
1560.000000	99.790507 
1559.000000	99.789106 
1558.000000	99.783285 
1557.000000	99.773824 
1556.000000	99.762271 
1555.000000	99.750364 
1554.000000	99.738140 
1553.000000	99.725854 
1552.000000	99.714345 
1551.000000	99.704924 
1550.000000	99.698441 
1549.000000	99.693653 
1548.000000	99.687355 
1547.000000	99.676206 
1546.000000	99.659225 
1545.000000	99.639654 
1544.000000	99.624190 
1543.000000	99.616307 
1542.000000	99.611447 
1541.000000	99.600272 
1540.000000	99.580591 
1539.000000	99.560429 
1538.000000	99.541902 
1537.000000	99.521925 
1536.000000	99.500270 
1535.000000	99.478023 
1534.000000	99.456373 
1533.000000	99.438448 
1532.000000	99.426041 
1531.000000	99.416381 
1530.000000	99.404871 
1529.000000	99.388857 
1528.000000	99.369965 
1527.000000	99.352075 
1526.000000	99.336450 
1525.000000	99.320677 
1524.000000	99.302533 
1523.000000	99.281416 
1522.000000	99.256654 
1521.000000	99.229306 
1520.000000	99.202860 
1519.000000	99.178284 
1518.000000	99.154649 
1517.000000	99.132458 
1516.000000	99.113731 
1515.000000	99.097977 
1514.000000	99.081712 
1513.000000	99.062809 
1512.000000	99.042043 
1511.000000	99.021882 
1510.000000	99.003190 
1509.000000	98.983758 
1508.000000	98.960117 
1507.000000	98.932937 
1506.000000	98.908335 
1505.000000	98.886373 
1504.000000	98.864121 
1503.000000	98.841654 
1502.000000	98.819153 
1501.000000	98.795759 
1500.000000	98.770755 
1499.000000	98.744723 
1498.000000	98.719602 
1497.000000	98.696983 
1496.000000	98.677381 
1495.000000	98.660618 
1494.000000	98.645051 
1493.000000	98.628134 
1492.000000	98.607426 
1491.000000	98.581463 
1490.000000	98.551972 
1489.000000	98.523545 
1488.000000	98.499173 
1487.000000	98.478579 
1486.000000	98.459110 
1485.000000	98.439201 
1484.000000	98.419749 
1483.000000	98.400654 
1482.000000	98.380472 
1481.000000	98.359250 
1480.000000	98.339549 
1479.000000	98.322920 
1478.000000	98.307892 
1477.000000	98.292657 
1476.000000	98.277640 
1475.000000	98.262724 
1474.000000	98.242421 
1473.000000	98.211855 
1472.000000	98.177546 
1471.000000	98.151114 
1470.000000	98.133670 
1469.000000	98.119390 
1468.000000	98.104231 
1467.000000	98.087062 
1466.000000	98.067271 
1465.000000	98.045724 
1464.000000	98.026652 
1463.000000	98.012687 
1462.000000	98.001787 
1461.000000	97.990989 
1460.000000	97.979627 
1459.000000	97.966879 
1458.000000	97.949950 
1457.000000	97.929237 
1456.000000	97.911646 
1455.000000	97.899732 
1454.000000	97.889931 
1453.000000	97.879813 
1452.000000	97.870155 
1451.000000	97.862868 
1450.000000	97.857561 
1449.000000	97.851230 
1448.000000	97.842049 
1447.000000	97.832094 
1446.000000	97.823963 
1445.000000	97.818081 
1444.000000	97.813346 
1443.000000	97.808727 
1442.000000	97.804649 
1441.000000	97.802893 
1440.000000	97.803928 
1439.000000	97.804935 
1438.000000	97.803069 
1437.000000	97.800457 
1436.000000	97.803662 
1435.000000	97.813108 
1434.000000	97.821721 
1433.000000	97.824177 
1432.000000	97.821090 
1431.000000	97.816649 
1430.000000	97.815450 
1429.000000	97.819696 
1428.000000	97.828146 
1427.000000	97.837556 
1426.000000	97.845621 
1425.000000	97.854433 
1424.000000	97.868049 
1423.000000	97.886560 
1422.000000	97.906158 
1421.000000	97.923795 
1420.000000	97.938694 
1419.000000	97.951664 
1418.000000	97.966190 
1417.000000	97.984551 
1416.000000	98.005701 
1415.000000	98.027358 
1414.000000	98.047340 
1413.000000	98.065710 
1412.000000	98.084994 
1411.000000	98.107689 
1410.000000	98.134265 
1409.000000	98.162329 
1408.000000	98.187728 
1407.000000	98.207861 
1406.000000	98.224185 
1405.000000	98.241814 
1404.000000	98.263446 
1403.000000	98.285340 
1402.000000	98.302647 
1401.000000	98.315503 
1400.000000	98.328834 
1399.000000	98.347168 
1398.000000	98.371022 
1397.000000	98.398999 
1396.000000	98.431094 
1395.000000	98.466623 
1394.000000	98.501520 
1393.000000	98.532198 
1392.000000	98.559103 
1391.000000	98.585503 
1390.000000	98.613926 
1389.000000	98.644456 
1388.000000	98.675688 
1387.000000	98.706578 
1386.000000	98.737017 
1385.000000	98.767091 
1384.000000	98.796335 
1383.000000	98.823708 
1382.000000	98.848481 
1381.000000	98.870776 
1380.000000	98.891466 
1379.000000	98.911339 
1378.000000	98.930795 
1377.000000	98.950416 
1376.000000	98.971213 
1375.000000	98.993863 
1374.000000	99.017506 
1373.000000	99.039375 
1372.000000	99.056179 
1371.000000	99.067157 
1370.000000	99.075532 
1369.000000	99.087170 
1368.000000	99.105056 
1367.000000	99.125660 
1366.000000	99.142777 
1365.000000	99.153601 
1364.000000	99.160582 
1363.000000	99.169138 
1362.000000	99.183042 
1361.000000	99.201285 
1360.000000	99.220221 
1359.000000	99.237831 
1358.000000	99.254912 
1357.000000	99.272964 
1356.000000	99.291351 
1355.000000	99.307335 
1354.000000	99.319148 
1353.000000	99.328009 
1352.000000	99.336884 
1351.000000	99.347974 
1350.000000	99.360848 
1349.000000	99.373568 
1348.000000	99.384319 
1347.000000	99.393165 
1346.000000	99.402666 
1345.000000	99.415577 
1344.000000	99.431040 
1343.000000	99.444475 
1342.000000	99.452231 
1341.000000	99.455441 
1340.000000	99.458569 
1339.000000	99.464592 
1338.000000	99.472945 
1337.000000	99.481979 
1336.000000	99.491226 
1335.000000	99.501198 
1334.000000	99.512499 
1333.000000	99.525150 
1332.000000	99.537878 
1331.000000	99.548384 
1330.000000	99.555495 
1329.000000	99.560969 
1328.000000	99.567804 
1327.000000	99.576747 
1326.000000	99.585602 
1325.000000	99.592472 
1324.000000	99.597773 
1323.000000	99.602944 
1322.000000	99.608518 
1321.000000	99.614001 
1320.000000	99.619003 
1319.000000	99.623934 
1318.000000	99.629525 
1317.000000	99.635689 
1316.000000	99.641435 
1315.000000	99.646261 
1314.000000	99.651249 
1313.000000	99.657975 
1312.000000	99.666383 
1311.000000	99.674655 
1310.000000	99.681269 
1309.000000	99.686260 
1308.000000	99.690375 
1307.000000	99.694102 
1306.000000	99.697639 
1305.000000	99.701188 
1304.000000	99.704439 
1303.000000	99.706605 
1302.000000	99.707455 
1301.000000	99.707793 
1300.000000	99.708647 
1299.000000	99.710771 
1298.000000	99.715003 
1297.000000	99.721873 
1296.000000	99.730277 
1295.000000	99.737430 
1294.000000	99.741214 
1293.000000	99.742042 
1292.000000	99.741863 
1291.000000	99.741944 
1290.000000	99.742267 
1289.000000	99.742520 
1288.000000	99.742677 
1287.000000	99.742665 
1286.000000	99.742305 
1285.000000	99.741920 
1284.000000	99.742600 
1283.000000	99.745552 
1282.000000	99.750930 
1281.000000	99.757126 
1280.000000	99.761566 
1279.000000	99.762670 
1278.000000	99.761274 
1277.000000	99.759785 
1276.000000	99.760004 
1275.000000	99.762058 
1274.000000	99.765221 
1273.000000	99.769043 
1272.000000	99.773513 
1271.000000	99.778664 
1270.000000	99.784198 
1269.000000	99.789210 
1268.000000	99.792539 
1267.000000	99.794093 
1266.000000	99.795658 
1265.000000	99.799105 
1264.000000	99.803815 
1263.000000	99.807268 
1262.000000	99.808302 
1261.000000	99.808267 
1260.000000	99.808513 
1259.000000	99.808402 
1258.000000	99.807065 
1257.000000	99.805521 
1256.000000	99.805418 
1255.000000	99.806572 
1254.000000	99.807514 
1253.000000	99.808092 
1252.000000	99.809722 
1251.000000	99.812632 
1250.000000	99.814351 
1249.000000	99.811906 
1248.000000	99.804902 
1247.000000	99.795911 
1246.000000	99.788379 
1245.000000	99.784263 
1244.000000	99.782783 
1243.000000	99.780625 
1242.000000	99.774142 
1241.000000	99.762789 
1240.000000	99.750355 
1239.000000	99.741534 
1238.000000	99.737033 
1237.000000	99.733411 
1236.000000	99.727878 
1235.000000	99.721195 
1234.000000	99.714890 
1233.000000	99.708038 
1232.000000	99.699236 
1231.000000	99.690172 
1230.000000	99.683774 
1229.000000	99.678899 
1228.000000	99.670079 
1227.000000	99.653437 
1226.000000	99.630488 
1225.000000	99.605296 
1224.000000	99.580070 
1223.000000	99.554637 
1222.000000	99.528103 
1221.000000	99.499296 
1220.000000	99.467015 
1219.000000	99.431356 
1218.000000	99.393870 
1217.000000	99.355421 
1216.000000	99.314930 
1215.000000	99.270987 
1214.000000	99.223594 
1213.000000	99.173903 
1212.000000	99.123524 
1211.000000	99.074369 
1210.000000	99.027272 
1209.000000	98.980266 
1208.000000	98.930191 
1207.000000	98.876845 
1206.000000	98.823763 
1205.000000	98.773851 
1204.000000	98.726007 
1203.000000	98.677172 
1202.000000	98.626157 
1201.000000	98.574157 
1200.000000	98.522492 
1199.000000	98.471274 
1198.000000	98.420284 
1197.000000	98.370430 
1196.000000	98.323725 
1195.000000	98.281002 
1194.000000	98.239454 
1193.000000	98.193923 
1192.000000	98.141793 
1191.000000	98.085538 
1190.000000	98.029213 
1189.000000	97.973687 
1188.000000	97.917132 
1187.000000	97.858804 
1186.000000	97.799710 
1185.000000	97.740271 
1184.000000	97.679999 
1183.000000	97.619073 
1182.000000	97.557485 
1181.000000	97.492930 
1180.000000	97.422621 
1179.000000	97.347705 
1178.000000	97.273217 
1177.000000	97.202671 
1176.000000	97.134484 
1175.000000	97.064030 
1174.000000	96.987359 
1173.000000	96.903131 
1172.000000	96.813513 
1171.000000	96.724002 
1170.000000	96.640222 
1169.000000	96.563853 
1168.000000	96.493110 
1167.000000	96.427621 
1166.000000	96.371321 
1165.000000	96.330257 
1164.000000	96.309093 
1163.000000	96.309703 
1162.000000	96.330718 
1161.000000	96.366609 
1160.000000	96.407621 
1159.000000	96.442186 
1158.000000	96.460887 
1157.000000	96.458802 
1156.000000	96.434906 
1155.000000	96.390956 
1154.000000	96.331753 
1153.000000	96.265015 
1152.000000	96.198326 
1151.000000	96.134789 
1150.000000	96.072300 
1149.000000	96.008145 
1148.000000	95.943560 
1147.000000	95.882326 
1146.000000	95.825689 
1145.000000	95.770915 
1144.000000	95.714795 
1143.000000	95.656212 
1142.000000	95.595093 
1141.000000	95.531691 
1140.000000	95.468056 
1139.000000	95.407693 
1138.000000	95.351806 
1137.000000	95.297312 
1136.000000	95.240173 
1135.000000	95.179786 
1134.000000	95.119215 
1133.000000	95.062072 
1132.000000	95.009628 
1131.000000	94.959588 
1130.000000	94.907305 
1129.000000	94.849786 
1128.000000	94.788718 
1127.000000	94.727960 
1126.000000	94.668327 
1125.000000	94.607269 
1124.000000	94.543684 
1123.000000	94.480008 
1122.000000	94.418832 
1121.000000	94.360213 
1120.000000	94.303199 
1119.000000	94.247394 
1118.000000	94.192245 
1117.000000	94.137220 
1116.000000	94.083139 
1115.000000	94.030926 
1114.000000	93.979365 
1113.000000	93.927196 
1112.000000	93.876485 
1111.000000	93.829840 
1110.000000	93.785203 
1109.000000	93.738201 
1108.000000	93.689034 
1107.000000	93.641896 
1106.000000	93.597805 
1105.000000	93.554027 
1104.000000	93.510800 
1103.000000	93.471724 
1102.000000	93.436035 
1101.000000	93.397580 
1100.000000	93.353871 
1099.000000	93.310534 
1098.000000	93.272518 
1097.000000	93.237101 
1096.000000	93.199260 
1095.000000	93.159698 
1094.000000	93.124051 
1093.000000	93.097618 
1092.000000	93.083051 
1091.000000	93.078837 
1090.000000	93.077715 
1089.000000	93.071597 
1088.000000	93.061072 
1087.000000	93.055742 
1086.000000	93.062423 
1085.000000	93.077077 
1084.000000	93.091025 
1083.000000	93.101011 
1082.000000	93.110056 
1081.000000	93.121696 
1080.000000	93.136289 
1079.000000	93.150767 
1078.000000	93.160501 
1077.000000	93.163863 
1076.000000	93.165051 
1075.000000	93.168191 
1074.000000	93.167969 
1073.000000	93.151545 
1072.000000	93.112060 
1071.000000	93.056188 
1070.000000	92.996117 
1069.000000	92.936816 
1068.000000	92.872942 
1067.000000	92.794694 
1066.000000	92.694868 
1065.000000	92.574468 
1064.000000	92.444576 
1063.000000	92.320278 
1062.000000	92.210290 
1061.000000	92.114143 
1060.000000	92.028887 
1059.000000	91.953529 
1058.000000	91.885990 
1057.000000	91.821416 
1056.000000	91.756156 
1055.000000	91.689389 
1054.000000	91.619496 
1053.000000	91.544066 
1052.000000	91.465493 
1051.000000	91.390457 
1050.000000	91.320147 
1049.000000	91.246798 
1048.000000	91.164009 
1047.000000	91.075263 
1046.000000	90.989134 
1045.000000	90.910959 
1044.000000	90.841187 
1043.000000	90.776631 
1042.000000	90.711465 
1041.000000	90.641973 
1040.000000	90.571953 
1039.000000	90.508694 
1038.000000	90.452564 
1037.000000	90.396085 
1036.000000	90.334858 
1035.000000	90.273552 
1034.000000	90.219022 
1033.000000	90.173712 
1032.000000	90.138521 
1031.000000	90.116239 
1030.000000	90.107975 
1029.000000	90.109461 
1028.000000	90.113588 
1027.000000	90.114533 
1026.000000	90.109180 
1025.000000	90.098136 
1024.000000	90.085719 
1023.000000	90.075597 
1022.000000	90.066831 
1021.000000	90.057547 
1020.000000	90.050452 
1019.000000	90.049225 
1018.000000	90.051235 
1017.000000	90.050524 
1016.000000	90.047045 
1015.000000	90.045849 
1014.000000	90.047466 
1013.000000	90.046648 
1012.000000	90.041336 
1011.000000	90.035653 
1010.000000	90.032645 
1009.000000	90.030849 
1008.000000	90.029892 
1007.000000	90.033370 
1006.000000	90.044016 
1005.000000	90.060950 
1004.000000	90.083043 
1003.000000	90.110543 
1002.000000	90.142776 
1001.000000	90.178654 
1000.000000	90.219150 
999.000000	 90.264444 
998.000000	 90.309767 
997.000000	 90.350142 
996.000000	 90.388596 
995.000000	 90.433171 
994.000000	 90.485991 
993.000000	 90.541690 
992.000000	 90.596716 
991.000000	 90.653607 
990.000000	 90.715019 
989.000000	 90.779522 
988.000000	 90.844714 
987.000000	 90.910008 
986.000000	 90.975860 
985.000000	 91.044009 
984.000000	 91.117404 
983.000000	 91.195638 
982.000000	 91.272821 
981.000000	 91.345673 
980.000000	 91.421254 
979.000000	 91.509528 
978.000000	 91.610028 
977.000000	 91.713100 
976.000000	 91.813167 
975.000000	 91.912780 
974.000000	 92.013755 
973.000000	 92.112947 
972.000000	 92.208513 
971.000000	 92.303311 
970.000000	 92.400063 
969.000000	 92.498832 
968.000000	 92.600602 
967.000000	 92.707624 
966.000000	 92.818544 
965.000000	 92.928067 
964.000000	 93.032734 
963.000000	 93.132879 
962.000000	 93.228779 
961.000000	 93.319704 
960.000000	 93.407119 
959.000000	 93.493942 
958.000000	 93.580036 
957.000000	 93.663182 
956.000000	 93.744892 
955.000000	 93.830005 
954.000000	 93.919174 
953.000000	 94.006482 
952.000000	 94.086376 
951.000000	 94.159176 
950.000000	 94.228487 
949.000000	 94.296716 
948.000000	 94.364518 
947.000000	 94.431927 
946.000000	 94.498824 
945.000000	 94.565748 
944.000000	 94.633799 
943.000000	 94.701995 
942.000000	 94.766402 
941.000000	 94.824703 
940.000000	 94.879852 
939.000000	 94.936006 
938.000000	 94.993015 
937.000000	 95.049044 
936.000000	 95.106369 
935.000000	 95.169296 
934.000000	 95.237481 
933.000000	 95.306664 
932.000000	 95.375041 
931.000000	 95.443125 
930.000000	 95.507902 
929.000000	 95.563762 
928.000000	 95.610457 
927.000000	 95.654836 
926.000000	 95.703266 
925.000000	 95.756608 
924.000000	 95.813112 
923.000000	 95.870618 
922.000000	 95.924501 
921.000000	 95.969104 
920.000000	 96.004264 
919.000000	 96.036973 
918.000000	 96.074385 
917.000000	 96.118078 
916.000000	 96.165935 
915.000000	 96.214938 
914.000000	 96.260344 
913.000000	 96.297590 
912.000000	 96.329216 
911.000000	 96.366633 
910.000000	 96.420562 
909.000000	 96.490905 
908.000000	 96.568594 
907.000000	 96.645318 
906.000000	 96.718653 
905.000000	 96.789601 
904.000000	 96.859368 
903.000000	 96.929591 
902.000000	 97.003126 
901.000000	 97.081903 
900.000000	 97.163343 
899.000000	 97.240435 
898.000000	 97.307777 
897.000000	 97.368009 
896.000000	 97.429636 
895.000000	 97.497305 
894.000000	 97.566764 
893.000000	 97.631248 
892.000000	 97.689386 
891.000000	 97.742778 
890.000000	 97.787833 
889.000000	 97.814963 
888.000000	 97.815802 
887.000000	 97.787558 
886.000000	 97.730769 
885.000000	 97.647570 
884.000000	 97.544120 
883.000000	 97.430894 
882.000000	 97.317013 
881.000000	 97.206038 
880.000000	 97.099713 
879.000000	 97.003544 
878.000000	 96.926151 
877.000000	 96.875351 
876.000000	 96.857211 
875.000000	 96.876599 
874.000000	 96.936638 
873.000000	 97.039052 
872.000000	 97.183709 
871.000000	 97.363055 
870.000000	 97.557897 
869.000000	 97.745572 
868.000000	 97.914280 
867.000000	 98.065590 
866.000000	 98.203360 
865.000000	 98.326070 
864.000000	 98.432014 
863.000000	 98.526376 
862.000000	 98.617600 
861.000000	 98.708460 
860.000000	 98.795494 
859.000000	 98.876553 
858.000000	 98.953755 
857.000000	 99.027658 
856.000000	 99.093533 
855.000000	 99.147605 
854.000000	 99.194336 
853.000000	 99.241979 
852.000000	 99.290808 
851.000000	 99.331161 
850.000000	 99.356102 
849.000000	 99.372661 
848.000000	 99.396343 
847.000000	 99.435277 
846.000000	 99.482853 
845.000000	 99.525667 
844.000000	 99.555291 
843.000000	 99.572014 
842.000000	 99.581553 
841.000000	 99.591289 
840.000000	 99.607684 
839.000000	 99.633240 
838.000000	 99.664400 
837.000000	 99.693517 
836.000000	 99.714105 
835.000000	 99.725022 
834.000000	 99.730797 
833.000000	 99.738265 
832.000000	 99.751649 
831.000000	 99.769240 
830.000000	 99.784426 
829.000000	 99.790604 
828.000000	 99.786060 
827.000000	 99.775760 
826.000000	 99.769969 
825.000000	 99.779205 
824.000000	 99.805676 
823.000000	 99.837314 
822.000000	 99.854154 
821.000000	 99.844891 
820.000000	 99.815988 
819.000000	 99.783388 
818.000000	 99.757243 
817.000000	 99.735856 
816.000000	 99.711294 
815.000000	 99.675595 
814.000000	 99.620441 
813.000000	 99.535284 
812.000000	 99.410719 
811.000000	 99.244586 
810.000000	 99.042821 
809.000000	 98.813371 
808.000000	 98.559941 
807.000000	 98.281009 
806.000000	 97.973328 
805.000000	 97.637877 
804.000000	 97.285657 
803.000000	 96.937999 
802.000000	 96.619419 
801.000000	 96.349997 
800.000000	 96.143104 
799.000000	 96.003906 
798.000000	 95.926667 
797.000000	 95.898667 
796.000000	 95.910344 
795.000000	 95.957829 
794.000000	 96.034103 
793.000000	 96.123476 
792.000000	 96.208133 
791.000000	 96.276323 
790.000000	 96.322022 
789.000000	 96.341018 
788.000000	 96.331052 
787.000000	 96.293415 
786.000000	 96.230984 
785.000000	 96.146105 
784.000000	 96.043142 
783.000000	 95.931029 
782.000000	 95.819332 
781.000000	 95.712764 
780.000000	 95.613980 
779.000000	 95.532246 
778.000000	 95.484999 
777.000000	 95.487355 
776.000000	 95.539626 
775.000000	 95.625998 
774.000000	 95.727422 
773.000000	 95.836363 
772.000000	 95.956104 
771.000000	 96.085584 
770.000000	 96.210748 
769.000000	 96.315114 
768.000000	 96.395623 
767.000000	 96.464108 
766.000000	 96.535514 
765.000000	 96.617571 
764.000000	 96.708375 
763.000000	 96.798928 
762.000000	 96.879785 
761.000000	 96.949800 
760.000000	 97.017394 
759.000000	 97.090097 
758.000000	 97.165339 
757.000000	 97.235691 
756.000000	 97.300396 
755.000000	 97.366150 
754.000000	 97.438131 
753.000000	 97.515854 
752.000000	 97.596523 
751.000000	 97.676090 
750.000000	 97.747055 
749.000000	 97.802122 
748.000000	 97.842862 
747.000000	 97.880545 
746.000000	 97.925481 
745.000000	 97.977918 
744.000000	 98.031298 
743.000000	 98.081733 
742.000000	 98.131698 
741.000000	 98.185817 
740.000000	 98.245539 
739.000000	 98.308439 
738.000000	 98.371546 
737.000000	 98.433713 
736.000000	 98.493303 
735.000000	 98.544395 
734.000000	 98.579067 
733.000000	 98.595832 
732.000000	 98.603929 
731.000000	 98.616775 
730.000000	 98.640987 
729.000000	 98.672502 
728.000000	 98.702741 
727.000000	 98.727436 
726.000000	 98.749865 
725.000000	 98.776379 
724.000000	 98.808368 
723.000000	 98.838994 
722.000000	 98.859713 
721.000000	 98.870028 
720.000000	 98.877795 
719.000000	 98.888040 
718.000000	 98.894234 
717.000000	 98.883630 
716.000000	 98.849853 
715.000000	 98.800674 
714.000000	 98.757236 
713.000000	 98.745216 
712.000000	 98.780409 
711.000000	 98.857603 
710.000000	 98.954800 
709.000000	 99.050721 
708.000000	 99.134764 
707.000000	 99.199623 
706.000000	 99.234387 
705.000000	 99.233131 
704.000000	 99.204376 
703.000000	 99.161697 
702.000000	 99.106216 
701.000000	 99.026520 
700.000000	 98.914402 
699.000000	 98.772876 
698.000000	 98.611242 
697.000000	 98.444312 
696.000000	 98.298559 
695.000000	 98.205684 
694.000000	 98.181778 
693.000000	 98.217659 
692.000000	 98.292196 
691.000000	 98.389552 
690.000000	 98.500427 
689.000000	 98.614250 
688.000000	 98.719104 
687.000000	 98.808574 
686.000000	 98.883357 
685.000000	 98.946606 
684.000000	 99.001832 
683.000000	 99.053763 
682.000000	 99.105946 
681.000000	 99.156474 
680.000000	 99.199030 
679.000000	 99.229682 
678.000000	 99.251278 
677.000000	 99.270348 
676.000000	 99.291282 
675.000000	 99.313744 
674.000000	 99.337055 
673.000000	 99.366248 
672.000000	 99.410160 
671.000000	 99.472320 
670.000000	 99.546270 
669.000000	 99.615772 
668.000000	 99.660876 
667.000000	 99.680808 
666.000000	 99.692555 
665.000000	 99.701726 
664.000000	 99.706003 
663.000000	 99.707318 
662.000000	 99.713549 
661.000000	 99.732159 
660.000000	 99.766602 
659.000000	 99.815732 
658.000000	 99.868607 
657.000000	 99.903552 
656.000000	 99.901380 
655.000000	 99.861008 
654.000000	 99.803025 
653.000000	 99.755636 
652.000000	 99.736694 
651.000000	 99.748987 
650.000000	 99.786266 

