4000.000000	98.736652 
3999.000000	98.736693 
3998.000000	98.736804 
3997.000000	98.736743 
3996.000000	98.736671 
3995.000000	98.736898 
3994.000000	98.737487 
3993.000000	98.738185 
3992.000000	98.738603 
3991.000000	98.738431 
3990.000000	98.737770 
3989.000000	98.737176 
3988.000000	98.737198 
3987.000000	98.737774 
3986.000000	98.738235 
3985.000000	98.737993 
3984.000000	98.737087 
3983.000000	98.736116 
3982.000000	98.735684 
3981.000000	98.735940 
3980.000000	98.736521 
3979.000000	98.736869 
3978.000000	98.736673 
3977.000000	98.736001 
3976.000000	98.735114 
3975.000000	98.734230 
3974.000000	98.733498 
3973.000000	98.733083 
3972.000000	98.733091 
3971.000000	98.733438 
3970.000000	98.733923 
3969.000000	98.734470 
3968.000000	98.735149 
3967.000000	98.735919 
3966.000000	98.736559 
3965.000000	98.736858 
3964.000000	98.736822 
3963.000000	98.736684 
3962.000000	98.736735 
3961.000000	98.737090 
3960.000000	98.737592 
3959.000000	98.737884 
3958.000000	98.737667 
3957.000000	98.737015 
3956.000000	98.736387 
3955.000000	98.736233 
3954.000000	98.736645 
3953.000000	98.737303 
3952.000000	98.737711 
3951.000000	98.737569 
3950.000000	98.737069 
3949.000000	98.736844 
3948.000000	98.737319 
3947.000000	98.738155 
3946.000000	98.738523 
3945.000000	98.737895 
3944.000000	98.736418 
3943.000000	98.734752 
3942.000000	98.733575 
3941.000000	98.733124 
3940.000000	98.733177 
3939.000000	98.733439 
3938.000000	98.733806 
3937.000000	98.734304 
3936.000000	98.734942 
3935.000000	98.735611 
3934.000000	98.736171 
3933.000000	98.736476 
3932.000000	98.736374 
3931.000000	98.735745 
3930.000000	98.734648 
3929.000000	98.733417 
3928.000000	98.732422 
3927.000000	98.731847 
3926.000000	98.731707 
3925.000000	98.731851 
3924.000000	98.732179 
3923.000000	98.732658 
3922.000000	98.733114 
3921.000000	98.733372 
3920.000000	98.733415 
3919.000000	98.733336 
3918.000000	98.733182 
3917.000000	98.732932 
3916.000000	98.732610 
3915.000000	98.732307 
3914.000000	98.732089 
3913.000000	98.731953 
3912.000000	98.731865 
3911.000000	98.731791 
3910.000000	98.731705 
3909.000000	98.731591 
3908.000000	98.731456 
3907.000000	98.731302 
3906.000000	98.731124 
3905.000000	98.730923 
3904.000000	98.730702 
3903.000000	98.730464 
3902.000000	98.730215 
3901.000000	98.729962 
3900.000000	98.729712 
3899.000000	98.729464 
3898.000000	98.729213 
3897.000000	98.728947 
3896.000000	98.728652 
3895.000000	98.728317 
3894.000000	98.727938 
3893.000000	98.727523 
3892.000000	98.727083 
3891.000000	98.726628 
3890.000000	98.726166 
3889.000000	98.725706 
3888.000000	98.725257 
3887.000000	98.724821 
3886.000000	98.724411 
3885.000000	98.724048 
3884.000000	98.723713 
3883.000000	98.723325 
3882.000000	98.722799 
3881.000000	98.722208 
3880.000000	98.721792 
3879.000000	98.721669 
3878.000000	98.721606 
3877.000000	98.721284 
3876.000000	98.720676 
3875.000000	98.720002 
3874.000000	98.719405 
3873.000000	98.718850 
3872.000000	98.718318 
3871.000000	98.717908 
3870.000000	98.717704 
3869.000000	98.717634 
3868.000000	98.717321 
3867.000000	98.716263 
3866.000000	98.714404 
3865.000000	98.712376 
3864.000000	98.711243 
3863.000000	98.711480 
3862.000000	98.712452 
3861.000000	98.713493 
3860.000000	98.714632 
3859.000000	98.715513 
3858.000000	98.715141 
3857.000000	98.712878 
3856.000000	98.709695 
3855.000000	98.707238 
3854.000000	98.705466 
3853.000000	98.704100 
3852.000000	98.703880 
3851.000000	98.704429 
3850.000000	98.705006 
3849.000000	98.706138 
3848.000000	98.708546 
3847.000000	98.712000 
3846.000000	98.715101 
3845.000000	98.716677 
3844.000000	98.717103 
3843.000000	98.717175 
3842.000000	98.716869 
3841.000000	98.716212 
3840.000000	98.715824 
3839.000000	98.716201 
3838.000000	98.717194 
3837.000000	98.717819 
3836.000000	98.717317 
3835.000000	98.715758 
3834.000000	98.714018 
3833.000000	98.713276 
3832.000000	98.714039 
3831.000000	98.715822 
3830.000000	98.717582 
3829.000000	98.718478 
3828.000000	98.718607 
3827.000000	98.718738 
3826.000000	98.719255 
3825.000000	98.719873 
3824.000000	98.720233 
3823.000000	98.720221 
3822.000000	98.720011 
3821.000000	98.719963 
3820.000000	98.720230 
3819.000000	98.720376 
3818.000000	98.720128 
3817.000000	98.719786 
3816.000000	98.719679 
3815.000000	98.719755 
3814.000000	98.719804 
3813.000000	98.719779 
3812.000000	98.719766 
3811.000000	98.719816 
3810.000000	98.719886 
3809.000000	98.719923 
3808.000000	98.719911 
3807.000000	98.719855 
3806.000000	98.719757 
3805.000000	98.719621 
3804.000000	98.719462 
3803.000000	98.719297 
3802.000000	98.719149 
3801.000000	98.719029 
3800.000000	98.718940 
3799.000000	98.718877 
3798.000000	98.718838 
3797.000000	98.718829 
3796.000000	98.718857 
3795.000000	98.718920 
3794.000000	98.719011 
3793.000000	98.719121 
3792.000000	98.719249 
3791.000000	98.719396 
3790.000000	98.719558 
3789.000000	98.719723 
3788.000000	98.719886 
3787.000000	98.720047 
3786.000000	98.720218 
3785.000000	98.720406 
3784.000000	98.720611 
3783.000000	98.720829 
3782.000000	98.721051 
3781.000000	98.721278 
3780.000000	98.721516 
3779.000000	98.721780 
3778.000000	98.722081 
3777.000000	98.722424 
3776.000000	98.722819 
3775.000000	98.723279 
3774.000000	98.723776 
3773.000000	98.724230 
3772.000000	98.724624 
3771.000000	98.725056 
3770.000000	98.725628 
3769.000000	98.726312 
3768.000000	98.726818 
3767.000000	98.726829 
3766.000000	98.726631 
3765.000000	98.726956 
3764.000000	98.728140 
3763.000000	98.729701 
3762.000000	98.730742 
3761.000000	98.730847 
3760.000000	98.730466 
3759.000000	98.730708 
3758.000000	98.731951 
3757.000000	98.732992 
3756.000000	98.733116 
3755.000000	98.733125 
3754.000000	98.734189 
3753.000000	98.736324 
3752.000000	98.738371 
3751.000000	98.740275 
3750.000000	98.742517 
3749.000000	98.742976 
3748.000000	98.738556 
3747.000000	98.730154 
3746.000000	98.723655 
3745.000000	98.722996 
3744.000000	98.726695 
3743.000000	98.731120 
3742.000000	98.732672 
3741.000000	98.730347 
3740.000000	98.727339 
3739.000000	98.728749 
3738.000000	98.735914 
3737.000000	98.742807 
3736.000000	98.743413 
3735.000000	98.737956 
3734.000000	98.730031 
3733.000000	98.721803 
3732.000000	98.715208 
3731.000000	98.713144 
3730.000000	98.714870 
3729.000000	98.716190 
3728.000000	98.714720 
3727.000000	98.711518 
3726.000000	98.708449 
3725.000000	98.705452 
3724.000000	98.701098 
3723.000000	98.694939 
3722.000000	98.688383 
3721.000000	98.682752 
3720.000000	98.677160 
3719.000000	98.672082 
3718.000000	98.670173 
3717.000000	98.671636 
3716.000000	98.674283 
3715.000000	98.675939 
3714.000000	98.675307 
3713.000000	98.670639 
3712.000000	98.659737 
3711.000000	98.643293 
3710.000000	98.625000 
3709.000000	98.608771 
3708.000000	98.596786 
3707.000000	98.588281 
3706.000000	98.580721 
3705.000000	98.571724 
3704.000000	98.559758 
3703.000000	98.544224 
3702.000000	98.525735 
3701.000000	98.505984 
3700.000000	98.485904 
3699.000000	98.465655 
3698.000000	98.446952 
3697.000000	98.432073 
3696.000000	98.421649 
3695.000000	98.414198 
3694.000000	98.406173 
3693.000000	98.394101 
3692.000000	98.377640 
3691.000000	98.359992 
3690.000000	98.344895 
3689.000000	98.334056 
3688.000000	98.326396 
3687.000000	98.318674 
3686.000000	98.309921 
3685.000000	98.303249 
3684.000000	98.302826 
3683.000000	98.309659 
3682.000000	98.319519 
3681.000000	98.324453 
3680.000000	98.317925 
3679.000000	98.299077 
3678.000000	98.273575 
3677.000000	98.249869 
3676.000000	98.233561 
3675.000000	98.228352 
3674.000000	98.231712 
3673.000000	98.234108 
3672.000000	98.230830 
3671.000000	98.225453 
3670.000000	98.221947 
3669.000000	98.220061 
3668.000000	98.216950 
3667.000000	98.211325 
3666.000000	98.206777 
3665.000000	98.207651 
3664.000000	98.213036 
3663.000000	98.218366 
3662.000000	98.220372 
3661.000000	98.219088 
3660.000000	98.217017 
3659.000000	98.216644 
3658.000000	98.219612 
3657.000000	98.226770 
3656.000000	98.237918 
3655.000000	98.251453 
3654.000000	98.263660 
3653.000000	98.271860 
3652.000000	98.277181 
3651.000000	98.281587 
3650.000000	98.283956 
3649.000000	98.282122 
3648.000000	98.278238 
3647.000000	98.277473 
3646.000000	98.282875 
3645.000000	98.293594 
3644.000000	98.306780 
3643.000000	98.320579 
3642.000000	98.333432 
3641.000000	98.343259 
3640.000000	98.349123 
3639.000000	98.352442 
3638.000000	98.355970 
3637.000000	98.360999 
3636.000000	98.366863 
3635.000000	98.372813 
3634.000000	98.378994 
3633.000000	98.385787 
3632.000000	98.392375 
3631.000000	98.396930 
3630.000000	98.397295 
3629.000000	98.393940 
3628.000000	98.391755 
3627.000000	98.393940 
3626.000000	98.398698 
3625.000000	98.404357 
3624.000000	98.410721 
3623.000000	98.416498 
3622.000000	98.419826 
3621.000000	98.420168 
3620.000000	98.419190 
3619.000000	98.419843 
3618.000000	98.423550 
3617.000000	98.428801 
3616.000000	98.434259 
3615.000000	98.440426 
3614.000000	98.448089 
3613.000000	98.456998 
3612.000000	98.465776 
3611.000000	98.472635 
3610.000000	98.476725 
3609.000000	98.478625 
3608.000000	98.479656 
3607.000000	98.480911 
3606.000000	98.482344 
3605.000000	98.483477 
3604.000000	98.484348 
3603.000000	98.485008 
3602.000000	98.485526 
3601.000000	98.486398 
3600.000000	98.488722 
3599.000000	98.493197 
3598.000000	98.498677 
3597.000000	98.502508 
3596.000000	98.503388 
3595.000000	98.502659 
3594.000000	98.503045 
3593.000000	98.506335 
3592.000000	98.511676 
3591.000000	98.516688 
3590.000000	98.519615 
3589.000000	98.520051 
3588.000000	98.518589 
3587.000000	98.516595 
3586.000000	98.515016 
3585.000000	98.513890 
3584.000000	98.513398 
3583.000000	98.514077 
3582.000000	98.515855 
3581.000000	98.517807 
3580.000000	98.519095 
3579.000000	98.519850 
3578.000000	98.520909 
3577.000000	98.522940 
3576.000000	98.525842 
3575.000000	98.528867 
3574.000000	98.530972 
3573.000000	98.531733 
3572.000000	98.531711 
3571.000000	98.531829 
3570.000000	98.532529 
3569.000000	98.533051 
3568.000000	98.531820 
3567.000000	98.528500 
3566.000000	98.524859 
3565.000000	98.522836 
3564.000000	98.522879 
3563.000000	98.524148 
3562.000000	98.525191 
3561.000000	98.525018 
3560.000000	98.523784 
3559.000000	98.522515 
3558.000000	98.521992 
3557.000000	98.522127 
3556.000000	98.522425 
3555.000000	98.522763 
3554.000000	98.523441 
3553.000000	98.524657 
3552.000000	98.526238 
3551.000000	98.527829 
3550.000000	98.529212 
3549.000000	98.530451 
3548.000000	98.531576 
3547.000000	98.532297 
3546.000000	98.532146 
3545.000000	98.531006 
3544.000000	98.529461 
3543.000000	98.528503 
3542.000000	98.528700 
3541.000000	98.529773 
3540.000000	98.530841 
3539.000000	98.531200 
3538.000000	98.530891 
3537.000000	98.530488 
3536.000000	98.530519 
3535.000000	98.531056 
3534.000000	98.531924 
3533.000000	98.532996 
3532.000000	98.534118 
3531.000000	98.534957 
3530.000000	98.535226 
3529.000000	98.535131 
3528.000000	98.535324 
3527.000000	98.536220 
3526.000000	98.537503 
3525.000000	98.538438 
3524.000000	98.538602 
3523.000000	98.538172 
3522.000000	98.537605 
3521.000000	98.537316 
3520.000000	98.537636 
3519.000000	98.538713 
3518.000000	98.540241 
3517.000000	98.541478 
3516.000000	98.541949 
3515.000000	98.541971 
3514.000000	98.542387 
3513.000000	98.543776 
3512.000000	98.546006 
3511.000000	98.548445 
3510.000000	98.550572 
3509.000000	98.552244 
3508.000000	98.553424 
3507.000000	98.554059 
3506.000000	98.554291 
3505.000000	98.554556 
3504.000000	98.555134 
3503.000000	98.555670 
3502.000000	98.555476 
3501.000000	98.554386 
3500.000000	98.553092 
3499.000000	98.552538 
3498.000000	98.553177 
3497.000000	98.554893 
3496.000000	98.557313 
3495.000000	98.559916 
3494.000000	98.562058 
3493.000000	98.563243 
3492.000000	98.563470 
3491.000000	98.563193 
3490.000000	98.562943 
3489.000000	98.562973 
3488.000000	98.563175 
3487.000000	98.563234 
3486.000000	98.562901 
3485.000000	98.562192 
3484.000000	98.561430 
3483.000000	98.561013 
3482.000000	98.561140 
3481.000000	98.561729 
3480.000000	98.562513 
3479.000000	98.563266 
3478.000000	98.563936 
3477.000000	98.564567 
3476.000000	98.565096 
3475.000000	98.565318 
3474.000000	98.565111 
3473.000000	98.564645 
3472.000000	98.564277 
3471.000000	98.564244 
3470.000000	98.564547 
3469.000000	98.565079 
3468.000000	98.565698 
3467.000000	98.566186 
3466.000000	98.566343 
3465.000000	98.566193 
3464.000000	98.565990 
3463.000000	98.565980 
3462.000000	98.566154 
3461.000000	98.566294 
3460.000000	98.566239 
3459.000000	98.566031 
3458.000000	98.565840 
3457.000000	98.565786 
3456.000000	98.565863 
3455.000000	98.565994 
3454.000000	98.566118 
3453.000000	98.566221 
3452.000000	98.566291 
3451.000000	98.566296 
3450.000000	98.566213 
3449.000000	98.566072 
3448.000000	98.565944 
3447.000000	98.565876 
3446.000000	98.565830 
3445.000000	98.565721 
3444.000000	98.565523 
3443.000000	98.565328 
3442.000000	98.565275 
3441.000000	98.565406 
3440.000000	98.565621 
3439.000000	98.565740 
3438.000000	98.565653 
3437.000000	98.565418 
3436.000000	98.565246 
3435.000000	98.565308 
3434.000000	98.565572 
3433.000000	98.565855 
3432.000000	98.566065 
3431.000000	98.566274 
3430.000000	98.566500 
3429.000000	98.566568 
3428.000000	98.566332 
3427.000000	98.565956 
3426.000000	98.565761 
3425.000000	98.565789 
3424.000000	98.565726 
3423.000000	98.565310 
3422.000000	98.564697 
3421.000000	98.564272 
3420.000000	98.564150 
3419.000000	98.564018 
3418.000000	98.563528 
3417.000000	98.562766 
3416.000000	98.562170 
3415.000000	98.562076 
3414.000000	98.562486 
3413.000000	98.563186 
3412.000000	98.564004 
3411.000000	98.564830 
3410.000000	98.565544 
3409.000000	98.566044 
3408.000000	98.566264 
3407.000000	98.566142 
3406.000000	98.565704 
3405.000000	98.565184 
3404.000000	98.564945 
3403.000000	98.565142 
3402.000000	98.565567 
3401.000000	98.565883 
3400.000000	98.566011 
3399.000000	98.566173 
3398.000000	98.566586 
3397.000000	98.567197 
3396.000000	98.567747 
3395.000000	98.568060 
3394.000000	98.568248 
3393.000000	98.568598 
3392.000000	98.569227 
3391.000000	98.569932 
3390.000000	98.570409 
3389.000000	98.570572 
3388.000000	98.570601 
3387.000000	98.570743 
3386.000000	98.571145 
3385.000000	98.571868 
3384.000000	98.572924 
3383.000000	98.574218 
3382.000000	98.575505 
3381.000000	98.576522 
3380.000000	98.577157 
3379.000000	98.577499 
3378.000000	98.577750 
3377.000000	98.578080 
3376.000000	98.578473 
3375.000000	98.578744 
3374.000000	98.578795 
3373.000000	98.578902 
3372.000000	98.579555 
3371.000000	98.580949 
3370.000000	98.582728 
3369.000000	98.584264 
3368.000000	98.585217 
3367.000000	98.585632 
3366.000000	98.585676 
3365.000000	98.585516 
3364.000000	98.585413 
3363.000000	98.585692 
3362.000000	98.586444 
3361.000000	98.587403 
3360.000000	98.588266 
3359.000000	98.589055 
3358.000000	98.590052 
3357.000000	98.591420 
3356.000000	98.592977 
3355.000000	98.594308 
3354.000000	98.595103 
3353.000000	98.595448 
3352.000000	98.595778 
3351.000000	98.596469 
3350.000000	98.597463 
3349.000000	98.598465 
3348.000000	98.599442 
3347.000000	98.600721 
3346.000000	98.602508 
3345.000000	98.604451 
3344.000000	98.605898 
3343.000000	98.606516 
3342.000000	98.606506 
3341.000000	98.606197 
3340.000000	98.605533 
3339.000000	98.604160 
3338.000000	98.602109 
3337.000000	98.600238 
3336.000000	98.599669 
3335.000000	98.600726 
3334.000000	98.602641 
3333.000000	98.604290 
3332.000000	98.605090 
3331.000000	98.605035 
3330.000000	98.604251 
3329.000000	98.602984 
3328.000000	98.601821 
3327.000000	98.601414 
3326.000000	98.601876 
3325.000000	98.602676 
3324.000000	98.603281 
3323.000000	98.603777 
3322.000000	98.604694 
3321.000000	98.606359 
3320.000000	98.608528 
3319.000000	98.610563 
3318.000000	98.611946 
3317.000000	98.612617 
3316.000000	98.612941 
3315.000000	98.613437 
3314.000000	98.614497 
3313.000000	98.616164 
3312.000000	98.618007 
3311.000000	98.619333 
3310.000000	98.619787 
3309.000000	98.619728 
3308.000000	98.619783 
3307.000000	98.620063 
3306.000000	98.620021 
3305.000000	98.619159 
3304.000000	98.617614 
3303.000000	98.616019 
3302.000000	98.614999 
3301.000000	98.614864 
3300.000000	98.615543 
3299.000000	98.616571 
3298.000000	98.617332 
3297.000000	98.617557 
3296.000000	98.617605 
3295.000000	98.618138 
3294.000000	98.619499 
3293.000000	98.621385 
3292.000000	98.623015 
3291.000000	98.623688 
3290.000000	98.623340 
3289.000000	98.622618 
3288.000000	98.622307 
3287.000000	98.622539 
3286.000000	98.622757 
3285.000000	98.622509 
3284.000000	98.622062 
3283.000000	98.622097 
3282.000000	98.622957 
3281.000000	98.624421 
3280.000000	98.626053 
3279.000000	98.627528 
3278.000000	98.628663 
3277.000000	98.629303 
3276.000000	98.629314 
3275.000000	98.628692 
3274.000000	98.627633 
3273.000000	98.626496 
3272.000000	98.625592 
3271.000000	98.625036 
3270.000000	98.624881 
3269.000000	98.625330 
3268.000000	98.626566 
3267.000000	98.628325 
3266.000000	98.629858 
3265.000000	98.630583 
3264.000000	98.630585 
3263.000000	98.630357 
3262.000000	98.630143 
3261.000000	98.629788 
3260.000000	98.629192 
3259.000000	98.628570 
3258.000000	98.628236 
3257.000000	98.628317 
3256.000000	98.628722 
3255.000000	98.629208 
3254.000000	98.629480 
3253.000000	98.629387 
3252.000000	98.629056 
3251.000000	98.628781 
3250.000000	98.628722 
3249.000000	98.628819 
3248.000000	98.628958 
3247.000000	98.629088 
3246.000000	98.629196 
3245.000000	98.629305 
3244.000000	98.629513 
3243.000000	98.629896 
3242.000000	98.630362 
3241.000000	98.630690 
3240.000000	98.630777 
3239.000000	98.630752 
3238.000000	98.630823 
3237.000000	98.631070 
3236.000000	98.631416 
3235.000000	98.631741 
3234.000000	98.631969 
3233.000000	98.632084 
3232.000000	98.632118 
3231.000000	98.632147 
3230.000000	98.632237 
3229.000000	98.632388 
3228.000000	98.632531 
3227.000000	98.632613 
3226.000000	98.632673 
3225.000000	98.632839 
3224.000000	98.633204 
3223.000000	98.633723 
3222.000000	98.634205 
3221.000000	98.634465 
3220.000000	98.634483 
3219.000000	98.634423 
3218.000000	98.634493 
3217.000000	98.634740 
3216.000000	98.635060 
3215.000000	98.635378 
3214.000000	98.635751 
3213.000000	98.636261 
3212.000000	98.636881 
3211.000000	98.637497 
3210.000000	98.637991 
3209.000000	98.638256 
3208.000000	98.638173 
3207.000000	98.637722 
3206.000000	98.637156 
3205.000000	98.636922 
3204.000000	98.637279 
3203.000000	98.638094 
3202.000000	98.639023 
3201.000000	98.639913 
3200.000000	98.640810 
3199.000000	98.641625 
3198.000000	98.642034 
3197.000000	98.641815 
3196.000000	98.641149 
3195.000000	98.640475 
3194.000000	98.640128 
3193.000000	98.640221 
3192.000000	98.640796 
3191.000000	98.641850 
3190.000000	98.643252 
3189.000000	98.644777 
3188.000000	98.646234 
3187.000000	98.647459 
3186.000000	98.648211 
3185.000000	98.648373 
3184.000000	98.648276 
3183.000000	98.648604 
3182.000000	98.649746 
3181.000000	98.651308 
3180.000000	98.652436 
3179.000000	98.652658 
3178.000000	98.652270 
3177.000000	98.651992 
3176.000000	98.652289 
3175.000000	98.653088 
3174.000000	98.653981 
3173.000000	98.654577 
3172.000000	98.654755 
3171.000000	98.654711 
3170.000000	98.654786 
3169.000000	98.655151 
3168.000000	98.655619 
3167.000000	98.655813 
3166.000000	98.655551 
3165.000000	98.655127 
3164.000000	98.655127 
3163.000000	98.655890 
3162.000000	98.657161 
3161.000000	98.658322 
3160.000000	98.659058 
3159.000000	98.659737 
3158.000000	98.660985 
3157.000000	98.662928 
3156.000000	98.664941 
3155.000000	98.666212 
3154.000000	98.666442 
3153.000000	98.665914 
3152.000000	98.664974 
3151.000000	98.663656 
3150.000000	98.661900 
3149.000000	98.660052 
3148.000000	98.658946 
3147.000000	98.659371 
3146.000000	98.661462 
3145.000000	98.664592 
3144.000000	98.667828 
3143.000000	98.670559 
3142.000000	98.672678 
3141.000000	98.674247 
3140.000000	98.675207 
3139.000000	98.675493 
3138.000000	98.675310 
3137.000000	98.675061 
3136.000000	98.675006 
3135.000000	98.675143 
3134.000000	98.675382 
3133.000000	98.675644 
3132.000000	98.675729 
3131.000000	98.675344 
3130.000000	98.674437 
3129.000000	98.673446 
3128.000000	98.673025 
3127.000000	98.673541 
3126.000000	98.674919 
3125.000000	98.676786 
3124.000000	98.678615 
3123.000000	98.679882 
3122.000000	98.680300 
3121.000000	98.679994 
3120.000000	98.679411 
3119.000000	98.678995 
3118.000000	98.678977 
3117.000000	98.679415 
3116.000000	98.680248 
3115.000000	98.681267 
3114.000000	98.682195 
3113.000000	98.682896 
3112.000000	98.683487 
3111.000000	98.684185 
3110.000000	98.685037 
3109.000000	98.685818 
3108.000000	98.686194 
3107.000000	98.686008 
3106.000000	98.685470 
3105.000000	98.685057 
3104.000000	98.685078 
3103.000000	98.685359 
3102.000000	98.685401 
3101.000000	98.685031 
3100.000000	98.684778 
3099.000000	98.685296 
3098.000000	98.686410 
3097.000000	98.687115 
3096.000000	98.686721 
3095.000000	98.685719 
3094.000000	98.685259 
3093.000000	98.685975 
3092.000000	98.687494 
3091.000000	98.688689 
3090.000000	98.688355 
3089.000000	98.686149 
3088.000000	98.683317 
3087.000000	98.682135 
3086.000000	98.684124 
3085.000000	98.688740 
3084.000000	98.693735 
3083.000000	98.696769 
3082.000000	98.696864 
3081.000000	98.694966 
3080.000000	98.693405 
3079.000000	98.694141 
3078.000000	98.696923 
3077.000000	98.699311 
3076.000000	98.699060 
3075.000000	98.696456 
3074.000000	98.693966 
3073.000000	98.693412 
3072.000000	98.693852 
3071.000000	98.692786 
3070.000000	98.689296 
3069.000000	98.685296 
3068.000000	98.683151 
3067.000000	98.682718 
3066.000000	98.681960 
3065.000000	98.680355 
3064.000000	98.680008 
3063.000000	98.682481 
3062.000000	98.685855 
3061.000000	98.686662 
3060.000000	98.684215 
3059.000000	98.681297 
3058.000000	98.680308 
3057.000000	98.680127 
3056.000000	98.677721 
3055.000000	98.671973 
3054.000000	98.664939 
3053.000000	98.659592 
3052.000000	98.657046 
3051.000000	98.656010 
3050.000000	98.654395 
3049.000000	98.651246 
3048.000000	98.647294 
3047.000000	98.643786 
3046.000000	98.640955 
3045.000000	98.637808 
3044.000000	98.633328 
3043.000000	98.627560 
3042.000000	98.621097 
3041.000000	98.613687 
3040.000000	98.603953 
3039.000000	98.590883 
3038.000000	98.575287 
3037.000000	98.559012 
3036.000000	98.542661 
3035.000000	98.525078 
3034.000000	98.505608 
3033.000000	98.485655 
3032.000000	98.467151 
3031.000000	98.449927 
3030.000000	98.431355 
3029.000000	98.408994 
3028.000000	98.383045 
3027.000000	98.355718 
3026.000000	98.328774 
3025.000000	98.302409 
3024.000000	98.275981 
3023.000000	98.248805 
3022.000000	98.220302 
3021.000000	98.190359 
3020.000000	98.159808 
3019.000000	98.129927 
3018.000000	98.100981 
3017.000000	98.071602 
3016.000000	98.039966 
3015.000000	98.005466 
3014.000000	97.968983 
3013.000000	97.931571 
3012.000000	97.893147 
3011.000000	97.852838 
3010.000000	97.810640 
3009.000000	97.768203 
3008.000000	97.727307 
3007.000000	97.687791 
3006.000000	97.647908 
3005.000000	97.606926 
3004.000000	97.566164 
3003.000000	97.526711 
3002.000000	97.487347 
3001.000000	97.446352 
3000.000000	97.404876 
2999.000000	97.366778 
2998.000000	97.335044 
2997.000000	97.309874 
2996.000000	97.289744 
2995.000000	97.271122 
2994.000000	97.245771 
2993.000000	97.202160 
2992.000000	97.135160 
2991.000000	97.055527 
2990.000000	96.986236 
2989.000000	96.946281 
2988.000000	96.938402 
2987.000000	96.951606 
2986.000000	96.972372 
2985.000000	96.992250 
2984.000000	97.007605 
2983.000000	97.017335 
2982.000000	97.022389 
2981.000000	97.024832 
2980.000000	97.025490 
2979.000000	97.023412 
2978.000000	97.018253 
2977.000000	97.011565 
2976.000000	97.004699 
2975.000000	96.997059 
2974.000000	96.988399 
2973.000000	96.982067 
2972.000000	96.983803 
2971.000000	96.996889 
2970.000000	97.019549 
2969.000000	97.047207 
2968.000000	97.076362 
2967.000000	97.106282 
2966.000000	97.138071 
2965.000000	97.172650 
2964.000000	97.208967 
2963.000000	97.243660 
2962.000000	97.273010 
2961.000000	97.295822 
2960.000000	97.314358 
2959.000000	97.332456 
2958.000000	97.352917 
2957.000000	97.376348 
2956.000000	97.401465 
2955.000000	97.426037 
2954.000000	97.448307 
2953.000000	97.468378 
2952.000000	97.488168 
2951.000000	97.509477 
2950.000000	97.531960 
2949.000000	97.553222 
2948.000000	97.570778 
2947.000000	97.583680 
2946.000000	97.592806 
2945.000000	97.600178 
2944.000000	97.607783 
2943.000000	97.616783 
2942.000000	97.627354 
2941.000000	97.638671 
2940.000000	97.649314 
2939.000000	97.658357 
2938.000000	97.666256 
2937.000000	97.674550 
2936.000000	97.684590 
2935.000000	97.696624 
2934.000000	97.709986 
2933.000000	97.723540 
2932.000000	97.735473 
2931.000000	97.743232 
2930.000000	97.744821 
2929.000000	97.740666 
2928.000000	97.733883 
2927.000000	97.728210 
2926.000000	97.725497 
2925.000000	97.724871 
2924.000000	97.723884 
2923.000000	97.720508 
2922.000000	97.714462 
2921.000000	97.706877 
2920.000000	97.698572 
2919.000000	97.688801 
2918.000000	97.675899 
2917.000000	97.658923 
2916.000000	97.638201 
2915.000000	97.614590 
2914.000000	97.589151 
2913.000000	97.563953 
2912.000000	97.542289 
2911.000000	97.526855 
2910.000000	97.517449 
2909.000000	97.510948 
2908.000000	97.503932 
2907.000000	97.494655 
2906.000000	97.481810 
2905.000000	97.462355 
2904.000000	97.433484 
2903.000000	97.398971 
2902.000000	97.372329 
2901.000000	97.369189 
2900.000000	97.394648 
2899.000000	97.438144 
2898.000000	97.480788 
2897.000000	97.509369 
2896.000000	97.522809 
2895.000000	97.527768 
2894.000000	97.531282 
2893.000000	97.537222 
2892.000000	97.546348 
2891.000000	97.557067 
2890.000000	97.566536 
2889.000000	97.572572 
2888.000000	97.575080 
2887.000000	97.575858 
2886.000000	97.577648 
2885.000000	97.583542 
2884.000000	97.596256 
2883.000000	97.616702 
2882.000000	97.643038 
2881.000000	97.671665 
2880.000000	97.699592 
2879.000000	97.726123 
2878.000000	97.752333 
2877.000000	97.778883 
2876.000000	97.804407 
2875.000000	97.826441 
2874.000000	97.844225 
2873.000000	97.859949 
2872.000000	97.876453 
2871.000000	97.893981 
2870.000000	97.910301 
2869.000000	97.924121 
2868.000000	97.937462 
2867.000000	97.954382 
2866.000000	97.978026 
2865.000000	98.009082 
2864.000000	98.045988 
2863.000000	98.085869 
2862.000000	98.125813 
2861.000000	98.164045 
2860.000000	98.200175 
2859.000000	98.234433 
2858.000000	98.266980 
2857.000000	98.297829 
2856.000000	98.326516 
2855.000000	98.351705 
2854.000000	98.372338 
2853.000000	98.389177 
2852.000000	98.403954 
2851.000000	98.417147 
2850.000000	98.427749 
2849.000000	98.435140 
2848.000000	98.440025 
2847.000000	98.443540 
2846.000000	98.446752 
2845.000000	98.451241 
2844.000000	98.458566 
2843.000000	98.468403 
2842.000000	98.478327 
2841.000000	98.486175 
2840.000000	98.491760 
2839.000000	98.495968 
2838.000000	98.499559 
2837.000000	98.503489 
2836.000000	98.508887 
2835.000000	98.515595 
2834.000000	98.521925 
2833.000000	98.526941 
2832.000000	98.531771 
2831.000000	98.537412 
2830.000000	98.542539 
2829.000000	98.545263 
2828.000000	98.546248 
2827.000000	98.548224 
2826.000000	98.552692 
2825.000000	98.558718 
2824.000000	98.564887 
2823.000000	98.570871 
2822.000000	98.576812 
2821.000000	98.582442 
2820.000000	98.587230 
2819.000000	98.590678 
2818.000000	98.592329 
2817.000000	98.592210 
2816.000000	98.591264 
2815.000000	98.590745 
2814.000000	98.591266 
2813.000000	98.592959 
2812.000000	98.596085 
2811.000000	98.600567 
2810.000000	98.605266 
2809.000000	98.608808 
2808.000000	98.611125 
2807.000000	98.613278 
2806.000000	98.615716 
2805.000000	98.617577 
2804.000000	98.617910 
2803.000000	98.616884 
2802.000000	98.615554 
2801.000000	98.614898 
2800.000000	98.615236 
2799.000000	98.616235 
2798.000000	98.617405 
2797.000000	98.618726 
2796.000000	98.620637 
2795.000000	98.623292 
2794.000000	98.626176 
2793.000000	98.628725 
2792.000000	98.630875 
2791.000000	98.632702 
2790.000000	98.633997 
2789.000000	98.634690 
2788.000000	98.635262 
2787.000000	98.636235 
2786.000000	98.637584 
2785.000000	98.639093 
2784.000000	98.640913 
2783.000000	98.643155 
2782.000000	98.645246 
2781.000000	98.646400 
2780.000000	98.646672 
2779.000000	98.646999 
2778.000000	98.648145 
2777.000000	98.649984 
2776.000000	98.651857 
2775.000000	98.653302 
2774.000000	98.654362 
2773.000000	98.655389 
2772.000000	98.656680 
2771.000000	98.658215 
2770.000000	98.659708 
2769.000000	98.660910 
2768.000000	98.661841 
2767.000000	98.662685 
2766.000000	98.663542 
2765.000000	98.664363 
2764.000000	98.665100 
2763.000000	98.665847 
2762.000000	98.666802 
2761.000000	98.668093 
2760.000000	98.669664 
2759.000000	98.671290 
2758.000000	98.672739 
2757.000000	98.673966 
2756.000000	98.675117 
2755.000000	98.676352 
2754.000000	98.677655 
2753.000000	98.678859 
2752.000000	98.679874 
2751.000000	98.680793 
2750.000000	98.681766 
2749.000000	98.682821 
2748.000000	98.683883 
2747.000000	98.684945 
2746.000000	98.686113 
2745.000000	98.687471 
2744.000000	98.688950 
2743.000000	98.690353 
2742.000000	98.691517 
2741.000000	98.692387 
2740.000000	98.693010 
2739.000000	98.693520 
2738.000000	98.694138 
2737.000000	98.695058 
2736.000000	98.696286 
2735.000000	98.697588 
2734.000000	98.698693 
2733.000000	98.699578 
2732.000000	98.700451 
2731.000000	98.701507 
2730.000000	98.702750 
2729.000000	98.704068 
2728.000000	98.705367 
2727.000000	98.706587 
2726.000000	98.707677 
2725.000000	98.708661 
2724.000000	98.709659 
2723.000000	98.710747 
2722.000000	98.711858 
2721.000000	98.712849 
2720.000000	98.713629 
2719.000000	98.714206 
2718.000000	98.714673 
2717.000000	98.715196 
2716.000000	98.715921 
2715.000000	98.716820 
2714.000000	98.717683 
2713.000000	98.718340 
2712.000000	98.718849 
2711.000000	98.719392 
2710.000000	98.720062 
2709.000000	98.720836 
2708.000000	98.721692 
2707.000000	98.722610 
2706.000000	98.723470 
2705.000000	98.724082 
2704.000000	98.724405 
2703.000000	98.724651 
2702.000000	98.725101 
2701.000000	98.725827 
2700.000000	98.726691 
2699.000000	98.727498 
2698.000000	98.728112 
2697.000000	98.728468 
2696.000000	98.728619 
2695.000000	98.728777 
2694.000000	98.729183 
2693.000000	98.729828 
2692.000000	98.730384 
2691.000000	98.730531 
2690.000000	98.730355 
2689.000000	98.730278 
2688.000000	98.730498 
2687.000000	98.730655 
2686.000000	98.730258 
2685.000000	98.729407 
2684.000000	98.728888 
2683.000000	98.729322 
2682.000000	98.730402 
2681.000000	98.731113 
2680.000000	98.730792 
2679.000000	98.729692 
2678.000000	98.728637 
2677.000000	98.728218 
2676.000000	98.728352 
2675.000000	98.728476 
2674.000000	98.728118 
2673.000000	98.727335 
2672.000000	98.726635 
2671.000000	98.726423 
2670.000000	98.726646 
2669.000000	98.727055 
2668.000000	98.727562 
2667.000000	98.728074 
2666.000000	98.728185 
2665.000000	98.727440 
2664.000000	98.725877 
2663.000000	98.723935 
2662.000000	98.721883 
2661.000000	98.719734 
2660.000000	98.717749 
2659.000000	98.716485 
2658.000000	98.716084 
2657.000000	98.715921 
2656.000000	98.715316 
2655.000000	98.714345 
2654.000000	98.713607 
2653.000000	98.713371 
2652.000000	98.713349 
2651.000000	98.713160 
2650.000000	98.712584 
2649.000000	98.711420 
2648.000000	98.709555 
2647.000000	98.707409 
2646.000000	98.705948 
2645.000000	98.705913 
2644.000000	98.707186 
2643.000000	98.709013 
2642.000000	98.710677 
2641.000000	98.711800 
2640.000000	98.712133 
2639.000000	98.711530 
2638.000000	98.710234 
2637.000000	98.708892 
2636.000000	98.708076 
2635.000000	98.707924 
2634.000000	98.708343 
2633.000000	98.709275 
2632.000000	98.710580 
2631.000000	98.711817 
2630.000000	98.712448 
2629.000000	98.712271 
2628.000000	98.711483 
2627.000000	98.710420 
2626.000000	98.709383 
2625.000000	98.708592 
2624.000000	98.708158 
2623.000000	98.708079 
2622.000000	98.708294 
2621.000000	98.708688 
2620.000000	98.709048 
2619.000000	98.709181 
2618.000000	98.709161 
2617.000000	98.709283 
2616.000000	98.709647 
2615.000000	98.709975 
2614.000000	98.709973 
2613.000000	98.709727 
2612.000000	98.709592 
2611.000000	98.709774 
2610.000000	98.710200 
2609.000000	98.710693 
2608.000000	98.711129 
2607.000000	98.711427 
2606.000000	98.711598 
2605.000000	98.711797 
2604.000000	98.712173 
2603.000000	98.712696 
2602.000000	98.713230 
2601.000000	98.713697 
2600.000000	98.714110 
2599.000000	98.714493 
2598.000000	98.714853 
2597.000000	98.715215 
2596.000000	98.715626 
2595.000000	98.716091 
2594.000000	98.716575 
2593.000000	98.717036 
2592.000000	98.717471 
2591.000000	98.717891 
2590.000000	98.718313 
2589.000000	98.718751 
2588.000000	98.719209 
2587.000000	98.719683 
2586.000000	98.720162 
2585.000000	98.720638 
2584.000000	98.721109 
2583.000000	98.721574 
2582.000000	98.722039 
2581.000000	98.722509 
2580.000000	98.722991 
2579.000000	98.723485 
2578.000000	98.723989 
2577.000000	98.724499 
2576.000000	98.725010 
2575.000000	98.725520 
2574.000000	98.726025 
2573.000000	98.726525 
2572.000000	98.727020 
2571.000000	98.727508 
2570.000000	98.727985 
2569.000000	98.728450 
2568.000000	98.728910 
2567.000000	98.729368 
2566.000000	98.729818 
2565.000000	98.730252 
2564.000000	98.730665 
2563.000000	98.731057 
2562.000000	98.731432 
2561.000000	98.731790 
2560.000000	98.732130 
2559.000000	98.732451 
2558.000000	98.732751 
2557.000000	98.733029 
2556.000000	98.733291 
2555.000000	98.733543 
2554.000000	98.733795 
2553.000000	98.734049 
2552.000000	98.734307 
2551.000000	98.734568 
2550.000000	98.734825 
2549.000000	98.735066 
2548.000000	98.735287 
2547.000000	98.735487 
2546.000000	98.735670 
2545.000000	98.735836 
2544.000000	98.735983 
2543.000000	98.736107 
2542.000000	98.736207 
2541.000000	98.736291 
2540.000000	98.736382 
2539.000000	98.736487 
2538.000000	98.736560 
2537.000000	98.736523 
2536.000000	98.736390 
2535.000000	98.736305 
2534.000000	98.736406 
2533.000000	98.736690 
2532.000000	98.737038 
2531.000000	98.737295 
2530.000000	98.737311 
2529.000000	98.737021 
2528.000000	98.736585 
2527.000000	98.736296 
2526.000000	98.736217 
2525.000000	98.736082 
2524.000000	98.735643 
2523.000000	98.734980 
2522.000000	98.734389 
2521.000000	98.734092 
2520.000000	98.734133 
2519.000000	98.734395 
2518.000000	98.734606 
2517.000000	98.734543 
2516.000000	98.734340 
2515.000000	98.734423 
2514.000000	98.735040 
2513.000000	98.735971 
2512.000000	98.736717 
2511.000000	98.736921 
2510.000000	98.736530 
2509.000000	98.735796 
2508.000000	98.735177 
2507.000000	98.734983 
2506.000000	98.735067 
2505.000000	98.735005 
2504.000000	98.734621 
2503.000000	98.734097 
2502.000000	98.733572 
2501.000000	98.732977 
2500.000000	98.732415 
2499.000000	98.732334 
2498.000000	98.733046 
2497.000000	98.734307 
2496.000000	98.735497 
2495.000000	98.736131 
2494.000000	98.736124 
2493.000000	98.735763 
2492.000000	98.735569 
2491.000000	98.735905 
2490.000000	98.736660 
2489.000000	98.737345 
2488.000000	98.737594 
2487.000000	98.737482 
2486.000000	98.737341 
2485.000000	98.737377 
2484.000000	98.737518 
2483.000000	98.737571 
2482.000000	98.737411 
2481.000000	98.737086 
2480.000000	98.736801 
2479.000000	98.736740 
2478.000000	98.736906 
2477.000000	98.737150 
2476.000000	98.737316 
2475.000000	98.737332 
2474.000000	98.737174 
2473.000000	98.736853 
2472.000000	98.736453 
2471.000000	98.736104 
2470.000000	98.735871 
2469.000000	98.735720 
2468.000000	98.735585 
2467.000000	98.735426 
2466.000000	98.735215 
2465.000000	98.734946 
2464.000000	98.734661 
2463.000000	98.734424 
2462.000000	98.734252 
2461.000000	98.734108 
2460.000000	98.733938 
2459.000000	98.733727 
2458.000000	98.733485 
2457.000000	98.733229 
2456.000000	98.732969 
2455.000000	98.732717 
2454.000000	98.732482 
2453.000000	98.732254 
2452.000000	98.732016 
2451.000000	98.731775 
2450.000000	98.731559 
2449.000000	98.731392 
2448.000000	98.731273 
2447.000000	98.731179 
2446.000000	98.731099 
2445.000000	98.731032 
2444.000000	98.730973 
2443.000000	98.730925 
2442.000000	98.730891 
2441.000000	98.730864 
2440.000000	98.730831 
2439.000000	98.730786 
2438.000000	98.730709 
2437.000000	98.730552 
2436.000000	98.730280 
2435.000000	98.729931 
2434.000000	98.729606 
2433.000000	98.729414 
2432.000000	98.729453 
2431.000000	98.729788 
2430.000000	98.730366 
2429.000000	98.730985 
2428.000000	98.731392 
2427.000000	98.731454 
2426.000000	98.731269 
2425.000000	98.731093 
2424.000000	98.731115 
2423.000000	98.731240 
2422.000000	98.731191 
2421.000000	98.730959 
2420.000000	98.731004 
2419.000000	98.731713 
2418.000000	98.732790 
2417.000000	98.733517 
2416.000000	98.733612 
2415.000000	98.733484 
2414.000000	98.733643 
2413.000000	98.734238 
2412.000000	98.735220 
2411.000000	98.736550 
2410.000000	98.737988 
2409.000000	98.738978 
2408.000000	98.739106 
2407.000000	98.738447 
2406.000000	98.737409 
2405.000000	98.736386 
2404.000000	98.735619 
2403.000000	98.735181 
2402.000000	98.735004 
2401.000000	98.734972 
2400.000000	98.735036 
2399.000000	98.735221 
2398.000000	98.735508 
2397.000000	98.735794 
2396.000000	98.735972 
2395.000000	98.735995 
2394.000000	98.735881 
2393.000000	98.735718 
2392.000000	98.735628 
2391.000000	98.735647 
2390.000000	98.735643 
2389.000000	98.735407 
2388.000000	98.734868 
2387.000000	98.734204 
2386.000000	98.733752 
2385.000000	98.733752 
2384.000000	98.734129 
2383.000000	98.734443 
2382.000000	98.734215 
2381.000000	98.733339 
2380.000000	98.732120 
2379.000000	98.730946 
2378.000000	98.729940 
2377.000000	98.729015 
2376.000000	98.728101 
2375.000000	98.727203 
2374.000000	98.726328 
2373.000000	98.725466 
2372.000000	98.724582 
2371.000000	98.723589 
2370.000000	98.722397 
2369.000000	98.721048 
2368.000000	98.719704 
2367.000000	98.718475 
2366.000000	98.717337 
2365.000000	98.716212 
2364.000000	98.715055 
2363.000000	98.713781 
2362.000000	98.712242 
2361.000000	98.710400 
2360.000000	98.708483 
2359.000000	98.706846 
2358.000000	98.705619 
2357.000000	98.704657 
2356.000000	98.703792 
2355.000000	98.702865 
2354.000000	98.701542 
2353.000000	98.699509 
2352.000000	98.696932 
2351.000000	98.694371 
2350.000000	98.692133 
2349.000000	98.690177 
2348.000000	98.688249 
2347.000000	98.686066 
2346.000000	98.683643 
2345.000000	98.681358 
2344.000000	98.679552 
2343.000000	98.678101 
2342.000000	98.676667 
2341.000000	98.674951 
2340.000000	98.672838 
2339.000000	98.670555 
2338.000000	98.668504 
2337.000000	98.666816 
2336.000000	98.665182 
2335.000000	98.663214 
2334.000000	98.660911 
2333.000000	98.658715 
2332.000000	98.657229 
2331.000000	98.656802 
2330.000000	98.656929 
2329.000000	98.656492 
2328.000000	98.654459 
2327.000000	98.650536 
2326.000000	98.645234 
2325.000000	98.639710 
2324.000000	98.635525 
2323.000000	98.633537 
2322.000000	98.633234 
2321.000000	98.633109 
2320.000000	98.632515 
2319.000000	98.632131 
2318.000000	98.632458 
2317.000000	98.632887 
2316.000000	98.632394 
2315.000000	98.630690 
2314.000000	98.628110 
2313.000000	98.625197 
2312.000000	98.622580 
2311.000000	98.620927 
2310.000000	98.620378 
2309.000000	98.620497 
2308.000000	98.620965 
2307.000000	98.621942 
2306.000000	98.623481 
2305.000000	98.625081 
2304.000000	98.626129 
2303.000000	98.626300 
2302.000000	98.625449 
2301.000000	98.623790 
2300.000000	98.622231 
2299.000000	98.621714 
2298.000000	98.621930 
2297.000000	98.621622 
2296.000000	98.620280 
2295.000000	98.618567 
2294.000000	98.616766 
2293.000000	98.614108 
2292.000000	98.610306 
2291.000000	98.606489 
2290.000000	98.603704 
2289.000000	98.601522 
2288.000000	98.599210 
2287.000000	98.597340 
2286.000000	98.597162 
2285.000000	98.598875 
2284.000000	98.601422 
2283.000000	98.603579 
2282.000000	98.604626 
2281.000000	98.604691 
2280.000000	98.604883 
2279.000000	98.606058 
2278.000000	98.607269 
2277.000000	98.606808 
2276.000000	98.604926 
2275.000000	98.603880 
2274.000000	98.604639 
2273.000000	98.605512 
2272.000000	98.604944 
2271.000000	98.603979 
2270.000000	98.604692 
2269.000000	98.607341 
2268.000000	98.610157 
2267.000000	98.611225 
2266.000000	98.609771 
2265.000000	98.606477 
2264.000000	98.603192 
2263.000000	98.601371 
2262.000000	98.600430 
2261.000000	98.598442 
2260.000000	98.594689 
2259.000000	98.590531 
2258.000000	98.587550 
2257.000000	98.585856 
2256.000000	98.584746 
2255.000000	98.583953 
2254.000000	98.583575 
2253.000000	98.583445 
2252.000000	98.583261 
2251.000000	98.582942 
2250.000000	98.582426 
2249.000000	98.581469 
2248.000000	98.579998 
2247.000000	98.578282 
2246.000000	98.576569 
2245.000000	98.574882 
2244.000000	98.573269 
2243.000000	98.571934 
2242.000000	98.570952 
2241.000000	98.570129 
2240.000000	98.569304 
2239.000000	98.568571 
2238.000000	98.567947 
2237.000000	98.567010 
2236.000000	98.565305 
2235.000000	98.563006 
2234.000000	98.560979 
2233.000000	98.559888 
2232.000000	98.559619 
2231.000000	98.559500 
2230.000000	98.558932 
2229.000000	98.557754 
2228.000000	98.556070 
2227.000000	98.553955 
2226.000000	98.551339 
2225.000000	98.548312 
2224.000000	98.545569 
2223.000000	98.543996 
2222.000000	98.543703 
2221.000000	98.543716 
2220.000000	98.542923 
2219.000000	98.541416 
2218.000000	98.540375 
2217.000000	98.540653 
2216.000000	98.541792 
2215.000000	98.542497 
2214.000000	98.541869 
2213.000000	98.539887 
2212.000000	98.536979 
2211.000000	98.533628 
2210.000000	98.530473 
2209.000000	98.528339 
2208.000000	98.527644 
2207.000000	98.527774 
2206.000000	98.527485 
2205.000000	98.526350 
2204.000000	98.525535 
2203.000000	98.526454 
2202.000000	98.528483 
2201.000000	98.529342 
2200.000000	98.527865 
2199.000000	98.524781 
2198.000000	98.520762 
2197.000000	98.515836 
2196.000000	98.511187 
2195.000000	98.508839 
2194.000000	98.508581 
2193.000000	98.507203 
2192.000000	98.501970 
2191.000000	98.493531 
2190.000000	98.484718 
2189.000000	98.477684 
2188.000000	98.472906 
2187.000000	98.470116 
2186.000000	98.469633 
2185.000000	98.472910 
2184.000000	98.480798 
2183.000000	98.490158 
2182.000000	98.494108 
2181.000000	98.488668 
2180.000000	98.478030 
2179.000000	98.470186 
2178.000000	98.467864 
2177.000000	98.467871 
2176.000000	98.468364 
2175.000000	98.471630 
2174.000000	98.478673 
2173.000000	98.486113 
2172.000000	98.490721 
2171.000000	98.492694 
2170.000000	98.492060 
2169.000000	98.486076 
2168.000000	98.473561 
2167.000000	98.458723 
2166.000000	98.446945 
2165.000000	98.438539 
2164.000000	98.429914 
2163.000000	98.419944 
2162.000000	98.412846 
2161.000000	98.415519 
2160.000000	98.432881 
2159.000000	98.463075 
2158.000000	98.495291 
2157.000000	98.516992 
2156.000000	98.525112 
2155.000000	98.525806 
2154.000000	98.525046 
2153.000000	98.523715 
2152.000000	98.521529 
2151.000000	98.520359 
2150.000000	98.521344 
2149.000000	98.522840 
2148.000000	98.524166 
2147.000000	98.528235 
2146.000000	98.537591 
2145.000000	98.550503 
2144.000000	98.563580 
2143.000000	98.575455 
2142.000000	98.584902 
2141.000000	98.588359 
2140.000000	98.583491 
2139.000000	98.573941 
2138.000000	98.567258 
2137.000000	98.567748 
2136.000000	98.573579 
2135.000000	98.580303 
2134.000000	98.585130 
2133.000000	98.588157 
2132.000000	98.591224 
2131.000000	98.595548 
2130.000000	98.599628 
2129.000000	98.600076 
2128.000000	98.595336 
2127.000000	98.587840 
2126.000000	98.581866 
2125.000000	98.579711 
2124.000000	98.580538 
2123.000000	98.582157 
2122.000000	98.583044 
2121.000000	98.583089 
2120.000000	98.582970 
2119.000000	98.582699 
2118.000000	98.580986 
2117.000000	98.576753 
2116.000000	98.571116 
2115.000000	98.566718 
2114.000000	98.565151 
2113.000000	98.566015 
2112.000000	98.568583 
2111.000000	98.572536 
2110.000000	98.576361 
2109.000000	98.577340 
2108.000000	98.574418 
2107.000000	98.569632 
2106.000000	98.565774 
2105.000000	98.563650 
2104.000000	98.562519 
2103.000000	98.561938 
2102.000000	98.561874 
2101.000000	98.561844 
2100.000000	98.561164 
2099.000000	98.559815 
2098.000000	98.558569 
2097.000000	98.558490 
2096.000000	98.560317 
2095.000000	98.563475 
2094.000000	98.565665 
2093.000000	98.564795 
2092.000000	98.561084 
2091.000000	98.556633 
2090.000000	98.553016 
2089.000000	98.549887 
2088.000000	98.546182 
2087.000000	98.541640 
2086.000000	98.536975 
2085.000000	98.533211 
2084.000000	98.531128 
2083.000000	98.530935 
2082.000000	98.531847 
2081.000000	98.532311 
2080.000000	98.531270 
2079.000000	98.528879 
2078.000000	98.525880 
2077.000000	98.522763 
2076.000000	98.519749 
2075.000000	98.517015 
2074.000000	98.514442 
2073.000000	98.511596 
2072.000000	98.508433 
2071.000000	98.505621 
2070.000000	98.503753 
2069.000000	98.502566 
2068.000000	98.501236 
2067.000000	98.499147 
2066.000000	98.496121 
2065.000000	98.492481 
2064.000000	98.489145 
2063.000000	98.487031 
2062.000000	98.485960 
2061.000000	98.484557 
2060.000000	98.481698 
2059.000000	98.477652 
2058.000000	98.473616 
2057.000000	98.470601 
2056.000000	98.468939 
2055.000000	98.468167 
2054.000000	98.466848 
2053.000000	98.463308 
2052.000000	98.457077 
2051.000000	98.449387 
2050.000000	98.442335 
2049.000000	98.437274 
2048.000000	98.434504 
2047.000000	98.433851 
2046.000000	98.434727 
2045.000000	98.435802 
2044.000000	98.435582 
2043.000000	98.433589 
2042.000000	98.430535 
2041.000000	98.427583 
2040.000000	98.425505 
2039.000000	98.424353 
2038.000000	98.423697 
2037.000000	98.423120 
2036.000000	98.422477 
2035.000000	98.421638 
2034.000000	98.420281 
2033.000000	98.418336 
2032.000000	98.416347 
2031.000000	98.414850 
2030.000000	98.413603 
2029.000000	98.412028 
2028.000000	98.410251 
2027.000000	98.408970 
2026.000000	98.408369 
2025.000000	98.407838 
2024.000000	98.406758 
2023.000000	98.405218 
2022.000000	98.403703 
2021.000000	98.402461 
2020.000000	98.401344 
2019.000000	98.400112 
2018.000000	98.398698 
2017.000000	98.397223 
2016.000000	98.395907 
2015.000000	98.394960 
2014.000000	98.394461 
2013.000000	98.394254 
2012.000000	98.393973 
2011.000000	98.393259 
2010.000000	98.392015 
2009.000000	98.390615 
2008.000000	98.389662 
2007.000000	98.389268 
2006.000000	98.388769 
2005.000000	98.387463 
2004.000000	98.385486 
2003.000000	98.383758 
2002.000000	98.382713 
2001.000000	98.381698 
2000.000000	98.380163 
1999.000000	98.378677 
1998.000000	98.377864 
1997.000000	98.377272 
1996.000000	98.376272 
1995.000000	98.375241 
1994.000000	98.374665 
1993.000000	98.373765 
1992.000000	98.371531 
1991.000000	98.368714 
1990.000000	98.367143 
1989.000000	98.367280 
1988.000000	98.367759 
1987.000000	98.367040 
1986.000000	98.364769 
1985.000000	98.361952 
1984.000000	98.360332 
1983.000000	98.360715 
1982.000000	98.361383 
1981.000000	98.359593 
1980.000000	98.355523 
1979.000000	98.352895 
1978.000000	98.354458 
1977.000000	98.359054 
1976.000000	98.364225 
1975.000000	98.369467 
1974.000000	98.374763 
1973.000000	98.378440 
1972.000000	98.378963 
1971.000000	98.377027 
1970.000000	98.374147 
1969.000000	98.370761 
1968.000000	98.367478 
1967.000000	98.366492 
1966.000000	98.369413 
1965.000000	98.374955 
1964.000000	98.380368 
1963.000000	98.384547 
1962.000000	98.388153 
1961.000000	98.391888 
1960.000000	98.395854 
1959.000000	98.399566 
1958.000000	98.401908 
1957.000000	98.402210 
1956.000000	98.401932 
1955.000000	98.403729 
1954.000000	98.408083 
1953.000000	98.412312 
1952.000000	98.413900 
1951.000000	98.413497 
1950.000000	98.413523 
1949.000000	98.415106 
1948.000000	98.417917 
1947.000000	98.421817 
1946.000000	98.426797 
1945.000000	98.431913 
1944.000000	98.435767 
1943.000000	98.437865 
1942.000000	98.438503 
1941.000000	98.437952 
1940.000000	98.436733 
1939.000000	98.435990 
1938.000000	98.436652 
1937.000000	98.438562 
1936.000000	98.441039 
1935.000000	98.443794 
1934.000000	98.446659 
1933.000000	98.448961 
1932.000000	98.450150 
1931.000000	98.450839 
1930.000000	98.452084 
1929.000000	98.453968 
1928.000000	98.455949 
1927.000000	98.457985 
1926.000000	98.460310 
1925.000000	98.462513 
1924.000000	98.464069 
1923.000000	98.465498 
1922.000000	98.467549 
1921.000000	98.469779 
1920.000000	98.471282 
1919.000000	98.472094 
1918.000000	98.472707 
1917.000000	98.472967 
1916.000000	98.472859 
1915.000000	98.473347 
1914.000000	98.475088 
1913.000000	98.477155 
1912.000000	98.478256 
1911.000000	98.478691 
1910.000000	98.479402 
1909.000000	98.480093 
1908.000000	98.480055 
1907.000000	98.479514 
1906.000000	98.479014 
1905.000000	98.478320 
1904.000000	98.477332 
1903.000000	98.477004 
1902.000000	98.477832 
1901.000000	98.478904 
1900.000000	98.479358 
1899.000000	98.479649 
1898.000000	98.480589 
1897.000000	98.481904 
1896.000000	98.482703 
1895.000000	98.482899 
1894.000000	98.483079 
1893.000000	98.483555 
1892.000000	98.484341 
1891.000000	98.485511 
1890.000000	98.487039 
1889.000000	98.488659 
1888.000000	98.490228 
1887.000000	98.491753 
1886.000000	98.492910 
1885.000000	98.493178 
1884.000000	98.492576 
1883.000000	98.492023 
1882.000000	98.492400 
1881.000000	98.493696 
1880.000000	98.495353 
1879.000000	98.496913 
1878.000000	98.498141 
1877.000000	98.498865 
1876.000000	98.499335 
1875.000000	98.500396 
1874.000000	98.502545 
1873.000000	98.505095 
1872.000000	98.507010 
1871.000000	98.508268 
1870.000000	98.509449 
1869.000000	98.510464 
1868.000000	98.511071 
1867.000000	98.511927 
1866.000000	98.513552 
1865.000000	98.515442 
1864.000000	98.517107 
1863.000000	98.519097 
1862.000000	98.521915 
1861.000000	98.524412 
1860.000000	98.525059 
1859.000000	98.524395 
1858.000000	98.524327 
1857.000000	98.525287 
1856.000000	98.526158 
1855.000000	98.526654 
1854.000000	98.527656 
1853.000000	98.529506 
1852.000000	98.531927 
1851.000000	98.535037 
1850.000000	98.539279 
1849.000000	98.544464 
1848.000000	98.549658 
1847.000000	98.554064 
1846.000000	98.557143 
1845.000000	98.558318 
1844.000000	98.558229 
1843.000000	98.558713 
1842.000000	98.559653 
1841.000000	98.559380 
1840.000000	98.557668 
1839.000000	98.555969 
1838.000000	98.555614 
1837.000000	98.556112 
1836.000000	98.556585 
1835.000000	98.557636 
1834.000000	98.559982 
1833.000000	98.562769 
1832.000000	98.564200 
1831.000000	98.563219 
1830.000000	98.560841 
1829.000000	98.559085 
1828.000000	98.558439 
1827.000000	98.558335 
1826.000000	98.558706 
1825.000000	98.559486 
1824.000000	98.560414 
1823.000000	98.561705 
1822.000000	98.563542 
1821.000000	98.565260 
1820.000000	98.566124 
1819.000000	98.566852 
1818.000000	98.568667 
1817.000000	98.570609 
1816.000000	98.570752 
1815.000000	98.569318 
1814.000000	98.568196 
1813.000000	98.568217 
1812.000000	98.568453 
1811.000000	98.568415 
1810.000000	98.568626 
1809.000000	98.568782 
1808.000000	98.568173 
1807.000000	98.567241 
1806.000000	98.566828 
1805.000000	98.566797 
1804.000000	98.566672 
1803.000000	98.566773 
1802.000000	98.567594 
1801.000000	98.568651 
1800.000000	98.569060 
1799.000000	98.569083 
1798.000000	98.569500 
1797.000000	98.570126 
1796.000000	98.570658 
1795.000000	98.571754 
1794.000000	98.574055 
1793.000000	98.576319 
1792.000000	98.576517 
1791.000000	98.575030 
1790.000000	98.573705 
1789.000000	98.572772 
1788.000000	98.571604 
1787.000000	98.570675 
1786.000000	98.571146 
1785.000000	98.572743 
1784.000000	98.573922 
1783.000000	98.574088 
1782.000000	98.573968 
1781.000000	98.574612 
1780.000000	98.576334 
1779.000000	98.578799 
1778.000000	98.581389 
1777.000000	98.583231 
1776.000000	98.583722 
1775.000000	98.582874 
1774.000000	98.581512 
1773.000000	98.580940 
1772.000000	98.581596 
1771.000000	98.583050 
1770.000000	98.585606 
1769.000000	98.589810 
1768.000000	98.594638 
1767.000000	98.597951 
1766.000000	98.598932 
1765.000000	98.598557 
1764.000000	98.597935 
1763.000000	98.597572 
1762.000000	98.598374 
1761.000000	98.601275 
1760.000000	98.605301 
1759.000000	98.608840 
1758.000000	98.611551 
1757.000000	98.614115 
1756.000000	98.616745 
1755.000000	98.618828 
1754.000000	98.621016 
1753.000000	98.625377 
1752.000000	98.632095 
1751.000000	98.637619 
1750.000000	98.639210 
1749.000000	98.638173 
1748.000000	98.637016 
1747.000000	98.636303 
1746.000000	98.635887 
1745.000000	98.636468 
1744.000000	98.637897 
1743.000000	98.638797 
1742.000000	98.638870 
1741.000000	98.639301 
1740.000000	98.640708 
1739.000000	98.642391 
1738.000000	98.643421 
1737.000000	98.643626 
1736.000000	98.643693 
1735.000000	98.644262 
1734.000000	98.645106 
1733.000000	98.645659 
1732.000000	98.645710 
1731.000000	98.645651 
1730.000000	98.646181 
1729.000000	98.647401 
1728.000000	98.648734 
1727.000000	98.649565 
1726.000000	98.649816 
1725.000000	98.649828 
1724.000000	98.649860 
1723.000000	98.650030 
1722.000000	98.650309 
1721.000000	98.650567 
1720.000000	98.650744 
1719.000000	98.650881 
1718.000000	98.650996 
1717.000000	98.651060 
1716.000000	98.651114 
1715.000000	98.651173 
1714.000000	98.651237 
1713.000000	98.651306 
1712.000000	98.651376 
1711.000000	98.651443 
1710.000000	98.651510 
1709.000000	98.651583 
1708.000000	98.651663 
1707.000000	98.651754 
1706.000000	98.651860 
1705.000000	98.651978 
1704.000000	98.652108 
1703.000000	98.652258 
1702.000000	98.652439 
1701.000000	98.652652 
1700.000000	98.652887 
1699.000000	98.653134 
1698.000000	98.653395 
1697.000000	98.653671 
1696.000000	98.653960 
1695.000000	98.654257 
1694.000000	98.654558 
1693.000000	98.654862 
1692.000000	98.655177 
1691.000000	98.655513 
1690.000000	98.655873 
1689.000000	98.656246 
1688.000000	98.656617 
1687.000000	98.656980 
1686.000000	98.657334 
1685.000000	98.657684 
1684.000000	98.658039 
1683.000000	98.658406 
1682.000000	98.658785 
1681.000000	98.659176 
1680.000000	98.659582 
1679.000000	98.660002 
1678.000000	98.660432 
1677.000000	98.660871 
1676.000000	98.661322 
1675.000000	98.661810 
1674.000000	98.662325 
1673.000000	98.662803 
1672.000000	98.663202 
1671.000000	98.663544 
1670.000000	98.663833 
1669.000000	98.664112 
1668.000000	98.664530 
1667.000000	98.665084 
1666.000000	98.665600 
1665.000000	98.665959 
1664.000000	98.666195 
1663.000000	98.666478 
1662.000000	98.666791 
1661.000000	98.667034 
1660.000000	98.667437 
1659.000000	98.668148 
1658.000000	98.668786 
1657.000000	98.669034 
1656.000000	98.669062 
1655.000000	98.669222 
1654.000000	98.668941 
1653.000000	98.668283 
1652.000000	98.668502 
1651.000000	98.669056 
1650.000000	98.669104 
1649.000000	98.669312 
1648.000000	98.669889 
1647.000000	98.670245 
1646.000000	98.670321 
1645.000000	98.670492 
1644.000000	98.670863 
1643.000000	98.671560 
1642.000000	98.672584 
1641.000000	98.673763 
1640.000000	98.674959 
1639.000000	98.676011 
1638.000000	98.676814 
1637.000000	98.677401 
1636.000000	98.677965 
1635.000000	98.678556 
1634.000000	98.679066 
1633.000000	98.679639 
1632.000000	98.680602 
1631.000000	98.681978 
1630.000000	98.683339 
1629.000000	98.684326 
1628.000000	98.685105 
1627.000000	98.686004 
1626.000000	98.687043 
1625.000000	98.688131 
1624.000000	98.689361 
1623.000000	98.690822 
1622.000000	98.692313 
1621.000000	98.693641 
1620.000000	98.694919 
1619.000000	98.696337 
1618.000000	98.697797 
1617.000000	98.699063 
1616.000000	98.700356 
1615.000000	98.701710 
1614.000000	98.702734 
1613.000000	98.703671 
1612.000000	98.705264 
1611.000000	98.707634 
1610.000000	98.709807 
1609.000000	98.711089 
1608.000000	98.712111 
1607.000000	98.713573 
1606.000000	98.715083 
1605.000000	98.716293 
1604.000000	98.717684 
1603.000000	98.719419 
1602.000000	98.720949 
1601.000000	98.722152 
1600.000000	98.723576 
1599.000000	98.725048 
1598.000000	98.725667 
1597.000000	98.725482 
1596.000000	98.725726 
1595.000000	98.727059 
1594.000000	98.728669 
1593.000000	98.729720 
1592.000000	98.730511 
1591.000000	98.731436 
1590.000000	98.732096 
1589.000000	98.732350 
1588.000000	98.732974 
1587.000000	98.734355 
1586.000000	98.735590 
1585.000000	98.735989 
1584.000000	98.736406 
1583.000000	98.737596 
1582.000000	98.738739 
1581.000000	98.739203 
1580.000000	98.739602 
1579.000000	98.739968 
1578.000000	98.739211 
1577.000000	98.737424 
1576.000000	98.737183 
1575.000000	98.738812 
1574.000000	98.738943 
1573.000000	98.736634 
1572.000000	98.734135 
1571.000000	98.733361 
1570.000000	98.733927 
1569.000000	98.735272 
1568.000000	98.737603 
1567.000000	98.739321 
1566.000000	98.738798 
1565.000000	98.737052 
1564.000000	98.736068 
1563.000000	98.735697 
1562.000000	98.734535 
1561.000000	98.734054 
1560.000000	98.737774 
1559.000000	98.740921 
1558.000000	98.737116 
1557.000000	98.729590 
1556.000000	98.723581 
1555.000000	98.720955 
1554.000000	98.720080 
1553.000000	98.718759 
1552.000000	98.716976 
1551.000000	98.715726 
1550.000000	98.715474 
1549.000000	98.715168 
1548.000000	98.714348 
1547.000000	98.713891 
1546.000000	98.713988 
1545.000000	98.713049 
1544.000000	98.710253 
1543.000000	98.707091 
1542.000000	98.705207 
1541.000000	98.701814 
1540.000000	98.695454 
1539.000000	98.690247 
1538.000000	98.685270 
1537.000000	98.677065 
1536.000000	98.667304 
1535.000000	98.659500 
1534.000000	98.654065 
1533.000000	98.648885 
1532.000000	98.643231 
1531.000000	98.638743 
1530.000000	98.636007 
1529.000000	98.632636 
1528.000000	98.626725 
1527.000000	98.619916 
1526.000000	98.614450 
1525.000000	98.609167 
1524.000000	98.602198 
1523.000000	98.594827 
1522.000000	98.589036 
1521.000000	98.583950 
1520.000000	98.577364 
1519.000000	98.569298 
1518.000000	98.561840 
1517.000000	98.556026 
1516.000000	98.550977 
1515.000000	98.545958 
1514.000000	98.541649 
1513.000000	98.538379 
1512.000000	98.533826 
1511.000000	98.527231 
1510.000000	98.521028 
1509.000000	98.516390 
1508.000000	98.509014 
1507.000000	98.496777 
1506.000000	98.486143 
1505.000000	98.478246 
1504.000000	98.469859 
1503.000000	98.461478 
1502.000000	98.454276 
1501.000000	98.447463 
1500.000000	98.438620 
1499.000000	98.427770 
1498.000000	98.419607 
1497.000000	98.416742 
1496.000000	98.415359 
1495.000000	98.412648 
1494.000000	98.410324 
1493.000000	98.409271 
1492.000000	98.407536 
1491.000000	98.402866 
1490.000000	98.395588 
1489.000000	98.386278 
1488.000000	98.374401 
1487.000000	98.362970 
1486.000000	98.354870 
1485.000000	98.348819 
1484.000000	98.343439 
1483.000000	98.338573 
1482.000000	98.334363 
1481.000000	98.329849 
1480.000000	98.324454 
1479.000000	98.320117 
1478.000000	98.318814 
1477.000000	98.318846 
1476.000000	98.317423 
1475.000000	98.316103 
1474.000000	98.316733 
1473.000000	98.316093 
1472.000000	98.310822 
1471.000000	98.304091 
1470.000000	98.300256 
1469.000000	98.298626 
1468.000000	98.296372 
1467.000000	98.293289 
1466.000000	98.290592 
1465.000000	98.287179 
1464.000000	98.281616 
1463.000000	98.275163 
1462.000000	98.270528 
1461.000000	98.267894 
1460.000000	98.264983 
1459.000000	98.259415 
1458.000000	98.250954 
1457.000000	98.240569 
1456.000000	98.225784 
1455.000000	98.205304 
1454.000000	98.184824 
1453.000000	98.170393 
1452.000000	98.162316 
1451.000000	98.158476 
1450.000000	98.160446 
1449.000000	98.169848 
1448.000000	98.181013 
1447.000000	98.186403 
1446.000000	98.185329 
1445.000000	98.182913 
1444.000000	98.181989 
1443.000000	98.180932 
1442.000000	98.179545 
1441.000000	98.180562 
1440.000000	98.183936 
1439.000000	98.186216 
1438.000000	98.187690 
1437.000000	98.191489 
1436.000000	98.195817 
1435.000000	98.196256 
1434.000000	98.193898 
1433.000000	98.191897 
1432.000000	98.190183 
1431.000000	98.185857 
1430.000000	98.179413 
1429.000000	98.174663 
1428.000000	98.171452 
1427.000000	98.166558 
1426.000000	98.158799 
1425.000000	98.151478 
1424.000000	98.146336 
1423.000000	98.139867 
1422.000000	98.130225 
1421.000000	98.119789 
1420.000000	98.108273 
1419.000000	98.090899 
1418.000000	98.068881 
1417.000000	98.047021 
1416.000000	98.024402 
1415.000000	97.998754 
1414.000000	97.971110 
1413.000000	97.944996 
1412.000000	97.922545 
1411.000000	97.903313 
1410.000000	97.888183 
1409.000000	97.878827 
1408.000000	97.874500 
1407.000000	97.873673 
1406.000000	97.876707 
1405.000000	97.886479 
1404.000000	97.903760 
1403.000000	97.924545 
1402.000000	97.945503 
1401.000000	97.966775 
1400.000000	97.987959 
1399.000000	98.003281 
1398.000000	98.003762 
1397.000000	97.983435 
1396.000000	97.945211 
1395.000000	97.907025 
1394.000000	97.895199 
1393.000000	97.921309 
1392.000000	97.971845 
1391.000000	98.022784 
1390.000000	98.058574 
1389.000000	98.076814 
1388.000000	98.081987 
1387.000000	98.079314 
1386.000000	98.073477 
1385.000000	98.069079 
1384.000000	98.069158 
1383.000000	98.073703 
1382.000000	98.081221 
1381.000000	98.091051 
1380.000000	98.103798 
1379.000000	98.119502 
1378.000000	98.136931 
1377.000000	98.155489 
1376.000000	98.176145 
1375.000000	98.199268 
1374.000000	98.223160 
1373.000000	98.245925 
1372.000000	98.267124 
1371.000000	98.287220 
1370.000000	98.306524 
1369.000000	98.326138 
1368.000000	98.347248 
1367.000000	98.368789 
1366.000000	98.388525 
1365.000000	98.405789 
1364.000000	98.421861 
1363.000000	98.438086 
1362.000000	98.454346 
1361.000000	98.469693 
1360.000000	98.483994 
1359.000000	98.498070 
1358.000000	98.512834 
1357.000000	98.529002 
1356.000000	98.546337 
1355.000000	98.562842 
1354.000000	98.576658 
1353.000000	98.588353 
1352.000000	98.600175 
1351.000000	98.612933 
1350.000000	98.624215 
1349.000000	98.632630 
1348.000000	98.638841 
1347.000000	98.643371 
1346.000000	98.646990 
1345.000000	98.651676 
1344.000000	98.659023 
1343.000000	98.667699 
1342.000000	98.674556 
1341.000000	98.678315 
1340.000000	98.680416 
1339.000000	98.682103 
1338.000000	98.683420 
1337.000000	98.685104 
1336.000000	98.688274 
1335.000000	98.692513 
1334.000000	98.696659 
1333.000000	98.700914 
1332.000000	98.705977 
1331.000000	98.710404 
1330.000000	98.711686 
1329.000000	98.710109 
1328.000000	98.708555 
1327.000000	98.708251 
1326.000000	98.707692 
1325.000000	98.706818 
1324.000000	98.707680 
1323.000000	98.710487 
1322.000000	98.712911 
1321.000000	98.713653 
1320.000000	98.713910 
1319.000000	98.714979 
1318.000000	98.716963 
1317.000000	98.719918 
1316.000000	98.723995 
1315.000000	98.728207 
1314.000000	98.731160 
1313.000000	98.733092 
1312.000000	98.735446 
1311.000000	98.738456 
1310.000000	98.740980 
1309.000000	98.742396 
1308.000000	98.742965 
1307.000000	98.742598 
1306.000000	98.740772 
1305.000000	98.738336 
1304.000000	98.737011 
1303.000000	98.737097 
1302.000000	98.737463 
1301.000000	98.737547 
1300.000000	98.737787 
1299.000000	98.738347 
1298.000000	98.739032 
1297.000000	98.740084 
1296.000000	98.741580 
1295.000000	98.742250 
1294.000000	98.740751 
1293.000000	98.737994 
1292.000000	98.736392 
1291.000000	98.736685 
1290.000000	98.736852 
1289.000000	98.734589 
1288.000000	98.729730 
1287.000000	98.723822 
1286.000000	98.718208 
1285.000000	98.713043 
1284.000000	98.707922 
1283.000000	98.703257 
1282.000000	98.700047 
1281.000000	98.697942 
1280.000000	98.694835 
1279.000000	98.688755 
1278.000000	98.679894 
1277.000000	98.670246 
1276.000000	98.661287 
1275.000000	98.652732 
1274.000000	98.643699 
1273.000000	98.634046 
1272.000000	98.623939 
1271.000000	98.612961 
1270.000000	98.600348 
1269.000000	98.585760 
1268.000000	98.569496 
1267.000000	98.552360 
1266.000000	98.535517 
1265.000000	98.519630 
1264.000000	98.504075 
1263.000000	98.487910 
1262.000000	98.471478 
1261.000000	98.456030 
1260.000000	98.441810 
1259.000000	98.427668 
1258.000000	98.413105 
1257.000000	98.399456 
1256.000000	98.388279 
1255.000000	98.379289 
1254.000000	98.370289 
1253.000000	98.358810 
1252.000000	98.344249 
1251.000000	98.329476 
1250.000000	98.320085 
1249.000000	98.320471 
1248.000000	98.330001 
1247.000000	98.343203 
1246.000000	98.352956 
1245.000000	98.352574 
1244.000000	98.337709 
1243.000000	98.311662 
1242.000000	98.288692 
1241.000000	98.284908 
1240.000000	98.302057 
1239.000000	98.323659 
1238.000000	98.330849 
1237.000000	98.319345 
1236.000000	98.297856 
1235.000000	98.274755 
1234.000000	98.251675 
1233.000000	98.228289 
1232.000000	98.206655 
1231.000000	98.189257 
1230.000000	98.176610 
1229.000000	98.167850 
1228.000000	98.161074 
1227.000000	98.152997 
1226.000000	98.141264 
1225.000000	98.127481 
1224.000000	98.115412 
1223.000000	98.105994 
1222.000000	98.096633 
1221.000000	98.085302 
1220.000000	98.072341 
1219.000000	98.057950 
1218.000000	98.041035 
1217.000000	98.021330 
1216.000000	98.000008 
1215.000000	97.977206 
1214.000000	97.951167 
1213.000000	97.920794 
1212.000000	97.887078 
1211.000000	97.851231 
1210.000000	97.813145 
1209.000000	97.772526 
1208.000000	97.730135 
1207.000000	97.687221 
1206.000000	97.644837 
1205.000000	97.603883 
1204.000000	97.564306 
1203.000000	97.523950 
1202.000000	97.479870 
1201.000000	97.431418 
1200.000000	97.380740 
1199.000000	97.330010 
1198.000000	97.280155 
1197.000000	97.232552 
1196.000000	97.189165 
1195.000000	97.149568 
1194.000000	97.109665 
1193.000000	97.065020 
1192.000000	97.014494 
1191.000000	96.959774 
1190.000000	96.902856 
1189.000000	96.845365 
1188.000000	96.788848 
1187.000000	96.733590 
1186.000000	96.677651 
1185.000000	96.618851 
1184.000000	96.557478 
1183.000000	96.495605 
1182.000000	96.433937 
1181.000000	96.370932 
1180.000000	96.305216 
1179.000000	96.237448 
1178.000000	96.169289 
1177.000000	96.101255 
1176.000000	96.031797 
1175.000000	95.958121 
1174.000000	95.878255 
1173.000000	95.793158 
1172.000000	95.706469 
1171.000000	95.621390 
1170.000000	95.538102 
1169.000000	95.454964 
1168.000000	95.371977 
1167.000000	95.292556 
1166.000000	95.222688 
1165.000000	95.169131 
1164.000000	95.137261 
1163.000000	95.128750 
1162.000000	95.140891 
1161.000000	95.168129 
1160.000000	95.202777 
1159.000000	95.234156 
1158.000000	95.250705 
1157.000000	95.245657 
1156.000000	95.219375 
1155.000000	95.175668 
1154.000000	95.118370 
1153.000000	95.052358 
1152.000000	94.984096 
1151.000000	94.917656 
1150.000000	94.851945 
1149.000000	94.784817 
1148.000000	94.718056 
1147.000000	94.655008 
1146.000000	94.594820 
1145.000000	94.532862 
1144.000000	94.466277 
1143.000000	94.395932 
1142.000000	94.323743 
1141.000000	94.251333 
1140.000000	94.180736 
1139.000000	94.113149 
1138.000000	94.047095 
1137.000000	93.980339 
1136.000000	93.912956 
1135.000000	93.846263 
1134.000000	93.780211 
1133.000000	93.714537 
1132.000000	93.650401 
1131.000000	93.587434 
1130.000000	93.521473 
1129.000000	93.449723 
1128.000000	93.376147 
1127.000000	93.306670 
1126.000000	93.240392 
1125.000000	93.171122 
1124.000000	93.096665 
1123.000000	93.020621 
1122.000000	92.945263 
1121.000000	92.868850 
1120.000000	92.790759 
1119.000000	92.713354 
1118.000000	92.637162 
1117.000000	92.559245 
1116.000000	92.477804 
1115.000000	92.394117 
1114.000000	92.309126 
1113.000000	92.222273 
1112.000000	92.134479 
1111.000000	92.047955 
1110.000000	91.962604 
1109.000000	91.877365 
1108.000000	91.793771 
1107.000000	91.713522 
1106.000000	91.634631 
1105.000000	91.554678 
1104.000000	91.476069 
1103.000000	91.403279 
1102.000000	91.335727 
1101.000000	91.268598 
1100.000000	91.199343 
1099.000000	91.130029 
1098.000000	91.062621 
1097.000000	90.996229 
1096.000000	90.929459 
1095.000000	90.861596 
1094.000000	90.790511 
1093.000000	90.712467 
1092.000000	90.625944 
1091.000000	90.533955 
1090.000000	90.441460 
1089.000000	90.351908 
1088.000000	90.266797 
1087.000000	90.185994 
1086.000000	90.107266 
1085.000000	90.027878 
1084.000000	89.947626 
1083.000000	89.868195 
1082.000000	89.789862 
1081.000000	89.712188 
1080.000000	89.637502 
1079.000000	89.569297 
1078.000000	89.507429 
1077.000000	89.449913 
1076.000000	89.398932 
1075.000000	89.358858 
1074.000000	89.328369 
1073.000000	89.300755 
1072.000000	89.270349 
1071.000000	89.229407 
1070.000000	89.160030 
1069.000000	89.043958 
1068.000000	88.887659 
1067.000000	88.730285 
1066.000000	88.615442 
1065.000000	88.555664 
1064.000000	88.528813 
1063.000000	88.500557 
1062.000000	88.444185 
1061.000000	88.347138 
1060.000000	88.213612 
1059.000000	88.065373 
1058.000000	87.931781 
1057.000000	87.831259 
1056.000000	87.760661 
1055.000000	87.701027 
1054.000000	87.633388 
1053.000000	87.552602 
1052.000000	87.468653 
1051.000000	87.393988 
1050.000000	87.330084 
1049.000000	87.268905 
1048.000000	87.205426 
1047.000000	87.143021 
1046.000000	87.087421 
1045.000000	87.041223 
1044.000000	87.004141 
1043.000000	86.973170 
1042.000000	86.941849 
1041.000000	86.903801 
1040.000000	86.858842 
1039.000000	86.814508 
1038.000000	86.782331 
1037.000000	86.772660 
1036.000000	86.788410 
1035.000000	86.820482 
1034.000000	86.853207 
1033.000000	86.876862 
1032.000000	86.889026 
1031.000000	86.882661 
1030.000000	86.846433 
1029.000000	86.787287 
1028.000000	86.741814 
1027.000000	86.747234 
1026.000000	86.802416 
1025.000000	86.870247 
1024.000000	86.917501 
1023.000000	86.939411 
1022.000000	86.947127 
1021.000000	86.948879 
1020.000000	86.948472 
1019.000000	86.949324 
1018.000000	86.951973 
1017.000000	86.953990 
1016.000000	86.956180 
1015.000000	86.962666 
1014.000000	86.973162 
1013.000000	86.982739 
1012.000000	86.991304 
1011.000000	87.005532 
1010.000000	87.028832 
1009.000000	87.056402 
1008.000000	87.082735 
1007.000000	87.107971 
1006.000000	87.134906 
1005.000000	87.165382 
1004.000000	87.201184 
1003.000000	87.243282 
1002.000000	87.289066 
1001.000000	87.334816 
1000.000000	87.380676 
999.000000	 87.428417 
998.000000	 87.475857 
997.000000	 87.519545 
996.000000	 87.561623 
995.000000	 87.607323 
994.000000	 87.656699 
993.000000	 87.705774 
992.000000	 87.755022 
991.000000	 87.809484 
990.000000	 87.870775 
989.000000	 87.935828 
988.000000	 88.002994 
987.000000	 88.072597 
986.000000	 88.142482 
985.000000	 88.210577 
984.000000	 88.280535 
983.000000	 88.357102 
982.000000	 88.438702 
981.000000	 88.521291 
980.000000	 88.606725 
979.000000	 88.700443 
978.000000	 88.802160 
977.000000	 88.906706 
976.000000	 89.013184 
975.000000	 89.125029 
974.000000	 89.241656 
973.000000	 89.358324 
972.000000	 89.474280 
971.000000	 89.593517 
970.000000	 89.717439 
969.000000	 89.843577 
968.000000	 89.970979 
967.000000	 90.100009 
966.000000	 90.227561 
965.000000	 90.349593 
964.000000	 90.468033 
963.000000	 90.588504 
962.000000	 90.711508 
961.000000	 90.832088 
960.000000	 90.947595 
959.000000	 91.059549 
958.000000	 91.168714 
957.000000	 91.274752 
956.000000	 91.380149 
955.000000	 91.488013 
954.000000	 91.595926 
953.000000	 91.697805 
952.000000	 91.791689 
951.000000	 91.880473 
950.000000	 91.965932 
949.000000	 92.047797 
948.000000	 92.128227 
947.000000	 92.211141 
946.000000	 92.296445 
945.000000	 92.379616 
944.000000	 92.457407 
943.000000	 92.530271 
942.000000	 92.599841 
941.000000	 92.667527 
940.000000	 92.734614 
939.000000	 92.800426 
938.000000	 92.862177 
937.000000	 92.919984 
936.000000	 92.979380 
935.000000	 93.045078 
934.000000	 93.115240 
933.000000	 93.186063 
932.000000	 93.257876 
931.000000	 93.331397 
930.000000	 93.402196 
929.000000	 93.465629 
928.000000	 93.524300 
927.000000	 93.584011 
926.000000	 93.644751 
925.000000	 93.702418 
924.000000	 93.756962 
923.000000	 93.811286 
922.000000	 93.863410 
921.000000	 93.907471 
920.000000	 93.942567 
919.000000	 93.974392 
918.000000	 94.008263 
917.000000	 94.045858 
916.000000	 94.087943 
915.000000	 94.133988 
914.000000	 94.179285 
913.000000	 94.219030 
912.000000	 94.256298 
911.000000	 94.300532 
910.000000	 94.357103 
909.000000	 94.422996 
908.000000	 94.493154 
907.000000	 94.566094 
906.000000	 94.641867 
905.000000	 94.718812 
904.000000	 94.794816 
903.000000	 94.870297 
902.000000	 94.948997 
901.000000	 95.035585 
900.000000	 95.130441 
899.000000	 95.226448 
898.000000	 95.314283 
897.000000	 95.392702 
896.000000	 95.469112 
895.000000	 95.548318 
894.000000	 95.626870 
893.000000	 95.702401 
892.000000	 95.781625 
891.000000	 95.871474 
890.000000	 95.966164 
889.000000	 96.051064 
888.000000	 96.117246 
887.000000	 96.166013 
886.000000	 96.202488 
885.000000	 96.231864 
884.000000	 96.259864 
883.000000	 96.288934 
882.000000	 96.314585 
881.000000	 96.333415 
880.000000	 96.354650 
879.000000	 96.394896 
878.000000	 96.459407 
877.000000	 96.535825 
876.000000	 96.608326 
875.000000	 96.671712 
874.000000	 96.730503 
873.000000	 96.792014 
872.000000	 96.863099 
871.000000	 96.946935 
870.000000	 97.039223 
869.000000	 97.131783 
868.000000	 97.221745 
867.000000	 97.312827 
866.000000	 97.406499 
865.000000	 97.496967 
864.000000	 97.577478 
863.000000	 97.647985 
862.000000	 97.714335 
861.000000	 97.782493 
860.000000	 97.855302 
859.000000	 97.932139 
858.000000	 98.009053 
857.000000	 98.080549 
856.000000	 98.143489 
855.000000	 98.199628 
854.000000	 98.253709 
853.000000	 98.308315 
852.000000	 98.360054 
851.000000	 98.401754 
850.000000	 98.430508 
849.000000	 98.453467 
848.000000	 98.482516 
847.000000	 98.521734 
846.000000	 98.562944 
845.000000	 98.595529 
844.000000	 98.617348 
843.000000	 98.633334 
842.000000	 98.646901 
841.000000	 98.657326 
840.000000	 98.664137 
839.000000	 98.669444 
838.000000	 98.675352 
837.000000	 98.681530 
836.000000	 98.685563 
835.000000	 98.684562 
834.000000	 98.677872 
833.000000	 98.670009 
832.000000	 98.668824 
831.000000	 98.677692 
830.000000	 98.690946 
829.000000	 98.700477 
828.000000	 98.705526 
827.000000	 98.712039 
826.000000	 98.723684 
825.000000	 98.738253 
824.000000	 98.752198 
823.000000	 98.762843 
822.000000	 98.765741 
821.000000	 98.756019 
820.000000	 98.734345 
819.000000	 98.707842 
818.000000	 98.683480 
817.000000	 98.662276 
816.000000	 98.639571 
815.000000	 98.607606 
814.000000	 98.556660 
813.000000	 98.476250 
812.000000	 98.357926 
811.000000	 98.197787 
810.000000	 97.996868 
809.000000	 97.759720 
808.000000	 97.491982 
807.000000	 97.197347 
806.000000	 96.876426 
805.000000	 96.531247 
804.000000	 96.172634 
803.000000	 95.820947 
802.000000	 95.497891 
801.000000	 95.219562 
800.000000	 94.997100 
799.000000	 94.837756 
798.000000	 94.741956 
797.000000	 94.703431 
796.000000	 94.713908 
795.000000	 94.763566 
794.000000	 94.837402 
793.000000	 94.917999 
792.000000	 94.993828 
791.000000	 95.060453 
790.000000	 95.113130 
789.000000	 95.143116 
788.000000	 95.142352 
787.000000	 95.107888 
786.000000	 95.040616 
785.000000	 94.943354 
784.000000	 94.822102 
783.000000	 94.686785 
782.000000	 94.549080 
781.000000	 94.420667 
780.000000	 94.313502 
779.000000	 94.239027 
778.000000	 94.206255 
777.000000	 94.221635 
776.000000	 94.287989 
775.000000	 94.398977 
774.000000	 94.536499 
773.000000	 94.679468 
772.000000	 94.815621 
771.000000	 94.942436 
770.000000	 95.059820 
769.000000	 95.166355 
768.000000	 95.260615 
767.000000	 95.342277 
766.000000	 95.413613 
765.000000	 95.482096 
764.000000	 95.557569 
763.000000	 95.642657 
762.000000	 95.728999 
761.000000	 95.807102 
760.000000	 95.877011 
759.000000	 95.945681 
758.000000	 96.017954 
757.000000	 96.094661 
756.000000	 96.175364 
755.000000	 96.257102 
754.000000	 96.333733 
753.000000	 96.402162 
752.000000	 96.466300 
751.000000	 96.529891 
750.000000	 96.588816 
749.000000	 96.636470 
748.000000	 96.674185 
747.000000	 96.710223 
746.000000	 96.749995 
745.000000	 96.792922 
744.000000	 96.838275 
743.000000	 96.889272 
742.000000	 96.951296 
741.000000	 97.028440 
740.000000	 97.119533 
739.000000	 97.214664 
738.000000	 97.299212 
737.000000	 97.365579 
736.000000	 97.418140 
735.000000	 97.463832 
734.000000	 97.502208 
733.000000	 97.528563 
732.000000	 97.542427 
731.000000	 97.548505 
730.000000	 97.552529 
729.000000	 97.560220 
728.000000	 97.577007 
727.000000	 97.603461 
726.000000	 97.633629 
725.000000	 97.662639 
724.000000	 97.692686 
723.000000	 97.727272 
722.000000	 97.764179 
721.000000	 97.800081 
720.000000	 97.838123 
719.000000	 97.883309 
718.000000	 97.932469 
717.000000	 97.976218 
716.000000	 98.009326 
715.000000	 98.034130 
714.000000	 98.056245 
713.000000	 98.081676 
712.000000	 98.115371 
711.000000	 98.157030 
710.000000	 98.200260 
709.000000	 98.239740 
708.000000	 98.275816 
707.000000	 98.307411 
706.000000	 98.325265 
705.000000	 98.319878 
704.000000	 98.292101 
703.000000	 98.246916 
702.000000	 98.179750 
701.000000	 98.077627 
700.000000	 97.933926 
699.000000	 97.756635 
698.000000	 97.564487 
697.000000	 97.383616 
696.000000	 97.244829 
695.000000	 97.171572 
694.000000	 97.167618 
693.000000	 97.220372 
692.000000	 97.314597 
691.000000	 97.436967 
690.000000	 97.570516 
689.000000	 97.697228 
688.000000	 97.808537 
687.000000	 97.905568 
686.000000	 97.988406 
685.000000	 98.053463 
684.000000	 98.103162 
683.000000	 98.148772 
682.000000	 98.199274 
681.000000	 98.253146 
680.000000	 98.303742 
679.000000	 98.348234 
678.000000	 98.387545 
677.000000	 98.420879 
676.000000	 98.445189 
675.000000	 98.457457 
674.000000	 98.457498 
673.000000	 98.452246 
672.000000	 98.456797 
671.000000	 98.485970 
670.000000	 98.544431 
669.000000	 98.613323 
668.000000	 98.655313 
667.000000	 98.673576 
666.000000	 98.685216 
665.000000	 98.691954 
664.000000	 98.698732 
663.000000	 98.709319 
662.000000	 98.720991 
661.000000	 98.731815 
660.000000	 98.749037 
659.000000	 98.781690 
658.000000	 98.823208 
657.000000	 98.853342 
656.000000	 98.858072 
655.000000	 98.836106 
654.000000	 98.790110 
653.000000	 98.727104 
652.000000	 98.667652 
651.000000	 98.639747 
650.000000	 98.656535 

