4000.000000	98.033639 
3999.000000	98.033568 
3998.000000	98.033775 
3997.000000	98.034110 
3996.000000	98.034409 
3995.000000	98.034540 
3994.000000	98.034516 
3993.000000	98.034509 
3992.000000	98.034610 
3991.000000	98.034667 
3990.000000	98.034509 
3989.000000	98.034138 
3988.000000	98.033692 
3987.000000	98.033288 
3986.000000	98.032982 
3985.000000	98.032886 
3984.000000	98.033096 
3983.000000	98.033552 
3982.000000	98.034075 
3981.000000	98.034468 
3980.000000	98.034579 
3979.000000	98.034358 
3978.000000	98.033866 
3977.000000	98.033244 
3976.000000	98.032628 
3975.000000	98.032107 
3974.000000	98.031762 
3973.000000	98.031679 
3972.000000	98.031857 
3971.000000	98.032128 
3970.000000	98.032294 
3969.000000	98.032328 
3968.000000	98.032359 
3967.000000	98.032485 
3966.000000	98.032690 
3965.000000	98.032876 
3964.000000	98.032952 
3963.000000	98.032922 
3962.000000	98.032880 
3961.000000	98.032905 
3960.000000	98.032949 
3959.000000	98.032831 
3958.000000	98.032395 
3957.000000	98.031747 
3956.000000	98.031195 
3955.000000	98.030946 
3954.000000	98.030934 
3953.000000	98.030902 
3952.000000	98.030643 
3951.000000	98.030171 
3950.000000	98.029771 
3949.000000	98.029816 
3948.000000	98.030367 
3947.000000	98.030990 
3946.000000	98.031118 
3945.000000	98.030528 
3944.000000	98.029414 
3943.000000	98.028237 
3942.000000	98.027404 
3941.000000	98.027036 
3940.000000	98.027023 
3939.000000	98.027219 
3938.000000	98.027530 
3937.000000	98.027891 
3936.000000	98.028241 
3935.000000	98.028515 
3934.000000	98.028737 
3933.000000	98.028998 
3932.000000	98.029271 
3931.000000	98.029256 
3930.000000	98.028623 
3929.000000	98.027383 
3928.000000	98.025915 
3927.000000	98.024782 
3926.000000	98.024366 
3925.000000	98.024622 
3924.000000	98.025298 
3923.000000	98.026128 
3922.000000	98.026788 
3921.000000	98.027104 
3920.000000	98.027203 
3919.000000	98.027366 
3918.000000	98.027664 
3917.000000	98.027885 
3916.000000	98.027857 
3915.000000	98.027625 
3914.000000	98.027339 
3913.000000	98.027115 
3912.000000	98.027039 
3911.000000	98.027142 
3910.000000	98.027351 
3909.000000	98.027534 
3908.000000	98.027619 
3907.000000	98.027616 
3906.000000	98.027578 
3905.000000	98.027535 
3904.000000	98.027483 
3903.000000	98.027405 
3902.000000	98.027304 
3901.000000	98.027202 
3900.000000	98.027088 
3899.000000	98.026960 
3898.000000	98.026818 
3897.000000	98.026657 
3896.000000	98.026469 
3895.000000	98.026244 
3894.000000	98.025983 
3893.000000	98.025697 
3892.000000	98.025395 
3891.000000	98.025081 
3890.000000	98.024757 
3889.000000	98.024427 
3888.000000	98.024103 
3887.000000	98.023794 
3886.000000	98.023503 
3885.000000	98.023222 
3884.000000	98.022938 
3883.000000	98.022638 
3882.000000	98.022321 
3881.000000	98.021999 
3880.000000	98.021689 
3879.000000	98.021397 
3878.000000	98.021110 
3877.000000	98.020817 
3876.000000	98.020515 
3875.000000	98.020195 
3874.000000	98.019860 
3873.000000	98.019521 
3872.000000	98.019205 
3871.000000	98.018939 
3870.000000	98.018710 
3869.000000	98.018483 
3868.000000	98.018225 
3867.000000	98.017858 
3866.000000	98.017293 
3865.000000	98.016595 
3864.000000	98.016156 
3863.000000	98.016243 
3862.000000	98.016548 
3861.000000	98.016723 
3860.000000	98.016950 
3859.000000	98.017311 
3858.000000	98.017409 
3857.000000	98.016742 
3856.000000	98.015569 
3855.000000	98.014384 
3854.000000	98.013111 
3853.000000	98.012194 
3852.000000	98.012305 
3851.000000	98.012964 
3850.000000	98.013454 
3849.000000	98.013838 
3848.000000	98.014733 
3847.000000	98.016526 
3846.000000	98.018608 
3845.000000	98.020144 
3844.000000	98.021179 
3843.000000	98.021780 
3842.000000	98.021591 
3841.000000	98.020864 
3840.000000	98.020452 
3839.000000	98.020870 
3838.000000	98.021882 
3837.000000	98.022440 
3836.000000	98.021959 
3835.000000	98.020701 
3834.000000	98.019517 
3833.000000	98.019251 
3832.000000	98.020029 
3831.000000	98.021302 
3830.000000	98.022308 
3829.000000	98.022538 
3828.000000	98.022274 
3827.000000	98.022259 
3826.000000	98.022735 
3825.000000	98.023440 
3824.000000	98.024092 
3823.000000	98.024346 
3822.000000	98.024130 
3821.000000	98.023917 
3820.000000	98.024102 
3819.000000	98.024162 
3818.000000	98.023605 
3817.000000	98.022675 
3816.000000	98.021851 
3815.000000	98.021285 
3814.000000	98.020786 
3813.000000	98.020131 
3812.000000	98.019347 
3811.000000	98.018885 
3810.000000	98.019093 
3809.000000	98.019829 
3808.000000	98.020639 
3807.000000	98.021115 
3806.000000	98.021125 
3805.000000	98.020662 
3804.000000	98.019713 
3803.000000	98.018538 
3802.000000	98.017634 
3801.000000	98.017206 
3800.000000	98.017005 
3799.000000	98.016547 
3798.000000	98.015715 
3797.000000	98.015001 
3796.000000	98.014882 
3795.000000	98.015229 
3794.000000	98.015470 
3793.000000	98.015244 
3792.000000	98.014679 
3791.000000	98.014271 
3790.000000	98.014332 
3789.000000	98.014665 
3788.000000	98.014839 
3787.000000	98.014735 
3786.000000	98.014562 
3785.000000	98.014534 
3784.000000	98.014661 
3783.000000	98.014874 
3782.000000	98.015096 
3781.000000	98.015243 
3780.000000	98.015384 
3779.000000	98.015705 
3778.000000	98.016181 
3777.000000	98.016623 
3776.000000	98.017043 
3775.000000	98.017509 
3774.000000	98.017993 
3773.000000	98.018464 
3772.000000	98.019074 
3771.000000	98.019908 
3770.000000	98.020847 
3769.000000	98.021704 
3768.000000	98.022158 
3767.000000	98.022096 
3766.000000	98.022062 
3765.000000	98.022585 
3764.000000	98.023615 
3763.000000	98.024641 
3762.000000	98.025018 
3761.000000	98.024511 
3760.000000	98.023775 
3759.000000	98.024064 
3758.000000	98.025410 
3757.000000	98.026354 
3756.000000	98.026541 
3755.000000	98.027013 
3754.000000	98.028664 
3753.000000	98.031263 
3752.000000	98.034212 
3751.000000	98.037665 
3750.000000	98.040381 
3749.000000	98.039631 
3748.000000	98.035027 
3747.000000	98.029677 
3746.000000	98.027287 
3745.000000	98.027739 
3744.000000	98.028316 
3743.000000	98.028060 
3742.000000	98.027190 
3741.000000	98.025367 
3740.000000	98.023124 
3739.000000	98.023214 
3738.000000	98.027168 
3737.000000	98.031329 
3736.000000	98.032026 
3735.000000	98.030205 
3734.000000	98.028429 
3733.000000	98.026079 
3732.000000	98.021753 
3731.000000	98.017170 
3730.000000	98.014246 
3729.000000	98.012785 
3728.000000	98.011757 
3727.000000	98.010592 
3726.000000	98.009295 
3725.000000	98.007447 
3724.000000	98.003963 
3723.000000	97.998545 
3722.000000	97.992817 
3721.000000	97.988405 
3720.000000	97.984540 
3719.000000	97.980882 
3718.000000	97.978384 
3717.000000	97.977044 
3716.000000	97.976923 
3715.000000	97.978342 
3714.000000	97.980873 
3713.000000	97.982348 
3712.000000	97.980334 
3711.000000	97.974334 
3710.000000	97.965117 
3709.000000	97.954474 
3708.000000	97.944790 
3707.000000	97.937242 
3706.000000	97.931750 
3705.000000	97.927536 
3704.000000	97.923287 
3703.000000	97.917746 
3702.000000	97.910562 
3701.000000	97.902162 
3700.000000	97.892623 
3699.000000	97.882373 
3698.000000	97.873025 
3697.000000	97.865945 
3696.000000	97.861737 
3695.000000	97.860231 
3694.000000	97.859432 
3693.000000	97.856424 
3692.000000	97.850103 
3691.000000	97.842085 
3690.000000	97.834762 
3689.000000	97.828865 
3688.000000	97.823198 
3687.000000	97.816705 
3686.000000	97.810477 
3685.000000	97.806158 
3684.000000	97.804367 
3683.000000	97.804630 
3682.000000	97.805440 
3681.000000	97.804466 
3680.000000	97.799998 
3679.000000	97.792438 
3678.000000	97.784289 
3677.000000	97.777573 
3676.000000	97.772112 
3675.000000	97.768203 
3674.000000	97.765309 
3673.000000	97.761386 
3672.000000	97.755764 
3671.000000	97.749547 
3670.000000	97.744335 
3669.000000	97.740574 
3668.000000	97.736899 
3667.000000	97.732266 
3666.000000	97.727915 
3665.000000	97.725471 
3664.000000	97.724566 
3663.000000	97.723353 
3662.000000	97.720422 
3661.000000	97.715808 
3660.000000	97.710884 
3659.000000	97.707002 
3658.000000	97.704548 
3657.000000	97.702932 
3656.000000	97.701392 
3655.000000	97.700023 
3654.000000	97.698878 
3653.000000	97.697588 
3652.000000	97.695788 
3651.000000	97.693238 
3650.000000	97.689908 
3649.000000	97.685623 
3648.000000	97.679878 
3647.000000	97.673194 
3646.000000	97.667640 
3645.000000	97.664727 
3644.000000	97.664302 
3643.000000	97.665605 
3642.000000	97.667055 
3641.000000	97.666799 
3640.000000	97.664530 
3639.000000	97.661749 
3638.000000	97.660483 
3637.000000	97.661059 
3636.000000	97.662115 
3635.000000	97.662205 
3634.000000	97.661164 
3633.000000	97.660330 
3632.000000	97.660549 
3631.000000	97.660710 
3630.000000	97.658155 
3629.000000	97.652898 
3628.000000	97.648119 
3627.000000	97.644676 
3626.000000	97.641071 
3625.000000	97.637559 
3624.000000	97.635874 
3623.000000	97.635986 
3622.000000	97.635698 
3621.000000	97.632536 
3620.000000	97.627287 
3619.000000	97.624451 
3618.000000	97.626299 
3617.000000	97.630039 
3616.000000	97.633662 
3615.000000	97.638253 
3614.000000	97.645516 
3613.000000	97.655734 
3612.000000	97.666858 
3611.000000	97.675458 
3610.000000	97.679450 
3609.000000	97.679401 
3608.000000	97.677820 
3607.000000	97.676838 
3606.000000	97.675954 
3605.000000	97.673887 
3604.000000	97.670845 
3603.000000	97.667866 
3602.000000	97.666022 
3601.000000	97.665810 
3600.000000	97.667689 
3599.000000	97.672151 
3598.000000	97.678058 
3597.000000	97.682552 
3596.000000	97.684255 
3595.000000	97.684309 
3594.000000	97.685062 
3593.000000	97.688092 
3592.000000	97.692185 
3591.000000	97.694708 
3590.000000	97.693850 
3589.000000	97.689712 
3588.000000	97.684528 
3587.000000	97.681151 
3586.000000	97.679725 
3585.000000	97.678623 
3584.000000	97.677517 
3583.000000	97.677353 
3582.000000	97.678469 
3581.000000	97.680033 
3580.000000	97.681088 
3579.000000	97.681571 
3578.000000	97.682107 
3577.000000	97.683251 
3576.000000	97.685167 
3575.000000	97.687648 
3574.000000	97.689881 
3573.000000	97.691137 
3572.000000	97.691343 
3571.000000	97.691056 
3570.000000	97.691122 
3569.000000	97.691517 
3568.000000	97.691092 
3567.000000	97.689272 
3566.000000	97.686605 
3565.000000	97.683912 
3564.000000	97.682206 
3563.000000	97.682066 
3562.000000	97.682708 
3561.000000	97.682627 
3560.000000	97.680949 
3559.000000	97.678216 
3558.000000	97.675571 
3557.000000	97.673591 
3556.000000	97.672213 
3555.000000	97.671519 
3554.000000	97.671786 
3553.000000	97.672863 
3552.000000	97.673988 
3551.000000	97.674373 
3550.000000	97.674053 
3549.000000	97.673829 
3548.000000	97.674296 
3547.000000	97.675323 
3546.000000	97.676127 
3545.000000	97.675976 
3544.000000	97.674888 
3543.000000	97.673669 
3542.000000	97.673146 
3541.000000	97.673445 
3540.000000	97.673882 
3539.000000	97.673739 
3538.000000	97.673119 
3537.000000	97.672774 
3536.000000	97.673201 
3535.000000	97.673914 
3534.000000	97.674195 
3533.000000	97.674018 
3532.000000	97.673878 
3531.000000	97.674020 
3530.000000	97.674283 
3529.000000	97.674673 
3528.000000	97.675439 
3527.000000	97.676536 
3526.000000	97.677417 
3525.000000	97.677613 
3524.000000	97.677285 
3523.000000	97.676998 
3522.000000	97.677034 
3521.000000	97.677233 
3520.000000	97.677458 
3519.000000	97.677861 
3518.000000	97.678610 
3517.000000	97.679558 
3516.000000	97.680402 
3515.000000	97.681030 
3514.000000	97.681611 
3513.000000	97.682359 
3512.000000	97.683280 
3511.000000	97.684190 
3510.000000	97.684950 
3509.000000	97.685534 
3508.000000	97.685910 
3507.000000	97.686039 
3506.000000	97.685994 
3505.000000	97.686018 
3504.000000	97.686319 
3503.000000	97.686854 
3502.000000	97.687358 
3501.000000	97.687612 
3500.000000	97.687621 
3499.000000	97.687535 
3498.000000	97.687519 
3497.000000	97.687665 
3496.000000	97.687980 
3495.000000	97.688376 
3494.000000	97.688687 
3493.000000	97.688793 
3492.000000	97.688709 
3491.000000	97.688542 
3490.000000	97.688401 
3489.000000	97.688317 
3488.000000	97.688257 
3487.000000	97.688166 
3486.000000	97.687992 
3485.000000	97.687722 
3484.000000	97.687401 
3483.000000	97.687102 
3482.000000	97.686867 
3481.000000	97.686668 
3480.000000	97.686426 
3479.000000	97.686088 
3478.000000	97.685661 
3477.000000	97.685202 
3476.000000	97.684754 
3475.000000	97.684301 
3474.000000	97.683790 
3473.000000	97.683195 
3472.000000	97.682546 
3471.000000	97.681903 
3470.000000	97.681308 
3469.000000	97.680780 
3468.000000	97.680299 
3467.000000	97.679785 
3466.000000	97.679128 
3465.000000	97.678287 
3464.000000	97.677352 
3463.000000	97.676483 
3462.000000	97.675726 
3461.000000	97.674958 
3460.000000	97.674047 
3459.000000	97.673058 
3458.000000	97.672190 
3457.000000	97.671538 
3456.000000	97.670974 
3455.000000	97.670278 
3454.000000	97.669421 
3453.000000	97.668603 
3452.000000	97.667993 
3451.000000	97.667489 
3450.000000	97.666796 
3449.000000	97.665772 
3448.000000	97.664601 
3447.000000	97.663580 
3446.000000	97.662751 
3445.000000	97.661900 
3444.000000	97.660949 
3443.000000	97.660131 
3442.000000	97.659689 
3441.000000	97.659596 
3440.000000	97.659617 
3439.000000	97.659497 
3438.000000	97.659117 
3437.000000	97.658528 
3436.000000	97.657882 
3435.000000	97.657275 
3434.000000	97.656672 
3433.000000	97.656010 
3432.000000	97.655360 
3431.000000	97.654862 
3430.000000	97.654467 
3429.000000	97.653927 
3428.000000	97.653070 
3427.000000	97.652025 
3426.000000	97.651068 
3425.000000	97.650307 
3424.000000	97.649660 
3423.000000	97.649101 
3422.000000	97.648780 
3421.000000	97.648846 
3420.000000	97.649183 
3419.000000	97.649377 
3418.000000	97.649112 
3417.000000	97.648466 
3416.000000	97.647811 
3415.000000	97.647436 
3414.000000	97.647310 
3413.000000	97.647241 
3412.000000	97.647126 
3411.000000	97.646969 
3410.000000	97.646770 
3409.000000	97.646522 
3408.000000	97.646261 
3407.000000	97.645993 
3406.000000	97.645634 
3405.000000	97.645175 
3404.000000	97.644826 
3403.000000	97.644791 
3402.000000	97.644909 
3401.000000	97.644753 
3400.000000	97.644160 
3399.000000	97.643434 
3398.000000	97.642946 
3397.000000	97.642701 
3396.000000	97.642485 
3395.000000	97.642305 
3394.000000	97.642434 
3393.000000	97.642989 
3392.000000	97.643650 
3391.000000	97.643928 
3390.000000	97.643661 
3389.000000	97.643111 
3388.000000	97.642627 
3387.000000	97.642358 
3386.000000	97.642368 
3385.000000	97.642860 
3384.000000	97.644035 
3383.000000	97.645699 
3382.000000	97.647255 
3381.000000	97.648196 
3380.000000	97.648477 
3379.000000	97.648343 
3378.000000	97.647973 
3377.000000	97.647394 
3376.000000	97.646574 
3375.000000	97.645546 
3374.000000	97.644558 
3373.000000	97.644153 
3372.000000	97.644807 
3371.000000	97.646342 
3370.000000	97.647908 
3369.000000	97.648756 
3368.000000	97.648799 
3367.000000	97.648296 
3366.000000	97.647432 
3365.000000	97.646557 
3364.000000	97.646486 
3363.000000	97.647913 
3362.000000	97.650529 
3361.000000	97.653089 
3360.000000	97.654613 
3359.000000	97.655238 
3358.000000	97.655789 
3357.000000	97.656826 
3356.000000	97.658232 
3355.000000	97.659520 
3354.000000	97.660322 
3353.000000	97.660653 
3352.000000	97.660871 
3351.000000	97.661366 
3350.000000	97.662272 
3349.000000	97.663488 
3348.000000	97.664873 
3347.000000	97.666296 
3346.000000	97.667594 
3345.000000	97.668623 
3344.000000	97.669399 
3343.000000	97.670025 
3342.000000	97.670467 
3341.000000	97.670531 
3340.000000	97.670069 
3339.000000	97.669162 
3338.000000	97.668148 
3337.000000	97.667533 
3336.000000	97.667712 
3335.000000	97.668640 
3334.000000	97.669872 
3333.000000	97.671034 
3332.000000	97.672122 
3331.000000	97.673147 
3330.000000	97.673736 
3329.000000	97.673501 
3328.000000	97.672764 
3327.000000	97.672480 
3326.000000	97.673192 
3325.000000	97.674394 
3324.000000	97.675141 
3323.000000	97.675167 
3322.000000	97.675105 
3321.000000	97.675724 
3320.000000	97.677239 
3319.000000	97.679320 
3318.000000	97.681439 
3317.000000	97.683117 
3316.000000	97.684114 
3315.000000	97.684607 
3314.000000	97.685139 
3313.000000	97.686150 
3312.000000	97.687483 
3311.000000	97.688506 
3310.000000	97.688836 
3309.000000	97.688776 
3308.000000	97.688972 
3307.000000	97.689686 
3306.000000	97.690549 
3305.000000	97.691038 
3304.000000	97.691014 
3303.000000	97.690798 
3302.000000	97.690863 
3301.000000	97.691474 
3300.000000	97.692574 
3299.000000	97.693861 
3298.000000	97.695011 
3297.000000	97.695898 
3296.000000	97.696631 
3295.000000	97.697404 
3294.000000	97.698328 
3293.000000	97.699371 
3292.000000	97.700381 
3291.000000	97.701159 
3290.000000	97.701618 
3289.000000	97.701891 
3288.000000	97.702238 
3287.000000	97.702799 
3286.000000	97.703476 
3285.000000	97.704095 
3284.000000	97.704634 
3283.000000	97.705219 
3282.000000	97.705971 
3281.000000	97.706937 
3280.000000	97.708095 
3279.000000	97.709368 
3278.000000	97.710625 
3277.000000	97.711719 
3276.000000	97.712559 
3275.000000	97.713156 
3274.000000	97.713614 
3273.000000	97.714066 
3272.000000	97.714581 
3271.000000	97.715145 
3270.000000	97.715768 
3269.000000	97.716547 
3268.000000	97.717569 
3267.000000	97.718750 
3266.000000	97.719837 
3265.000000	97.720649 
3264.000000	97.721233 
3263.000000	97.721788 
3262.000000	97.722447 
3261.000000	97.723208 
3260.000000	97.724029 
3259.000000	97.724922 
3258.000000	97.725946 
3257.000000	97.727140 
3256.000000	97.728448 
3255.000000	97.729720 
3254.000000	97.730804 
3253.000000	97.731661 
3252.000000	97.732389 
3251.000000	97.733134 
3250.000000	97.733983 
3249.000000	97.734949 
3248.000000	97.736022 
3247.000000	97.737176 
3246.000000	97.738333 
3245.000000	97.739383 
3244.000000	97.740261 
3243.000000	97.741024 
3242.000000	97.741829 
3241.000000	97.742793 
3240.000000	97.743899 
3239.000000	97.745037 
3238.000000	97.746133 
3237.000000	97.747214 
3236.000000	97.748351 
3235.000000	97.749541 
3234.000000	97.750689 
3233.000000	97.751669 
3232.000000	97.752428 
3231.000000	97.753028 
3230.000000	97.753623 
3229.000000	97.754345 
3228.000000	97.755191 
3227.000000	97.756064 
3226.000000	97.756977 
3225.000000	97.758141 
3224.000000	97.759741 
3223.000000	97.761594 
3222.000000	97.763142 
3221.000000	97.763947 
3220.000000	97.764072 
3219.000000	97.764037 
3218.000000	97.764380 
3217.000000	97.765255 
3216.000000	97.766460 
3215.000000	97.767685 
3214.000000	97.768748 
3213.000000	97.769626 
3212.000000	97.770377 
3211.000000	97.771085 
3210.000000	97.771827 
3209.000000	97.772568 
3208.000000	97.773095 
3207.000000	97.773179 
3206.000000	97.772919 
3205.000000	97.772833 
3204.000000	97.773436 
3203.000000	97.774794 
3202.000000	97.776555 
3201.000000	97.778334 
3200.000000	97.779954 
3199.000000	97.781336 
3198.000000	97.782380 
3197.000000	97.783046 
3196.000000	97.783444 
3195.000000	97.783770 
3194.000000	97.784241 
3193.000000	97.785057 
3192.000000	97.786313 
3191.000000	97.787890 
3190.000000	97.789575 
3189.000000	97.791297 
3188.000000	97.793110 
3187.000000	97.794884 
3186.000000	97.796182 
3185.000000	97.796685 
3184.000000	97.796677 
3183.000000	97.796958 
3182.000000	97.798109 
3181.000000	97.800004 
3180.000000	97.802055 
3179.000000	97.803831 
3178.000000	97.805317 
3177.000000	97.806701 
3176.000000	97.808039 
3175.000000	97.809165 
3174.000000	97.809853 
3173.000000	97.810026 
3172.000000	97.809916 
3171.000000	97.810077 
3170.000000	97.811041 
3169.000000	97.812808 
3168.000000	97.814725 
3167.000000	97.816027 
3166.000000	97.816550 
3165.000000	97.816817 
3164.000000	97.817429 
3163.000000	97.818511 
3162.000000	97.819791 
3161.000000	97.821056 
3160.000000	97.822385 
3159.000000	97.824043 
3158.000000	97.826231 
3157.000000	97.828829 
3156.000000	97.831254 
3155.000000	97.832762 
3154.000000	97.833086 
3153.000000	97.832731 
3152.000000	97.832413 
3151.000000	97.832208 
3150.000000	97.831565 
3149.000000	97.830201 
3148.000000	97.828723 
3147.000000	97.828197 
3146.000000	97.829201 
3145.000000	97.831521 
3144.000000	97.834590 
3143.000000	97.838005 
3142.000000	97.841533 
3141.000000	97.844771 
3140.000000	97.847080 
3139.000000	97.848013 
3138.000000	97.847836 
3137.000000	97.847456 
3136.000000	97.847729 
3135.000000	97.848817 
3134.000000	97.850226 
3133.000000	97.851281 
3132.000000	97.851549 
3131.000000	97.851054 
3130.000000	97.850343 
3129.000000	97.850220 
3128.000000	97.851149 
3127.000000	97.852897 
3126.000000	97.854813 
3125.000000	97.856462 
3124.000000	97.857852 
3123.000000	97.859075 
3122.000000	97.860014 
3121.000000	97.860480 
3120.000000	97.860526 
3119.000000	97.860479 
3118.000000	97.860721 
3117.000000	97.861458 
3116.000000	97.862620 
3115.000000	97.863919 
3114.000000	97.865060 
3113.000000	97.865973 
3112.000000	97.866820 
3111.000000	97.867789 
3110.000000	97.868896 
3109.000000	97.869956 
3108.000000	97.870735 
3107.000000	97.871159 
3106.000000	97.871393 
3105.000000	97.871727 
3104.000000	97.872297 
3103.000000	97.873014 
3102.000000	97.873701 
3101.000000	97.874283 
3100.000000	97.874865 
3099.000000	97.875577 
3098.000000	97.876366 
3097.000000	97.877012 
3096.000000	97.877373 
3095.000000	97.877584 
3094.000000	97.877973 
3093.000000	97.878772 
3092.000000	97.879905 
3091.000000	97.880979 
3090.000000	97.881533 
3089.000000	97.881406 
3088.000000	97.880956 
3087.000000	97.880809 
3086.000000	97.881338 
3085.000000	97.882489 
3084.000000	97.883986 
3083.000000	97.885558 
3082.000000	97.886973 
3081.000000	97.888219 
3080.000000	97.889653 
3079.000000	97.891581 
3078.000000	97.893551 
3077.000000	97.894403 
3076.000000	97.893328 
3075.000000	97.890810 
3074.000000	97.888446 
3073.000000	97.887564 
3072.000000	97.887983 
3071.000000	97.888352 
3070.000000	97.887794 
3069.000000	97.886920 
3068.000000	97.886671 
3067.000000	97.886643 
3066.000000	97.885729 
3065.000000	97.884417 
3064.000000	97.884891 
3063.000000	97.887996 
3062.000000	97.891338 
3061.000000	97.891831 
3060.000000	97.889486 
3059.000000	97.887253 
3058.000000	97.887212 
3057.000000	97.888182 
3056.000000	97.887613 
3055.000000	97.884800 
3054.000000	97.881543 
3053.000000	97.879967 
3052.000000	97.880297 
3051.000000	97.880908 
3050.000000	97.880201 
3049.000000	97.878226 
3048.000000	97.876324 
3047.000000	97.875453 
3046.000000	97.875366 
3045.000000	97.875444 
3044.000000	97.875666 
3043.000000	97.876282 
3042.000000	97.876682 
3041.000000	97.875240 
3040.000000	97.870574 
3039.000000	97.863026 
3038.000000	97.854784 
3037.000000	97.848055 
3036.000000	97.842928 
3035.000000	97.837504 
3034.000000	97.830529 
3033.000000	97.823149 
3032.000000	97.817070 
3031.000000	97.811577 
3030.000000	97.803880 
3029.000000	97.792673 
3028.000000	97.780051 
3027.000000	97.769155 
3026.000000	97.760622 
3025.000000	97.752315 
3024.000000	97.742053 
3023.000000	97.729607 
3022.000000	97.716208 
3021.000000	97.703120 
3020.000000	97.690935 
3019.000000	97.679670 
3018.000000	97.669017 
3017.000000	97.658490 
3016.000000	97.647398 
3015.000000	97.634992 
3014.000000	97.621032 
3013.000000	97.606148 
3012.000000	97.591147 
3011.000000	97.575987 
3010.000000	97.560059 
3009.000000	97.543445 
3008.000000	97.526982 
3007.000000	97.510896 
3006.000000	97.494478 
3005.000000	97.477679 
3004.000000	97.461852 
3003.000000	97.447746 
3002.000000	97.433708 
3001.000000	97.417438 
3000.000000	97.399297 
2999.000000	97.382324 
2998.000000	97.368837 
2997.000000	97.358493 
2996.000000	97.349793 
2995.000000	97.341507 
2994.000000	97.331358 
2993.000000	97.315065 
2992.000000	97.289703 
2991.000000	97.258582 
2990.000000	97.230811 
2989.000000	97.214383 
2988.000000	97.210275 
2987.000000	97.213553 
2986.000000	97.218842 
2985.000000	97.223749 
2984.000000	97.227975 
2983.000000	97.231648 
2982.000000	97.235136 
2981.000000	97.238680 
2980.000000	97.241158 
2979.000000	97.240432 
2978.000000	97.235949 
2977.000000	97.229964 
2976.000000	97.225030 
2975.000000	97.221200 
2974.000000	97.217163 
2973.000000	97.213517 
2972.000000	97.213106 
2971.000000	97.218009 
2970.000000	97.227544 
2969.000000	97.239424 
2968.000000	97.251748 
2967.000000	97.263724 
2966.000000	97.275625 
2965.000000	97.288473 
2964.000000	97.302849 
2963.000000	97.317525 
2962.000000	97.329943 
2961.000000	97.338473 
2960.000000	97.343769 
2959.000000	97.348034 
2958.000000	97.353741 
2957.000000	97.362847 
2956.000000	97.375761 
2955.000000	97.390443 
2954.000000	97.403464 
2953.000000	97.412779 
2952.000000	97.419070 
2951.000000	97.424309 
2950.000000	97.429771 
2949.000000	97.435682 
2948.000000	97.441725 
2947.000000	97.447149 
2946.000000	97.451233 
2945.000000	97.454293 
2944.000000	97.457494 
2943.000000	97.461263 
2942.000000	97.464589 
2941.000000	97.466358 
2940.000000	97.466742 
2939.000000	97.466819 
2938.000000	97.467376 
2937.000000	97.468721 
2936.000000	97.471141 
2935.000000	97.474771 
2934.000000	97.479239 
2933.000000	97.483853 
2932.000000	97.487720 
2931.000000	97.489474 
2930.000000	97.487706 
2929.000000	97.482437 
2928.000000	97.475782 
2927.000000	97.470412 
2926.000000	97.467447 
2925.000000	97.466060 
2924.000000	97.464710 
2923.000000	97.462353 
2922.000000	97.458898 
2921.000000	97.454970 
2920.000000	97.450998 
2919.000000	97.446457 
2918.000000	97.440575 
2917.000000	97.433934 
2916.000000	97.428510 
2915.000000	97.425619 
2914.000000	97.424509 
2913.000000	97.423628 
2912.000000	97.422586 
2911.000000	97.422045 
2910.000000	97.422195 
2909.000000	97.422427 
2908.000000	97.422438 
2907.000000	97.422384 
2906.000000	97.421509 
2905.000000	97.417490 
2904.000000	97.408514 
2903.000000	97.396486 
2902.000000	97.387772 
2901.000000	97.389044 
2900.000000	97.401991 
2899.000000	97.421786 
2898.000000	97.440118 
2897.000000	97.451538 
2896.000000	97.456296 
2895.000000	97.458110 
2894.000000	97.460309 
2893.000000	97.463967 
2892.000000	97.468406 
2891.000000	97.472445 
2890.000000	97.475363 
2889.000000	97.477247 
2888.000000	97.478605 
2887.000000	97.479800 
2886.000000	97.481270 
2885.000000	97.484180 
2884.000000	97.489974 
2883.000000	97.498854 
2882.000000	97.509290 
2881.000000	97.519608 
2880.000000	97.529682 
2879.000000	97.540594 
2878.000000	97.552886 
2877.000000	97.565598 
2876.000000	97.576937 
2875.000000	97.585783 
2874.000000	97.592788 
2873.000000	97.599920 
2872.000000	97.608399 
2871.000000	97.616970 
2870.000000	97.623040 
2869.000000	97.625847 
2868.000000	97.627802 
2867.000000	97.632276 
2866.000000	97.640732 
2865.000000	97.652514 
2864.000000	97.666447 
2863.000000	97.681612 
2862.000000	97.697031 
2861.000000	97.711831 
2860.000000	97.725971 
2859.000000	97.740100 
2858.000000	97.754399 
2857.000000	97.767853 
2856.000000	97.778608 
2855.000000	97.785028 
2854.000000	97.787095 
2853.000000	97.786985 
2852.000000	97.787581 
2851.000000	97.790244 
2850.000000	97.794523 
2849.000000	97.799770 
2848.000000	97.806037 
2847.000000	97.813369 
2846.000000	97.821425 
2845.000000	97.830319 
2844.000000	97.840670 
2843.000000	97.852066 
2842.000000	97.862489 
2841.000000	97.870136 
2840.000000	97.875036 
2839.000000	97.878240 
2838.000000	97.880470 
2837.000000	97.882376 
2836.000000	97.884893 
2835.000000	97.888060 
2834.000000	97.890540 
2833.000000	97.891712 
2832.000000	97.893296 
2831.000000	97.897169 
2830.000000	97.902247 
2829.000000	97.905618 
2828.000000	97.906472 
2827.000000	97.906903 
2826.000000	97.908755 
2825.000000	97.911594 
2824.000000	97.914438 
2823.000000	97.917604 
2822.000000	97.921715 
2821.000000	97.926110 
2820.000000	97.929475 
2819.000000	97.931407 
2818.000000	97.932465 
2817.000000	97.933153 
2816.000000	97.933601 
2815.000000	97.933979 
2814.000000	97.934681 
2813.000000	97.936120 
2812.000000	97.938473 
2811.000000	97.941413 
2810.000000	97.944064 
2809.000000	97.945597 
2808.000000	97.946004 
2807.000000	97.946006 
2806.000000	97.946193 
2805.000000	97.946601 
2804.000000	97.947077 
2803.000000	97.947568 
2802.000000	97.948004 
2801.000000	97.948339 
2800.000000	97.948856 
2799.000000	97.950061 
2798.000000	97.952099 
2797.000000	97.954468 
2796.000000	97.956408 
2795.000000	97.957507 
2794.000000	97.957985 
2793.000000	97.958470 
2792.000000	97.959378 
2791.000000	97.960437 
2790.000000	97.961001 
2789.000000	97.960843 
2788.000000	97.960410 
2787.000000	97.960279 
2786.000000	97.960616 
2785.000000	97.961311 
2784.000000	97.962266 
2783.000000	97.963336 
2782.000000	97.964235 
2781.000000	97.964806 
2780.000000	97.965255 
2779.000000	97.965925 
2778.000000	97.966893 
2777.000000	97.967958 
2776.000000	97.968876 
2775.000000	97.969571 
2774.000000	97.970117 
2773.000000	97.970640 
2772.000000	97.971236 
2771.000000	97.971910 
2770.000000	97.972602 
2769.000000	97.973258 
2768.000000	97.973880 
2767.000000	97.974501 
2766.000000	97.975140 
2765.000000	97.975786 
2764.000000	97.976420 
2763.000000	97.977037 
2762.000000	97.977672 
2761.000000	97.978365 
2760.000000	97.979119 
2759.000000	97.979885 
2758.000000	97.980608 
2757.000000	97.981284 
2756.000000	97.981969 
2755.000000	97.982715 
2754.000000	97.983511 
2753.000000	97.984303 
2752.000000	97.985063 
2751.000000	97.985822 
2750.000000	97.986605 
2749.000000	97.987381 
2748.000000	97.988091 
2747.000000	97.988735 
2746.000000	97.989395 
2745.000000	97.990151 
2744.000000	97.990996 
2743.000000	97.991858 
2742.000000	97.992684 
2741.000000	97.993466 
2740.000000	97.994180 
2739.000000	97.994777 
2738.000000	97.995283 
2737.000000	97.995846 
2736.000000	97.996595 
2735.000000	97.997464 
2734.000000	97.998240 
2733.000000	97.998805 
2732.000000	97.999264 
2731.000000	97.999809 
2730.000000	98.000516 
2729.000000	98.001369 
2728.000000	98.002370 
2727.000000	98.003531 
2726.000000	98.004736 
2725.000000	98.005772 
2724.000000	98.006498 
2723.000000	98.006920 
2722.000000	98.007135 
2721.000000	98.007234 
2720.000000	98.007294 
2719.000000	98.007389 
2718.000000	98.007612 
2717.000000	98.008084 
2716.000000	98.008860 
2715.000000	98.009745 
2714.000000	98.010327 
2713.000000	98.010363 
2712.000000	98.010113 
2711.000000	98.010153 
2710.000000	98.010737 
2709.000000	98.011499 
2708.000000	98.011890 
2707.000000	98.011838 
2706.000000	98.011737 
2705.000000	98.011811 
2704.000000	98.011843 
2703.000000	98.011701 
2702.000000	98.011809 
2701.000000	98.012690 
2700.000000	98.014123 
2699.000000	98.015122 
2698.000000	98.014986 
2697.000000	98.014113 
2696.000000	98.013562 
2695.000000	98.013934 
2694.000000	98.014921 
2693.000000	98.015814 
2692.000000	98.016136 
2691.000000	98.015820 
2690.000000	98.015168 
2689.000000	98.014665 
2688.000000	98.014491 
2687.000000	98.014253 
2686.000000	98.013576 
2685.000000	98.012953 
2684.000000	98.013404 
2683.000000	98.015068 
2682.000000	98.016642 
2681.000000	98.016650 
2680.000000	98.014870 
2679.000000	98.012228 
2678.000000	98.009738 
2677.000000	98.007970 
2676.000000	98.007203 
2675.000000	98.007424 
2674.000000	98.008161 
2673.000000	98.008774 
2672.000000	98.008976 
2671.000000	98.008870 
2670.000000	98.008671 
2669.000000	98.008588 
2668.000000	98.008653 
2667.000000	98.008337 
2666.000000	98.006661 
2665.000000	98.003165 
2664.000000	97.998551 
2663.000000	97.993955 
2662.000000	97.989831 
2661.000000	97.986114 
2660.000000	97.983186 
2659.000000	97.981782 
2658.000000	97.981791 
2657.000000	97.981871 
2656.000000	97.980640 
2655.000000	97.977940 
2654.000000	97.974724 
2653.000000	97.972129 
2652.000000	97.970878 
2651.000000	97.971107 
2650.000000	97.972204 
2649.000000	97.972893 
2648.000000	97.972049 
2647.000000	97.969626 
2646.000000	97.966716 
2645.000000	97.964609 
2644.000000	97.963855 
2643.000000	97.964066 
2642.000000	97.964323 
2641.000000	97.963870 
2640.000000	97.962675 
2639.000000	97.961485 
2638.000000	97.961195 
2637.000000	97.961968 
2636.000000	97.963099 
2635.000000	97.963850 
2634.000000	97.964310 
2633.000000	97.965119 
2632.000000	97.966425 
2631.000000	97.967548 
2630.000000	97.967798 
2629.000000	97.967255 
2628.000000	97.966500 
2627.000000	97.965914 
2626.000000	97.965487 
2625.000000	97.965090 
2624.000000	97.964642 
2623.000000	97.964154 
2622.000000	97.963819 
2621.000000	97.963950 
2620.000000	97.964624 
2619.000000	97.965491 
2618.000000	97.966076 
2617.000000	97.966212 
2616.000000	97.966029 
2615.000000	97.965711 
2614.000000	97.965420 
2613.000000	97.965338 
2612.000000	97.965571 
2611.000000	97.966055 
2610.000000	97.966638 
2609.000000	97.967206 
2608.000000	97.967700 
2607.000000	97.968094 
2606.000000	97.968435 
2605.000000	97.968823 
2604.000000	97.969301 
2603.000000	97.969818 
2602.000000	97.970329 
2601.000000	97.970838 
2600.000000	97.971360 
2599.000000	97.971897 
2598.000000	97.972454 
2597.000000	97.973036 
2596.000000	97.973644 
2595.000000	97.974272 
2594.000000	97.974915 
2593.000000	97.975566 
2592.000000	97.976219 
2591.000000	97.976867 
2590.000000	97.977504 
2589.000000	97.978143 
2588.000000	97.978819 
2587.000000	97.979560 
2586.000000	97.980331 
2585.000000	97.981063 
2584.000000	97.981726 
2583.000000	97.982348 
2582.000000	97.982961 
2581.000000	97.983578 
2580.000000	97.984234 
2579.000000	97.984937 
2578.000000	97.985647 
2577.000000	97.986365 
2576.000000	97.987174 
2575.000000	97.988084 
2574.000000	97.988929 
2573.000000	97.989566 
2572.000000	97.990065 
2571.000000	97.990538 
2570.000000	97.990969 
2569.000000	97.991438 
2568.000000	97.992294 
2567.000000	97.993762 
2566.000000	97.995474 
2565.000000	97.996752 
2564.000000	97.997383 
2563.000000	97.997764 
2562.000000	97.998380 
2561.000000	97.999433 
2560.000000	98.000911 
2559.000000	98.002562 
2558.000000	98.003867 
2557.000000	98.004495 
2556.000000	98.004710 
2555.000000	98.004820 
2554.000000	98.004574 
2553.000000	98.003784 
2552.000000	98.003107 
2551.000000	98.003376 
2550.000000	98.004434 
2549.000000	98.005309 
2548.000000	98.005466 
2547.000000	98.005218 
2546.000000	98.004965 
2545.000000	98.004707 
2544.000000	98.004416 
2543.000000	98.004330 
2542.000000	98.004637 
2541.000000	98.005243 
2540.000000	98.005948 
2539.000000	98.006571 
2538.000000	98.006852 
2537.000000	98.006592 
2536.000000	98.006026 
2535.000000	98.005730 
2534.000000	98.006004 
2533.000000	98.006633 
2532.000000	98.007225 
2531.000000	98.007528 
2530.000000	98.007390 
2529.000000	98.006792 
2528.000000	98.006023 
2527.000000	98.005540 
2526.000000	98.005475 
2525.000000	98.005466 
2524.000000	98.005102 
2523.000000	98.004405 
2522.000000	98.003765 
2521.000000	98.003504 
2520.000000	98.003595 
2519.000000	98.003761 
2518.000000	98.003720 
2517.000000	98.003453 
2516.000000	98.003276 
2515.000000	98.003582 
2514.000000	98.004515 
2513.000000	98.005865 
2512.000000	98.007159 
2511.000000	98.007876 
2510.000000	98.007746 
2509.000000	98.007018 
2508.000000	98.006396 
2507.000000	98.006384 
2506.000000	98.006811 
2505.000000	98.007156 
2504.000000	98.007209 
2503.000000	98.007108 
2502.000000	98.006894 
2501.000000	98.006454 
2500.000000	98.005968 
2499.000000	98.005995 
2498.000000	98.006934 
2497.000000	98.008635 
2496.000000	98.010515 
2495.000000	98.011891 
2494.000000	98.012326 
2493.000000	98.011969 
2492.000000	98.011651 
2491.000000	98.012256 
2490.000000	98.013873 
2489.000000	98.015715 
2488.000000	98.016911 
2487.000000	98.017251 
2486.000000	98.017127 
2485.000000	98.017037 
2484.000000	98.017144 
2483.000000	98.017157 
2482.000000	98.016638 
2481.000000	98.015678 
2480.000000	98.015164 
2479.000000	98.015994 
2478.000000	98.018056 
2477.000000	98.020201 
2476.000000	98.021413 
2475.000000	98.021662 
2474.000000	98.021510 
2473.000000	98.021300 
2472.000000	98.020959 
2471.000000	98.020315 
2470.000000	98.019340 
2469.000000	98.018258 
2468.000000	98.017514 
2467.000000	98.017361 
2466.000000	98.017388 
2465.000000	98.016828 
2464.000000	98.015487 
2463.000000	98.014107 
2462.000000	98.013627 
2461.000000	98.014263 
2460.000000	98.015381 
2459.000000	98.016045 
2458.000000	98.015740 
2457.000000	98.014764 
2456.000000	98.014005 
2455.000000	98.014083 
2454.000000	98.014651 
2453.000000	98.014769 
2452.000000	98.014037 
2451.000000	98.013060 
2450.000000	98.012710 
2449.000000	98.013306 
2448.000000	98.014606 
2447.000000	98.016099 
2446.000000	98.017278 
2445.000000	98.017887 
2444.000000	98.018101 
2443.000000	98.018299 
2442.000000	98.018578 
2441.000000	98.018752 
2440.000000	98.018805 
2439.000000	98.018965 
2438.000000	98.019247 
2437.000000	98.019295 
2436.000000	98.018858 
2435.000000	98.018110 
2434.000000	98.017388 
2433.000000	98.016982 
2432.000000	98.017198 
2431.000000	98.018228 
2430.000000	98.019786 
2429.000000	98.021115 
2428.000000	98.021697 
2427.000000	98.021764 
2426.000000	98.021977 
2425.000000	98.022769 
2424.000000	98.024098 
2423.000000	98.025591 
2422.000000	98.026757 
2421.000000	98.027274 
2420.000000	98.027287 
2419.000000	98.027305 
2418.000000	98.027698 
2417.000000	98.028459 
2416.000000	98.029500 
2415.000000	98.030809 
2414.000000	98.032195 
2413.000000	98.033234 
2412.000000	98.033723 
2411.000000	98.033957 
2410.000000	98.034286 
2409.000000	98.034725 
2408.000000	98.035120 
2407.000000	98.035326 
2406.000000	98.035133 
2405.000000	98.034389 
2404.000000	98.033362 
2403.000000	98.032697 
2402.000000	98.032755 
2401.000000	98.033251 
2400.000000	98.033807 
2399.000000	98.034540 
2398.000000	98.035780 
2397.000000	98.037367 
2396.000000	98.038566 
2395.000000	98.038775 
2394.000000	98.038135 
2393.000000	98.037358 
2392.000000	98.037045 
2391.000000	98.037185 
2390.000000	98.037276 
2389.000000	98.036864 
2388.000000	98.035957 
2387.000000	98.035064 
2386.000000	98.034830 
2385.000000	98.035512 
2384.000000	98.036644 
2383.000000	98.037268 
2382.000000	98.036712 
2381.000000	98.035097 
2380.000000	98.033090 
2379.000000	98.031224 
2378.000000	98.029617 
2377.000000	98.028213 
2376.000000	98.026970 
2375.000000	98.025819 
2374.000000	98.024728 
2373.000000	98.023849 
2372.000000	98.023276 
2371.000000	98.022663 
2370.000000	98.021477 
2369.000000	98.019679 
2368.000000	98.017778 
2367.000000	98.016227 
2366.000000	98.015021 
2365.000000	98.013871 
2364.000000	98.012452 
2363.000000	98.010567 
2362.000000	98.008194 
2361.000000	98.005658 
2360.000000	98.003681 
2359.000000	98.002598 
2358.000000	98.001955 
2357.000000	98.000999 
2356.000000	97.999508 
2355.000000	97.998050 
2354.000000	97.996798 
2353.000000	97.995179 
2352.000000	97.992685 
2351.000000	97.989874 
2350.000000	97.987783 
2349.000000	97.986231 
2348.000000	97.984746 
2347.000000	97.983179 
2346.000000	97.981363 
2345.000000	97.978975 
2344.000000	97.976243 
2343.000000	97.974390 
2342.000000	97.973144 
2341.000000	97.971387 
2340.000000	97.968912 
2339.000000	97.966501 
2338.000000	97.965053 
2337.000000	97.964250 
2336.000000	97.963209 
2335.000000	97.961453 
2334.000000	97.959568 
2333.000000	97.958889 
2332.000000	97.960394 
2331.000000	97.963434 
2330.000000	97.965867 
2329.000000	97.964968 
2328.000000	97.959959 
2327.000000	97.951335 
2326.000000	97.940550 
2325.000000	97.930399 
2324.000000	97.923863 
2323.000000	97.922841 
2322.000000	97.925303 
2321.000000	97.928215 
2320.000000	97.930836 
2319.000000	97.934585 
2318.000000	97.939442 
2317.000000	97.942778 
2316.000000	97.942852 
2315.000000	97.940141 
2314.000000	97.936442 
2313.000000	97.932904 
2312.000000	97.930518 
2311.000000	97.929957 
2310.000000	97.930869 
2309.000000	97.931994 
2308.000000	97.932815 
2307.000000	97.934151 
2306.000000	97.936433 
2305.000000	97.939001 
2304.000000	97.940833 
2303.000000	97.941593 
2302.000000	97.940980 
2301.000000	97.938756 
2300.000000	97.935487 
2299.000000	97.932275 
2298.000000	97.929446 
2297.000000	97.926499 
2296.000000	97.923422 
2295.000000	97.920594 
2294.000000	97.917485 
2293.000000	97.913238 
2292.000000	97.908546 
2291.000000	97.905366 
2290.000000	97.903766 
2289.000000	97.901335 
2288.000000	97.896247 
2287.000000	97.889871 
2286.000000	97.885060 
2285.000000	97.883525 
2284.000000	97.885380 
2283.000000	97.889739 
2282.000000	97.894679 
2281.000000	97.898288 
2280.000000	97.900482 
2279.000000	97.902250 
2278.000000	97.903036 
2277.000000	97.901366 
2276.000000	97.898501 
2275.000000	97.898409 
2274.000000	97.902778 
2273.000000	97.908338 
2272.000000	97.910756 
2271.000000	97.909414 
2270.000000	97.906814 
2269.000000	97.905192 
2268.000000	97.905195 
2267.000000	97.906532 
2266.000000	97.908157 
2265.000000	97.908694 
2264.000000	97.907841 
2263.000000	97.906513 
2262.000000	97.905098 
2261.000000	97.902706 
2260.000000	97.898870 
2259.000000	97.894843 
2258.000000	97.892243 
2257.000000	97.891335 
2256.000000	97.891367 
2255.000000	97.891813 
2254.000000	97.892563 
2253.000000	97.893451 
2252.000000	97.894372 
2251.000000	97.895449 
2250.000000	97.896616 
2249.000000	97.897275 
2248.000000	97.896896 
2247.000000	97.895590 
2246.000000	97.893877 
2245.000000	97.892215 
2244.000000	97.890801 
2243.000000	97.889630 
2242.000000	97.888574 
2241.000000	97.887567 
2240.000000	97.886747 
2239.000000	97.886293 
2238.000000	97.886050 
2237.000000	97.885514 
2236.000000	97.884347 
2235.000000	97.882736 
2234.000000	97.881247 
2233.000000	97.880307 
2232.000000	97.879960 
2231.000000	97.879969 
2230.000000	97.879922 
2229.000000	97.879401 
2228.000000	97.878181 
2227.000000	97.876352 
2226.000000	97.874264 
2225.000000	97.872270 
2224.000000	97.870736 
2223.000000	97.870010 
2222.000000	97.870034 
2221.000000	97.870109 
2220.000000	97.869434 
2219.000000	97.868002 
2218.000000	97.866654 
2217.000000	97.866118 
2216.000000	97.866208 
2215.000000	97.866098 
2214.000000	97.865219 
2213.000000	97.863639 
2212.000000	97.861712 
2211.000000	97.859715 
2210.000000	97.857854 
2209.000000	97.856454 
2208.000000	97.855859 
2207.000000	97.856041 
2206.000000	97.856488 
2205.000000	97.856903 
2204.000000	97.857950 
2203.000000	97.860478 
2202.000000	97.863611 
2201.000000	97.864889 
2200.000000	97.862555 
2199.000000	97.857096 
2198.000000	97.850542 
2197.000000	97.844807 
2196.000000	97.841193 
2195.000000	97.840018 
2194.000000	97.840131 
2193.000000	97.839571 
2192.000000	97.836930 
2191.000000	97.831824 
2190.000000	97.824793 
2189.000000	97.817486 
2188.000000	97.812028 
2187.000000	97.809402 
2186.000000	97.809514 
2185.000000	97.813303 
2184.000000	97.822472 
2183.000000	97.835265 
2182.000000	97.844824 
2181.000000	97.845215 
2180.000000	97.837857 
2179.000000	97.829131 
2178.000000	97.823162 
2177.000000	97.820539 
2176.000000	97.822234 
2175.000000	97.829476 
2174.000000	97.839460 
2173.000000	97.845861 
2172.000000	97.845196 
2171.000000	97.839393 
2170.000000	97.831509 
2169.000000	97.822566 
2168.000000	97.813555 
2167.000000	97.806733 
2166.000000	97.802752 
2165.000000	97.798984 
2164.000000	97.792724 
2163.000000	97.784862 
2162.000000	97.780273 
2161.000000	97.786567 
2160.000000	97.810933 
2159.000000	97.853107 
2158.000000	97.899890 
2157.000000	97.933329 
2156.000000	97.946763 
2155.000000	97.946686 
2154.000000	97.942175 
2153.000000	97.937549 
2152.000000	97.934095 
2151.000000	97.932751 
2150.000000	97.932676 
2149.000000	97.931439 
2148.000000	97.929486 
2147.000000	97.931488 
2146.000000	97.940904 
2145.000000	97.955556 
2144.000000	97.970369 
2143.000000	97.982007 
2142.000000	97.988836 
2141.000000	97.989306 
2140.000000	97.983603 
2139.000000	97.975753 
2138.000000	97.971728 
2137.000000	97.975236 
2136.000000	97.985715 
2135.000000	97.999287 
2134.000000	98.011084 
2133.000000	98.018067 
2132.000000	98.020565 
2131.000000	98.020431 
2130.000000	98.017789 
2129.000000	98.011034 
2128.000000	98.000055 
2127.000000	97.987908 
2126.000000	97.978859 
2125.000000	97.975362 
2124.000000	97.976637 
2123.000000	97.979254 
2122.000000	97.979468 
2121.000000	97.976182 
2120.000000	97.971368 
2119.000000	97.966828 
2118.000000	97.961618 
2117.000000	97.954190 
2116.000000	97.945890 
2115.000000	97.939857 
2114.000000	97.937317 
2113.000000	97.937220 
2112.000000	97.939013 
2111.000000	97.942735 
2110.000000	97.946173 
2109.000000	97.945749 
2108.000000	97.941243 
2107.000000	97.936603 
2106.000000	97.934979 
2105.000000	97.935275 
2104.000000	97.934587 
2103.000000	97.931928 
2102.000000	97.928335 
2101.000000	97.924973 
2100.000000	97.922402 
2099.000000	97.920852 
2098.000000	97.920645 
2097.000000	97.922702 
2096.000000	97.928014 
2095.000000	97.935360 
2094.000000	97.940495 
2093.000000	97.939847 
2092.000000	97.934044 
2091.000000	97.926723 
2090.000000	97.920638 
2089.000000	97.915869 
2088.000000	97.911428 
2087.000000	97.906852 
2086.000000	97.902183 
2085.000000	97.897799 
2084.000000	97.894706 
2083.000000	97.893910 
2082.000000	97.894924 
2081.000000	97.895643 
2080.000000	97.894294 
2079.000000	97.890912 
2078.000000	97.886780 
2077.000000	97.883229 
2076.000000	97.881049 
2075.000000	97.880100 
2074.000000	97.879064 
2073.000000	97.876492 
2072.000000	97.872637 
2071.000000	97.869514 
2070.000000	97.868727 
2069.000000	97.869858 
2068.000000	97.871118 
2067.000000	97.870930 
2066.000000	97.868717 
2065.000000	97.865235 
2064.000000	97.862478 
2063.000000	97.862070 
2062.000000	97.863275 
2061.000000	97.863416 
2060.000000	97.860661 
2059.000000	97.855547 
2058.000000	97.849901 
2057.000000	97.845407 
2056.000000	97.843094 
2055.000000	97.842538 
2054.000000	97.841112 
2053.000000	97.835666 
2052.000000	97.825729 
2051.000000	97.814337 
2050.000000	97.805474 
2049.000000	97.801192 
2048.000000	97.801688 
2047.000000	97.806341 
2046.000000	97.813175 
2045.000000	97.818626 
2044.000000	97.819872 
2043.000000	97.816970 
2042.000000	97.812087 
2041.000000	97.807443 
2040.000000	97.804321 
2039.000000	97.803130 
2038.000000	97.803439 
2037.000000	97.804354 
2036.000000	97.805440 
2035.000000	97.806845 
2034.000000	97.808519 
2033.000000	97.810338 
2032.000000	97.812702 
2031.000000	97.815436 
2030.000000	97.816466 
2029.000000	97.813876 
2028.000000	97.809277 
2027.000000	97.806702 
2026.000000	97.807476 
2025.000000	97.808653 
2024.000000	97.807360 
2023.000000	97.804533 
2022.000000	97.802936 
2021.000000	97.803176 
2020.000000	97.803367 
2019.000000	97.801756 
2018.000000	97.798102 
2017.000000	97.793411 
2016.000000	97.789727 
2015.000000	97.789390 
2014.000000	97.793341 
2013.000000	97.800287 
2012.000000	97.807576 
2011.000000	97.812431 
2010.000000	97.812958 
2009.000000	97.810003 
2008.000000	97.807624 
2007.000000	97.808735 
2006.000000	97.810866 
2005.000000	97.809629 
2004.000000	97.805318 
2003.000000	97.801793 
2002.000000	97.799474 
2001.000000	97.794910 
2000.000000	97.787831 
1999.000000	97.782619 
1998.000000	97.781487 
1997.000000	97.781585 
1996.000000	97.780467 
1995.000000	97.779461 
1994.000000	97.779152 
1993.000000	97.776263 
1992.000000	97.769013 
1991.000000	97.762038 
1990.000000	97.761190 
1989.000000	97.766182 
1988.000000	97.771560 
1987.000000	97.772888 
1986.000000	97.769872 
1985.000000	97.765028 
1984.000000	97.761264 
1983.000000	97.759349 
1982.000000	97.756951 
1981.000000	97.752490 
1980.000000	97.749883 
1979.000000	97.755309 
1978.000000	97.768864 
1977.000000	97.783574 
1976.000000	97.794421 
1975.000000	97.803377 
1974.000000	97.812689 
1973.000000	97.819523 
1972.000000	97.820631 
1971.000000	97.817524 
1970.000000	97.813653 
1969.000000	97.809785 
1968.000000	97.805488 
1967.000000	97.802602 
1966.000000	97.803531 
1965.000000	97.807670 
1964.000000	97.812466 
1963.000000	97.817005 
1962.000000	97.822519 
1961.000000	97.829812 
1960.000000	97.837443 
1959.000000	97.842479 
1958.000000	97.842988 
1957.000000	97.840275 
1956.000000	97.838543 
1955.000000	97.840935 
1954.000000	97.846161 
1953.000000	97.850108 
1952.000000	97.850652 
1951.000000	97.849463 
1950.000000	97.849261 
1949.000000	97.850983 
1948.000000	97.854243 
1947.000000	97.858597 
1946.000000	97.863279 
1945.000000	97.867114 
1944.000000	97.869644 
1943.000000	97.871543 
1942.000000	97.873320 
1941.000000	97.874555 
1940.000000	97.874977 
1939.000000	97.875151 
1938.000000	97.875770 
1937.000000	97.876931 
1936.000000	97.878386 
1935.000000	97.879973 
1934.000000	97.881585 
1933.000000	97.882935 
1932.000000	97.883753 
1931.000000	97.884164 
1930.000000	97.884560 
1929.000000	97.885222 
1928.000000	97.886266 
1927.000000	97.887636 
1926.000000	97.888997 
1925.000000	97.889909 
1924.000000	97.890434 
1923.000000	97.891283 
1922.000000	97.892784 
1921.000000	97.894201 
1920.000000	97.894655 
1919.000000	97.894011 
1918.000000	97.892613 
1917.000000	97.890936 
1916.000000	97.889815 
1915.000000	97.890043 
1914.000000	97.891292 
1913.000000	97.892203 
1912.000000	97.892113 
1911.000000	97.891993 
1910.000000	97.892523 
1909.000000	97.892696 
1908.000000	97.891622 
1907.000000	97.889911 
1906.000000	97.888471 
1905.000000	97.887150 
1904.000000	97.885716 
1903.000000	97.884807 
1902.000000	97.884440 
1901.000000	97.883512 
1900.000000	97.881899 
1899.000000	97.881104 
1898.000000	97.881902 
1897.000000	97.882709 
1896.000000	97.881690 
1895.000000	97.879298 
1894.000000	97.876981 
1893.000000	97.875075 
1892.000000	97.873620 
1891.000000	97.873352 
1890.000000	97.874424 
1889.000000	97.875808 
1888.000000	97.877266 
1887.000000	97.879553 
1886.000000	97.881739 
1885.000000	97.881147 
1884.000000	97.877258 
1883.000000	97.873425 
1882.000000	97.872592 
1881.000000	97.873991 
1880.000000	97.875664 
1879.000000	97.877250 
1878.000000	97.878712 
1877.000000	97.878924 
1876.000000	97.877715 
1875.000000	97.877231 
1874.000000	97.878546 
1873.000000	97.879401 
1872.000000	97.878233 
1871.000000	97.877385 
1870.000000	97.878733 
1869.000000	97.879408 
1868.000000	97.877541 
1867.000000	97.877150 
1866.000000	97.881180 
1865.000000	97.887134 
1864.000000	97.891985 
1863.000000	97.896600 
1862.000000	97.902445 
1861.000000	97.907220 
1860.000000	97.908454 
1859.000000	97.908345 
1858.000000	97.909988 
1857.000000	97.911983 
1856.000000	97.911778 
1855.000000	97.911284 
1854.000000	97.914148 
1853.000000	97.920013 
1852.000000	97.925915 
1851.000000	97.930929 
1850.000000	97.936134 
1849.000000	97.941722 
1848.000000	97.946877 
1847.000000	97.951583 
1846.000000	97.955881 
1845.000000	97.958020 
1844.000000	97.957115 
1843.000000	97.955866 
1842.000000	97.956247 
1841.000000	97.957097 
1840.000000	97.957299 
1839.000000	97.957360 
1838.000000	97.958248 
1837.000000	97.959512 
1836.000000	97.960391 
1835.000000	97.961661 
1834.000000	97.964173 
1833.000000	97.967036 
1832.000000	97.968241 
1831.000000	97.966382 
1830.000000	97.962380 
1829.000000	97.959075 
1828.000000	97.958103 
1827.000000	97.959214 
1826.000000	97.961539 
1825.000000	97.963453 
1824.000000	97.963730 
1823.000000	97.963244 
1822.000000	97.963581 
1821.000000	97.964949 
1820.000000	97.966766 
1819.000000	97.969620 
1818.000000	97.974290 
1817.000000	97.978514 
1816.000000	97.979011 
1815.000000	97.976063 
1814.000000	97.972761 
1813.000000	97.970803 
1812.000000	97.969333 
1811.000000	97.968271 
1810.000000	97.968695 
1809.000000	97.969561 
1808.000000	97.968936 
1807.000000	97.967194 
1806.000000	97.965663 
1805.000000	97.964117 
1804.000000	97.962004 
1803.000000	97.960477 
1802.000000	97.960803 
1801.000000	97.961935 
1800.000000	97.961915 
1799.000000	97.961062 
1798.000000	97.960785 
1797.000000	97.960968 
1796.000000	97.961317 
1795.000000	97.962798 
1794.000000	97.966017 
1793.000000	97.969121 
1792.000000	97.969729 
1791.000000	97.968949 
1790.000000	97.969100 
1789.000000	97.969931 
1788.000000	97.970339 
1787.000000	97.970739 
1786.000000	97.972192 
1785.000000	97.974179 
1784.000000	97.975338 
1783.000000	97.975679 
1782.000000	97.976169 
1781.000000	97.977353 
1780.000000	97.978999 
1779.000000	97.980823 
1778.000000	97.982738 
1777.000000	97.984415 
1776.000000	97.985536 
1775.000000	97.986080 
1774.000000	97.986391 
1773.000000	97.986887 
1772.000000	97.987533 
1771.000000	97.988376 
1770.000000	97.990134 
1769.000000	97.993239 
1768.000000	97.996950 
1767.000000	97.999922 
1766.000000	98.001640 
1765.000000	98.002511 
1764.000000	98.002964 
1763.000000	98.003163 
1762.000000	98.003644 
1761.000000	98.005172 
1760.000000	98.007588 
1759.000000	98.010218 
1758.000000	98.012791 
1757.000000	98.015301 
1756.000000	98.017436 
1755.000000	98.018782 
1754.000000	98.019881 
1753.000000	98.022047 
1752.000000	98.025383 
1751.000000	98.027835 
1750.000000	98.028065 
1749.000000	98.027133 
1748.000000	98.026554 
1747.000000	98.026471 
1746.000000	98.026657 
1745.000000	98.027437 
1744.000000	98.028620 
1743.000000	98.029300 
1742.000000	98.029377 
1741.000000	98.029670 
1740.000000	98.030474 
1739.000000	98.031263 
1738.000000	98.031607 
1737.000000	98.031621 
1736.000000	98.031863 
1735.000000	98.032685 
1734.000000	98.033542 
1733.000000	98.033844 
1732.000000	98.033693 
1731.000000	98.033441 
1730.000000	98.033515 
1729.000000	98.034029 
1728.000000	98.034667 
1727.000000	98.035031 
1726.000000	98.035020 
1725.000000	98.034818 
1724.000000	98.034499 
1723.000000	98.034113 
1722.000000	98.033761 
1721.000000	98.033404 
1720.000000	98.032954 
1719.000000	98.032495 
1718.000000	98.032095 
1717.000000	98.031322 
1716.000000	98.029993 
1715.000000	98.028708 
1714.000000	98.027868 
1713.000000	98.027205 
1712.000000	98.026379 
1711.000000	98.025391 
1710.000000	98.024392 
1709.000000	98.023329 
1708.000000	98.022049 
1707.000000	98.020617 
1706.000000	98.019200 
1705.000000	98.017746 
1704.000000	98.016183 
1703.000000	98.014620 
1702.000000	98.013188 
1701.000000	98.011825 
1700.000000	98.010305 
1699.000000	98.008633 
1698.000000	98.006972 
1697.000000	98.005318 
1696.000000	98.003617 
1695.000000	98.001873 
1694.000000	98.000087 
1693.000000	97.998229 
1692.000000	97.996323 
1691.000000	97.994438 
1690.000000	97.992579 
1689.000000	97.990685 
1688.000000	97.988721 
1687.000000	97.986709 
1686.000000	97.984694 
1685.000000	97.982591 
1684.000000	97.980311 
1683.000000	97.978059 
1682.000000	97.975940 
1681.000000	97.973918 
1680.000000	97.972085 
1679.000000	97.970385 
1678.000000	97.968625 
1677.000000	97.966789 
1676.000000	97.965080 
1675.000000	97.963530 
1674.000000	97.961936 
1673.000000	97.960214 
1672.000000	97.958440 
1671.000000	97.956666 
1670.000000	97.954764 
1669.000000	97.952840 
1668.000000	97.951281 
1667.000000	97.950083 
1666.000000	97.948903 
1665.000000	97.947516 
1664.000000	97.945941 
1663.000000	97.944373 
1662.000000	97.942795 
1661.000000	97.941154 
1660.000000	97.939821 
1659.000000	97.938948 
1658.000000	97.937884 
1657.000000	97.936217 
1656.000000	97.934420 
1655.000000	97.933305 
1654.000000	97.932032 
1653.000000	97.929708 
1652.000000	97.928227 
1651.000000	97.927854 
1650.000000	97.927038 
1649.000000	97.926135 
1648.000000	97.925511 
1647.000000	97.924627 
1646.000000	97.923663 
1645.000000	97.923143 
1644.000000	97.923014 
1643.000000	97.923296 
1642.000000	97.924007 
1641.000000	97.924849 
1640.000000	97.925601 
1639.000000	97.926107 
1638.000000	97.926257 
1637.000000	97.925978 
1636.000000	97.925212 
1635.000000	97.924040 
1634.000000	97.922879 
1633.000000	97.922377 
1632.000000	97.923104 
1631.000000	97.924983 
1630.000000	97.926710 
1629.000000	97.926997 
1628.000000	97.926277 
1627.000000	97.925901 
1626.000000	97.926217 
1625.000000	97.926953 
1624.000000	97.928343 
1623.000000	97.930464 
1622.000000	97.932346 
1621.000000	97.933427 
1620.000000	97.934448 
1619.000000	97.936193 
1618.000000	97.938228 
1617.000000	97.939484 
1616.000000	97.940394 
1615.000000	97.941437 
1614.000000	97.942018 
1613.000000	97.942732 
1612.000000	97.945140 
1611.000000	97.949271 
1610.000000	97.952935 
1609.000000	97.954892 
1608.000000	97.956603 
1607.000000	97.959211 
1606.000000	97.961605 
1605.000000	97.962962 
1604.000000	97.964414 
1603.000000	97.966729 
1602.000000	97.969024 
1601.000000	97.971005 
1600.000000	97.973701 
1599.000000	97.977044 
1598.000000	97.979401 
1597.000000	97.980558 
1596.000000	97.982566 
1595.000000	97.986504 
1594.000000	97.990630 
1593.000000	97.993415 
1592.000000	97.995841 
1591.000000	97.998758 
1590.000000	98.000858 
1589.000000	98.001586 
1588.000000	98.003129 
1587.000000	98.006994 
1586.000000	98.011257 
1585.000000	98.014003 
1584.000000	98.016877 
1583.000000	98.021374 
1582.000000	98.025280 
1581.000000	98.026882 
1580.000000	98.027770 
1579.000000	98.028757 
1578.000000	98.028192 
1577.000000	98.026280 
1576.000000	98.027495 
1575.000000	98.031993 
1574.000000	98.033427 
1573.000000	98.030313 
1572.000000	98.026945 
1571.000000	98.026264 
1570.000000	98.026582 
1569.000000	98.027673 
1568.000000	98.032218 
1567.000000	98.037628 
1566.000000	98.039167 
1565.000000	98.037306 
1564.000000	98.035508 
1563.000000	98.034176 
1562.000000	98.031673 
1561.000000	98.031624 
1560.000000	98.040871 
1559.000000	98.046554 
1558.000000	98.036023 
1557.000000	98.021423 
1556.000000	98.013140 
1555.000000	98.010944 
1554.000000	98.010258 
1553.000000	98.007729 
1552.000000	98.004731 
1551.000000	98.002835 
1550.000000	98.001916 
1549.000000	98.000143 
1548.000000	97.997182 
1547.000000	97.993987 
1546.000000	97.990025 
1545.000000	97.983478 
1544.000000	97.975456 
1543.000000	97.969740 
1542.000000	97.967357 
1541.000000	97.961245 
1540.000000	97.948096 
1539.000000	97.937059 
1538.000000	97.929964 
1537.000000	97.920435 
1536.000000	97.908462 
1535.000000	97.897936 
1534.000000	97.888613 
1533.000000	97.877683 
1532.000000	97.866404 
1531.000000	97.858490 
1530.000000	97.853472 
1529.000000	97.846540 
1528.000000	97.835105 
1527.000000	97.822579 
1526.000000	97.812894 
1525.000000	97.804354 
1524.000000	97.793728 
1523.000000	97.781712 
1522.000000	97.769569 
1521.000000	97.756289 
1520.000000	97.741913 
1519.000000	97.728239 
1518.000000	97.716487 
1517.000000	97.706124 
1516.000000	97.696059 
1515.000000	97.686654 
1514.000000	97.678923 
1513.000000	97.672149 
1512.000000	97.662822 
1511.000000	97.649986 
1510.000000	97.636930 
1509.000000	97.625771 
1508.000000	97.612756 
1507.000000	97.594989 
1506.000000	97.578135 
1505.000000	97.564730 
1504.000000	97.552151 
1503.000000	97.539570 
1502.000000	97.527118 
1501.000000	97.514095 
1500.000000	97.499217 
1499.000000	97.483164 
1498.000000	97.469604 
1497.000000	97.460119 
1496.000000	97.451424 
1495.000000	97.441649 
1494.000000	97.432665 
1493.000000	97.425130 
1492.000000	97.416797 
1491.000000	97.404769 
1490.000000	97.388860 
1489.000000	97.370739 
1488.000000	97.351878 
1487.000000	97.335803 
1486.000000	97.324163 
1485.000000	97.314183 
1484.000000	97.304085 
1483.000000	97.294002 
1482.000000	97.283880 
1481.000000	97.272401 
1480.000000	97.259534 
1479.000000	97.248382 
1478.000000	97.240990 
1477.000000	97.234066 
1476.000000	97.223538 
1475.000000	97.211777 
1474.000000	97.201235 
1473.000000	97.187575 
1472.000000	97.168529 
1471.000000	97.151396 
1470.000000	97.141583 
1469.000000	97.135371 
1468.000000	97.127154 
1467.000000	97.116482 
1466.000000	97.105897 
1465.000000	97.095561 
1464.000000	97.085181 
1463.000000	97.076138 
1462.000000	97.069663 
1461.000000	97.064243 
1460.000000	97.056891 
1459.000000	97.045267 
1458.000000	97.030001 
1457.000000	97.015644 
1456.000000	97.004160 
1455.000000	96.993176 
1454.000000	96.983007 
1453.000000	96.976413 
1452.000000	96.973039 
1451.000000	96.970524 
1450.000000	96.969763 
1449.000000	96.971662 
1448.000000	96.971885 
1447.000000	96.967406 
1446.000000	96.961214 
1445.000000	96.958068 
1444.000000	96.958597 
1443.000000	96.959497 
1442.000000	96.959952 
1441.000000	96.962549 
1440.000000	96.966666 
1439.000000	96.967839 
1438.000000	96.966006 
1437.000000	96.965529 
1436.000000	96.967529 
1435.000000	96.969959 
1434.000000	96.973375 
1433.000000	96.978774 
1432.000000	96.984241 
1431.000000	96.985619 
1430.000000	96.983771 
1429.000000	96.984222 
1428.000000	96.987402 
1427.000000	96.989348 
1426.000000	96.988665 
1425.000000	96.990070 
1424.000000	96.996134 
1423.000000	97.001740 
1422.000000	97.003791 
1421.000000	97.005931 
1420.000000	97.009430 
1419.000000	97.008825 
1418.000000	97.005303 
1417.000000	97.005238 
1416.000000	97.007096 
1415.000000	97.006044 
1414.000000	97.001421 
1413.000000	96.997171 
1412.000000	96.996208 
1411.000000	96.997377 
1410.000000	97.000744 
1409.000000	97.007987 
1408.000000	97.017952 
1407.000000	97.028301 
1406.000000	97.039497 
1405.000000	97.055414 
1404.000000	97.076846 
1403.000000	97.098761 
1402.000000	97.118026 
1401.000000	97.136465 
1400.000000	97.155524 
1399.000000	97.171786 
1398.000000	97.180700 
1397.000000	97.180925 
1396.000000	97.174588 
1395.000000	97.168743 
1394.000000	97.174654 
1393.000000	97.199160 
1392.000000	97.236603 
1391.000000	97.274082 
1390.000000	97.302770 
1389.000000	97.321530 
1388.000000	97.333211 
1387.000000	97.340964 
1386.000000	97.347867 
1385.000000	97.357020 
1384.000000	97.369677 
1383.000000	97.384208 
1382.000000	97.398561 
1381.000000	97.412711 
1380.000000	97.428156 
1379.000000	97.445229 
1378.000000	97.462479 
1377.000000	97.479198 
1376.000000	97.496561 
1375.000000	97.515331 
1374.000000	97.534481 
1373.000000	97.552932 
1372.000000	97.570363 
1371.000000	97.586547 
1370.000000	97.601420 
1369.000000	97.616983 
1368.000000	97.635576 
1367.000000	97.655720 
1366.000000	97.673475 
1365.000000	97.686926 
1364.000000	97.697606 
1363.000000	97.708446 
1362.000000	97.721277 
1361.000000	97.736074 
1360.000000	97.751850 
1359.000000	97.767518 
1358.000000	97.782581 
1357.000000	97.797847 
1356.000000	97.814102 
1355.000000	97.829858 
1354.000000	97.842866 
1353.000000	97.853004 
1352.000000	97.862441 
1351.000000	97.872922 
1350.000000	97.882879 
1349.000000	97.891015 
1348.000000	97.898101 
1347.000000	97.904449 
1346.000000	97.909928 
1345.000000	97.915932 
1344.000000	97.924407 
1343.000000	97.934423 
1342.000000	97.942541 
1341.000000	97.947036 
1340.000000	97.949451 
1339.000000	97.951564 
1338.000000	97.953917 
1337.000000	97.957564 
1336.000000	97.963803 
1335.000000	97.972160 
1334.000000	97.981007 
1333.000000	97.989691 
1332.000000	97.997827 
1331.000000	98.003007 
1330.000000	98.002709 
1329.000000	97.998734 
1328.000000	97.996183 
1327.000000	97.997230 
1326.000000	97.999260 
1325.000000	98.000569 
1324.000000	98.002561 
1323.000000	98.005639 
1322.000000	98.007752 
1321.000000	98.007789 
1320.000000	98.007189 
1319.000000	98.007455 
1318.000000	98.008781 
1317.000000	98.011267 
1316.000000	98.015101 
1315.000000	98.019350 
1314.000000	98.022742 
1313.000000	98.025503 
1312.000000	98.028501 
1311.000000	98.031127 
1310.000000	98.032407 
1309.000000	98.033438 
1308.000000	98.036145 
1307.000000	98.039880 
1306.000000	98.041577 
1305.000000	98.040265 
1304.000000	98.038094 
1303.000000	98.036832 
1302.000000	98.036037 
1301.000000	98.034923 
1300.000000	98.033785 
1299.000000	98.033155 
1298.000000	98.033462 
1297.000000	98.035476 
1296.000000	98.039325 
1295.000000	98.042877 
1294.000000	98.043323 
1293.000000	98.040662 
1292.000000	98.037793 
1291.000000	98.036900 
1290.000000	98.037179 
1289.000000	98.036596 
1288.000000	98.034456 
1287.000000	98.031606 
1286.000000	98.029132 
1285.000000	98.027502 
1284.000000	98.026541 
1283.000000	98.026096 
1282.000000	98.026506 
1281.000000	98.027956 
1280.000000	98.029541 
1279.000000	98.029715 
1278.000000	98.028313 
1277.000000	98.027073 
1276.000000	98.027291 
1275.000000	98.027911 
1274.000000	98.027149 
1273.000000	98.025135 
1272.000000	98.023350 
1271.000000	98.022119 
1270.000000	98.020220 
1269.000000	98.016801 
1268.000000	98.012232 
1267.000000	98.007245 
1266.000000	98.002420 
1265.000000	97.997896 
1264.000000	97.992785 
1263.000000	97.985954 
1262.000000	97.978020 
1261.000000	97.971107 
1260.000000	97.965678 
1259.000000	97.959123 
1258.000000	97.949450 
1257.000000	97.938661 
1256.000000	97.930240 
1255.000000	97.924408 
1254.000000	97.917920 
1253.000000	97.908096 
1252.000000	97.895519 
1251.000000	97.883205 
1250.000000	97.874448 
1249.000000	97.870934 
1248.000000	97.871493 
1247.000000	97.872696 
1246.000000	97.871191 
1245.000000	97.864660 
1244.000000	97.851248 
1243.000000	97.831463 
1242.000000	97.811418 
1241.000000	97.799980 
1240.000000	97.799493 
1239.000000	97.801841 
1238.000000	97.796753 
1237.000000	97.781943 
1236.000000	97.762215 
1235.000000	97.741128 
1234.000000	97.717948 
1233.000000	97.692073 
1232.000000	97.665887 
1231.000000	97.642081 
1230.000000	97.620796 
1229.000000	97.599975 
1228.000000	97.576532 
1227.000000	97.547151 
1226.000000	97.510307 
1225.000000	97.468009 
1224.000000	97.423782 
1223.000000	97.378620 
1222.000000	97.330485 
1221.000000	97.277697 
1220.000000	97.220753 
1219.000000	97.160438 
1218.000000	97.096239 
1217.000000	97.027373 
1216.000000	96.953722 
1215.000000	96.875036 
1214.000000	96.790815 
1213.000000	96.701998 
1212.000000	96.611364 
1211.000000	96.521014 
1210.000000	96.430241 
1209.000000	96.337082 
1208.000000	96.241418 
1207.000000	96.145460 
1206.000000	96.051536 
1205.000000	95.960255 
1204.000000	95.870279 
1203.000000	95.778986 
1202.000000	95.684130 
1201.000000	95.586045 
1200.000000	95.487620 
1199.000000	95.391158 
1198.000000	95.296253 
1197.000000	95.201812 
1196.000000	95.108448 
1195.000000	95.016828 
1194.000000	94.924782 
1193.000000	94.828751 
1192.000000	94.727749 
1191.000000	94.623714 
1190.000000	94.518384 
1189.000000	94.412041 
1188.000000	94.304808 
1187.000000	94.196560 
1186.000000	94.085641 
1185.000000	93.970269 
1184.000000	93.851337 
1183.000000	93.731234 
1182.000000	93.609585 
1181.000000	93.482889 
1180.000000	93.349046 
1179.000000	93.209738 
1178.000000	93.067727 
1177.000000	92.924149 
1176.000000	92.778814 
1175.000000	92.630608 
1174.000000	92.477216 
1173.000000	92.317320 
1172.000000	92.153509 
1171.000000	91.990297 
1170.000000	91.829289 
1169.000000	91.669601 
1168.000000	91.513382 
1167.000000	91.367641 
1166.000000	91.240720 
1165.000000	91.140983 
1164.000000	91.078583 
1163.000000	91.062417 
1162.000000	91.092209 
1161.000000	91.155496 
1160.000000	91.232179 
1159.000000	91.299673 
1158.000000	91.336959 
1157.000000	91.330801 
1156.000000	91.280358 
1155.000000	91.194150 
1154.000000	91.082912 
1153.000000	90.956632 
1152.000000	90.825209 
1151.000000	90.695831 
1150.000000	90.569026 
1149.000000	90.441815 
1148.000000	90.314926 
1147.000000	90.192406 
1146.000000	90.074398 
1145.000000	89.955921 
1144.000000	89.833546 
1143.000000	89.708338 
1142.000000	89.581895 
1141.000000	89.454907 
1140.000000	89.330261 
1139.000000	89.211830 
1138.000000	89.098503 
1137.000000	88.984136 
1136.000000	88.864666 
1135.000000	88.741364 
1134.000000	88.617167 
1133.000000	88.494377 
1132.000000	88.375449 
1131.000000	88.260612 
1130.000000	88.145149 
1129.000000	88.024725 
1128.000000	87.902413 
1127.000000	87.784081 
1126.000000	87.668177 
1125.000000	87.547949 
1124.000000	87.423136 
1123.000000	87.300563 
1122.000000	87.182685 
1121.000000	87.064704 
1120.000000	86.944547 
1119.000000	86.826446 
1118.000000	86.712148 
1117.000000	86.597348 
1116.000000	86.479478 
1115.000000	86.361104 
1114.000000	86.243555 
1113.000000	86.125176 
1112.000000	86.007502 
1111.000000	85.894464 
1110.000000	85.784694 
1109.000000	85.673419 
1108.000000	85.561331 
1107.000000	85.452940 
1106.000000	85.346918 
1105.000000	85.238350 
1104.000000	85.130185 
1103.000000	85.030904 
1102.000000	84.940036 
1101.000000	84.848417 
1100.000000	84.752772 
1099.000000	84.660384 
1098.000000	84.575585 
1097.000000	84.494010 
1096.000000	84.412850 
1095.000000	84.334615 
1094.000000	84.258507 
1093.000000	84.179137 
1092.000000	84.096901 
1091.000000	84.019239 
1090.000000	83.949289 
1089.000000	83.883539 
1088.000000	83.822195 
1087.000000	83.770690 
1086.000000	83.728969 
1085.000000	83.690302 
1084.000000	83.652465 
1083.000000	83.619323 
1082.000000	83.590539 
1081.000000	83.561322 
1080.000000	83.533121 
1079.000000	83.512343 
1078.000000	83.497596 
1077.000000	83.480725 
1076.000000	83.460880 
1075.000000	83.443673 
1074.000000	83.425418 
1073.000000	83.392408 
1072.000000	83.336725 
1071.000000	83.257786 
1070.000000	83.147391 
1069.000000	82.991134 
1068.000000	82.791054 
1067.000000	82.573559 
1066.000000	82.366586 
1065.000000	82.177541 
1064.000000	81.998813 
1063.000000	81.821419 
1062.000000	81.636262 
1061.000000	81.435892 
1060.000000	81.225147 
1059.000000	81.021962 
1058.000000	80.840815 
1057.000000	80.681921 
1056.000000	80.538674 
1055.000000	80.404764 
1054.000000	80.271303 
1053.000000	80.130041 
1052.000000	79.984962 
1051.000000	79.849019 
1050.000000	79.724558 
1049.000000	79.600020 
1048.000000	79.469805 
1047.000000	79.342285 
1046.000000	79.224395 
1045.000000	79.112912 
1044.000000	79.003854 
1043.000000	78.897163 
1042.000000	78.789552 
1041.000000	78.675439 
1040.000000	78.558295 
1039.000000	78.449896 
1038.000000	78.356091 
1037.000000	78.273894 
1036.000000	78.202785 
1035.000000	78.146368 
1034.000000	78.102313 
1033.000000	78.062966 
1032.000000	78.025776 
1031.000000	77.991334 
1030.000000	77.954255 
1029.000000	77.911414 
1028.000000	77.876892 
1027.000000	77.870305 
1026.000000	77.889313 
1025.000000	77.910708 
1024.000000	77.920000 
1023.000000	77.922447 
1022.000000	77.923956 
1021.000000	77.920650 
1020.000000	77.911343 
1019.000000	77.902736 
1018.000000	77.896534 
1017.000000	77.886136 
1016.000000	77.870684 
1015.000000	77.858413 
1014.000000	77.852364 
1013.000000	77.846685 
1012.000000	77.840323 
1011.000000	77.840444 
1010.000000	77.848976 
1009.000000	77.859439 
1008.000000	77.870364 
1007.000000	77.888709 
1006.000000	77.917087 
1005.000000	77.950316 
1004.000000	77.986834 
1003.000000	78.030946 
1002.000000	78.082106 
1001.000000	78.134791 
1000.000000	78.190218 
999.000000	 78.255128 
998.000000	 78.327981 
997.000000	 78.399729 
996.000000	 78.469278 
995.000000	 78.544533 
994.000000	 78.627088 
993.000000	 78.710008 
992.000000	 78.792351 
991.000000	 78.882139 
990.000000	 78.982817 
989.000000	 79.089593 
988.000000	 79.200572 
987.000000	 79.318816 
986.000000	 79.442384 
985.000000	 79.565520 
984.000000	 79.690870 
983.000000	 79.827439 
982.000000	 79.975694 
981.000000	 80.127376 
980.000000	 80.280685 
979.000000	 80.442599 
978.000000	 80.615000 
977.000000	 80.791768 
976.000000	 80.971127 
975.000000	 81.158192 
974.000000	 81.353606 
973.000000	 81.551652 
972.000000	 81.751129 
971.000000	 81.956646 
970.000000	 82.167886 
969.000000	 82.378504 
968.000000	 82.586423 
967.000000	 82.794786 
966.000000	 83.002765 
965.000000	 83.206134 
964.000000	 83.406850 
963.000000	 83.611399 
962.000000	 83.819594 
961.000000	 84.024954 
960.000000	 84.225319 
959.000000	 84.423007 
958.000000	 84.616076 
957.000000	 84.800492 
956.000000	 84.979822 
955.000000	 85.161637 
954.000000	 85.344684 
953.000000	 85.520378 
952.000000	 85.686291 
951.000000	 85.847428 
950.000000	 86.005211 
949.000000	 86.156336 
948.000000	 86.302319 
947.000000	 86.449199 
946.000000	 86.597147 
945.000000	 86.740201 
944.000000	 86.876422 
943.000000	 87.009034 
942.000000	 87.138202 
941.000000	 87.261251 
940.000000	 87.380468 
939.000000	 87.501305 
938.000000	 87.623516 
937.000000	 87.743426 
936.000000	 87.863527 
935.000000	 87.989920 
934.000000	 88.121536 
933.000000	 88.252048 
932.000000	 88.380959 
931.000000	 88.512146 
930.000000	 88.642893 
929.000000	 88.765889 
928.000000	 88.881689 
927.000000	 88.997956 
926.000000	 89.116208 
925.000000	 89.230286 
924.000000	 89.338251 
923.000000	 89.444412 
922.000000	 89.548156 
921.000000	 89.641928 
920.000000	 89.723234 
919.000000	 89.799412 
918.000000	 89.877842 
917.000000	 89.959341 
916.000000	 90.042876 
915.000000	 90.128514 
914.000000	 90.214166 
913.000000	 90.297867 
912.000000	 90.385359 
911.000000	 90.487391 
910.000000	 90.607296 
909.000000	 90.738402 
908.000000	 90.875124 
907.000000	 91.018856 
906.000000	 91.170746 
905.000000	 91.326154 
904.000000	 91.479699 
903.000000	 91.631195 
902.000000	 91.784673 
901.000000	 91.944417 
900.000000	 92.110977 
899.000000	 92.277905 
898.000000	 92.434781 
897.000000	 92.578364 
896.000000	 92.717221 
895.000000	 92.860210 
894.000000	 93.004728 
893.000000	 93.143057 
892.000000	 93.275402 
891.000000	 93.407009 
890.000000	 93.534809 
889.000000	 93.646593 
888.000000	 93.733104 
887.000000	 93.793750 
886.000000	 93.832346 
885.000000	 93.855190 
884.000000	 93.872004 
883.000000	 93.889730 
882.000000	 93.905164 
881.000000	 93.912356 
880.000000	 93.917555 
879.000000	 93.937496 
878.000000	 93.981743 
877.000000	 94.046163 
876.000000	 94.125261 
875.000000	 94.221111 
874.000000	 94.337911 
873.000000	 94.476856 
872.000000	 94.638347 
871.000000	 94.820322 
870.000000	 95.012458 
869.000000	 95.200473 
868.000000	 95.378347 
867.000000	 95.549436 
866.000000	 95.714791 
865.000000	 95.867923 
864.000000	 96.003506 
863.000000	 96.125219 
862.000000	 96.241955 
861.000000	 96.360103 
860.000000	 96.481186 
859.000000	 96.602801 
858.000000	 96.719399 
857.000000	 96.825062 
856.000000	 96.917905 
855.000000	 97.001168 
854.000000	 97.079971 
853.000000	 97.157311 
852.000000	 97.231614 
851.000000	 97.297308 
850.000000	 97.350867 
849.000000	 97.398184 
848.000000	 97.452008 
847.000000	 97.518440 
846.000000	 97.589303 
845.000000	 97.651708 
844.000000	 97.701230 
843.000000	 97.741029 
842.000000	 97.772695 
841.000000	 97.795252 
840.000000	 97.811217 
839.000000	 97.826651 
838.000000	 97.844931 
837.000000	 97.864630 
836.000000	 97.882530 
835.000000	 97.895006 
834.000000	 97.899144 
833.000000	 97.897705 
832.000000	 97.900612 
831.000000	 97.915488 
830.000000	 97.938219 
829.000000	 97.959050 
828.000000	 97.976102 
827.000000	 97.995284 
826.000000	 98.018466 
825.000000	 98.041026 
824.000000	 98.060740 
823.000000	 98.078310 
822.000000	 98.087888 
821.000000	 98.078150 
820.000000	 98.045616 
819.000000	 97.998750 
818.000000	 97.946706 
817.000000	 97.889606 
816.000000	 97.820193 
815.000000	 97.728212 
814.000000	 97.600903 
813.000000	 97.424559 
812.000000	 97.188763 
811.000000	 96.886474 
810.000000	 96.509852 
809.000000	 96.051712 
808.000000	 95.513805 
807.000000	 94.909078 
806.000000	 94.253249 
805.000000	 93.560889 
804.000000	 92.854591 
803.000000	 92.169877 
802.000000	 91.542992 
801.000000	 90.999152 
800.000000	 90.557055 
799.000000	 90.233853 
798.000000	 90.036795 
797.000000	 89.957313 
796.000000	 89.978067 
795.000000	 90.077256 
794.000000	 90.224480 
793.000000	 90.385306 
792.000000	 90.535841 
791.000000	 90.665730 
790.000000	 90.765909 
789.000000	 90.822446 
788.000000	 90.823587 
787.000000	 90.763806 
786.000000	 90.639496 
785.000000	 90.450290 
784.000000	 90.208165 
783.000000	 89.937615 
782.000000	 89.663816 
781.000000	 89.407433 
780.000000	 89.191555 
779.000000	 89.042234 
778.000000	 88.977095 
777.000000	 89.000764 
776.000000	 89.111379 
775.000000	 89.299797 
774.000000	 89.541737 
773.000000	 89.804931 
772.000000	 90.068956 
771.000000	 90.329722 
770.000000	 90.584718 
769.000000	 90.824687 
768.000000	 91.041180 
767.000000	 91.232864 
766.000000	 91.402872 
765.000000	 91.557364 
764.000000	 91.706309 
763.000000	 91.857563 
762.000000	 92.010265 
761.000000	 92.161082 
760.000000	 92.314411 
759.000000	 92.477188 
758.000000	 92.645945 
757.000000	 92.809624 
756.000000	 92.963853 
755.000000	 93.112375 
754.000000	 93.256354 
753.000000	 93.393361 
752.000000	 93.525374 
751.000000	 93.655792 
750.000000	 93.778421 
749.000000	 93.881466 
748.000000	 93.964462 
747.000000	 94.041039 
746.000000	 94.122945 
745.000000	 94.211002 
744.000000	 94.304230 
743.000000	 94.407726 
742.000000	 94.526957 
741.000000	 94.661138 
740.000000	 94.804807 
739.000000	 94.949731 
738.000000	 95.084616 
737.000000	 95.200396 
736.000000	 95.297345 
735.000000	 95.381273 
734.000000	 95.453258 
733.000000	 95.509384 
732.000000	 95.549525 
731.000000	 95.580011 
730.000000	 95.608107 
729.000000	 95.639285 
728.000000	 95.677836 
727.000000	 95.723415 
726.000000	 95.769169 
725.000000	 95.810509 
724.000000	 95.854119 
723.000000	 95.911354 
722.000000	 95.984656 
721.000000	 96.067317 
720.000000	 96.153527 
719.000000	 96.239359 
718.000000	 96.315623 
717.000000	 96.370967 
716.000000	 96.404376 
715.000000	 96.428200 
714.000000	 96.458130 
713.000000	 96.504913 
712.000000	 96.573333 
711.000000	 96.660845 
710.000000	 96.756970 
709.000000	 96.850405 
708.000000	 96.935288 
707.000000	 97.004979 
706.000000	 97.045532 
705.000000	 97.045041 
704.000000	 97.004891 
703.000000	 96.929617 
702.000000	 96.807394 
701.000000	 96.613681 
700.000000	 96.336860 
699.000000	 95.991576 
698.000000	 95.610127 
697.000000	 95.236381 
696.000000	 94.928099 
695.000000	 94.743534 
694.000000	 94.710581 
693.000000	 94.812703 
692.000000	 95.006435 
691.000000	 95.246225 
690.000000	 95.496147 
689.000000	 95.733615 
688.000000	 95.951249 
687.000000	 96.150406 
686.000000	 96.328497 
685.000000	 96.478600 
684.000000	 96.602630 
683.000000	 96.713502 
682.000000	 96.820269 
681.000000	 96.919740 
680.000000	 97.006993 
679.000000	 97.085597 
678.000000	 97.161610 
677.000000	 97.233586 
676.000000	 97.295156 
675.000000	 97.341134 
674.000000	 97.372259 
673.000000	 97.399217 
672.000000	 97.438019 
671.000000	 97.496014 
670.000000	 97.566391 
669.000000	 97.633994 
668.000000	 97.686914 
667.000000	 97.739335 
666.000000	 97.798807 
665.000000	 97.850223 
664.000000	 97.893126 
663.000000	 97.938370 
662.000000	 97.989480 
661.000000	 98.040891 
660.000000	 98.087462 
659.000000	 98.125075 
658.000000	 98.144907 
657.000000	 98.141757 
656.000000	 98.126100 
655.000000	 98.112828 
654.000000	 98.098992 
653.000000	 98.066211 
652.000000	 98.007607 
651.000000	 97.945089 
650.000000	 97.917111 

