4000.000000	99.388184 
3999.000000	99.387703 
3998.000000	99.387407 
3997.000000	99.386990 
3996.000000	99.386136 
3995.000000	99.384883 
3994.000000	99.383681 
3993.000000	99.382990 
3992.000000	99.382870 
3991.000000	99.382973 
3990.000000	99.382963 
3989.000000	99.382815 
3988.000000	99.382642 
3987.000000	99.382399 
3986.000000	99.381906 
3985.000000	99.381125 
3984.000000	99.380319 
3983.000000	99.379816 
3982.000000	99.379698 
3981.000000	99.379725 
3980.000000	99.379595 
3979.000000	99.379254 
3978.000000	99.378864 
3977.000000	99.378591 
3976.000000	99.378425 
3975.000000	99.378207 
3974.000000	99.377806 
3973.000000	99.377274 
3972.000000	99.376778 
3971.000000	99.376419 
3970.000000	99.376139 
3969.000000	99.375811 
3968.000000	99.375394 
3967.000000	99.374998 
3966.000000	99.374786 
3965.000000	99.374807 
3964.000000	99.374938 
3963.000000	99.374959 
3962.000000	99.374734 
3961.000000	99.374302 
3960.000000	99.373793 
3959.000000	99.373302 
3958.000000	99.372848 
3957.000000	99.372427 
3956.000000	99.372032 
3955.000000	99.371643 
3954.000000	99.371241 
3953.000000	99.370829 
3952.000000	99.370440 
3951.000000	99.370118 
3950.000000	99.369885 
3949.000000	99.369721 
3948.000000	99.369570 
3947.000000	99.369372 
3946.000000	99.369095 
3945.000000	99.368742 
3944.000000	99.368352 
3943.000000	99.368004 
3942.000000	99.367750 
3941.000000	99.367573 
3940.000000	99.367379 
3939.000000	99.367075 
3938.000000	99.366638 
3937.000000	99.366133 
3936.000000	99.365658 
3935.000000	99.365269 
3934.000000	99.364982 
3933.000000	99.364822 
3932.000000	99.364796 
3931.000000	99.364840 
3930.000000	99.364812 
3929.000000	99.364598 
3928.000000	99.364181 
3927.000000	99.363633 
3926.000000	99.363061 
3925.000000	99.362579 
3924.000000	99.362289 
3923.000000	99.362202 
3922.000000	99.362164 
3921.000000	99.361970 
3920.000000	99.361568 
3919.000000	99.361065 
3918.000000	99.360580 
3917.000000	99.360158 
3916.000000	99.359826 
3915.000000	99.359632 
3914.000000	99.359575 
3913.000000	99.359607 
3912.000000	99.359725 
3911.000000	99.359883 
3910.000000	99.359896 
3909.000000	99.359471 
3908.000000	99.358486 
3907.000000	99.357089 
3906.000000	99.355622 
3905.000000	99.354403 
3904.000000	99.353626 
3903.000000	99.353378 
3902.000000	99.353578 
3901.000000	99.353868 
3900.000000	99.353861 
3899.000000	99.353515 
3898.000000	99.353073 
3897.000000	99.352675 
3896.000000	99.352234 
3895.000000	99.351708 
3894.000000	99.351341 
3893.000000	99.351343 
3892.000000	99.351480 
3891.000000	99.351198 
3890.000000	99.350482 
3889.000000	99.349658 
3888.000000	99.348717 
3887.000000	99.347642 
3886.000000	99.346750 
3885.000000	99.346326 
3884.000000	99.346459 
3883.000000	99.346661 
3882.000000	99.346304 
3881.000000	99.345503 
3880.000000	99.344748 
3879.000000	99.344275 
3878.000000	99.344055 
3877.000000	99.343854 
3876.000000	99.343593 
3875.000000	99.343154 
3874.000000	99.342190 
3873.000000	99.340689 
3872.000000	99.338887 
3871.000000	99.336948 
3870.000000	99.335267 
3869.000000	99.334722 
3868.000000	99.335868 
3867.000000	99.337458 
3866.000000	99.337910 
3865.000000	99.337794 
3864.000000	99.338545 
3863.000000	99.339881 
3862.000000	99.340236 
3861.000000	99.338801 
3860.000000	99.336327 
3859.000000	99.333544 
3858.000000	99.330352 
3857.000000	99.326645 
3856.000000	99.323720 
3855.000000	99.323633 
3854.000000	99.325393 
3853.000000	99.324618 
3852.000000	99.322318 
3851.000000	99.322509 
3850.000000	99.324110 
3849.000000	99.325262 
3848.000000	99.326447 
3847.000000	99.328218 
3846.000000	99.329996 
3845.000000	99.330950 
3844.000000	99.330946 
3843.000000	99.330481 
3842.000000	99.330124 
3841.000000	99.329705 
3840.000000	99.328754 
3839.000000	99.327250 
3838.000000	99.325886 
3837.000000	99.325571 
3836.000000	99.326800 
3835.000000	99.328981 
3834.000000	99.330775 
3833.000000	99.331348 
3832.000000	99.331031 
3831.000000	99.330776 
3830.000000	99.331167 
3829.000000	99.331910 
3828.000000	99.332309 
3827.000000	99.331997 
3826.000000	99.331391 
3825.000000	99.331150 
3824.000000	99.331234 
3823.000000	99.330862 
3822.000000	99.329284 
3821.000000	99.326214 
3820.000000	99.323352 
3819.000000	99.322519 
3818.000000	99.322583 
3817.000000	99.322039 
3816.000000	99.321117 
3815.000000	99.320843 
3814.000000	99.321590 
3813.000000	99.322318 
3812.000000	99.322181 
3811.000000	99.321976 
3810.000000	99.322728 
3809.000000	99.324216 
3808.000000	99.325234 
3807.000000	99.324983 
3806.000000	99.324086 
3805.000000	99.323608 
3804.000000	99.323312 
3803.000000	99.322403 
3802.000000	99.320953 
3801.000000	99.319656 
3800.000000	99.319581 
3799.000000	99.320821 
3798.000000	99.322049 
3797.000000	99.322601 
3796.000000	99.322926 
3795.000000	99.323417 
3794.000000	99.323814 
3793.000000	99.323698 
3792.000000	99.323190 
3791.000000	99.322816 
3790.000000	99.322830 
3789.000000	99.323132 
3788.000000	99.323572 
3787.000000	99.323972 
3786.000000	99.323888 
3785.000000	99.323011 
3784.000000	99.321891 
3783.000000	99.321605 
3782.000000	99.322450 
3781.000000	99.323561 
3780.000000	99.323931 
3779.000000	99.323402 
3778.000000	99.322803 
3777.000000	99.322674 
3776.000000	99.322592 
3775.000000	99.322218 
3774.000000	99.322054 
3773.000000	99.322402 
3772.000000	99.322397 
3771.000000	99.320789 
3770.000000	99.317802 
3769.000000	99.315563 
3768.000000	99.315980 
3767.000000	99.318341 
3766.000000	99.320479 
3765.000000	99.321532 
3764.000000	99.322316 
3763.000000	99.323267 
3762.000000	99.323311 
3761.000000	99.321872 
3760.000000	99.320142 
3759.000000	99.318576 
3758.000000	99.316079 
3757.000000	99.311982 
3756.000000	99.307217 
3755.000000	99.302679 
3754.000000	99.298281 
3753.000000	99.294508 
3752.000000	99.292515 
3751.000000	99.290899 
3750.000000	99.286820 
3749.000000	99.282016 
3748.000000	99.280014 
3747.000000	99.279610 
3746.000000	99.278462 
3745.000000	99.277464 
3744.000000	99.277773 
3743.000000	99.282837 
3742.000000	99.292712 
3741.000000	99.298696 
3740.000000	99.297101 
3739.000000	99.292345 
3738.000000	99.288522 
3737.000000	99.286606 
3736.000000	99.288471 
3735.000000	99.297120 
3734.000000	99.309452 
3733.000000	99.315737 
3732.000000	99.310785 
3731.000000	99.299657 
3730.000000	99.289433 
3729.000000	99.281227 
3728.000000	99.273835 
3727.000000	99.269647 
3726.000000	99.271697 
3725.000000	99.277729 
3724.000000	99.280716 
3723.000000	99.276349 
3722.000000	99.266878 
3721.000000	99.257183 
3720.000000	99.249770 
3719.000000	99.243416 
3718.000000	99.236226 
3717.000000	99.228055 
3716.000000	99.220134 
3715.000000	99.212659 
3714.000000	99.204136 
3713.000000	99.192639 
3712.000000	99.176311 
3711.000000	99.155082 
3710.000000	99.133144 
3709.000000	99.115463 
3708.000000	99.103090 
3707.000000	99.093591 
3706.000000	99.083528 
3705.000000	99.070197 
3704.000000	99.052627 
3703.000000	99.031818 
3702.000000	99.009548 
3701.000000	98.987572 
3700.000000	98.967651 
3699.000000	98.950161 
3698.000000	98.933670 
3697.000000	98.917320 
3696.000000	98.902114 
3695.000000	98.889524 
3694.000000	98.879984 
3693.000000	98.873284 
3692.000000	98.869024 
3691.000000	98.865234 
3690.000000	98.857852 
3689.000000	98.844033 
3688.000000	98.826895 
3687.000000	98.812829 
3686.000000	98.803910 
3685.000000	98.797734 
3684.000000	98.793034 
3683.000000	98.790540 
3682.000000	98.789156 
3681.000000	98.784400 
3680.000000	98.772012 
3679.000000	98.752358 
3678.000000	98.729136 
3677.000000	98.706180 
3676.000000	98.685246 
3675.000000	98.667288 
3674.000000	98.655147 
3673.000000	98.647975 
3672.000000	98.639950 
3671.000000	98.628509 
3670.000000	98.614747 
3669.000000	98.600184 
3668.000000	98.586604 
3667.000000	98.573922 
3666.000000	98.560675 
3665.000000	98.546411 
3664.000000	98.531509 
3663.000000	98.516401 
3662.000000	98.501768 
3661.000000	98.488598 
3660.000000	98.477536 
3659.000000	98.468216 
3658.000000	98.458871 
3657.000000	98.447740 
3656.000000	98.435211 
3655.000000	98.425049 
3654.000000	98.419413 
3653.000000	98.414850 
3652.000000	98.406822 
3651.000000	98.394255 
3650.000000	98.377337 
3649.000000	98.356279 
3648.000000	98.335278 
3647.000000	98.320777 
3646.000000	98.314763 
3645.000000	98.313373 
3644.000000	98.311246 
3643.000000	98.305859 
3642.000000	98.298803 
3641.000000	98.292939 
3640.000000	98.288952 
3639.000000	98.284861 
3638.000000	98.278677 
3637.000000	98.270404 
3636.000000	98.260718 
3635.000000	98.250111 
3634.000000	98.239734 
3633.000000	98.231060 
3632.000000	98.222532 
3631.000000	98.208782 
3630.000000	98.185981 
3629.000000	98.156979 
3628.000000	98.132439 
3627.000000	98.122503 
3626.000000	98.124236 
3625.000000	98.128673 
3624.000000	98.133518 
3623.000000	98.141051 
3622.000000	98.151320 
3621.000000	98.160638 
3620.000000	98.165047 
3619.000000	98.164298 
3618.000000	98.163366 
3617.000000	98.168183 
3616.000000	98.179625 
3615.000000	98.193841 
3614.000000	98.206403 
3613.000000	98.215357 
3612.000000	98.221835 
3611.000000	98.227985 
3610.000000	98.235201 
3609.000000	98.244929 
3608.000000	98.258353 
3607.000000	98.274744 
3606.000000	98.291173 
3605.000000	98.304215 
3604.000000	98.312641 
3603.000000	98.318113 
3602.000000	98.323341 
3601.000000	98.330531 
3600.000000	98.340481 
3599.000000	98.351769 
3598.000000	98.361172 
3597.000000	98.367105 
3596.000000	98.371252 
3595.000000	98.376668 
3594.000000	98.384379 
3593.000000	98.392710 
3592.000000	98.399165 
3591.000000	98.402847 
3590.000000	98.405396 
3589.000000	98.409902 
3588.000000	98.417527 
3587.000000	98.425895 
3586.000000	98.431940 
3585.000000	98.434054 
3584.000000	98.432712 
3583.000000	98.430886 
3582.000000	98.432125 
3581.000000	98.437753 
3580.000000	98.445914 
3579.000000	98.453251 
3578.000000	98.457232 
3577.000000	98.457666 
3576.000000	98.456192 
3575.000000	98.454606 
3574.000000	98.453727 
3573.000000	98.453445 
3572.000000	98.453413 
3571.000000	98.453497 
3570.000000	98.453925 
3569.000000	98.455048 
3568.000000	98.456769 
3567.000000	98.458248 
3566.000000	98.459058 
3565.000000	98.459902 
3564.000000	98.461498 
3563.000000	98.464224 
3562.000000	98.467991 
3561.000000	98.471797 
3560.000000	98.474304 
3559.000000	98.475179 
3558.000000	98.475476 
3557.000000	98.476383 
3556.000000	98.477824 
3555.000000	98.478307 
3554.000000	98.476417 
3553.000000	98.472415 
3552.000000	98.468195 
3551.000000	98.465491 
3550.000000	98.464544 
3549.000000	98.464886 
3548.000000	98.466763 
3547.000000	98.470703 
3546.000000	98.475865 
3545.000000	98.480053 
3544.000000	98.481840 
3543.000000	98.481840 
3542.000000	98.481758 
3541.000000	98.482648 
3540.000000	98.484272 
3539.000000	98.485785 
3538.000000	98.486783 
3537.000000	98.487600 
3536.000000	98.488640 
3535.000000	98.489730 
3534.000000	98.490243 
3533.000000	98.489847 
3532.000000	98.488872 
3531.000000	98.488040 
3530.000000	98.487834 
3529.000000	98.488325 
3528.000000	98.489419 
3527.000000	98.491050 
3526.000000	98.493112 
3525.000000	98.495384 
3524.000000	98.497605 
3523.000000	98.499492 
3522.000000	98.500749 
3521.000000	98.501246 
3520.000000	98.501243 
3519.000000	98.501332 
3518.000000	98.502050 
3517.000000	98.503542 
3516.000000	98.505530 
3515.000000	98.507573 
3514.000000	98.509292 
3513.000000	98.510414 
3512.000000	98.510736 
3511.000000	98.510254 
3510.000000	98.509329 
3509.000000	98.508584 
3508.000000	98.508478 
3507.000000	98.508998 
3506.000000	98.509776 
3505.000000	98.510517 
3504.000000	98.511260 
3503.000000	98.512266 
3502.000000	98.513694 
3501.000000	98.515323 
3500.000000	98.516562 
3499.000000	98.516758 
3498.000000	98.515597 
3497.000000	98.513325 
3496.000000	98.510651 
3495.000000	98.508422 
3494.000000	98.507368 
3493.000000	98.507953 
3492.000000	98.510137 
3491.000000	98.513122 
3490.000000	98.515565 
3489.000000	98.516504 
3488.000000	98.516028 
3487.000000	98.515062 
3486.000000	98.514381 
3485.000000	98.513858 
3484.000000	98.512813 
3483.000000	98.511039 
3482.000000	98.509292 
3481.000000	98.508566 
3480.000000	98.508873 
3479.000000	98.509032 
3478.000000	98.507922 
3477.000000	98.505716 
3476.000000	98.503650 
3475.000000	98.502662 
3474.000000	98.502581 
3473.000000	98.502696 
3472.000000	98.502644 
3471.000000	98.502521 
3470.000000	98.502376 
3469.000000	98.501958 
3468.000000	98.500944 
3467.000000	98.499216 
3466.000000	98.496866 
3465.000000	98.494006 
3464.000000	98.490682 
3463.000000	98.487087 
3462.000000	98.483795 
3461.000000	98.481536 
3460.000000	98.480522 
3459.000000	98.480052 
3458.000000	98.479064 
3457.000000	98.477147 
3456.000000	98.474861 
3455.000000	98.473068 
3454.000000	98.472036 
3453.000000	98.471272 
3452.000000	98.470020 
3451.000000	98.467961 
3450.000000	98.465554 
3449.000000	98.463729 
3448.000000	98.463081 
3447.000000	98.463326 
3446.000000	98.463572 
3445.000000	98.463143 
3444.000000	98.462032 
3443.000000	98.460639 
3442.000000	98.459362 
3441.000000	98.458357 
3440.000000	98.457416 
3439.000000	98.456017 
3438.000000	98.453720 
3437.000000	98.450670 
3436.000000	98.447563 
3435.000000	98.445081 
3434.000000	98.443350 
3433.000000	98.441968 
3432.000000	98.440417 
3431.000000	98.438438 
3430.000000	98.436165 
3429.000000	98.434010 
3428.000000	98.432318 
3427.000000	98.431028 
3426.000000	98.429774 
3425.000000	98.428321 
3424.000000	98.426745 
3423.000000	98.425122 
3422.000000	98.423264 
3421.000000	98.420945 
3420.000000	98.418301 
3419.000000	98.415887 
3418.000000	98.414364 
3417.000000	98.414104 
3416.000000	98.414864 
3415.000000	98.415713 
3414.000000	98.415546 
3413.000000	98.414011 
3412.000000	98.411887 
3411.000000	98.410447 
3410.000000	98.410422 
3409.000000	98.411546 
3408.000000	98.412764 
3407.000000	98.412901 
3406.000000	98.411522 
3405.000000	98.409438 
3404.000000	98.408225 
3403.000000	98.408845 
3402.000000	98.410784 
3401.000000	98.412517 
3400.000000	98.412927 
3399.000000	98.412106 
3398.000000	98.410931 
3397.000000	98.410192 
3396.000000	98.410080 
3395.000000	98.410351 
3394.000000	98.410803 
3393.000000	98.411498 
3392.000000	98.412499 
3391.000000	98.413495 
3390.000000	98.413905 
3389.000000	98.413413 
3388.000000	98.412285 
3387.000000	98.411127 
3386.000000	98.410448 
3385.000000	98.410454 
3384.000000	98.411011 
3383.000000	98.411699 
3382.000000	98.412129 
3381.000000	98.412418 
3380.000000	98.413147 
3379.000000	98.414710 
3378.000000	98.416891 
3377.000000	98.419206 
3376.000000	98.421414 
3375.000000	98.423492 
3374.000000	98.425344 
3373.000000	98.426822 
3372.000000	98.427972 
3371.000000	98.428986 
3370.000000	98.429917 
3369.000000	98.430599 
3368.000000	98.430848 
3367.000000	98.430672 
3366.000000	98.430269 
3365.000000	98.429977 
3364.000000	98.430228 
3363.000000	98.431363 
3362.000000	98.433401 
3361.000000	98.435954 
3360.000000	98.438330 
3359.000000	98.439921 
3358.000000	98.440639 
3357.000000	98.440974 
3356.000000	98.441558 
3355.000000	98.442612 
3354.000000	98.443916 
3353.000000	98.445226 
3352.000000	98.446546 
3351.000000	98.447995 
3350.000000	98.449599 
3349.000000	98.451307 
3348.000000	98.453075 
3347.000000	98.454816 
3346.000000	98.456367 
3345.000000	98.457589 
3344.000000	98.458500 
3343.000000	98.459265 
3342.000000	98.460086 
3341.000000	98.461089 
3340.000000	98.462275 
3339.000000	98.463559 
3338.000000	98.464823 
3337.000000	98.465991 
3336.000000	98.467075 
3335.000000	98.468159 
3334.000000	98.469320 
3333.000000	98.470544 
3332.000000	98.471746 
3331.000000	98.472871 
3330.000000	98.473970 
3329.000000	98.475159 
3328.000000	98.476488 
3327.000000	98.477854 
3326.000000	98.479090 
3325.000000	98.480132 
3324.000000	98.481079 
3323.000000	98.482085 
3322.000000	98.483232 
3321.000000	98.484518 
3320.000000	98.485932 
3319.000000	98.487470 
3318.000000	98.489083 
3317.000000	98.490630 
3316.000000	98.491922 
3315.000000	98.492836 
3314.000000	98.493452 
3313.000000	98.494104 
3312.000000	98.495152 
3311.000000	98.496697 
3310.000000	98.498516 
3309.000000	98.500282 
3308.000000	98.501852 
3307.000000	98.503245 
3306.000000	98.504433 
3305.000000	98.505318 
3304.000000	98.505924 
3303.000000	98.506461 
3302.000000	98.507132 
3301.000000	98.507948 
3300.000000	98.508815 
3299.000000	98.509743 
3298.000000	98.510887 
3297.000000	98.512422 
3296.000000	98.514417 
3295.000000	98.516802 
3294.000000	98.519356 
3293.000000	98.521719 
3292.000000	98.523565 
3291.000000	98.524908 
3290.000000	98.526233 
3289.000000	98.528114 
3288.000000	98.530539 
3287.000000	98.532726 
3286.000000	98.533848 
3285.000000	98.533839 
3284.000000	98.533430 
3283.000000	98.533455 
3282.000000	98.534190 
3281.000000	98.535444 
3280.000000	98.537020 
3279.000000	98.538918 
3278.000000	98.541168 
3277.000000	98.543574 
3276.000000	98.545683 
3275.000000	98.547105 
3274.000000	98.547942 
3273.000000	98.548855 
3272.000000	98.550501 
3271.000000	98.552927 
3270.000000	98.555637 
3269.000000	98.558183 
3268.000000	98.560467 
3267.000000	98.562434 
3266.000000	98.563836 
3265.000000	98.564505 
3264.000000	98.564650 
3263.000000	98.564688 
3262.000000	98.564911 
3261.000000	98.565491 
3260.000000	98.566630 
3259.000000	98.568427 
3258.000000	98.570612 
3257.000000	98.572619 
3256.000000	98.574065 
3255.000000	98.575071 
3254.000000	98.576084 
3253.000000	98.577405 
3252.000000	98.578872 
3251.000000	98.579982 
3250.000000	98.580389 
3249.000000	98.580359 
3248.000000	98.580694 
3247.000000	98.582103 
3246.000000	98.584644 
3245.000000	98.587732 
3244.000000	98.590690 
3243.000000	98.593198 
3242.000000	98.595194 
3241.000000	98.596547 
3240.000000	98.597078 
3239.000000	98.597021 
3238.000000	98.597191 
3237.000000	98.598355 
3236.000000	98.600405 
3235.000000	98.602419 
3234.000000	98.603729 
3233.000000	98.604690 
3232.000000	98.606098 
3231.000000	98.607991 
3230.000000	98.609460 
3229.000000	98.609663 
3228.000000	98.608722 
3227.000000	98.607585 
3226.000000	98.607257 
3225.000000	98.608167 
3224.000000	98.610017 
3223.000000	98.612034 
3222.000000	98.613645 
3221.000000	98.615034 
3220.000000	98.616895 
3219.000000	98.619613 
3218.000000	98.622869 
3217.000000	98.625990 
3216.000000	98.628514 
3215.000000	98.630404 
3214.000000	98.631974 
3213.000000	98.633688 
3212.000000	98.635865 
3211.000000	98.638499 
3210.000000	98.641337 
3209.000000	98.644016 
3208.000000	98.646073 
3207.000000	98.647111 
3206.000000	98.647296 
3205.000000	98.647615 
3204.000000	98.649213 
3203.000000	98.652403 
3202.000000	98.656604 
3201.000000	98.661074 
3200.000000	98.665414 
3199.000000	98.669326 
3198.000000	98.672357 
3197.000000	98.674221 
3196.000000	98.675250 
3195.000000	98.676276 
3194.000000	98.678008 
3193.000000	98.680548 
3192.000000	98.683440 
3191.000000	98.686074 
3190.000000	98.688160 
3189.000000	98.689897 
3188.000000	98.691711 
3187.000000	98.693859 
3186.000000	98.696328 
3185.000000	98.699011 
3184.000000	98.701800 
3183.000000	98.704524 
3182.000000	98.706975 
3181.000000	98.709074 
3180.000000	98.710972 
3179.000000	98.712951 
3178.000000	98.715229 
3177.000000	98.717830 
3176.000000	98.720573 
3175.000000	98.723197 
3174.000000	98.725580 
3173.000000	98.727836 
3172.000000	98.730174 
3171.000000	98.732689 
3170.000000	98.735334 
3169.000000	98.738028 
3168.000000	98.740666 
3167.000000	98.743070 
3166.000000	98.745085 
3165.000000	98.746761 
3164.000000	98.748356 
3163.000000	98.750128 
3162.000000	98.752157 
3161.000000	98.754367 
3160.000000	98.756600 
3159.000000	98.758728 
3158.000000	98.760799 
3157.000000	98.763019 
3156.000000	98.765490 
3155.000000	98.767986 
3154.000000	98.770172 
3153.000000	98.772006 
3152.000000	98.773775 
3151.000000	98.775706 
3150.000000	98.777741 
3149.000000	98.779790 
3148.000000	98.781982 
3147.000000	98.784467 
3146.000000	98.787203 
3145.000000	98.790068 
3144.000000	98.793002 
3143.000000	98.795852 
3142.000000	98.798288 
3141.000000	98.800056 
3140.000000	98.801264 
3139.000000	98.802347 
3138.000000	98.803786 
3137.000000	98.805864 
3136.000000	98.808528 
3135.000000	98.811327 
3134.000000	98.813678 
3133.000000	98.815393 
3132.000000	98.816835 
3131.000000	98.818504 
3130.000000	98.820598 
3129.000000	98.823051 
3128.000000	98.825772 
3127.000000	98.828634 
3126.000000	98.831407 
3125.000000	98.833906 
3124.000000	98.836155 
3123.000000	98.838299 
3122.000000	98.840429 
3121.000000	98.842575 
3120.000000	98.844741 
3119.000000	98.846834 
3118.000000	98.848717 
3117.000000	98.850379 
3116.000000	98.851931 
3115.000000	98.853412 
3114.000000	98.854849 
3113.000000	98.856498 
3112.000000	98.858673 
3111.000000	98.861201 
3110.000000	98.863396 
3109.000000	98.864767 
3108.000000	98.865487 
3107.000000	98.866088 
3106.000000	98.866960 
3105.000000	98.868273 
3104.000000	98.870065 
3103.000000	98.872113 
3102.000000	98.873976 
3101.000000	98.875427 
3100.000000	98.876577 
3099.000000	98.877407 
3098.000000	98.877685 
3097.000000	98.877699 
3096.000000	98.878600 
3095.000000	98.881250 
3094.000000	98.884947 
3093.000000	98.888012 
3092.000000	98.889634 
3091.000000	98.890212 
3090.000000	98.890226 
3089.000000	98.889895 
3088.000000	98.889894 
3087.000000	98.891158 
3086.000000	98.893566 
3085.000000	98.895762 
3084.000000	98.896785 
3083.000000	98.897131 
3082.000000	98.897861 
3081.000000	98.899277 
3080.000000	98.900956 
3079.000000	98.902672 
3078.000000	98.904793 
3077.000000	98.907742 
3076.000000	98.911085 
3075.000000	98.913336 
3074.000000	98.913119 
3073.000000	98.910750 
3072.000000	98.908161 
3071.000000	98.906848 
3070.000000	98.906521 
3069.000000	98.906313 
3068.000000	98.906473 
3067.000000	98.907741 
3066.000000	98.909582 
3065.000000	98.910379 
3064.000000	98.909437 
3063.000000	98.907711 
3062.000000	98.906480 
3061.000000	98.906201 
3060.000000	98.906815 
3059.000000	98.908317 
3058.000000	98.910661 
3057.000000	98.913531 
3056.000000	98.916220 
3055.000000	98.917449 
3054.000000	98.915736 
3053.000000	98.910927 
3052.000000	98.905436 
3051.000000	98.902856 
3050.000000	98.904568 
3049.000000	98.908038 
3048.000000	98.909011 
3047.000000	98.905330 
3046.000000	98.898447 
3045.000000	98.891483 
3044.000000	98.886109 
3043.000000	98.881489 
3042.000000	98.876122 
3041.000000	98.869949 
3040.000000	98.864004 
3039.000000	98.858430 
3038.000000	98.852075 
3037.000000	98.844276 
3036.000000	98.835748 
3035.000000	98.827063 
3034.000000	98.817301 
3033.000000	98.805128 
3032.000000	98.790683 
3031.000000	98.775621 
3030.000000	98.761288 
3029.000000	98.747681 
3028.000000	98.734373 
3027.000000	98.721406 
3026.000000	98.708902 
3025.000000	98.696378 
3024.000000	98.682745 
3023.000000	98.666804 
3022.000000	98.647954 
3021.000000	98.626972 
3020.000000	98.606036 
3019.000000	98.587191 
3018.000000	98.570303 
3017.000000	98.552745 
3016.000000	98.531436 
3015.000000	98.505397 
3014.000000	98.476613 
3013.000000	98.448632 
3012.000000	98.423970 
3011.000000	98.402342 
3010.000000	98.381227 
3009.000000	98.358274 
3008.000000	98.333215 
3007.000000	98.307667 
3006.000000	98.283427 
3005.000000	98.260961 
3004.000000	98.238935 
3003.000000	98.214915 
3002.000000	98.187214 
3001.000000	98.156869 
3000.000000	98.127526 
2999.000000	98.102683 
2998.000000	98.083171 
2997.000000	98.067791 
2996.000000	98.055468 
2995.000000	98.044775 
2994.000000	98.030861 
2993.000000	98.005476 
2992.000000	97.963504 
2991.000000	97.910457 
2990.000000	97.861673 
2989.000000	97.831935 
2988.000000	97.825708 
2987.000000	97.836791 
2986.000000	97.855192 
2985.000000	97.873374 
2984.000000	97.887352 
2983.000000	97.895561 
2982.000000	97.898807 
2981.000000	97.899835 
2980.000000	97.900825 
2979.000000	97.901439 
2978.000000	97.900324 
2977.000000	97.897724 
2976.000000	97.895131 
2975.000000	97.892924 
2974.000000	97.890300 
2973.000000	97.887719 
2972.000000	97.887768 
2971.000000	97.893015 
2970.000000	97.904219 
2969.000000	97.921022 
2968.000000	97.942975 
2967.000000	97.968964 
2966.000000	97.996599 
2965.000000	98.023277 
2964.000000	98.047541 
2963.000000	98.068918 
2962.000000	98.087187 
2961.000000	98.102572 
2960.000000	98.116168 
2959.000000	98.129441 
2958.000000	98.143466 
2957.000000	98.158819 
2956.000000	98.175517 
2955.000000	98.192623 
2954.000000	98.208722 
2953.000000	98.223576 
2952.000000	98.238784 
2951.000000	98.255922 
2950.000000	98.274138 
2949.000000	98.290159 
2948.000000	98.300691 
2947.000000	98.304749 
2946.000000	98.304508 
2945.000000	98.304328 
2944.000000	98.307998 
2943.000000	98.316272 
2942.000000	98.327285 
2941.000000	98.339215 
2940.000000	98.351682 
2939.000000	98.364406 
2938.000000	98.375796 
2937.000000	98.384156 
2936.000000	98.389903 
2935.000000	98.395420 
2934.000000	98.402580 
2933.000000	98.411027 
2932.000000	98.418791 
2931.000000	98.424051 
2930.000000	98.426430 
2929.000000	98.427255 
2928.000000	98.428637 
2927.000000	98.431769 
2926.000000	98.435816 
2925.000000	98.438564 
2924.000000	98.438206 
2923.000000	98.434598 
2922.000000	98.429030 
2921.000000	98.422866 
2920.000000	98.416319 
2919.000000	98.408591 
2918.000000	98.399151 
2917.000000	98.388196 
2916.000000	98.375349 
2915.000000	98.358820 
2914.000000	98.337500 
2913.000000	98.314012 
2912.000000	98.294091 
2911.000000	98.281814 
2910.000000	98.276071 
2909.000000	98.272380 
2908.000000	98.267329 
2907.000000	98.260111 
2906.000000	98.250132 
2905.000000	98.235056 
2904.000000	98.212927 
2903.000000	98.186792 
2902.000000	98.166192 
2901.000000	98.161934 
2900.000000	98.177903 
2899.000000	98.207292 
2898.000000	98.237190 
2897.000000	98.257987 
2896.000000	98.268486 
2895.000000	98.273098 
2894.000000	98.276495 
2893.000000	98.281221 
2892.000000	98.288031 
2891.000000	98.296156 
2890.000000	98.303558 
2889.000000	98.308489 
2888.000000	98.311114 
2887.000000	98.313088 
2886.000000	98.315901 
2885.000000	98.320425 
2884.000000	98.327690 
2883.000000	98.338793 
2882.000000	98.353686 
2881.000000	98.370845 
2880.000000	98.388683 
2879.000000	98.406993 
2878.000000	98.426487 
2877.000000	98.446989 
2876.000000	98.466531 
2875.000000	98.482675 
2874.000000	98.494834 
2873.000000	98.504843 
2872.000000	98.514869 
2871.000000	98.525195 
2870.000000	98.534989 
2869.000000	98.544899 
2868.000000	98.557379 
2867.000000	98.573833 
2866.000000	98.592706 
2865.000000	98.611569 
2864.000000	98.630352 
2863.000000	98.651110 
2862.000000	98.674656 
2861.000000	98.698861 
2860.000000	98.720960 
2859.000000	98.740824 
2858.000000	98.761193 
2857.000000	98.784646 
2856.000000	98.810473 
2855.000000	98.834684 
2854.000000	98.853202 
2853.000000	98.864953 
2852.000000	98.871692 
2851.000000	98.875730 
2850.000000	98.878735 
2849.000000	98.882134 
2848.000000	98.887067 
2847.000000	98.893285 
2846.000000	98.899046 
2845.000000	98.902791 
2844.000000	98.904524 
2843.000000	98.905371 
2842.000000	98.906512 
2841.000000	98.908700 
2840.000000	98.911852 
2839.000000	98.914684 
2838.000000	98.915744 
2837.000000	98.915589 
2836.000000	98.917028 
2835.000000	98.922268 
2834.000000	98.930287 
2833.000000	98.937831 
2832.000000	98.942643 
2831.000000	98.945084 
2830.000000	98.947142 
2829.000000	98.950612 
2828.000000	98.955894 
2827.000000	98.961786 
2826.000000	98.966473 
2825.000000	98.969125 
2824.000000	98.970290 
2823.000000	98.970703 
2822.000000	98.970482 
2821.000000	98.969903 
2820.000000	98.970057 
2819.000000	98.971890 
2818.000000	98.975159 
2817.000000	98.979012 
2816.000000	98.982939 
2815.000000	98.986447 
2814.000000	98.988573 
2813.000000	98.988823 
2812.000000	98.988183 
2811.000000	98.988217 
2810.000000	98.989422 
2809.000000	98.991272 
2808.000000	98.993493 
2807.000000	98.996271 
2806.000000	98.999365 
2805.000000	99.001974 
2804.000000	99.003631 
2803.000000	99.004626 
2802.000000	99.005572 
2801.000000	99.006971 
2800.000000	99.009024 
2799.000000	99.011388 
2798.000000	99.013229 
2797.000000	99.014020 
2796.000000	99.014216 
2795.000000	99.014773 
2794.000000	99.015969 
2793.000000	99.017076 
2792.000000	99.017263 
2791.000000	99.016570 
2790.000000	99.015880 
2789.000000	99.016160 
2788.000000	99.017699 
2787.000000	99.019965 
2786.000000	99.022146 
2785.000000	99.023908 
2784.000000	99.025525 
2783.000000	99.027222 
2782.000000	99.028710 
2781.000000	99.029562 
2780.000000	99.029846 
2779.000000	99.030115 
2778.000000	99.030799 
2777.000000	99.031798 
2776.000000	99.032706 
2775.000000	99.033268 
2774.000000	99.033587 
2773.000000	99.034028 
2772.000000	99.034923 
2771.000000	99.036289 
2770.000000	99.037812 
2769.000000	99.039147 
2768.000000	99.040186 
2767.000000	99.040992 
2766.000000	99.041598 
2765.000000	99.041977 
2764.000000	99.042171 
2763.000000	99.042325 
2762.000000	99.042640 
2761.000000	99.043319 
2760.000000	99.044451 
2759.000000	99.045850 
2758.000000	99.047141 
2757.000000	99.048158 
2756.000000	99.049125 
2755.000000	99.050292 
2754.000000	99.051545 
2753.000000	99.052527 
2752.000000	99.053093 
2751.000000	99.053454 
2750.000000	99.053912 
2749.000000	99.054611 
2748.000000	99.055542 
2747.000000	99.056626 
2746.000000	99.057756 
2745.000000	99.058894 
2744.000000	99.060129 
2743.000000	99.061524 
2742.000000	99.062916 
2741.000000	99.064036 
2740.000000	99.064847 
2739.000000	99.065561 
2738.000000	99.066314 
2737.000000	99.067024 
2736.000000	99.067626 
2735.000000	99.068247 
2734.000000	99.069053 
2733.000000	99.070054 
2732.000000	99.071168 
2731.000000	99.072343 
2730.000000	99.073490 
2729.000000	99.074416 
2728.000000	99.075009 
2727.000000	99.075456 
2726.000000	99.076151 
2725.000000	99.077369 
2724.000000	99.079061 
2723.000000	99.080877 
2722.000000	99.082322 
2721.000000	99.082964 
2720.000000	99.082722 
2719.000000	99.082046 
2718.000000	99.081692 
2717.000000	99.082123 
2716.000000	99.083073 
2715.000000	99.083791 
2714.000000	99.083785 
2713.000000	99.083269 
2712.000000	99.082884 
2711.000000	99.083105 
2710.000000	99.084002 
2709.000000	99.085414 
2708.000000	99.087117 
2707.000000	99.088848 
2706.000000	99.090305 
2705.000000	99.091264 
2704.000000	99.091690 
2703.000000	99.091818 
2702.000000	99.092101 
2701.000000	99.092841 
2700.000000	99.093679 
2699.000000	99.093689 
2698.000000	99.092321 
2697.000000	99.090153 
2696.000000	99.088369 
2695.000000	99.087494 
2694.000000	99.087051 
2693.000000	99.086504 
2692.000000	99.086025 
2691.000000	99.086168 
2690.000000	99.087232 
2689.000000	99.089196 
2688.000000	99.091857 
2687.000000	99.094662 
2686.000000	99.096717 
2685.000000	99.097426 
2684.000000	99.096982 
2683.000000	99.095931 
2682.000000	99.094380 
2681.000000	99.092122 
2680.000000	99.089550 
2679.000000	99.087891 
2678.000000	99.088140 
2677.000000	99.089859 
2676.000000	99.091326 
2675.000000	99.091064 
2674.000000	99.089175 
2673.000000	99.087112 
2672.000000	99.086209 
2671.000000	99.086636 
2670.000000	99.087667 
2669.000000	99.088437 
2668.000000	99.088230 
2667.000000	99.086491 
2666.000000	99.083191 
2665.000000	99.079171 
2664.000000	99.075598 
2663.000000	99.072959 
2662.000000	99.070832 
2661.000000	99.068614 
2660.000000	99.066210 
2659.000000	99.063981 
2658.000000	99.062238 
2657.000000	99.060897 
2656.000000	99.059615 
2655.000000	99.058339 
2654.000000	99.057646 
2653.000000	99.058154 
2652.000000	99.059442 
2651.000000	99.060053 
2650.000000	99.058981 
2649.000000	99.056750 
2648.000000	99.054574 
2647.000000	99.052950 
2646.000000	99.051711 
2645.000000	99.050978 
2644.000000	99.051051 
2643.000000	99.051419 
2642.000000	99.050876 
2641.000000	99.048847 
2640.000000	99.045967 
2639.000000	99.043252 
2638.000000	99.041290 
2637.000000	99.040255 
2636.000000	99.039989 
2635.000000	99.039967 
2634.000000	99.039874 
2633.000000	99.040320 
2632.000000	99.042178 
2631.000000	99.045193 
2630.000000	99.047953 
2629.000000	99.049342 
2628.000000	99.049318 
2627.000000	99.048213 
2626.000000	99.046254 
2625.000000	99.044054 
2624.000000	99.042684 
2623.000000	99.042622 
2622.000000	99.043229 
2621.000000	99.043683 
2620.000000	99.044011 
2619.000000	99.044627 
2618.000000	99.045385 
2617.000000	99.045806 
2616.000000	99.045916 
2615.000000	99.046140 
2614.000000	99.046520 
2613.000000	99.046605 
2612.000000	99.046100 
2611.000000	99.045202 
2610.000000	99.044373 
2609.000000	99.044057 
2608.000000	99.044536 
2607.000000	99.045734 
2606.000000	99.047105 
2605.000000	99.047996 
2604.000000	99.048181 
2603.000000	99.047884 
2602.000000	99.047495 
2601.000000	99.047326 
2600.000000	99.047521 
2599.000000	99.048024 
2598.000000	99.048663 
2597.000000	99.049369 
2596.000000	99.050214 
2595.000000	99.051163 
2594.000000	99.051986 
2593.000000	99.052500 
2592.000000	99.052756 
2591.000000	99.052873 
2590.000000	99.052824 
2589.000000	99.052562 
2588.000000	99.052253 
2587.000000	99.052174 
2586.000000	99.052424 
2585.000000	99.052892 
2584.000000	99.053443 
2583.000000	99.053962 
2582.000000	99.054358 
2581.000000	99.054756 
2580.000000	99.055486 
2579.000000	99.056619 
2578.000000	99.057694 
2577.000000	99.058230 
2576.000000	99.058401 
2575.000000	99.058819 
2574.000000	99.059682 
2573.000000	99.060550 
2572.000000	99.061010 
2571.000000	99.061155 
2570.000000	99.061319 
2569.000000	99.061591 
2568.000000	99.061784 
2567.000000	99.061739 
2566.000000	99.061506 
2565.000000	99.061342 
2564.000000	99.061601 
2563.000000	99.062457 
2562.000000	99.063607 
2561.000000	99.064428 
2560.000000	99.064628 
2559.000000	99.064517 
2558.000000	99.064562 
2557.000000	99.064923 
2556.000000	99.065501 
2555.000000	99.066102 
2554.000000	99.066469 
2553.000000	99.066492 
2552.000000	99.066493 
2551.000000	99.067015 
2550.000000	99.068175 
2549.000000	99.069473 
2548.000000	99.070328 
2547.000000	99.070534 
2546.000000	99.070182 
2545.000000	99.069449 
2544.000000	99.068590 
2543.000000	99.067816 
2542.000000	99.067035 
2541.000000	99.066000 
2540.000000	99.064857 
2539.000000	99.064257 
2538.000000	99.064741 
2537.000000	99.066173 
2536.000000	99.067803 
2535.000000	99.068777 
2534.000000	99.068615 
2533.000000	99.067409 
2532.000000	99.065705 
2531.000000	99.064079 
2530.000000	99.062886 
2529.000000	99.062518 
2528.000000	99.063556 
2527.000000	99.066230 
2526.000000	99.069785 
2525.000000	99.072898 
2524.000000	99.074919 
2523.000000	99.076182 
2522.000000	99.076948 
2521.000000	99.076626 
2520.000000	99.074559 
2519.000000	99.071212 
2518.000000	99.068099 
2517.000000	99.066490 
2516.000000	99.066425 
2515.000000	99.066983 
2514.000000	99.067199 
2513.000000	99.066789 
2512.000000	99.066101 
2511.000000	99.065580 
2510.000000	99.065400 
2509.000000	99.065564 
2508.000000	99.066118 
2507.000000	99.067048 
2506.000000	99.068012 
2505.000000	99.068431 
2504.000000	99.067963 
2503.000000	99.066877 
2502.000000	99.065894 
2501.000000	99.065616 
2500.000000	99.066083 
2499.000000	99.066870 
2498.000000	99.067487 
2497.000000	99.067691 
2496.000000	99.067504 
2495.000000	99.067145 
2494.000000	99.067001 
2493.000000	99.067408 
2492.000000	99.068331 
2491.000000	99.069293 
2490.000000	99.069809 
2489.000000	99.069855 
2488.000000	99.069777 
2487.000000	99.069863 
2486.000000	99.070110 
2485.000000	99.070338 
2484.000000	99.070404 
2483.000000	99.070309 
2482.000000	99.070197 
2481.000000	99.070236 
2480.000000	99.070464 
2479.000000	99.070747 
2478.000000	99.070897 
2477.000000	99.070822 
2476.000000	99.070580 
2475.000000	99.070295 
2474.000000	99.070072 
2473.000000	99.069982 
2472.000000	99.070025 
2471.000000	99.070055 
2470.000000	99.069910 
2469.000000	99.069701 
2468.000000	99.069788 
2467.000000	99.070341 
2466.000000	99.071127 
2465.000000	99.071794 
2464.000000	99.072221 
2463.000000	99.072366 
2462.000000	99.072075 
2461.000000	99.071357 
2460.000000	99.070669 
2459.000000	99.070529 
2458.000000	99.070964 
2457.000000	99.071539 
2456.000000	99.071792 
2455.000000	99.071494 
2454.000000	99.070682 
2453.000000	99.069771 
2452.000000	99.069388 
2451.000000	99.069708 
2450.000000	99.070149 
2449.000000	99.070159 
2448.000000	99.070109 
2447.000000	99.070715 
2446.000000	99.071733 
2445.000000	99.071960 
2444.000000	99.070657 
2443.000000	99.068411 
2442.000000	99.066533 
2441.000000	99.065940 
2440.000000	99.066710 
2439.000000	99.068205 
2438.000000	99.069441 
2437.000000	99.069813 
2436.000000	99.069599 
2435.000000	99.069559 
2434.000000	99.070116 
2433.000000	99.071115 
2432.000000	99.072229 
2431.000000	99.073233 
2430.000000	99.074014 
2429.000000	99.074745 
2428.000000	99.075878 
2427.000000	99.077575 
2426.000000	99.079339 
2425.000000	99.080564 
2424.000000	99.081285 
2423.000000	99.081998 
2422.000000	99.082869 
2421.000000	99.083566 
2420.000000	99.083840 
2419.000000	99.083963 
2418.000000	99.084495 
2417.000000	99.085734 
2416.000000	99.087342 
2415.000000	99.088507 
2414.000000	99.088622 
2413.000000	99.087815 
2412.000000	99.086742 
2411.000000	99.085890 
2410.000000	99.085288 
2409.000000	99.084875 
2408.000000	99.084749 
2407.000000	99.084997 
2406.000000	99.085594 
2405.000000	99.086501 
2404.000000	99.087541 
2403.000000	99.088218 
2402.000000	99.088062 
2401.000000	99.087282 
2400.000000	99.086666 
2399.000000	99.086759 
2398.000000	99.087500 
2397.000000	99.088591 
2396.000000	99.089729 
2395.000000	99.090396 
2394.000000	99.089921 
2393.000000	99.088207 
2392.000000	99.086363 
2391.000000	99.085804 
2390.000000	99.086659 
2389.000000	99.087645 
2388.000000	99.087640 
2387.000000	99.086485 
2386.000000	99.084406 
2385.000000	99.081656 
2384.000000	99.078907 
2383.000000	99.077181 
2382.000000	99.077042 
2381.000000	99.078256 
2380.000000	99.080214 
2379.000000	99.082317 
2378.000000	99.084003 
2377.000000	99.084925 
2376.000000	99.085017 
2375.000000	99.084260 
2374.000000	99.082771 
2373.000000	99.081204 
2372.000000	99.080368 
2371.000000	99.079996 
2370.000000	99.078779 
2369.000000	99.076281 
2368.000000	99.073724 
2367.000000	99.072245 
2366.000000	99.071537 
2365.000000	99.070668 
2364.000000	99.068911 
2363.000000	99.065034 
2362.000000	99.058242 
2361.000000	99.050698 
2360.000000	99.045697 
2359.000000	99.044839 
2358.000000	99.047047 
2357.000000	99.050794 
2356.000000	99.055076 
2355.000000	99.058557 
2354.000000	99.062335 
2353.000000	99.066603 
2352.000000	99.069063 
2351.000000	99.066739 
2350.000000	99.057857 
2349.000000	99.044830 
2348.000000	99.032257 
2347.000000	99.025969 
2346.000000	99.026024 
2345.000000	99.025702 
2344.000000	99.020698 
2343.000000	99.012279 
2342.000000	99.005744 
2341.000000	99.002347 
2340.000000	99.000997 
2339.000000	99.000983 
2338.000000	99.002942 
2337.000000	99.005836 
2336.000000	99.005864 
2335.000000	99.000502 
2334.000000	98.992863 
2333.000000	98.987292 
2332.000000	98.984249 
2331.000000	98.981929 
2330.000000	98.978386 
2329.000000	98.973688 
2328.000000	98.964222 
2327.000000	98.948280 
2326.000000	98.927520 
2325.000000	98.907385 
2324.000000	98.894316 
2323.000000	98.890711 
2322.000000	98.895715 
2321.000000	98.903658 
2320.000000	98.910003 
2319.000000	98.913727 
2318.000000	98.916723 
2317.000000	98.921002 
2316.000000	98.927066 
2315.000000	98.934830 
2314.000000	98.942151 
2313.000000	98.946473 
2312.000000	98.946133 
2311.000000	98.942951 
2310.000000	98.939338 
2309.000000	98.936416 
2308.000000	98.934216 
2307.000000	98.934014 
2306.000000	98.937103 
2305.000000	98.942176 
2304.000000	98.945864 
2303.000000	98.946003 
2302.000000	98.943187 
2301.000000	98.939393 
2300.000000	98.936312 
2299.000000	98.935522 
2298.000000	98.937762 
2297.000000	98.942352 
2296.000000	98.946541 
2295.000000	98.947792 
2294.000000	98.945529 
2293.000000	98.941617 
2292.000000	98.938396 
2291.000000	98.936774 
2290.000000	98.935741 
2289.000000	98.933776 
2288.000000	98.930849 
2287.000000	98.928850 
2286.000000	98.930031 
2285.000000	98.934749 
2284.000000	98.941027 
2283.000000	98.946017 
2282.000000	98.948346 
2281.000000	98.948623 
2280.000000	98.948225 
2279.000000	98.948006 
2278.000000	98.948180 
2277.000000	98.948793 
2276.000000	98.949847 
2275.000000	98.951103 
2274.000000	98.952100 
2273.000000	98.952605 
2272.000000	98.952945 
2271.000000	98.953663 
2270.000000	98.954804 
2269.000000	98.955841 
2268.000000	98.956426 
2267.000000	98.956869 
2266.000000	98.957686 
2265.000000	98.958876 
2264.000000	98.959886 
2263.000000	98.960305 
2262.000000	98.960270 
2261.000000	98.960151 
2260.000000	98.960050 
2259.000000	98.959818 
2258.000000	98.959529 
2257.000000	98.959623 
2256.000000	98.960437 
2255.000000	98.961648 
2254.000000	98.962400 
2253.000000	98.962210 
2252.000000	98.961357 
2251.000000	98.960567 
2250.000000	98.960272 
2249.000000	98.960341 
2248.000000	98.960432 
2247.000000	98.960345 
2246.000000	98.960115 
2245.000000	98.959888 
2244.000000	98.959764 
2243.000000	98.959723 
2242.000000	98.959683 
2241.000000	98.959607 
2240.000000	98.959518 
2239.000000	98.959395 
2238.000000	98.959157 
2237.000000	98.958757 
2236.000000	98.958273 
2235.000000	98.957807 
2234.000000	98.957380 
2233.000000	98.956970 
2232.000000	98.956556 
2231.000000	98.956115 
2230.000000	98.955632 
2229.000000	98.955114 
2228.000000	98.954579 
2227.000000	98.954036 
2226.000000	98.953481 
2225.000000	98.952918 
2224.000000	98.952363 
2223.000000	98.951821 
2222.000000	98.951271 
2221.000000	98.950709 
2220.000000	98.950172 
2219.000000	98.949690 
2218.000000	98.949235 
2217.000000	98.948743 
2216.000000	98.948207 
2215.000000	98.947679 
2214.000000	98.947187 
2213.000000	98.946728 
2212.000000	98.946318 
2211.000000	98.946034 
2210.000000	98.945905 
2209.000000	98.945676 
2208.000000	98.944772 
2207.000000	98.942771 
2206.000000	98.939836 
2205.000000	98.936808 
2204.000000	98.935205 
2203.000000	98.936129 
2202.000000	98.938683 
2201.000000	98.941218 
2200.000000	98.943809 
2199.000000	98.947230 
2198.000000	98.949714 
2197.000000	98.947641 
2196.000000	98.940592 
2195.000000	98.933558 
2194.000000	98.931754 
2193.000000	98.934878 
2192.000000	98.938382 
2191.000000	98.938688 
2190.000000	98.935359 
2189.000000	98.929936 
2188.000000	98.925043 
2187.000000	98.923390 
2186.000000	98.925593 
2185.000000	98.929622 
2184.000000	98.933666 
2183.000000	98.938269 
2182.000000	98.944040 
2181.000000	98.948794 
2180.000000	98.949532 
2179.000000	98.946916 
2178.000000	98.945498 
2177.000000	98.948761 
2176.000000	98.954881 
2175.000000	98.958298 
2174.000000	98.955476 
2173.000000	98.948193 
2172.000000	98.940603 
2171.000000	98.934139 
2170.000000	98.927224 
2169.000000	98.919634 
2168.000000	98.914386 
2167.000000	98.914007 
2166.000000	98.916973 
2165.000000	98.919552 
2164.000000	98.920062 
2163.000000	98.920384 
2162.000000	98.925383 
2161.000000	98.941793 
2160.000000	98.973741 
2159.000000	99.015716 
2158.000000	99.053216 
2157.000000	99.075977 
2156.000000	99.086360 
2155.000000	99.091374 
2154.000000	99.092061 
2153.000000	99.085028 
2152.000000	99.069981 
2151.000000	99.050749 
2150.000000	99.031747 
2149.000000	99.017747 
2148.000000	99.014129 
2147.000000	99.021945 
2146.000000	99.034280 
2145.000000	99.042885 
2144.000000	99.047716 
2143.000000	99.054423 
2142.000000	99.063313 
2141.000000	99.067466 
2140.000000	99.062863 
2139.000000	99.054326 
2138.000000	99.049136 
2137.000000	99.049048 
2136.000000	99.051165 
2135.000000	99.052893 
2134.000000	99.052884 
2133.000000	99.049960 
2132.000000	99.044498 
2131.000000	99.039481 
2130.000000	99.037576 
2129.000000	99.037669 
2128.000000	99.035969 
2127.000000	99.030398 
2126.000000	99.023000 
2125.000000	99.018068 
2124.000000	99.018075 
2123.000000	99.021212 
2122.000000	99.022921 
2121.000000	99.020287 
2120.000000	99.014512 
2119.000000	99.008486 
2118.000000	99.002833 
2117.000000	98.996031 
2116.000000	98.988068 
2115.000000	98.981758 
2114.000000	98.979488 
2113.000000	98.980160 
2112.000000	98.980540 
2111.000000	98.978451 
2110.000000	98.974246 
2109.000000	98.970219 
2108.000000	98.968896 
2107.000000	98.971006 
2106.000000	98.974492 
2105.000000	98.976029 
2104.000000	98.974204 
2103.000000	98.970563 
2102.000000	98.967604 
2101.000000	98.966632 
2100.000000	98.967476 
2099.000000	98.969087 
2098.000000	98.970032 
2097.000000	98.969430 
2096.000000	98.968038 
2095.000000	98.967779 
2094.000000	98.969562 
2093.000000	98.971985 
2092.000000	98.972696 
2091.000000	98.970728 
2090.000000	98.967129 
2089.000000	98.963747 
2088.000000	98.961483 
2087.000000	98.959738 
2086.000000	98.957479 
2085.000000	98.954654 
2084.000000	98.952427 
2083.000000	98.951904 
2082.000000	98.952903 
2081.000000	98.954077 
2080.000000	98.954096 
2079.000000	98.952452 
2078.000000	98.949358 
2077.000000	98.945485 
2076.000000	98.941668 
2075.000000	98.938579 
2074.000000	98.936613 
2073.000000	98.936143 
2072.000000	98.937477 
2071.000000	98.940108 
2070.000000	98.942296 
2069.000000	98.942338 
2068.000000	98.940258 
2067.000000	98.937774 
2066.000000	98.936460 
2065.000000	98.936262 
2064.000000	98.936067 
2063.000000	98.934997 
2062.000000	98.932863 
2061.000000	98.929937 
2060.000000	98.926710 
2059.000000	98.923587 
2058.000000	98.920667 
2057.000000	98.918137 
2056.000000	98.916746 
2055.000000	98.917131 
2054.000000	98.918564 
2053.000000	98.919091 
2052.000000	98.917372 
2051.000000	98.913897 
2050.000000	98.910256 
2049.000000	98.907782 
2048.000000	98.907111 
2047.000000	98.908402 
2046.000000	98.911384 
2045.000000	98.915191 
2044.000000	98.918579 
2043.000000	98.920508 
2042.000000	98.920437 
2041.000000	98.918432 
2040.000000	98.915109 
2039.000000	98.911169 
2038.000000	98.907076 
2037.000000	98.903558 
2036.000000	98.901969 
2035.000000	98.903243 
2034.000000	98.906544 
2033.000000	98.909672 
2032.000000	98.911259 
2031.000000	98.911831 
2030.000000	98.912464 
2029.000000	98.913212 
2028.000000	98.913256 
2027.000000	98.912161 
2026.000000	98.910681 
2025.000000	98.910446 
2024.000000	98.912797 
2023.000000	98.917554 
2022.000000	98.922565 
2021.000000	98.925119 
2020.000000	98.924058 
2019.000000	98.920293 
2018.000000	98.915815 
2017.000000	98.912392 
2016.000000	98.910773 
2015.000000	98.910195 
2014.000000	98.908674 
2013.000000	98.904769 
2012.000000	98.899390 
2011.000000	98.895295 
2010.000000	98.894674 
2009.000000	98.897825 
2008.000000	98.903519 
2007.000000	98.909547 
2006.000000	98.913176 
2005.000000	98.912708 
2004.000000	98.909163 
2003.000000	98.905598 
2002.000000	98.904224 
2001.000000	98.904937 
2000.000000	98.906657 
1999.000000	98.908763 
1998.000000	98.910731 
1997.000000	98.911644 
1996.000000	98.911078 
1995.000000	98.909655 
1994.000000	98.907890 
1993.000000	98.905201 
1992.000000	98.900873 
1991.000000	98.895448 
1990.000000	98.890476 
1989.000000	98.887419 
1988.000000	98.887073 
1987.000000	98.889057 
1986.000000	98.891226 
1985.000000	98.890508 
1984.000000	98.885266 
1983.000000	98.876695 
1982.000000	98.868047 
1981.000000	98.863072 
1980.000000	98.864761 
1979.000000	98.873844 
1978.000000	98.887153 
1977.000000	98.898732 
1976.000000	98.904880 
1975.000000	98.906741 
1974.000000	98.907424 
1973.000000	98.908493 
1972.000000	98.909715 
1971.000000	98.910621 
1970.000000	98.911043 
1969.000000	98.910771 
1968.000000	98.909462 
1967.000000	98.906761 
1966.000000	98.902801 
1965.000000	98.899326 
1964.000000	98.899696 
1963.000000	98.906335 
1962.000000	98.917997 
1961.000000	98.930553 
1960.000000	98.940773 
1959.000000	98.947903 
1958.000000	98.951767 
1957.000000	98.951696 
1956.000000	98.948050 
1955.000000	98.943062 
1954.000000	98.939295 
1953.000000	98.937991 
1952.000000	98.938891 
1951.000000	98.940577 
1950.000000	98.940784 
1949.000000	98.937728 
1948.000000	98.931931 
1947.000000	98.926012 
1946.000000	98.922147 
1945.000000	98.920276 
1944.000000	98.918984 
1943.000000	98.917402 
1942.000000	98.916042 
1941.000000	98.916241 
1940.000000	98.919006 
1939.000000	98.924113 
1938.000000	98.929962 
1937.000000	98.934487 
1936.000000	98.936446 
1935.000000	98.935622 
1934.000000	98.932293 
1933.000000	98.927609 
1932.000000	98.923855 
1931.000000	98.922942 
1930.000000	98.924542 
1929.000000	98.926303 
1928.000000	98.926254 
1927.000000	98.924506 
1926.000000	98.922386 
1925.000000	98.920536 
1924.000000	98.918294 
1923.000000	98.914861 
1922.000000	98.910574 
1921.000000	98.906763 
1920.000000	98.904529 
1919.000000	98.903885 
1918.000000	98.904005 
1917.000000	98.903993 
1916.000000	98.903325 
1915.000000	98.901691 
1914.000000	98.898986 
1913.000000	98.895700 
1912.000000	98.892954 
1911.000000	98.891597 
1910.000000	98.891398 
1909.000000	98.891221 
1908.000000	98.890203 
1907.000000	98.888459 
1906.000000	98.886568 
1905.000000	98.884863 
1904.000000	98.883312 
1903.000000	98.881828 
1902.000000	98.880365 
1901.000000	98.878895 
1900.000000	98.877554 
1899.000000	98.876624 
1898.000000	98.876272 
1897.000000	98.876358 
1896.000000	98.876529 
1895.000000	98.876391 
1894.000000	98.875641 
1893.000000	98.874300 
1892.000000	98.872866 
1891.000000	98.871879 
1890.000000	98.871219 
1889.000000	98.870115 
1888.000000	98.868154 
1887.000000	98.865907 
1886.000000	98.864259 
1885.000000	98.863634 
1884.000000	98.863957 
1883.000000	98.864994 
1882.000000	98.866410 
1881.000000	98.867706 
1880.000000	98.868518 
1879.000000	98.868875 
1878.000000	98.868976 
1877.000000	98.868813 
1876.000000	98.868134 
1875.000000	98.866770 
1874.000000	98.864938 
1873.000000	98.863190 
1872.000000	98.862040 
1871.000000	98.861660 
1870.000000	98.862041 
1869.000000	98.863375 
1868.000000	98.865846 
1867.000000	98.868857 
1866.000000	98.871126 
1865.000000	98.871760 
1864.000000	98.870864 
1863.000000	98.869046 
1862.000000	98.866869 
1861.000000	98.865097 
1860.000000	98.864846 
1859.000000	98.866704 
1858.000000	98.869844 
1857.000000	98.872658 
1856.000000	98.874468 
1855.000000	98.875735 
1854.000000	98.876747 
1853.000000	98.877192 
1852.000000	98.877267 
1851.000000	98.877879 
1850.000000	98.879249 
1849.000000	98.880366 
1848.000000	98.880357 
1847.000000	98.879667 
1846.000000	98.879463 
1845.000000	98.880302 
1844.000000	98.881720 
1843.000000	98.882961 
1842.000000	98.883576 
1841.000000	98.883446 
1840.000000	98.882900 
1839.000000	98.882491 
1838.000000	98.882539 
1837.000000	98.883134 
1836.000000	98.884401 
1835.000000	98.886066 
1834.000000	98.886826 
1833.000000	98.885645 
1832.000000	98.883697 
1831.000000	98.883363 
1830.000000	98.884831 
1829.000000	98.885577 
1828.000000	98.883950 
1827.000000	98.880843 
1826.000000	98.877574 
1825.000000	98.874374 
1824.000000	98.871276 
1823.000000	98.869031 
1822.000000	98.868228 
1821.000000	98.869030 
1820.000000	98.872340 
1819.000000	98.879351 
1818.000000	98.888952 
1817.000000	98.896812 
1816.000000	98.899366 
1815.000000	98.897603 
1814.000000	98.894687 
1813.000000	98.891942 
1812.000000	98.888982 
1811.000000	98.886086 
1810.000000	98.884055 
1809.000000	98.882316 
1808.000000	98.880247 
1807.000000	98.879144 
1806.000000	98.880018 
1805.000000	98.880930 
1804.000000	98.879368 
1803.000000	98.876474 
1802.000000	98.876154 
1801.000000	98.880390 
1800.000000	98.887308 
1799.000000	98.894096 
1798.000000	98.899320 
1797.000000	98.902067 
1796.000000	98.902535 
1795.000000	98.903425 
1794.000000	98.908085 
1793.000000	98.916383 
1792.000000	98.924237 
1791.000000	98.929188 
1790.000000	98.932618 
1789.000000	98.936122 
1788.000000	98.940342 
1787.000000	98.945987 
1786.000000	98.953323 
1785.000000	98.960684 
1784.000000	98.966062 
1783.000000	98.970470 
1782.000000	98.976750 
1781.000000	98.986223 
1780.000000	98.997557 
1779.000000	99.008719 
1778.000000	99.019269 
1777.000000	99.029431 
1776.000000	99.038912 
1775.000000	99.047546 
1774.000000	99.055823 
1773.000000	99.063785 
1772.000000	99.070038 
1771.000000	99.074596 
1770.000000	99.081209 
1769.000000	99.094922 
1768.000000	99.117749 
1767.000000	99.145242 
1766.000000	99.170277 
1765.000000	99.190506 
1764.000000	99.208605 
1763.000000	99.227426 
1762.000000	99.246475 
1761.000000	99.263762 
1760.000000	99.279824 
1759.000000	99.297417 
1758.000000	99.317767 
1757.000000	99.338290 
1756.000000	99.354979 
1755.000000	99.366958 
1754.000000	99.376756 
1753.000000	99.386630 
1752.000000	99.396115 
1751.000000	99.402270 
1750.000000	99.403285 
1749.000000	99.400194 
1748.000000	99.394603 
1747.000000	99.387698 
1746.000000	99.380694 
1745.000000	99.374439 
1744.000000	99.367554 
1743.000000	99.356473 
1742.000000	99.338875 
1741.000000	99.315711 
1740.000000	99.289696 
1739.000000	99.263534 
1738.000000	99.238362 
1737.000000	99.213362 
1736.000000	99.188053 
1735.000000	99.163666 
1734.000000	99.140121 
1733.000000	99.117381 
1732.000000	99.098140 
1731.000000	99.083786 
1730.000000	99.072863 
1729.000000	99.062446 
1728.000000	99.051090 
1727.000000	99.040890 
1726.000000	99.034565 
1725.000000	99.031997 
1724.000000	99.029583 
1723.000000	99.023787 
1722.000000	99.014362 
1721.000000	99.003447 
1720.000000	98.993692 
1719.000000	98.986992 
1718.000000	98.981739 
1717.000000	98.972926 
1716.000000	98.960812 
1715.000000	98.952617 
1714.000000	98.951500 
1713.000000	98.952795 
1712.000000	98.951961 
1711.000000	98.950809 
1710.000000	98.952821 
1709.000000	98.955904 
1708.000000	98.954980 
1707.000000	98.949904 
1706.000000	98.945634 
1705.000000	98.943544 
1704.000000	98.939531 
1703.000000	98.931726 
1702.000000	98.923811 
1701.000000	98.919600 
1700.000000	98.915988 
1699.000000	98.911131 
1698.000000	98.908508 
1697.000000	98.907675 
1696.000000	98.904829 
1695.000000	98.897904 
1694.000000	98.889384 
1693.000000	98.882261 
1692.000000	98.876733 
1691.000000	98.872994 
1690.000000	98.871081 
1689.000000	98.870077 
1688.000000	98.869069 
1687.000000	98.867950 
1686.000000	98.867779 
1685.000000	98.868496 
1684.000000	98.867849 
1683.000000	98.866216 
1682.000000	98.864746 
1681.000000	98.862510 
1680.000000	98.859680 
1679.000000	98.856881 
1678.000000	98.854322 
1677.000000	98.852695 
1676.000000	98.852742 
1675.000000	98.853080 
1674.000000	98.851370 
1673.000000	98.848053 
1672.000000	98.844665 
1671.000000	98.841295 
1670.000000	98.836449 
1669.000000	98.830380 
1668.000000	98.826842 
1667.000000	98.827056 
1666.000000	98.827658 
1665.000000	98.825624 
1664.000000	98.821632 
1663.000000	98.818703 
1662.000000	98.817453 
1661.000000	98.815851 
1660.000000	98.813592 
1659.000000	98.812004 
1658.000000	98.811095 
1657.000000	98.809496 
1656.000000	98.806992 
1655.000000	98.805068 
1654.000000	98.804454 
1653.000000	98.800028 
1652.000000	98.792500 
1651.000000	98.789219 
1650.000000	98.788504 
1649.000000	98.786742 
1648.000000	98.784199 
1647.000000	98.781561 
1646.000000	98.779308 
1645.000000	98.778298 
1644.000000	98.779515 
1643.000000	98.782777 
1642.000000	98.786579 
1641.000000	98.789238 
1640.000000	98.790449 
1639.000000	98.790824 
1638.000000	98.790811 
1637.000000	98.790852 
1636.000000	98.791313 
1635.000000	98.792130 
1634.000000	98.793775 
1633.000000	98.796903 
1632.000000	98.801738 
1631.000000	98.808484 
1630.000000	98.815856 
1629.000000	98.821587 
1628.000000	98.825633 
1627.000000	98.830026 
1626.000000	98.835434 
1625.000000	98.841266 
1624.000000	98.848174 
1623.000000	98.856955 
1622.000000	98.865997 
1621.000000	98.873212 
1620.000000	98.878875 
1619.000000	98.884614 
1618.000000	98.891630 
1617.000000	98.900158 
1616.000000	98.911250 
1615.000000	98.924875 
1614.000000	98.937331 
1613.000000	98.945823 
1612.000000	98.951963 
1611.000000	98.958637 
1610.000000	98.966099 
1609.000000	98.973548 
1608.000000	98.981892 
1607.000000	98.991120 
1606.000000	98.998152 
1605.000000	99.001595 
1604.000000	99.005028 
1603.000000	99.012094 
1602.000000	99.021661 
1601.000000	99.030447 
1600.000000	99.037686 
1599.000000	99.044270 
1598.000000	99.049881 
1597.000000	99.053949 
1596.000000	99.057545 
1595.000000	99.061958 
1594.000000	99.066596 
1593.000000	99.070733 
1592.000000	99.075775 
1591.000000	99.082996 
1590.000000	99.090413 
1589.000000	99.095099 
1588.000000	99.097562 
1587.000000	99.100875 
1586.000000	99.105976 
1585.000000	99.110843 
1584.000000	99.114293 
1583.000000	99.116863 
1582.000000	99.118573 
1581.000000	99.119164 
1580.000000	99.119221 
1579.000000	99.118982 
1578.000000	99.117846 
1577.000000	99.116123 
1576.000000	99.115581 
1575.000000	99.117150 
1574.000000	99.119210 
1573.000000	99.120498 
1572.000000	99.122474 
1571.000000	99.126992 
1570.000000	99.131934 
1569.000000	99.133916 
1568.000000	99.134246 
1567.000000	99.135261 
1566.000000	99.136309 
1565.000000	99.135606 
1564.000000	99.132348 
1563.000000	99.125839 
1562.000000	99.116282 
1561.000000	99.106499 
1560.000000	99.103155 
1559.000000	99.103739 
1558.000000	99.099756 
1557.000000	99.094252 
1556.000000	99.092925 
1555.000000	99.095709 
1554.000000	99.098178 
1553.000000	99.096225 
1552.000000	99.091169 
1551.000000	99.086544 
1550.000000	99.083915 
1549.000000	99.082536 
1548.000000	99.082018 
1547.000000	99.082578 
1546.000000	99.082062 
1545.000000	99.076573 
1544.000000	99.065185 
1543.000000	99.051693 
1542.000000	99.040497 
1541.000000	99.031717 
1540.000000	99.022209 
1539.000000	99.012288 
1538.000000	99.004378 
1537.000000	98.998159 
1536.000000	98.992191 
1535.000000	98.985931 
1534.000000	98.978019 
1533.000000	98.967262 
1532.000000	98.955741 
1531.000000	98.946179 
1530.000000	98.938588 
1529.000000	98.931261 
1528.000000	98.923110 
1527.000000	98.914569 
1526.000000	98.905693 
1525.000000	98.895603 
1524.000000	98.884458 
1523.000000	98.873431 
1522.000000	98.862698 
1521.000000	98.851503 
1520.000000	98.840843 
1519.000000	98.832574 
1518.000000	98.826009 
1517.000000	98.818603 
1516.000000	98.808791 
1515.000000	98.797368 
1514.000000	98.785683 
1513.000000	98.773621 
1512.000000	98.760343 
1511.000000	98.746178 
1510.000000	98.732721 
1509.000000	98.720842 
1508.000000	98.710099 
1507.000000	98.699034 
1506.000000	98.687109 
1505.000000	98.675952 
1504.000000	98.667396 
1503.000000	98.660537 
1502.000000	98.653223 
1501.000000	98.643898 
1500.000000	98.632280 
1499.000000	98.619462 
1498.000000	98.606378 
1497.000000	98.592689 
1496.000000	98.578247 
1495.000000	98.565117 
1494.000000	98.554983 
1493.000000	98.546718 
1492.000000	98.538143 
1491.000000	98.528215 
1490.000000	98.517330 
1489.000000	98.505897 
1488.000000	98.493623 
1487.000000	98.481053 
1486.000000	98.469283 
1485.000000	98.458149 
1484.000000	98.446866 
1483.000000	98.434877 
1482.000000	98.422069 
1481.000000	98.409156 
1480.000000	98.397292 
1479.000000	98.386893 
1478.000000	98.376985 
1477.000000	98.366308 
1476.000000	98.355087 
1475.000000	98.344793 
1474.000000	98.335512 
1473.000000	98.325833 
1472.000000	98.316334 
1471.000000	98.309770 
1470.000000	98.306893 
1469.000000	98.305360 
1468.000000	98.302204 
1467.000000	98.295692 
1466.000000	98.285781 
1465.000000	98.274422 
1464.000000	98.265097 
1463.000000	98.259525 
1462.000000	98.256153 
1461.000000	98.252533 
1460.000000	98.247248 
1459.000000	98.239233 
1458.000000	98.226011 
1457.000000	98.205710 
1456.000000	98.182915 
1455.000000	98.164869 
1454.000000	98.152823 
1453.000000	98.144030 
1452.000000	98.136200 
1451.000000	98.128482 
1450.000000	98.121376 
1449.000000	98.115580 
1448.000000	98.110623 
1447.000000	98.105390 
1446.000000	98.099606 
1445.000000	98.094363 
1444.000000	98.090539 
1443.000000	98.086856 
1442.000000	98.081654 
1441.000000	98.075941 
1440.000000	98.072291 
1439.000000	98.070713 
1438.000000	98.067881 
1437.000000	98.060769 
1436.000000	98.051523 
1435.000000	98.045665 
1434.000000	98.045167 
1433.000000	98.048034 
1432.000000	98.051925 
1431.000000	98.054857 
1430.000000	98.055350 
1429.000000	98.053392 
1428.000000	98.050128 
1427.000000	98.046635 
1426.000000	98.042753 
1425.000000	98.038148 
1424.000000	98.033490 
1423.000000	98.028749 
1422.000000	98.022138 
1421.000000	98.011378 
1420.000000	97.995326 
1419.000000	97.975363 
1418.000000	97.955793 
1417.000000	97.939978 
1416.000000	97.927721 
1415.000000	97.917086 
1414.000000	97.905771 
1413.000000	97.892753 
1412.000000	97.879641 
1411.000000	97.868854 
1410.000000	97.861194 
1409.000000	97.856565 
1408.000000	97.856074 
1407.000000	97.861689 
1406.000000	97.873719 
1405.000000	97.891210 
1404.000000	97.914140 
1403.000000	97.942181 
1402.000000	97.973202 
1401.000000	98.004681 
1400.000000	98.034705 
1399.000000	98.059674 
1398.000000	98.072562 
1397.000000	98.066820 
1396.000000	98.044422 
1395.000000	98.022611 
1394.000000	98.025626 
1393.000000	98.062656 
1392.000000	98.120909 
1391.000000	98.179461 
1390.000000	98.224480 
1389.000000	98.253498 
1388.000000	98.270854 
1387.000000	98.281865 
1386.000000	98.290830 
1385.000000	98.301644 
1384.000000	98.316829 
1383.000000	98.335529 
1382.000000	98.354603 
1381.000000	98.372477 
1380.000000	98.390730 
1379.000000	98.411386 
1378.000000	98.434287 
1377.000000	98.458217 
1376.000000	98.483165 
1375.000000	98.509863 
1374.000000	98.537744 
1373.000000	98.565154 
1372.000000	98.591447 
1371.000000	98.617402 
1370.000000	98.643584 
1369.000000	98.669504 
1368.000000	98.694411 
1367.000000	98.718037 
1366.000000	98.740726 
1365.000000	98.762998 
1364.000000	98.784603 
1363.000000	98.804173 
1362.000000	98.820419 
1361.000000	98.833750 
1360.000000	98.845986 
1359.000000	98.858737 
1358.000000	98.872786 
1357.000000	98.888595 
1356.000000	98.906321 
1355.000000	98.925110 
1354.000000	98.943307 
1353.000000	98.959901 
1352.000000	98.974994 
1351.000000	98.989093 
1350.000000	99.002838 
1349.000000	99.016740 
1348.000000	99.030359 
1347.000000	99.042579 
1346.000000	99.053087 
1345.000000	99.062679 
1344.000000	99.071994 
1343.000000	99.080780 
1342.000000	99.088678 
1341.000000	99.096109 
1340.000000	99.103869 
1339.000000	99.112422 
1338.000000	99.122194 
1337.000000	99.133668 
1336.000000	99.146011 
1335.000000	99.156738 
1334.000000	99.164241 
1333.000000	99.169903 
1332.000000	99.176334 
1331.000000	99.184230 
1330.000000	99.192500 
1329.000000	99.200834 
1328.000000	99.209976 
1327.000000	99.219468 
1326.000000	99.227415 
1325.000000	99.233361 
1324.000000	99.239645 
1323.000000	99.248340 
1322.000000	99.258146 
1321.000000	99.265960 
1320.000000	99.270930 
1319.000000	99.275440 
1318.000000	99.281983 
1317.000000	99.290335 
1316.000000	99.298546 
1315.000000	99.305675 
1314.000000	99.312367 
1313.000000	99.319018 
1312.000000	99.324622 
1311.000000	99.328368 
1310.000000	99.331691 
1309.000000	99.337311 
1308.000000	99.345929 
1307.000000	99.354919 
1306.000000	99.360913 
1305.000000	99.363030 
1304.000000	99.363145 
1303.000000	99.363763 
1302.000000	99.366344 
1301.000000	99.370844 
1300.000000	99.375806 
1299.000000	99.379325 
1298.000000	99.380858 
1297.000000	99.381782 
1296.000000	99.383517 
1295.000000	99.385846 
1294.000000	99.387908 
1293.000000	99.389841 
1292.000000	99.391996 
1291.000000	99.393237 
1290.000000	99.391914 
1289.000000	99.388350 
1288.000000	99.384715 
1287.000000	99.382469 
1286.000000	99.381556 
1285.000000	99.381989 
1284.000000	99.384196 
1283.000000	99.387492 
1282.000000	99.389972 
1281.000000	99.390650 
1280.000000	99.390685 
1279.000000	99.391562 
1278.000000	99.393080 
1277.000000	99.394252 
1276.000000	99.394925 
1275.000000	99.395309 
1274.000000	99.394838 
1273.000000	99.392747 
1272.000000	99.389308 
1271.000000	99.385499 
1270.000000	99.381779 
1269.000000	99.378053 
1268.000000	99.374406 
1267.000000	99.370817 
1266.000000	99.366473 
1265.000000	99.360453 
1264.000000	99.353020 
1263.000000	99.345405 
1262.000000	99.338573 
1261.000000	99.333086 
1260.000000	99.329717 
1259.000000	99.328636 
1258.000000	99.328109 
1257.000000	99.325725 
1256.000000	99.321207 
1255.000000	99.316490 
1254.000000	99.312647 
1253.000000	99.308542 
1252.000000	99.303551 
1251.000000	99.300011 
1250.000000	99.301358 
1249.000000	99.308956 
1248.000000	99.322116 
1247.000000	99.339451 
1246.000000	99.357383 
1245.000000	99.368373 
1244.000000	99.365390 
1243.000000	99.351003 
1242.000000	99.339603 
1241.000000	99.345980 
1240.000000	99.370844 
1239.000000	99.399603 
1238.000000	99.416172 
1237.000000	99.416177 
1236.000000	99.406138 
1235.000000	99.393603 
1234.000000	99.381290 
1233.000000	99.369556 
1232.000000	99.360079 
1231.000000	99.354912 
1230.000000	99.353783 
1229.000000	99.354422 
1228.000000	99.354860 
1227.000000	99.354131 
1226.000000	99.351502 
1225.000000	99.346610 
1224.000000	99.340269 
1223.000000	99.333890 
1222.000000	99.327781 
1221.000000	99.320566 
1220.000000	99.310220 
1219.000000	99.295286 
1218.000000	99.275579 
1217.000000	99.252495 
1216.000000	99.228256 
1215.000000	99.203873 
1214.000000	99.177949 
1213.000000	99.148450 
1212.000000	99.115433 
1211.000000	99.080781 
1210.000000	99.045243 
1209.000000	99.007312 
1208.000000	98.965769 
1207.000000	98.922007 
1206.000000	98.878670 
1205.000000	98.836626 
1204.000000	98.794493 
1203.000000	98.751089 
1202.000000	98.707428 
1201.000000	98.665729 
1200.000000	98.626464 
1199.000000	98.586904 
1198.000000	98.543495 
1197.000000	98.495759 
1196.000000	98.446736 
1195.000000	98.399408 
1194.000000	98.354018 
1193.000000	98.309329 
1192.000000	98.264636 
1191.000000	98.219134 
1190.000000	98.171104 
1189.000000	98.119982 
1188.000000	98.067862 
1187.000000	98.016448 
1186.000000	97.963689 
1185.000000	97.906432 
1184.000000	97.845583 
1183.000000	97.785330 
1182.000000	97.727455 
1181.000000	97.669813 
1180.000000	97.610656 
1179.000000	97.550887 
1178.000000	97.491042 
1177.000000	97.429152 
1176.000000	97.362882 
1175.000000	97.291412 
1174.000000	97.214491 
1173.000000	97.132344 
1172.000000	97.047550 
1171.000000	96.964406 
1170.000000	96.885081 
1169.000000	96.808349 
1168.000000	96.732695 
1167.000000	96.658578 
1166.000000	96.587964 
1165.000000	96.525147 
1164.000000	96.478269 
1163.000000	96.455696 
1162.000000	96.458782 
1161.000000	96.480129 
1160.000000	96.509064 
1159.000000	96.535954 
1158.000000	96.551904 
1157.000000	96.549608 
1156.000000	96.526799 
1155.000000	96.486354 
1154.000000	96.432190 
1153.000000	96.367679 
1152.000000	96.298166 
1151.000000	96.230541 
1150.000000	96.167956 
1149.000000	96.107958 
1148.000000	96.047382 
1147.000000	95.985952 
1146.000000	95.923947 
1145.000000	95.860259 
1144.000000	95.794936 
1143.000000	95.730628 
1142.000000	95.669570 
1141.000000	95.611556 
1140.000000	95.555744 
1139.000000	95.501131 
1138.000000	95.444451 
1137.000000	95.381540 
1136.000000	95.312238 
1135.000000	95.240516 
1134.000000	95.168635 
1133.000000	95.094761 
1132.000000	95.017380 
1131.000000	94.937907 
1130.000000	94.857535 
1129.000000	94.775565 
1128.000000	94.692117 
1127.000000	94.608210 
1126.000000	94.521972 
1125.000000	94.429624 
1124.000000	94.331860 
1123.000000	94.234470 
1122.000000	94.140745 
1121.000000	94.048033 
1120.000000	93.953629 
1119.000000	93.858860 
1118.000000	93.765205 
1117.000000	93.671658 
1116.000000	93.578347 
1115.000000	93.487868 
1114.000000	93.400925 
1113.000000	93.315535 
1112.000000	93.232083 
1111.000000	93.153489 
1110.000000	93.078808 
1109.000000	93.002680 
1108.000000	92.922667 
1107.000000	92.841626 
1106.000000	92.761285 
1105.000000	92.679651 
1104.000000	92.596476 
1103.000000	92.515046 
1102.000000	92.436506 
1101.000000	92.358177 
1100.000000	92.279095 
1099.000000	92.201351 
1098.000000	92.124500 
1097.000000	92.044893 
1096.000000	91.962090 
1095.000000	91.879099 
1094.000000	91.793989 
1093.000000	91.698223 
1092.000000	91.586866 
1091.000000	91.465343 
1090.000000	91.343617 
1089.000000	91.228082 
1088.000000	91.120536 
1087.000000	91.019023 
1086.000000	90.917198 
1085.000000	90.808349 
1084.000000	90.692418 
1083.000000	90.574841 
1082.000000	90.458276 
1081.000000	90.341184 
1080.000000	90.224449 
1079.000000	90.112117 
1078.000000	90.005066 
1077.000000	89.901452 
1076.000000	89.803538 
1075.000000	89.715233 
1074.000000	89.632446 
1073.000000	89.545476 
1072.000000	89.450672 
1071.000000	89.347607 
1070.000000	89.224259 
1069.000000	89.061756 
1068.000000	88.861687 
1067.000000	88.657624 
1066.000000	88.488597 
1065.000000	88.365800 
1064.000000	88.271609 
1063.000000	88.180209 
1062.000000	88.070359 
1061.000000	87.928571 
1060.000000	87.754945 
1059.000000	87.566376 
1058.000000	87.385524 
1057.000000	87.224162 
1056.000000	87.078318 
1055.000000	86.934940 
1054.000000	86.780480 
1053.000000	86.609257 
1052.000000	86.428542 
1051.000000	86.251781 
1050.000000	86.084384 
1049.000000	85.921429 
1048.000000	85.759117 
1047.000000	85.599136 
1046.000000	85.441432 
1045.000000	85.283275 
1044.000000	85.126867 
1043.000000	84.977850 
1042.000000	84.834141 
1041.000000	84.685603 
1040.000000	84.528105 
1039.000000	84.370346 
1038.000000	84.224442 
1037.000000	84.096664 
1036.000000	83.987680 
1035.000000	83.893431 
1034.000000	83.805090 
1033.000000	83.715407 
1032.000000	83.623432 
1031.000000	83.526478 
1030.000000	83.415200 
1029.000000	83.290468 
1028.000000	83.178749 
1027.000000	83.111197 
1026.000000	83.087263 
1025.000000	83.075008 
1024.000000	83.048496 
1023.000000	83.008352 
1022.000000	82.964220 
1021.000000	82.917346 
1020.000000	82.866622 
1019.000000	82.815187 
1018.000000	82.763499 
1017.000000	82.707998 
1016.000000	82.651338 
1015.000000	82.602091 
1014.000000	82.561083 
1013.000000	82.520240 
1012.000000	82.477252 
1011.000000	82.438356 
1010.000000	82.404876 
1009.000000	82.371227 
1008.000000	82.338709 
1007.000000	82.316959 
1006.000000	82.308777 
1005.000000	82.307213 
1004.000000	82.309851 
1003.000000	82.321536 
1002.000000	82.340608 
1001.000000	82.357855 
1000.000000	82.372769 
999.000000	 82.395897 
998.000000	 82.430941 
997.000000	 82.468946 
996.000000	 82.504341 
995.000000	 82.542446 
994.000000	 82.586228 
993.000000	 82.629785 
992.000000	 82.670551 
991.000000	 82.715038 
990.000000	 82.766850 
989.000000	 82.820758 
988.000000	 82.873557 
987.000000	 82.929596 
986.000000	 82.991386 
985.000000	 83.055922 
984.000000	 83.123534 
983.000000	 83.199085 
982.000000	 83.282094 
981.000000	 83.366782 
980.000000	 83.453949 
979.000000	 83.551501 
978.000000	 83.660789 
977.000000	 83.774287 
976.000000	 83.888997 
975.000000	 84.010160 
974.000000	 84.139485 
973.000000	 84.272020 
972.000000	 84.407166 
971.000000	 84.550569 
970.000000	 84.702247 
969.000000	 84.854396 
968.000000	 85.003552 
967.000000	 85.153884 
966.000000	 85.306556 
965.000000	 85.457197 
964.000000	 85.605512 
963.000000	 85.755646 
962.000000	 85.905476 
961.000000	 86.047723 
960.000000	 86.183565 
959.000000	 86.322532 
958.000000	 86.466191 
957.000000	 86.604665 
956.000000	 86.733209 
955.000000	 86.860146 
954.000000	 86.993491 
953.000000	 87.129851 
952.000000	 87.261316 
951.000000	 87.384226 
950.000000	 87.497670 
949.000000	 87.602286 
948.000000	 87.703440 
947.000000	 87.806863 
946.000000	 87.908584 
945.000000	 87.997997 
944.000000	 88.072927 
943.000000	 88.142594 
942.000000	 88.213784 
941.000000	 88.283526 
940.000000	 88.348215 
939.000000	 88.410433 
938.000000	 88.473275 
937.000000	 88.536234 
936.000000	 88.599571 
935.000000	 88.665119 
934.000000	 88.731113 
933.000000	 88.794369 
932.000000	 88.858304 
931.000000	 88.929564 
930.000000	 89.005748 
929.000000	 89.076703 
928.000000	 89.139774 
927.000000	 89.203325 
926.000000	 89.272289 
925.000000	 89.340213 
924.000000	 89.399399 
923.000000	 89.450096 
922.000000	 89.495938 
921.000000	 89.538125 
920.000000	 89.577587 
919.000000	 89.615910 
918.000000	 89.651388 
917.000000	 89.680631 
916.000000	 89.706032 
915.000000	 89.735439 
914.000000	 89.773663 
913.000000	 89.820674 
912.000000	 89.877575 
911.000000	 89.946787 
910.000000	 90.027223 
909.000000	 90.117945 
908.000000	 90.225272 
907.000000	 90.356201 
906.000000	 90.505513 
905.000000	 90.659849 
904.000000	 90.814804 
903.000000	 90.977946 
902.000000	 91.155074 
901.000000	 91.343548 
900.000000	 91.538791 
899.000000	 91.737186 
898.000000	 91.932220 
897.000000	 92.117171 
896.000000	 92.291654 
895.000000	 92.458214 
894.000000	 92.615428 
893.000000	 92.763208 
892.000000	 92.910698 
891.000000	 93.067009 
890.000000	 93.226118 
889.000000	 93.372929 
888.000000	 93.502524 
887.000000	 93.621211 
886.000000	 93.730545 
885.000000	 93.824296 
884.000000	 93.901706 
883.000000	 93.969658 
882.000000	 94.029505 
881.000000	 94.075434 
880.000000	 94.109567 
879.000000	 94.145498 
878.000000	 94.192101 
877.000000	 94.246194 
876.000000	 94.305647 
875.000000	 94.376262 
874.000000	 94.460320 
873.000000	 94.551740 
872.000000	 94.649462 
871.000000	 94.763781 
870.000000	 94.901965 
869.000000	 95.056993 
868.000000	 95.216700 
867.000000	 95.376365 
866.000000	 95.537474 
865.000000	 95.700892 
864.000000	 95.865481 
863.000000	 96.028413 
862.000000	 96.185080 
861.000000	 96.334057 
860.000000	 96.482045 
859.000000	 96.636628 
858.000000	 96.793873 
857.000000	 96.941331 
856.000000	 97.073871 
855.000000	 97.197773 
854.000000	 97.317993 
853.000000	 97.430611 
852.000000	 97.530589 
851.000000	 97.618195 
850.000000	 97.694319 
849.000000	 97.757793 
848.000000	 97.811623 
847.000000	 97.864287 
846.000000	 97.919500 
845.000000	 97.970397 
844.000000	 98.008254 
843.000000	 98.031734 
842.000000	 98.044370 
841.000000	 98.048636 
840.000000	 98.046253 
839.000000	 98.039204 
838.000000	 98.026690 
837.000000	 98.005456 
836.000000	 97.975931 
835.000000	 97.943615 
834.000000	 97.912609 
833.000000	 97.883597 
832.000000	 97.860390 
831.000000	 97.850820 
830.000000	 97.856227 
829.000000	 97.866590 
828.000000	 97.872521 
827.000000	 97.877994 
826.000000	 97.895830 
825.000000	 97.933443 
824.000000	 97.986401 
823.000000	 98.041860 
822.000000	 98.085978 
821.000000	 98.113354 
820.000000	 98.131765 
819.000000	 98.153389 
818.000000	 98.179997 
817.000000	 98.200615 
816.000000	 98.203624 
815.000000	 98.185765 
814.000000	 98.148364 
813.000000	 98.090051 
812.000000	 98.005328 
811.000000	 97.886211 
810.000000	 97.724364 
809.000000	 97.516841 
808.000000	 97.271459 
807.000000	 97.001471 
806.000000	 96.713272 
805.000000	 96.405651 
804.000000	 96.083398 
803.000000	 95.763868 
802.000000	 95.466107 
801.000000	 95.201118 
800.000000	 94.976838 
799.000000	 94.803267 
798.000000	 94.686063 
797.000000	 94.621771 
796.000000	 94.603559 
795.000000	 94.624675 
794.000000	 94.673863 
793.000000	 94.736163 
792.000000	 94.801558 
791.000000	 94.865663 
790.000000	 94.921188 
789.000000	 94.957977 
788.000000	 94.972816 
787.000000	 94.969054 
786.000000	 94.943688 
785.000000	 94.884719 
784.000000	 94.785915 
783.000000	 94.656912 
782.000000	 94.516077 
781.000000	 94.381875 
780.000000	 94.273446 
779.000000	 94.207756 
778.000000	 94.189196 
777.000000	 94.209778 
776.000000	 94.263235 
775.000000	 94.349212 
774.000000	 94.460032 
773.000000	 94.575591 
772.000000	 94.679464 
771.000000	 94.772414 
770.000000	 94.863832 
769.000000	 94.956855 
768.000000	 95.047535 
767.000000	 95.131672 
766.000000	 95.205915 
765.000000	 95.266846 
764.000000	 95.314545 
763.000000	 95.354260 
762.000000	 95.391740 
761.000000	 95.430481 
760.000000	 95.474514 
759.000000	 95.527663 
758.000000	 95.587697 
757.000000	 95.647495 
756.000000	 95.704730 
755.000000	 95.764693 
754.000000	 95.831143 
753.000000	 95.900188 
752.000000	 95.965780 
751.000000	 96.025790 
750.000000	 96.080737 
749.000000	 96.132469 
748.000000	 96.185893 
747.000000	 96.245827 
746.000000	 96.310203 
745.000000	 96.372531 
744.000000	 96.432908 
743.000000	 96.499568 
742.000000	 96.576813 
741.000000	 96.658760 
740.000000	 96.739320 
739.000000	 96.821872 
738.000000	 96.913563 
737.000000	 97.013947 
736.000000	 97.114094 
735.000000	 97.205198 
734.000000	 97.284867 
733.000000	 97.356154 
732.000000	 97.422348 
731.000000	 97.482434 
730.000000	 97.531825 
729.000000	 97.568286 
728.000000	 97.598292 
727.000000	 97.633689 
726.000000	 97.679738 
725.000000	 97.731741 
724.000000	 97.783405 
723.000000	 97.833278 
722.000000	 97.883062 
721.000000	 97.934838 
720.000000	 97.990279 
719.000000	 98.046969 
718.000000	 98.095938 
717.000000	 98.130027 
716.000000	 98.153815 
715.000000	 98.179177 
714.000000	 98.211431 
713.000000	 98.245888 
712.000000	 98.278442 
711.000000	 98.310344 
710.000000	 98.341775 
709.000000	 98.368139 
708.000000	 98.385040 
707.000000	 98.393307 
706.000000	 98.392382 
705.000000	 98.376982 
704.000000	 98.345243 
703.000000	 98.300174 
702.000000	 98.240297 
701.000000	 98.154694 
700.000000	 98.030657 
699.000000	 97.866904 
698.000000	 97.676645 
697.000000	 97.485431 
696.000000	 97.328357 
695.000000	 97.236200 
694.000000	 97.220287 
693.000000	 97.269442 
692.000000	 97.360763 
691.000000	 97.475617 
690.000000	 97.603416 
689.000000	 97.736955 
688.000000	 97.866940 
687.000000	 97.979181 
686.000000	 98.063115 
685.000000	 98.121275 
684.000000	 98.165467 
683.000000	 98.206055 
682.000000	 98.246702 
681.000000	 98.288242 
680.000000	 98.330962 
679.000000	 98.373857 
678.000000	 98.415474 
677.000000	 98.453539 
676.000000	 98.491266 
675.000000	 98.535923 
674.000000	 98.590271 
673.000000	 98.652566 
672.000000	 98.729445 
671.000000	 98.837023 
670.000000	 98.986198 
669.000000	 99.146766 
668.000000	 99.217163 
667.000000	 99.166075 
666.000000	 99.096212 
665.000000	 99.060786 
664.000000	 99.057306 
663.000000	 99.082864 
662.000000	 99.128206 
661.000000	 99.172970 
660.000000	 99.205101 
659.000000	 99.231614 
658.000000	 99.257563 
657.000000	 99.271500 
656.000000	 99.270303 
655.000000	 99.272867 
654.000000	 99.291513 
653.000000	 99.317405 
652.000000	 99.345570 
651.000000	 99.380207 
650.000000	 99.409383 

