4000.000000	100.366791 
3999.000000	100.366298 
3998.000000	100.366273 
3997.000000	100.366673 
3996.000000	100.367283 
3995.000000	100.367785 
3994.000000	100.367975 
3993.000000	100.367850 
3992.000000	100.367542 
3991.000000	100.367205 
3990.000000	100.366913 
3989.000000	100.366682 
3988.000000	100.366542 
3987.000000	100.366464 
3986.000000	100.366229 
3985.000000	100.365573 
3984.000000	100.364516 
3983.000000	100.363462 
3982.000000	100.362855 
3981.000000	100.362780 
3980.000000	100.362984 
3979.000000	100.363202 
3978.000000	100.363348 
3977.000000	100.363417 
3976.000000	100.363374 
3975.000000	100.363212 
3974.000000	100.362973 
3973.000000	100.362649 
3972.000000	100.362183 
3971.000000	100.361559 
3970.000000	100.360858 
3969.000000	100.360209 
3968.000000	100.359763 
3967.000000	100.359684 
3966.000000	100.360010 
3965.000000	100.360525 
3964.000000	100.360851 
3963.000000	100.360746 
3962.000000	100.360239 
3961.000000	100.359536 
3960.000000	100.358862 
3959.000000	100.358351 
3958.000000	100.357993 
3957.000000	100.357623 
3956.000000	100.357086 
3955.000000	100.356398 
3954.000000	100.355698 
3953.000000	100.355098 
3952.000000	100.354617 
3951.000000	100.354240 
3950.000000	100.353942 
3949.000000	100.353692 
3948.000000	100.353456 
3947.000000	100.353162 
3946.000000	100.352732 
3945.000000	100.352159 
3944.000000	100.351565 
3943.000000	100.351125 
3942.000000	100.350906 
3941.000000	100.350805 
3940.000000	100.350630 
3939.000000	100.350255 
3938.000000	100.349676 
3937.000000	100.348944 
3936.000000	100.348169 
3935.000000	100.347542 
3934.000000	100.347192 
3933.000000	100.347059 
3932.000000	100.346977 
3931.000000	100.346933 
3930.000000	100.347035 
3929.000000	100.347161 
3928.000000	100.346947 
3927.000000	100.346199 
3926.000000	100.345195 
3925.000000	100.344335 
3924.000000	100.343716 
3923.000000	100.343246 
3922.000000	100.342887 
3921.000000	100.342568 
3920.000000	100.342101 
3919.000000	100.341369 
3918.000000	100.340505 
3917.000000	100.339728 
3916.000000	100.339106 
3915.000000	100.338583 
3914.000000	100.338132 
3913.000000	100.337741 
3912.000000	100.337357 
3911.000000	100.336913 
3910.000000	100.336388 
3909.000000	100.335796 
3908.000000	100.335177 
3907.000000	100.334569 
3906.000000	100.333978 
3905.000000	100.333398 
3904.000000	100.332831 
3903.000000	100.332278 
3902.000000	100.331739 
3901.000000	100.331214 
3900.000000	100.330698 
3899.000000	100.330181 
3898.000000	100.329656 
3897.000000	100.329122 
3896.000000	100.328591 
3895.000000	100.328074 
3894.000000	100.327567 
3893.000000	100.327060 
3892.000000	100.326548 
3891.000000	100.326025 
3890.000000	100.325493 
3889.000000	100.324952 
3888.000000	100.324409 
3887.000000	100.323874 
3886.000000	100.323352 
3885.000000	100.322841 
3884.000000	100.322338 
3883.000000	100.321848 
3882.000000	100.321379 
3881.000000	100.320931 
3880.000000	100.320495 
3879.000000	100.320067 
3878.000000	100.319650 
3877.000000	100.319256 
3876.000000	100.318890 
3875.000000	100.318547 
3874.000000	100.318215 
3873.000000	100.317883 
3872.000000	100.317554 
3871.000000	100.317238 
3870.000000	100.316941 
3869.000000	100.316659 
3868.000000	100.316394 
3867.000000	100.316154 
3866.000000	100.315945 
3865.000000	100.315759 
3864.000000	100.315577 
3863.000000	100.315393 
3862.000000	100.315208 
3861.000000	100.315025 
3860.000000	100.314841 
3859.000000	100.314660 
3858.000000	100.314494 
3857.000000	100.314355 
3856.000000	100.314247 
3855.000000	100.314173 
3854.000000	100.314117 
3853.000000	100.314054 
3852.000000	100.313967 
3851.000000	100.313861 
3850.000000	100.313751 
3849.000000	100.313647 
3848.000000	100.313551 
3847.000000	100.313457 
3846.000000	100.313363 
3845.000000	100.313266 
3844.000000	100.313172 
3843.000000	100.313087 
3842.000000	100.313015 
3841.000000	100.312951 
3840.000000	100.312888 
3839.000000	100.312824 
3838.000000	100.312758 
3837.000000	100.312691 
3836.000000	100.312616 
3835.000000	100.312524 
3834.000000	100.312411 
3833.000000	100.312275 
3832.000000	100.312121 
3831.000000	100.311957 
3830.000000	100.311786 
3829.000000	100.311607 
3828.000000	100.311416 
3827.000000	100.311210 
3826.000000	100.310986 
3825.000000	100.310738 
3824.000000	100.310466 
3823.000000	100.310176 
3822.000000	100.309882 
3821.000000	100.309586 
3820.000000	100.309279 
3819.000000	100.308957 
3818.000000	100.308626 
3817.000000	100.308295 
3816.000000	100.307954 
3815.000000	100.307586 
3814.000000	100.307183 
3813.000000	100.306751 
3812.000000	100.306303 
3811.000000	100.305851 
3810.000000	100.305403 
3809.000000	100.304967 
3808.000000	100.304546 
3807.000000	100.304138 
3806.000000	100.303734 
3805.000000	100.303328 
3804.000000	100.302927 
3803.000000	100.302542 
3802.000000	100.302173 
3801.000000	100.301802 
3800.000000	100.301415 
3799.000000	100.301016 
3798.000000	100.300615 
3797.000000	100.300210 
3796.000000	100.299792 
3795.000000	100.299353 
3794.000000	100.298902 
3793.000000	100.298454 
3792.000000	100.298017 
3791.000000	100.297593 
3790.000000	100.297183 
3789.000000	100.296782 
3788.000000	100.296388 
3787.000000	100.296002 
3786.000000	100.295627 
3785.000000	100.295263 
3784.000000	100.294911 
3783.000000	100.294573 
3782.000000	100.294260 
3781.000000	100.293973 
3780.000000	100.293706 
3779.000000	100.293446 
3778.000000	100.293188 
3777.000000	100.292934 
3776.000000	100.292688 
3775.000000	100.292450 
3774.000000	100.292222 
3773.000000	100.292013 
3772.000000	100.291828 
3771.000000	100.291668 
3770.000000	100.291520 
3769.000000	100.291362 
3768.000000	100.291102 
3767.000000	100.290796 
3766.000000	100.290827 
3765.000000	100.291351 
3764.000000	100.291642 
3763.000000	100.290953 
3762.000000	100.289973 
3761.000000	100.290088 
3760.000000	100.290945 
3759.000000	100.290601 
3758.000000	100.289089 
3757.000000	100.287967 
3756.000000	100.287088 
3755.000000	100.285226 
3754.000000	100.282987 
3753.000000	100.282545 
3752.000000	100.283408 
3751.000000	100.283127 
3750.000000	100.283082 
3749.000000	100.285555 
3748.000000	100.287551 
3747.000000	100.285233 
3746.000000	100.282683 
3745.000000	100.286568 
3744.000000	100.290355 
3743.000000	100.286070 
3742.000000	100.280208 
3741.000000	100.281661 
3740.000000	100.289306 
3739.000000	100.293529 
3738.000000	100.289223 
3737.000000	100.281791 
3736.000000	100.277643 
3735.000000	100.276866 
3734.000000	100.278312 
3733.000000	100.283917 
3732.000000	100.292110 
3731.000000	100.295712 
3730.000000	100.289997 
3729.000000	100.277882 
3728.000000	100.266698 
3727.000000	100.260620 
3726.000000	100.257050 
3725.000000	100.252799 
3724.000000	100.248875 
3723.000000	100.246814 
3722.000000	100.245051 
3721.000000	100.241519 
3720.000000	100.236996 
3719.000000	100.233043 
3718.000000	100.229984 
3717.000000	100.225681 
3716.000000	100.217696 
3715.000000	100.207026 
3714.000000	100.197227 
3713.000000	100.189577 
3712.000000	100.180341 
3711.000000	100.166138 
3710.000000	100.149666 
3709.000000	100.135981 
3708.000000	100.126806 
3707.000000	100.119419 
3706.000000	100.109371 
3705.000000	100.094304 
3704.000000	100.075448 
3703.000000	100.055578 
3702.000000	100.036014 
3701.000000	100.016182 
3700.000000	99.995441  
3699.000000	99.974409  
3698.000000	99.954758  
3697.000000	99.936857  
3696.000000	99.918191  
3695.000000	99.897234  
3694.000000	99.877175  
3693.000000	99.863106  
3692.000000	99.856840  
3691.000000	99.855698  
3690.000000	99.855145  
3689.000000	99.850482  
3688.000000	99.838845  
3687.000000	99.821859  
3686.000000	99.805257  
3685.000000	99.795041  
3684.000000	99.793011  
3683.000000	99.795530  
3682.000000	99.797469  
3681.000000	99.796151  
3680.000000	99.788704  
3679.000000	99.770366  
3678.000000	99.740863  
3677.000000	99.712847  
3676.000000	99.700690  
3675.000000	99.701937  
3674.000000	99.705263  
3673.000000	99.706517  
3672.000000	99.709205  
3671.000000	99.715281  
3670.000000	99.717840  
3669.000000	99.710682  
3668.000000	99.699417  
3667.000000	99.691702  
3666.000000	99.687327  
3665.000000	99.682111  
3664.000000	99.674483  
3663.000000	99.666841  
3662.000000	99.662630  
3661.000000	99.662940  
3660.000000	99.666101  
3659.000000	99.670872  
3658.000000	99.677869  
3657.000000	99.687796  
3656.000000	99.697624  
3655.000000	99.703369  
3654.000000	99.705550  
3653.000000	99.708735  
3652.000000	99.717470  
3651.000000	99.730727  
3650.000000	99.740402  
3649.000000	99.741747  
3648.000000	99.740398  
3647.000000	99.742854  
3646.000000	99.749307  
3645.000000	99.757265  
3644.000000	99.765406  
3643.000000	99.773213  
3642.000000	99.780220  
3641.000000	99.786434  
3640.000000	99.793191  
3639.000000	99.801778  
3638.000000	99.810922  
3637.000000	99.817906  
3636.000000	99.822088  
3635.000000	99.825975  
3634.000000	99.831021  
3633.000000	99.835022  
3632.000000	99.835284  
3631.000000	99.832674  
3630.000000	99.830132  
3629.000000	99.826793  
3628.000000	99.821779  
3627.000000	99.819821  
3626.000000	99.824790  
3625.000000	99.834612  
3624.000000	99.844396  
3623.000000	99.851019  
3622.000000	99.855123  
3621.000000	99.858721  
3620.000000	99.861496  
3619.000000	99.861785  
3618.000000	99.860693  
3617.000000	99.861318  
3616.000000	99.865018  
3615.000000	99.870866  
3614.000000	99.876701  
3613.000000	99.880483  
3612.000000	99.881851  
3611.000000	99.882415  
3610.000000	99.884109  
3609.000000	99.887487  
3608.000000	99.891637  
3607.000000	99.895811  
3606.000000	99.900343  
3605.000000	99.905348  
3604.000000	99.909960  
3603.000000	99.913246  
3602.000000	99.915493  
3601.000000	99.918173  
3600.000000	99.922108  
3599.000000	99.926792  
3598.000000	99.931004  
3597.000000	99.933604  
3596.000000	99.934210  
3595.000000	99.934017  
3594.000000	99.934738  
3593.000000	99.936958  
3592.000000	99.939634  
3591.000000	99.941280  
3590.000000	99.941492  
3589.000000	99.940972  
3588.000000	99.940228  
3587.000000	99.939430  
3586.000000	99.939366  
3585.000000	99.940804  
3584.000000	99.943416  
3583.000000	99.946103  
3582.000000	99.948187  
3581.000000	99.949973  
3580.000000	99.951845  
3579.000000	99.953387  
3578.000000	99.953650  
3577.000000	99.952281  
3576.000000	99.949974  
3575.000000	99.947961  
3574.000000	99.947131  
3573.000000	99.947557  
3572.000000	99.948744  
3571.000000	99.949982  
3570.000000	99.950794  
3569.000000	99.951047  
3568.000000	99.950435  
3567.000000	99.948702  
3566.000000	99.946731  
3565.000000	99.946073  
3564.000000	99.947376  
3563.000000	99.949944  
3562.000000	99.952322  
3561.000000	99.953324  
3560.000000	99.952818  
3559.000000	99.951615  
3558.000000	99.950798  
3557.000000	99.950851  
3556.000000	99.951313  
3555.000000	99.951250  
3554.000000	99.950186  
3553.000000	99.948505  
3552.000000	99.947061  
3551.000000	99.946413  
3550.000000	99.946484  
3549.000000	99.946848  
3548.000000	99.947116  
3547.000000	99.947103  
3546.000000	99.946875  
3545.000000	99.946625  
3544.000000	99.946496  
3543.000000	99.946619  
3542.000000	99.947187  
3541.000000	99.948259  
3540.000000	99.949537  
3539.000000	99.950530  
3538.000000	99.950964  
3537.000000	99.950890  
3536.000000	99.950461  
3535.000000	99.949827  
3534.000000	99.949203  
3533.000000	99.948887  
3532.000000	99.949031  
3531.000000	99.949545  
3530.000000	99.950327  
3529.000000	99.951449  
3528.000000	99.952935  
3527.000000	99.954474  
3526.000000	99.955613  
3525.000000	99.956182  
3524.000000	99.956358  
3523.000000	99.956381  
3522.000000	99.956341  
3521.000000	99.956241  
3520.000000	99.956127  
3519.000000	99.956089  
3518.000000	99.956195  
3517.000000	99.956489  
3516.000000	99.957049  
3515.000000	99.957972  
3514.000000	99.959169  
3513.000000	99.960277  
3512.000000	99.960860  
3511.000000	99.960775  
3510.000000	99.960334  
3509.000000	99.960084  
3508.000000	99.960326  
3507.000000	99.960921  
3506.000000	99.961532  
3505.000000	99.961925  
3504.000000	99.962076  
3503.000000	99.962166  
3502.000000	99.962486  
3501.000000	99.963174  
3500.000000	99.963949  
3499.000000	99.964246  
3498.000000	99.963729  
3497.000000	99.962644  
3496.000000	99.961674  
3495.000000	99.961385  
3494.000000	99.961898  
3493.000000	99.963027  
3492.000000	99.964510  
3491.000000	99.966017  
3490.000000	99.967099  
3489.000000	99.967393  
3488.000000	99.966929  
3487.000000	99.966172  
3486.000000	99.965621  
3485.000000	99.965332  
3484.000000	99.964942  
3483.000000	99.964165  
3482.000000	99.963191  
3481.000000	99.962510  
3480.000000	99.962341  
3479.000000	99.962346  
3478.000000	99.961999  
3477.000000	99.961152  
3476.000000	99.960147  
3475.000000	99.959408  
3474.000000	99.959057  
3473.000000	99.958930  
3472.000000	99.958890  
3471.000000	99.958996  
3470.000000	99.959356  
3469.000000	99.959850  
3468.000000	99.960067  
3467.000000	99.959523  
3466.000000	99.957965  
3465.000000	99.955564  
3464.000000	99.952918  
3463.000000	99.950803  
3462.000000	99.949730  
3461.000000	99.949542  
3460.000000	99.949418  
3459.000000	99.948530  
3458.000000	99.946880  
3457.000000	99.945349  
3456.000000	99.944773  
3455.000000	99.945015  
3454.000000	99.945147  
3453.000000	99.944429  
3452.000000	99.942828  
3451.000000	99.940896  
3450.000000	99.939497  
3449.000000	99.939402  
3448.000000	99.940635  
3447.000000	99.942173  
3446.000000	99.942782  
3445.000000	99.942189  
3444.000000	99.941085  
3443.000000	99.940204  
3442.000000	99.939749  
3441.000000	99.939563  
3440.000000	99.939350  
3439.000000	99.938689  
3438.000000	99.937207  
3437.000000	99.934936  
3436.000000	99.932181  
3435.000000	99.929092  
3434.000000	99.925737  
3433.000000	99.922551  
3432.000000	99.920129  
3431.000000	99.918539  
3430.000000	99.917276  
3429.000000	99.915926  
3428.000000	99.914525  
3427.000000	99.913200  
3426.000000	99.911885  
3425.000000	99.910530  
3424.000000	99.909312  
3423.000000	99.908404  
3422.000000	99.907650  
3421.000000	99.906591  
3420.000000	99.904818  
3419.000000	99.902381  
3418.000000	99.899999  
3417.000000	99.898692  
3416.000000	99.898878  
3415.000000	99.899749  
3414.000000	99.899775  
3413.000000	99.898129  
3412.000000	99.895474  
3411.000000	99.893349  
3410.000000	99.892805  
3409.000000	99.893673  
3408.000000	99.894822  
3407.000000	99.895056  
3406.000000	99.894036  
3405.000000	99.892479  
3404.000000	99.891496  
3403.000000	99.891586  
3402.000000	99.892238  
3401.000000	99.892534  
3400.000000	99.892081  
3399.000000	99.891271  
3398.000000	99.890705  
3397.000000	99.890574  
3396.000000	99.890631  
3395.000000	99.890600  
3394.000000	99.890450  
3393.000000	99.890307  
3392.000000	99.890202  
3391.000000	99.889993  
3390.000000	99.889520  
3389.000000	99.888849  
3388.000000	99.888319  
3387.000000	99.888321  
3386.000000	99.888992  
3385.000000	99.890086  
3384.000000	99.891142  
3383.000000	99.891762  
3382.000000	99.891826  
3381.000000	99.891577  
3380.000000	99.891524  
3379.000000	99.892119  
3378.000000	99.893423  
3377.000000	99.895113  
3376.000000	99.896804  
3375.000000	99.898281  
3374.000000	99.899399  
3373.000000	99.900015  
3372.000000	99.900173  
3371.000000	99.900213  
3370.000000	99.900481  
3369.000000	99.900931  
3368.000000	99.901214  
3367.000000	99.901127  
3366.000000	99.900803  
3365.000000	99.900470  
3364.000000	99.900289  
3363.000000	99.900432  
3362.000000	99.901072  
3361.000000	99.902157  
3360.000000	99.903318  
3359.000000	99.904152  
3358.000000	99.904570  
3357.000000	99.904762  
3356.000000	99.904873  
3355.000000	99.904887  
3354.000000	99.904813  
3353.000000	99.904774  
3352.000000	99.904875  
3351.000000	99.905102  
3350.000000	99.905386  
3349.000000	99.905701  
3348.000000	99.906065  
3347.000000	99.906481  
3346.000000	99.906903  
3345.000000	99.907260  
3344.000000	99.907512  
3343.000000	99.907675  
3342.000000	99.907787  
3341.000000	99.907891  
3340.000000	99.908020  
3339.000000	99.908178  
3338.000000	99.908329  
3337.000000	99.908414  
3336.000000	99.908420  
3335.000000	99.908416  
3334.000000	99.908485  
3333.000000	99.908613  
3332.000000	99.908681  
3331.000000	99.908611  
3330.000000	99.908494  
3329.000000	99.908515  
3328.000000	99.908730  
3327.000000	99.908988  
3326.000000	99.909100  
3325.000000	99.909048  
3324.000000	99.908939  
3323.000000	99.908812  
3322.000000	99.908613  
3321.000000	99.908367  
3320.000000	99.908266  
3319.000000	99.908497  
3318.000000	99.909017  
3317.000000	99.909485  
3316.000000	99.909498  
3315.000000	99.908928  
3314.000000	99.908119  
3313.000000	99.907680  
3312.000000	99.907986  
3311.000000	99.908920  
3310.000000	99.910018  
3309.000000	99.910887  
3308.000000	99.911395  
3307.000000	99.911518  
3306.000000	99.911186  
3305.000000	99.910348  
3304.000000	99.909084  
3303.000000	99.907562  
3302.000000	99.905978  
3301.000000	99.904612  
3300.000000	99.903811  
3299.000000	99.903751  
3298.000000	99.904250  
3297.000000	99.904905  
3296.000000	99.905476  
3295.000000	99.906049  
3294.000000	99.906739  
3293.000000	99.907362  
3292.000000	99.907569  
3291.000000	99.907306  
3290.000000	99.907028  
3289.000000	99.907313  
3288.000000	99.908252  
3287.000000	99.909259  
3286.000000	99.909537  
3285.000000	99.908730  
3284.000000	99.907140  
3283.000000	99.905526  
3282.000000	99.904611  
3281.000000	99.904665  
3280.000000	99.905473  
3279.000000	99.906564  
3278.000000	99.907503  
3277.000000	99.907968  
3276.000000	99.907699  
3275.000000	99.906641  
3274.000000	99.905204  
3273.000000	99.904144  
3272.000000	99.903970  
3271.000000	99.904545  
3270.000000	99.905371  
3269.000000	99.906121  
3268.000000	99.906696  
3267.000000	99.906863  
3266.000000	99.906223  
3265.000000	99.904643  
3264.000000	99.902514  
3263.000000	99.900431  
3262.000000	99.898683  
3261.000000	99.897212  
3260.000000	99.896016  
3259.000000	99.895345  
3258.000000	99.895388  
3257.000000	99.895918  
3256.000000	99.896400  
3255.000000	99.896478  
3254.000000	99.896238  
3253.000000	99.895929  
3252.000000	99.895527  
3251.000000	99.894720  
3250.000000	99.893344  
3249.000000	99.891729  
3248.000000	99.890543  
3247.000000	99.890288  
3246.000000	99.890943  
3245.000000	99.892007  
3244.000000	99.892998  
3243.000000	99.893839  
3242.000000	99.894658  
3241.000000	99.895261  
3240.000000	99.895097  
3239.000000	99.893988  
3238.000000	99.892650  
3237.000000	99.892010  
3236.000000	99.892011  
3235.000000	99.891561  
3234.000000	99.889843  
3233.000000	99.887358  
3232.000000	99.885455  
3231.000000	99.884915  
3230.000000	99.885217  
3229.000000	99.885048  
3228.000000	99.883495  
3227.000000	99.880871  
3226.000000	99.878486  
3225.000000	99.877447  
3224.000000	99.877676  
3223.000000	99.878271  
3222.000000	99.878750  
3221.000000	99.879498  
3220.000000	99.880835  
3219.000000	99.882236  
3218.000000	99.882954  
3217.000000	99.883084  
3216.000000	99.883441  
3215.000000	99.884501  
3214.000000	99.885958  
3213.000000	99.887312  
3212.000000	99.888427  
3211.000000	99.889385  
3210.000000	99.890094  
3209.000000	99.890213  
3208.000000	99.889311  
3207.000000	99.887163  
3206.000000	99.884220  
3205.000000	99.881756  
3204.000000	99.881098  
3203.000000	99.882631  
3202.000000	99.885690  
3201.000000	99.889280  
3200.000000	99.892749  
3199.000000	99.895657  
3198.000000	99.897464  
3197.000000	99.897811  
3196.000000	99.896989  
3195.000000	99.895887  
3194.000000	99.895346  
3193.000000	99.895606  
3192.000000	99.896318  
3191.000000	99.896954  
3190.000000	99.897229  
3189.000000	99.897213  
3188.000000	99.897137  
3187.000000	99.897130  
3186.000000	99.897220  
3185.000000	99.897483  
3184.000000	99.898036  
3183.000000	99.898838  
3182.000000	99.899664  
3181.000000	99.900339  
3180.000000	99.900912  
3179.000000	99.901540  
3178.000000	99.902282  
3177.000000	99.903034  
3176.000000	99.903630  
3175.000000	99.903979  
3174.000000	99.904162  
3173.000000	99.904413  
3172.000000	99.904967  
3171.000000	99.905881  
3170.000000	99.906981  
3169.000000	99.907944  
3168.000000	99.908468  
3167.000000	99.908429  
3166.000000	99.907973  
3165.000000	99.907501  
3164.000000	99.907434  
3163.000000	99.907893  
3162.000000	99.908665  
3161.000000	99.909389  
3160.000000	99.909825  
3159.000000	99.909983  
3158.000000	99.910065  
3157.000000	99.910293  
3156.000000	99.910715  
3155.000000	99.911196  
3154.000000	99.911593  
3153.000000	99.911895  
3152.000000	99.912155  
3151.000000	99.912355  
3150.000000	99.912484  
3149.000000	99.912712  
3148.000000	99.913313  
3147.000000	99.914358  
3146.000000	99.915640  
3145.000000	99.916942  
3144.000000	99.918212  
3143.000000	99.919379  
3142.000000	99.920171  
3141.000000	99.920296  
3140.000000	99.919774  
3139.000000	99.919020  
3138.000000	99.918602  
3137.000000	99.918864  
3136.000000	99.919775  
3135.000000	99.920956  
3134.000000	99.921912  
3133.000000	99.922383  
3132.000000	99.922459  
3131.000000	99.922419  
3130.000000	99.922539  
3129.000000	99.923055  
3128.000000	99.924117  
3127.000000	99.925632  
3126.000000	99.927231  
3125.000000	99.928523  
3124.000000	99.929369  
3123.000000	99.929900  
3122.000000	99.930380  
3121.000000	99.931030  
3120.000000	99.931866  
3119.000000	99.932616  
3118.000000	99.932961  
3117.000000	99.932902  
3116.000000	99.932780  
3115.000000	99.932859  
3114.000000	99.933137  
3113.000000	99.933631  
3112.000000	99.934480  
3111.000000	99.935570  
3110.000000	99.936322  
3109.000000	99.936192  
3108.000000	99.935218  
3107.000000	99.933924  
3106.000000	99.932854  
3105.000000	99.932366  
3104.000000	99.932618  
3103.000000	99.933411  
3102.000000	99.934219  
3101.000000	99.934613  
3100.000000	99.934521  
3099.000000	99.933938  
3098.000000	99.932813  
3097.000000	99.931622  
3096.000000	99.931533  
3095.000000	99.933233  
3094.000000	99.935789  
3093.000000	99.937439  
3092.000000	99.937346  
3091.000000	99.935862  
3090.000000	99.933620  
3089.000000	99.931425  
3088.000000	99.930711  
3087.000000	99.932659  
3086.000000	99.936591  
3085.000000	99.940313  
3084.000000	99.942440  
3083.000000	99.943447  
3082.000000	99.944222  
3081.000000	99.944675  
3080.000000	99.944366  
3079.000000	99.943697  
3078.000000	99.943608  
3077.000000	99.944383  
3076.000000	99.945258  
3075.000000	99.945079  
3074.000000	99.943241  
3073.000000	99.940314  
3072.000000	99.937782  
3071.000000	99.936798  
3070.000000	99.937127  
3069.000000	99.937569  
3068.000000	99.937288  
3067.000000	99.936187  
3066.000000	99.934194  
3065.000000	99.931065  
3064.000000	99.927229  
3063.000000	99.924125  
3062.000000	99.923097  
3061.000000	99.924162  
3060.000000	99.926073  
3059.000000	99.927332  
3058.000000	99.927098  
3057.000000	99.925643  
3056.000000	99.924055  
3055.000000	99.922951  
3054.000000	99.921334  
3053.000000	99.917570  
3052.000000	99.911815  
3051.000000	99.906493  
3050.000000	99.903434  
3049.000000	99.901257  
3048.000000	99.897019  
3047.000000	99.890070  
3046.000000	99.882589  
3045.000000	99.876031  
3044.000000	99.868672  
3043.000000	99.857879  
3042.000000	99.843786  
3041.000000	99.829248  
3040.000000	99.816315  
3039.000000	99.804104  
3038.000000	99.790655  
3037.000000	99.775748  
3036.000000	99.760786  
3035.000000	99.746444  
3034.000000	99.731509  
3033.000000	99.713867  
3032.000000	99.692103  
3031.000000	99.666420  
3030.000000	99.638186  
3029.000000	99.609060  
3028.000000	99.580825  
3027.000000	99.554917  
3026.000000	99.531213  
3025.000000	99.507647  
3024.000000	99.481597  
3023.000000	99.451787  
3022.000000	99.418933  
3021.000000	99.384995  
3020.000000	99.351966  
3019.000000	99.320664  
3018.000000	99.289747  
3017.000000	99.255831  
3016.000000	99.215624  
3015.000000	99.168847  
3014.000000	99.119147  
3013.000000	99.071741  
3012.000000	99.029664  
3011.000000	98.991795  
3010.000000	98.954082  
3009.000000	98.912904  
3008.000000	98.867910  
3007.000000	98.822013  
3006.000000	98.778513  
3005.000000	98.738039  
3004.000000	98.698298  
3003.000000	98.656601  
3002.000000	98.612321  
3001.000000	98.567071  
3000.000000	98.523112  
2999.000000	98.481956  
2998.000000	98.444319  
2997.000000	98.411145  
2996.000000	98.383725  
2995.000000	98.360680  
2994.000000	98.333644  
2993.000000	98.288688  
2992.000000	98.217389  
2991.000000	98.128953  
2990.000000	98.048576  
2989.000000	97.999905  
2988.000000	97.989090  
2987.000000	98.005361  
2986.000000	98.033318  
2985.000000	98.062338  
2984.000000	98.086406  
2983.000000	98.101485  
2982.000000	98.106544  
2981.000000	98.104574  
2980.000000	98.099682  
2979.000000	98.093863  
2978.000000	98.087727  
2977.000000	98.082418  
2976.000000	98.078613  
2975.000000	98.074826  
2974.000000	98.069406  
2973.000000	98.064227  
2972.000000	98.064466  
2971.000000	98.074360  
2970.000000	98.094415  
2969.000000	98.122661  
2968.000000	98.156941  
2967.000000	98.195297  
2966.000000	98.235320  
2965.000000	98.274398  
2964.000000	98.310631  
2963.000000	98.343104  
2962.000000	98.371533  
2961.000000	98.396086  
2960.000000	98.417632  
2959.000000	98.437998  
2958.000000	98.459612  
2957.000000	98.484177  
2956.000000	98.511177  
2955.000000	98.537966  
2954.000000	98.562028  
2953.000000	98.583378  
2952.000000	98.604483  
2951.000000	98.627673  
2950.000000	98.652523  
2949.000000	98.675574  
2948.000000	98.692609  
2947.000000	98.701717  
2946.000000	98.705128  
2945.000000	98.708139  
2944.000000	98.715366  
2943.000000	98.727987  
2942.000000	98.744437  
2941.000000	98.762608  
2940.000000	98.780773  
2939.000000	98.797243  
2938.000000	98.810394  
2937.000000	98.819634  
2936.000000	98.826240  
2935.000000	98.832888  
2934.000000	98.841847  
2933.000000	98.853058  
2932.000000	98.863782  
2931.000000	98.870636  
2930.000000	98.872409  
2929.000000	98.870834  
2928.000000	98.868589  
2927.000000	98.866797  
2926.000000	98.864431  
2925.000000	98.859511  
2924.000000	98.850662  
2923.000000	98.838194  
2922.000000	98.824129  
2921.000000	98.810713  
2920.000000	98.798557  
2919.000000	98.786591  
2918.000000	98.773663  
2917.000000	98.759030  
2916.000000	98.740919  
2915.000000	98.716402  
2914.000000	98.684653  
2913.000000	98.650075  
2912.000000	98.620394  
2911.000000	98.600677  
2910.000000	98.589654  
2909.000000	98.582006  
2908.000000	98.573433  
2907.000000	98.562536  
2906.000000	98.547880  
2905.000000	98.525256  
2904.000000	98.490779  
2903.000000	98.448691  
2902.000000	98.414448  
2901.000000	98.406014  
2900.000000	98.430093  
2899.000000	98.476286  
2898.000000	98.524653  
2897.000000	98.559758  
2896.000000	98.578174  
2895.000000	98.585439  
2894.000000	98.589312  
2893.000000	98.595347  
2892.000000	98.605376  
2891.000000	98.617743  
2890.000000	98.629242  
2889.000000	98.637815  
2888.000000	98.643620  
2887.000000	98.648036  
2886.000000	98.652703  
2885.000000	98.659765  
2884.000000	98.671964  
2883.000000	98.691318  
2882.000000	98.717534  
2881.000000	98.747983  
2880.000000	98.779437  
2879.000000	98.810079  
2878.000000	98.839904  
2877.000000	98.869199  
2876.000000	98.896902  
2875.000000	98.921141  
2874.000000	98.941526  
2873.000000	98.959994  
2872.000000	98.978707  
2871.000000	98.997795  
2870.000000	99.016237  
2869.000000	99.034471  
2868.000000	99.054847  
2867.000000	99.079351  
2866.000000	99.107876  
2865.000000	99.139011  
2864.000000	99.171711  
2863.000000	99.205762  
2862.000000	99.241108  
2861.000000	99.277292  
2860.000000	99.313699  
2859.000000	99.350225  
2858.000000	99.387373  
2857.000000	99.425163  
2856.000000	99.461694  
2855.000000	99.493366  
2854.000000	99.517507  
2853.000000	99.534516  
2852.000000	99.546606  
2851.000000	99.555472  
2850.000000	99.562347  
2849.000000	99.569133  
2848.000000	99.577589  
2847.000000	99.587489  
2846.000000	99.596925  
2845.000000	99.604477  
2844.000000	99.610150  
2843.000000	99.614620  
2842.000000	99.618793  
2841.000000	99.623831  
2840.000000	99.630192  
2839.000000	99.636699  
2838.000000	99.641946  
2837.000000	99.646725  
2836.000000	99.653519  
2835.000000	99.663190  
2834.000000	99.673456  
2833.000000	99.681230  
2832.000000	99.685612  
2831.000000	99.688237  
2830.000000	99.691663  
2829.000000	99.697610  
2828.000000	99.705679  
2827.000000	99.713334  
2826.000000	99.717985  
2825.000000	99.719498  
2824.000000	99.720005  
2823.000000	99.721293  
2822.000000	99.723478  
2821.000000	99.726229  
2820.000000	99.729781  
2819.000000	99.734136  
2818.000000	99.738581  
2817.000000	99.742735  
2816.000000	99.746931  
2815.000000	99.750850  
2814.000000	99.753021  
2813.000000	99.752740  
2812.000000	99.751606  
2811.000000	99.751997  
2810.000000	99.754510  
2809.000000	99.757908  
2808.000000	99.761086  
2807.000000	99.764033  
2806.000000	99.767052  
2805.000000	99.769978  
2804.000000	99.772315  
2803.000000	99.773680  
2802.000000	99.774098  
2801.000000	99.774090  
2800.000000	99.774308  
2799.000000	99.774904  
2798.000000	99.775526  
2797.000000	99.776128  
2796.000000	99.777425  
2795.000000	99.780177  
2794.000000	99.784111  
2793.000000	99.787795  
2792.000000	99.789652  
2791.000000	99.789201  
2790.000000	99.787497  
2789.000000	99.786372  
2788.000000	99.786931  
2787.000000	99.788829  
2786.000000	99.791069  
2785.000000	99.793164  
2784.000000	99.795231  
2783.000000	99.797291  
2782.000000	99.799114  
2781.000000	99.800613  
2780.000000	99.801854  
2779.000000	99.802727  
2778.000000	99.803153  
2777.000000	99.803551  
2776.000000	99.804526  
2775.000000	99.806003  
2774.000000	99.807241  
2773.000000	99.807837  
2772.000000	99.808199  
2771.000000	99.808874  
2770.000000	99.809878  
2769.000000	99.810926  
2768.000000	99.811929  
2767.000000	99.812920  
2766.000000	99.813770  
2765.000000	99.814296  
2764.000000	99.814546  
2763.000000	99.814748  
2762.000000	99.815087  
2761.000000	99.815691  
2760.000000	99.816710  
2759.000000	99.818172  
2758.000000	99.819877  
2757.000000	99.821583  
2756.000000	99.823236  
2755.000000	99.824843  
2754.000000	99.826242  
2753.000000	99.827210  
2752.000000	99.827761  
2751.000000	99.828170  
2750.000000	99.828742  
2749.000000	99.829643  
2748.000000	99.830804  
2747.000000	99.831902  
2746.000000	99.832608  
2745.000000	99.833025  
2744.000000	99.833662  
2743.000000	99.834816  
2742.000000	99.836216  
2741.000000	99.837446  
2740.000000	99.838498  
2739.000000	99.839623  
2738.000000	99.840826  
2737.000000	99.841856  
2736.000000	99.842570  
2735.000000	99.843014  
2734.000000	99.843269  
2733.000000	99.843566  
2732.000000	99.844412  
2731.000000	99.846209  
2730.000000	99.848668  
2729.000000	99.850937  
2728.000000	99.852505  
2727.000000	99.853690  
2726.000000	99.855144  
2725.000000	99.857085  
2724.000000	99.859162  
2723.000000	99.860835  
2722.000000	99.861665  
2721.000000	99.861435  
2720.000000	99.860403  
2719.000000	99.859366  
2718.000000	99.859162  
2717.000000	99.859942  
2716.000000	99.861026  
2715.000000	99.861618  
2714.000000	99.861598  
2713.000000	99.861497  
2712.000000	99.861800  
2711.000000	99.862522  
2710.000000	99.863439  
2709.000000	99.864416  
2708.000000	99.865402  
2707.000000	99.866330  
2706.000000	99.867206  
2705.000000	99.868094  
2704.000000	99.868886  
2703.000000	99.869306  
2702.000000	99.869340  
2701.000000	99.869430  
2700.000000	99.869946  
2699.000000	99.870655  
2698.000000	99.871028  
2697.000000	99.870899  
2696.000000	99.870472  
2695.000000	99.869826  
2694.000000	99.868864  
2693.000000	99.867784  
2692.000000	99.867121  
2691.000000	99.867191  
2690.000000	99.867829  
2689.000000	99.868764  
2688.000000	99.869927  
2687.000000	99.871189  
2686.000000	99.872141  
2685.000000	99.872448  
2684.000000	99.872238  
2683.000000	99.871875  
2682.000000	99.871457  
2681.000000	99.870838  
2680.000000	99.870108  
2679.000000	99.869745  
2678.000000	99.870148  
2677.000000	99.871147  
2676.000000	99.872030  
2675.000000	99.872164  
2674.000000	99.871549  
2673.000000	99.870780  
2672.000000	99.870474  
2671.000000	99.870784  
2670.000000	99.871441  
2669.000000	99.872053  
2668.000000	99.872258  
2667.000000	99.871734  
2666.000000	99.870352  
2665.000000	99.868421  
2664.000000	99.866613  
2663.000000	99.865483  
2662.000000	99.865065  
2661.000000	99.864953  
2660.000000	99.864739  
2659.000000	99.864409  
2658.000000	99.864290  
2657.000000	99.864629  
2656.000000	99.865293  
2655.000000	99.865990  
2654.000000	99.866677  
2653.000000	99.867470  
2652.000000	99.868111  
2651.000000	99.867975  
2650.000000	99.866873  
2649.000000	99.865473  
2648.000000	99.864516  
2647.000000	99.863898  
2646.000000	99.863073  
2645.000000	99.862123  
2644.000000	99.861718  
2643.000000	99.861986  
2642.000000	99.862095  
2641.000000	99.861196  
2640.000000	99.859344  
2639.000000	99.857306  
2638.000000	99.855841  
2637.000000	99.855306  
2636.000000	99.855573  
2635.000000	99.856051  
2634.000000	99.856198  
2633.000000	99.856231  
2632.000000	99.856883  
2631.000000	99.858368  
2630.000000	99.860048  
2629.000000	99.861163  
2628.000000	99.861466  
2627.000000	99.861010  
2626.000000	99.859895  
2625.000000	99.858527  
2624.000000	99.857618  
2623.000000	99.857494  
2622.000000	99.857726  
2621.000000	99.857746  
2620.000000	99.857564  
2619.000000	99.857566  
2618.000000	99.857877  
2617.000000	99.858290  
2616.000000	99.858626  
2615.000000	99.858866  
2614.000000	99.858979  
2613.000000	99.858883  
2612.000000	99.858515  
2611.000000	99.857858  
2610.000000	99.857007  
2609.000000	99.856282  
2608.000000	99.856052  
2607.000000	99.856353  
2606.000000	99.856828  
2605.000000	99.857106  
2604.000000	99.857141  
2603.000000	99.857079  
2602.000000	99.857020  
2601.000000	99.857026  
2600.000000	99.857131  
2599.000000	99.857242  
2598.000000	99.857213  
2597.000000	99.857118  
2596.000000	99.857227  
2595.000000	99.857633  
2594.000000	99.858126  
2593.000000	99.858486  
2592.000000	99.858719  
2591.000000	99.858872  
2590.000000	99.858823  
2589.000000	99.858427  
2588.000000	99.857792  
2587.000000	99.857262  
2586.000000	99.857101  
2585.000000	99.857376  
2584.000000	99.858064  
2583.000000	99.859016  
2582.000000	99.859876  
2581.000000	99.860360  
2580.000000	99.860584  
2579.000000	99.860816  
2578.000000	99.860943  
2577.000000	99.860657  
2576.000000	99.860143  
2575.000000	99.860048  
2574.000000	99.860623  
2573.000000	99.861350  
2572.000000	99.861575  
2571.000000	99.861192  
2570.000000	99.860566  
2569.000000	99.860043  
2568.000000	99.859678  
2567.000000	99.859273  
2566.000000	99.858569  
2565.000000	99.857630  
2564.000000	99.857024  
2563.000000	99.857257  
2562.000000	99.857963  
2561.000000	99.858160  
2560.000000	99.857563  
2559.000000	99.857053  
2558.000000	99.857522  
2557.000000	99.858838  
2556.000000	99.860165  
2555.000000	99.860860  
2554.000000	99.860827  
2553.000000	99.860431  
2552.000000	99.860367  
2551.000000	99.861267  
2550.000000	99.863086  
2549.000000	99.865015  
2548.000000	99.866186  
2547.000000	99.866257  
2546.000000	99.865284  
2545.000000	99.863444  
2544.000000	99.861116  
2543.000000	99.858929  
2542.000000	99.857347  
2541.000000	99.856291  
2540.000000	99.855393  
2539.000000	99.854557  
2538.000000	99.854095  
2537.000000	99.854270  
2536.000000	99.854819  
2535.000000	99.855024  
2534.000000	99.854339  
2533.000000	99.852909  
2532.000000	99.851295  
2531.000000	99.849807  
2530.000000	99.848494  
2529.000000	99.847828  
2528.000000	99.848724  
2527.000000	99.851458  
2526.000000	99.854935  
2525.000000	99.857617  
2524.000000	99.859170  
2523.000000	99.860501  
2522.000000	99.862089  
2521.000000	99.862916  
2520.000000	99.861614  
2519.000000	99.858228  
2518.000000	99.854499  
2517.000000	99.852384  
2516.000000	99.852350  
2515.000000	99.853299  
2514.000000	99.853725  
2513.000000	99.852980  
2512.000000	99.851467  
2511.000000	99.849924  
2510.000000	99.848743  
2509.000000	99.847956  
2508.000000	99.847525  
2507.000000	99.847397  
2506.000000	99.847376  
2505.000000	99.847180  
2504.000000	99.846687  
2503.000000	99.846034  
2502.000000	99.845513  
2501.000000	99.845388  
2500.000000	99.845789  
2499.000000	99.846631  
2498.000000	99.847579  
2497.000000	99.848150  
2496.000000	99.847979  
2495.000000	99.847094  
2494.000000	99.846010  
2493.000000	99.845413  
2492.000000	99.845597  
2491.000000	99.846261  
2490.000000	99.846819  
2489.000000	99.846943  
2488.000000	99.846727  
2487.000000	99.846416  
2486.000000	99.846150  
2485.000000	99.845935  
2484.000000	99.845725  
2483.000000	99.845504  
2482.000000	99.845306  
2481.000000	99.845198  
2480.000000	99.845178  
2479.000000	99.845142  
2478.000000	99.844975  
2477.000000	99.844638  
2476.000000	99.844147  
2475.000000	99.843487  
2474.000000	99.842692  
2473.000000	99.841984  
2472.000000	99.841588  
2471.000000	99.841484  
2470.000000	99.841494  
2469.000000	99.841611  
2468.000000	99.841980  
2467.000000	99.842530  
2466.000000	99.842908  
2465.000000	99.842874  
2464.000000	99.842537  
2463.000000	99.842135  
2462.000000	99.841769  
2461.000000	99.841486  
2460.000000	99.841424  
2459.000000	99.841667  
2458.000000	99.842021  
2457.000000	99.842115  
2456.000000	99.841729  
2455.000000	99.840926  
2454.000000	99.840006  
2453.000000	99.839392  
2452.000000	99.839363  
2451.000000	99.839758  
2450.000000	99.839967  
2449.000000	99.839526  
2448.000000	99.838614  
2447.000000	99.837788  
2446.000000	99.837257  
2445.000000	99.836703  
2444.000000	99.835832  
2443.000000	99.834803  
2442.000000	99.834034  
2441.000000	99.833746  
2440.000000	99.833804  
2439.000000	99.833859  
2438.000000	99.833602  
2437.000000	99.833003  
2436.000000	99.832366  
2435.000000	99.832058  
2434.000000	99.832145  
2433.000000	99.832352  
2432.000000	99.832398  
2431.000000	99.832277  
2430.000000	99.832171  
2429.000000	99.832204  
2428.000000	99.832318  
2427.000000	99.832338  
2426.000000	99.832128  
2425.000000	99.831724  
2424.000000	99.831342  
2423.000000	99.831157  
2422.000000	99.831076  
2421.000000	99.830833  
2420.000000	99.830361  
2419.000000	99.829945  
2418.000000	99.829966  
2417.000000	99.830482  
2416.000000	99.831086  
2415.000000	99.831210  
2414.000000	99.830623  
2413.000000	99.829632  
2412.000000	99.828683  
2411.000000	99.827909  
2410.000000	99.827277  
2409.000000	99.826909  
2408.000000	99.826818  
2407.000000	99.826547  
2406.000000	99.825686  
2405.000000	99.824715  
2404.000000	99.824532  
2403.000000	99.825101  
2402.000000	99.825366  
2401.000000	99.824778  
2400.000000	99.824108  
2399.000000	99.824316  
2398.000000	99.825378  
2397.000000	99.826713  
2396.000000	99.828015  
2395.000000	99.829015  
2394.000000	99.829033  
2393.000000	99.827791  
2392.000000	99.826265  
2391.000000	99.825776  
2390.000000	99.826327  
2389.000000	99.826569  
2388.000000	99.825462  
2387.000000	99.823138  
2386.000000	99.820348  
2385.000000	99.817718  
2384.000000	99.815795  
2383.000000	99.815089  
2382.000000	99.815743  
2381.000000	99.817423  
2380.000000	99.819654  
2379.000000	99.822098  
2378.000000	99.824476  
2377.000000	99.826381  
2376.000000	99.827257  
2375.000000	99.826657  
2374.000000	99.824722  
2373.000000	99.822313  
2372.000000	99.820388  
2371.000000	99.819174  
2370.000000	99.818250  
2369.000000	99.817317  
2368.000000	99.816485  
2367.000000	99.815918  
2366.000000	99.815634  
2365.000000	99.815501  
2364.000000	99.815091  
2363.000000	99.813757  
2362.000000	99.811282  
2361.000000	99.808532  
2360.000000	99.806628  
2359.000000	99.805597  
2358.000000	99.804864  
2357.000000	99.804234  
2356.000000	99.803936  
2355.000000	99.803826  
2354.000000	99.804381  
2353.000000	99.805595  
2352.000000	99.805912  
2351.000000	99.803923  
2350.000000	99.799904  
2349.000000	99.795551  
2348.000000	99.792471  
2347.000000	99.791943  
2346.000000	99.793792  
2345.000000	99.795026  
2344.000000	99.793159  
2343.000000	99.788768  
2342.000000	99.784928  
2341.000000	99.782960  
2340.000000	99.781994  
2339.000000	99.781021  
2338.000000	99.780438  
2337.000000	99.781013  
2336.000000	99.780926  
2335.000000	99.778266  
2334.000000	99.773762  
2333.000000	99.770780  
2332.000000	99.769370  
2331.000000	99.768285  
2330.000000	99.766177  
2329.000000	99.764265  
2328.000000	99.760968  
2327.000000	99.755319  
2326.000000	99.748144  
2325.000000	99.742551  
2324.000000	99.740096  
2323.000000	99.740147  
2322.000000	99.741475  
2321.000000	99.743425  
2320.000000	99.745142  
2319.000000	99.746840  
2318.000000	99.748603  
2317.000000	99.752018  
2316.000000	99.757073  
2315.000000	99.763909  
2314.000000	99.770262  
2313.000000	99.774697  
2312.000000	99.775639  
2311.000000	99.774579  
2310.000000	99.773058  
2309.000000	99.772348  
2308.000000	99.771595  
2307.000000	99.770979  
2306.000000	99.771070  
2305.000000	99.772426  
2304.000000	99.773716  
2303.000000	99.774053  
2302.000000	99.773313  
2301.000000	99.772544  
2300.000000	99.771979  
2299.000000	99.772260  
2298.000000	99.773887  
2297.000000	99.777300  
2296.000000	99.780955  
2295.000000	99.782896  
2294.000000	99.782441  
2293.000000	99.781241  
2292.000000	99.781208  
2291.000000	99.782715  
2290.000000	99.784622  
2289.000000	99.785795  
2288.000000	99.786157  
2287.000000	99.786474  
2286.000000	99.787531  
2285.000000	99.789295  
2284.000000	99.791094  
2283.000000	99.792454  
2282.000000	99.793584  
2281.000000	99.794749  
2280.000000	99.795914  
2279.000000	99.797076  
2278.000000	99.798240  
2277.000000	99.799404  
2276.000000	99.800567  
2275.000000	99.801725  
2274.000000	99.802882  
2273.000000	99.804047  
2272.000000	99.805231  
2271.000000	99.806442  
2270.000000	99.807684  
2269.000000	99.808961  
2268.000000	99.810276  
2267.000000	99.811629  
2266.000000	99.813017  
2265.000000	99.814426  
2264.000000	99.815840  
2263.000000	99.817241  
2262.000000	99.818624  
2261.000000	99.819992  
2260.000000	99.821355  
2259.000000	99.822720  
2258.000000	99.824090  
2257.000000	99.825465  
2256.000000	99.826844  
2255.000000	99.828221  
2254.000000	99.829593  
2253.000000	99.830961  
2252.000000	99.832333  
2251.000000	99.833720  
2250.000000	99.835120  
2249.000000	99.836538  
2248.000000	99.837971  
2247.000000	99.839389  
2246.000000	99.840764  
2245.000000	99.842104  
2244.000000	99.843437  
2243.000000	99.844744  
2242.000000	99.845989  
2241.000000	99.847241  
2240.000000	99.848669  
2239.000000	99.850314  
2238.000000	99.851988  
2237.000000	99.853489  
2236.000000	99.854789  
2235.000000	99.856008  
2234.000000	99.857264  
2233.000000	99.858621  
2232.000000	99.860062  
2231.000000	99.861502  
2230.000000	99.862890  
2229.000000	99.864263  
2228.000000	99.865664  
2227.000000	99.867028  
2226.000000	99.868255  
2225.000000	99.869354  
2224.000000	99.870411  
2223.000000	99.871491  
2222.000000	99.872630  
2221.000000	99.873865  
2220.000000	99.875200  
2219.000000	99.876587  
2218.000000	99.877970  
2217.000000	99.879347  
2216.000000	99.880750  
2215.000000	99.882201  
2214.000000	99.883689  
2213.000000	99.885192  
2212.000000	99.886700  
2211.000000	99.888210  
2210.000000	99.889720  
2209.000000	99.891230  
2208.000000	99.892744  
2207.000000	99.894271  
2206.000000	99.895825  
2205.000000	99.897423  
2204.000000	99.899081  
2203.000000	99.900809  
2202.000000	99.902614  
2201.000000	99.904491  
2200.000000	99.906458  
2199.000000	99.908674  
2198.000000	99.911151  
2197.000000	99.913306  
2196.000000	99.914376  
2195.000000	99.914668  
2194.000000	99.915731  
2193.000000	99.918719  
2192.000000	99.922950  
2191.000000	99.926412  
2190.000000	99.927737  
2189.000000	99.927493  
2188.000000	99.927669  
2187.000000	99.929781  
2186.000000	99.933558  
2185.000000	99.937698  
2184.000000	99.941537  
2183.000000	99.945230  
2182.000000	99.948534  
2181.000000	99.950480  
2180.000000	99.950600  
2179.000000	99.949858  
2178.000000	99.950159  
2177.000000	99.952986  
2176.000000	99.958013  
2175.000000	99.962765  
2174.000000	99.964228  
2173.000000	99.961311  
2172.000000	99.955505  
2171.000000	99.949384  
2170.000000	99.945311  
2169.000000	99.945355  
2168.000000	99.950623  
2167.000000	99.959820  
2166.000000	99.969575  
2165.000000	99.977278  
2164.000000	99.983033  
2163.000000	99.988560  
2162.000000	99.995418  
2161.000000	100.004216 
2160.000000	100.013340 
2159.000000	100.018195 
2158.000000	100.015037 
2157.000000	100.006516 
2156.000000	100.000128 
2155.000000	99.999844  
2154.000000	100.002371 
2153.000000	100.001759 
2152.000000	99.994472  
2151.000000	99.980154  
2150.000000	99.961713  
2149.000000	99.945773  
2148.000000	99.939048  
2147.000000	99.941962  
2146.000000	99.947928  
2145.000000	99.950672  
2144.000000	99.950188  
2143.000000	99.949160  
2142.000000	99.946731  
2141.000000	99.939902  
2140.000000	99.929654  
2139.000000	99.921412  
2138.000000	99.918811  
2137.000000	99.919691  
2136.000000	99.918928  
2135.000000	99.913485  
2134.000000	99.904016  
2133.000000	99.893319  
2132.000000	99.884320  
2131.000000	99.878698  
2130.000000	99.876225  
2129.000000	99.875138  
2128.000000	99.873493  
2127.000000	99.870662  
2126.000000	99.867850  
2125.000000	99.866978  
2124.000000	99.868497  
2123.000000	99.870243  
2122.000000	99.869077  
2121.000000	99.864020  
2120.000000	99.857131  
2119.000000	99.851109  
2118.000000	99.846776  
2117.000000	99.843366  
2116.000000	99.840392  
2115.000000	99.838292  
2114.000000	99.837481  
2113.000000	99.837549  
2112.000000	99.837341  
2111.000000	99.835749  
2110.000000	99.832865  
2109.000000	99.830509  
2108.000000	99.830963  
2107.000000	99.834549  
2106.000000	99.838700  
2105.000000	99.840161  
2104.000000	99.838355  
2103.000000	99.835692  
2102.000000	99.834817  
2101.000000	99.836307  
2100.000000	99.838922  
2099.000000	99.841120  
2098.000000	99.841995  
2097.000000	99.841474  
2096.000000	99.840374  
2095.000000	99.840133  
2094.000000	99.841717  
2093.000000	99.844552  
2092.000000	99.846876  
2091.000000	99.847534  
2090.000000	99.847196  
2089.000000	99.847477  
2088.000000	99.848923  
2087.000000	99.850459  
2086.000000	99.850962  
2085.000000	99.850824  
2084.000000	99.851585  
2083.000000	99.854209  
2082.000000	99.858165  
2081.000000	99.861931  
2080.000000	99.864178  
2079.000000	99.864457  
2078.000000	99.863240  
2077.000000	99.861650  
2076.000000	99.860748  
2075.000000	99.860904  
2074.000000	99.862047  
2073.000000	99.864319  
2072.000000	99.867970  
2071.000000	99.872539  
2070.000000	99.876716  
2069.000000	99.879539  
2068.000000	99.881412  
2067.000000	99.883474  
2066.000000	99.886116  
2065.000000	99.888559  
2064.000000	99.889883  
2063.000000	99.889994  
2062.000000	99.889591  
2061.000000	99.889392  
2060.000000	99.889434  
2059.000000	99.889335  
2058.000000	99.889357  
2057.000000	99.890878  
2056.000000	99.895133  
2055.000000	99.901598  
2054.000000	99.908285  
2053.000000	99.913683  
2052.000000	99.917520  
2051.000000	99.919712  
2050.000000	99.919974  
2049.000000	99.919131  
2048.000000	99.919653  
2047.000000	99.923406  
2046.000000	99.929602  
2045.000000	99.935773  
2044.000000	99.940281  
2043.000000	99.943076  
2042.000000	99.944696  
2041.000000	99.945637  
2040.000000	99.946317  
2039.000000	99.946695  
2038.000000	99.946130  
2037.000000	99.944404  
2036.000000	99.942602  
2035.000000	99.942186  
2034.000000	99.943435  
2033.000000	99.945471  
2032.000000	99.947672  
2031.000000	99.950505  
2030.000000	99.954676  
2029.000000	99.959482  
2028.000000	99.962487  
2027.000000	99.961674  
2026.000000	99.958350  
2025.000000	99.957117  
2024.000000	99.961534  
2023.000000	99.970261  
2022.000000	99.978156  
2021.000000	99.981181  
2020.000000	99.978914  
2019.000000	99.973077  
2018.000000	99.965963  
2017.000000	99.960252  
2016.000000	99.957820  
2015.000000	99.957723  
2014.000000	99.956894  
2013.000000	99.953464  
2012.000000	99.948457  
2011.000000	99.944117  
2010.000000	99.941844  
2009.000000	99.941967  
2008.000000	99.943842  
2007.000000	99.945406  
2006.000000	99.944214  
2005.000000	99.939908  
2004.000000	99.934709  
2003.000000	99.931054  
2002.000000	99.929706  
2001.000000	99.930530  
2000.000000	99.933298  
1999.000000	99.937076  
1998.000000	99.939982  
1997.000000	99.940502  
1996.000000	99.938747  
1995.000000	99.936031  
1994.000000	99.933717  
1993.000000	99.932599  
1992.000000	99.932475  
1991.000000	99.931933  
1990.000000	99.929586  
1989.000000	99.926059  
1988.000000	99.923867  
1987.000000	99.924700  
1986.000000	99.927567  
1985.000000	99.929992  
1984.000000	99.930454  
1983.000000	99.929206  
1982.000000	99.927495  
1981.000000	99.926884  
1980.000000	99.928318  
1979.000000	99.930936  
1978.000000	99.932289  
1977.000000	99.930822  
1976.000000	99.927923  
1975.000000	99.926535  
1974.000000	99.927881  
1973.000000	99.930213  
1972.000000	99.930532  
1971.000000	99.927033  
1970.000000	99.920311  
1969.000000	99.912995  
1968.000000	99.907584  
1967.000000	99.904303  
1966.000000	99.901732  
1965.000000	99.899580  
1964.000000	99.899564  
1963.000000	99.902917  
1962.000000	99.908050  
1961.000000	99.911611  
1960.000000	99.911566  
1959.000000	99.908496  
1958.000000	99.904418  
1957.000000	99.900898  
1956.000000	99.898024  
1955.000000	99.894766  
1954.000000	99.890485  
1953.000000	99.885916  
1952.000000	99.882372  
1951.000000	99.879940  
1950.000000	99.876997  
1949.000000	99.871831  
1948.000000	99.864158  
1947.000000	99.855255  
1946.000000	99.847203  
1945.000000	99.841557  
1944.000000	99.838084  
1943.000000	99.834947  
1942.000000	99.830922  
1941.000000	99.826993  
1940.000000	99.824810  
1939.000000	99.824640  
1938.000000	99.825665  
1937.000000	99.827074  
1936.000000	99.827931  
1935.000000	99.826805  
1934.000000	99.822947  
1933.000000	99.817560  
1932.000000	99.813034  
1931.000000	99.810533  
1930.000000	99.809023  
1929.000000	99.806834  
1928.000000	99.803010  
1927.000000	99.797934  
1926.000000	99.793012  
1925.000000	99.789558  
1924.000000	99.787380  
1923.000000	99.784613  
1922.000000	99.780130  
1921.000000	99.775396  
1920.000000	99.772612  
1919.000000	99.772145  
1918.000000	99.772626  
1917.000000	99.772841  
1916.000000	99.772465  
1915.000000	99.770991  
1914.000000	99.767822  
1913.000000	99.763458  
1912.000000	99.759551  
1911.000000	99.757249  
1910.000000	99.756295  
1909.000000	99.755961  
1908.000000	99.755783  
1907.000000	99.755431  
1906.000000	99.754447  
1905.000000	99.752721  
1904.000000	99.750724  
1903.000000	99.748586  
1902.000000	99.746004  
1901.000000	99.743258  
1900.000000	99.741149  
1899.000000	99.739992  
1898.000000	99.739371  
1897.000000	99.739040  
1896.000000	99.739212  
1895.000000	99.739420  
1894.000000	99.738411  
1893.000000	99.735847  
1892.000000	99.732866  
1891.000000	99.730456  
1890.000000	99.728302  
1889.000000	99.725850  
1888.000000	99.723468  
1887.000000	99.721677  
1886.000000	99.720544  
1885.000000	99.720383  
1884.000000	99.721841  
1883.000000	99.724735  
1882.000000	99.727912  
1881.000000	99.730592  
1880.000000	99.732593  
1879.000000	99.733523  
1878.000000	99.732924  
1877.000000	99.731010  
1876.000000	99.728562  
1875.000000	99.725837  
1874.000000	99.722593  
1873.000000	99.719429  
1872.000000	99.717523  
1871.000000	99.717007  
1870.000000	99.717187  
1869.000000	99.718281  
1868.000000	99.721023  
1867.000000	99.724399  
1866.000000	99.726255  
1865.000000	99.726002  
1864.000000	99.724658  
1863.000000	99.722712  
1862.000000	99.719813  
1861.000000	99.716846  
1860.000000	99.716041  
1859.000000	99.718152  
1858.000000	99.721439  
1857.000000	99.724104  
1856.000000	99.726284  
1855.000000	99.728520  
1854.000000	99.730033  
1853.000000	99.730334  
1852.000000	99.730417  
1851.000000	99.731352  
1850.000000	99.732697  
1849.000000	99.733038  
1848.000000	99.731926  
1847.000000	99.730184  
1846.000000	99.728986  
1845.000000	99.729172  
1844.000000	99.730663  
1843.000000	99.732454  
1842.000000	99.733597  
1841.000000	99.733940  
1840.000000	99.733639  
1839.000000	99.732674  
1838.000000	99.730872  
1837.000000	99.729138  
1836.000000	99.729423  
1835.000000	99.731972  
1834.000000	99.734335  
1833.000000	99.734258  
1832.000000	99.731985  
1831.000000	99.730091  
1830.000000	99.730772  
1829.000000	99.733250  
1828.000000	99.735491  
1827.000000	99.735873  
1826.000000	99.733349  
1825.000000	99.728387  
1824.000000	99.723688  
1823.000000	99.721490  
1822.000000	99.721026  
1821.000000	99.720851  
1820.000000	99.721679  
1819.000000	99.724873  
1818.000000	99.728538  
1817.000000	99.729449  
1816.000000	99.728530  
1815.000000	99.729023  
1814.000000	99.731703  
1813.000000	99.734466  
1812.000000	99.736247  
1811.000000	99.737817  
1810.000000	99.737977  
1809.000000	99.735596  
1808.000000	99.733716  
1807.000000	99.736232  
1806.000000	99.742660  
1805.000000	99.748669  
1804.000000	99.751045  
1803.000000	99.749451  
1802.000000	99.746907  
1801.000000	99.748034  
1800.000000	99.755140  
1799.000000	99.765258  
1798.000000	99.772257  
1797.000000	99.774219  
1796.000000	99.775337  
1795.000000	99.779669  
1794.000000	99.787142  
1793.000000	99.794751  
1792.000000	99.800702  
1791.000000	99.805984  
1790.000000	99.811486  
1789.000000	99.818017  
1788.000000	99.826874  
1787.000000	99.837343  
1786.000000	99.845870  
1785.000000	99.850587  
1784.000000	99.854902  
1783.000000	99.861577  
1782.000000	99.870953  
1781.000000	99.882266  
1780.000000	99.894469  
1779.000000	99.906921  
1778.000000	99.918167  
1777.000000	99.927891  
1776.000000	99.936812  
1775.000000	99.945961  
1774.000000	99.957429  
1773.000000	99.973271  
1772.000000	99.991567  
1771.000000	100.009157 
1770.000000	100.024655 
1769.000000	100.038005 
1768.000000	100.052990 
1767.000000	100.074515 
1766.000000	100.102427 
1765.000000	100.131083 
1764.000000	100.156291 
1763.000000	100.178785 
1762.000000	100.201592 
1761.000000	100.224960 
1760.000000	100.248466 
1759.000000	100.272425 
1758.000000	100.295755 
1757.000000	100.316267 
1756.000000	100.331999 
1755.000000	100.345717 
1754.000000	100.360643 
1753.000000	100.374143 
1752.000000	100.379923 
1751.000000	100.377657 
1750.000000	100.374435 
1749.000000	100.374542 
1748.000000	100.375052 
1747.000000	100.372139 
1746.000000	100.367061 
1745.000000	100.360044 
1744.000000	100.347789 
1743.000000	100.328774 
1742.000000	100.304320 
1741.000000	100.275040 
1740.000000	100.241816 
1739.000000	100.208593 
1738.000000	100.180295 
1737.000000	100.155770 
1736.000000	100.128769 
1735.000000	100.095232 
1734.000000	100.056106 
1733.000000	100.020595 
1732.000000	99.996218  
1731.000000	99.978908  
1730.000000	99.962327  
1729.000000	99.945685  
1728.000000	99.931241  
1727.000000	99.920910  
1726.000000	99.915620  
1725.000000	99.912778  
1724.000000	99.908591  
1723.000000	99.901503  
1722.000000	99.891595  
1721.000000	99.880428  
1720.000000	99.870021  
1719.000000	99.862226  
1718.000000	99.855028  
1717.000000	99.844898  
1716.000000	99.837209  
1715.000000	99.836331  
1714.000000	99.836826  
1713.000000	99.834098  
1712.000000	99.830812  
1711.000000	99.829935  
1710.000000	99.830369  
1709.000000	99.830326  
1708.000000	99.829227  
1707.000000	99.827299  
1706.000000	99.824306  
1705.000000	99.820880  
1704.000000	99.819971  
1703.000000	99.820635  
1702.000000	99.818686  
1701.000000	99.813607  
1700.000000	99.807368  
1699.000000	99.805017  
1698.000000	99.804837  
1697.000000	99.801742  
1696.000000	99.796099  
1695.000000	99.788994  
1694.000000	99.782335  
1693.000000	99.777737  
1692.000000	99.775279  
1691.000000	99.774556  
1690.000000	99.773932  
1689.000000	99.773124  
1688.000000	99.772788  
1687.000000	99.773762  
1686.000000	99.776845  
1685.000000	99.783296  
1684.000000	99.790218  
1683.000000	99.792921  
1682.000000	99.792731  
1681.000000	99.791609  
1680.000000	99.789752  
1679.000000	99.789002  
1678.000000	99.790924  
1677.000000	99.794343  
1676.000000	99.796553  
1675.000000	99.795824  
1674.000000	99.794896  
1673.000000	99.795460  
1672.000000	99.795698  
1671.000000	99.794873  
1670.000000	99.794419  
1669.000000	99.795548  
1668.000000	99.797456  
1667.000000	99.798891  
1666.000000	99.799441  
1665.000000	99.799005  
1664.000000	99.798562  
1663.000000	99.798868  
1662.000000	99.799582  
1661.000000	99.800158  
1660.000000	99.799649  
1659.000000	99.798237  
1658.000000	99.797866  
1657.000000	99.799381  
1656.000000	99.800617  
1655.000000	99.800278  
1654.000000	99.802124  
1653.000000	99.805343  
1652.000000	99.805827  
1651.000000	99.806912  
1650.000000	99.808686  
1649.000000	99.807763  
1648.000000	99.804691  
1647.000000	99.801717  
1646.000000	99.799314  
1645.000000	99.797878  
1644.000000	99.798934  
1643.000000	99.801908  
1642.000000	99.804716  
1641.000000	99.806500  
1640.000000	99.807298  
1639.000000	99.807691  
1638.000000	99.807779  
1637.000000	99.808878  
1636.000000	99.812087  
1635.000000	99.814447  
1634.000000	99.814375  
1633.000000	99.813676  
1632.000000	99.814220  
1631.000000	99.816015  
1630.000000	99.817936  
1629.000000	99.818866  
1628.000000	99.818691  
1627.000000	99.817399  
1626.000000	99.815379  
1625.000000	99.813607  
1624.000000	99.813297  
1623.000000	99.814575  
1622.000000	99.816937  
1621.000000	99.820891  
1620.000000	99.825643  
1619.000000	99.829863  
1618.000000	99.834140  
1617.000000	99.840586  
1616.000000	99.848801  
1615.000000	99.856871  
1614.000000	99.863672  
1613.000000	99.868438  
1612.000000	99.870897  
1611.000000	99.871136  
1610.000000	99.870754  
1609.000000	99.872494  
1608.000000	99.877020  
1607.000000	99.881742  
1606.000000	99.884678  
1605.000000	99.886567  
1604.000000	99.888667  
1603.000000	99.891991  
1602.000000	99.896957  
1601.000000	99.902813  
1600.000000	99.908115  
1599.000000	99.912029  
1598.000000	99.914969  
1597.000000	99.917570  
1596.000000	99.920120  
1595.000000	99.922738  
1594.000000	99.925488  
1593.000000	99.928299  
1592.000000	99.931003  
1591.000000	99.933622  
1590.000000	99.936519  
1589.000000	99.940016  
1588.000000	99.943956  
1587.000000	99.948104  
1586.000000	99.952248  
1585.000000	99.956260  
1584.000000	99.958875  
1583.000000	99.959085  
1582.000000	99.958639  
1581.000000	99.960228  
1580.000000	99.963565  
1579.000000	99.966080  
1578.000000	99.966954  
1577.000000	99.968066  
1576.000000	99.970348  
1575.000000	99.972577  
1574.000000	99.975463  
1573.000000	99.979162  
1572.000000	99.981958  
1571.000000	99.983571  
1570.000000	99.985450  
1569.000000	99.988949  
1568.000000	99.992701  
1567.000000	99.995099  
1566.000000	99.996513  
1565.000000	99.998288  
1564.000000	99.999909  
1563.000000	100.000656 
1562.000000	100.000188 
1561.000000	100.000171 
1560.000000	100.000990 
1559.000000	100.001705 
1558.000000	99.999326  
1557.000000	99.998011  
1556.000000	99.999510  
1555.000000	100.000586 
1554.000000	100.001505 
1553.000000	100.003427 
1552.000000	100.004788 
1551.000000	100.004125 
1550.000000	100.002427 
1549.000000	100.003140 
1548.000000	100.008144 
1547.000000	100.014751 
1546.000000	100.018268 
1545.000000	100.016107 
1544.000000	100.009837 
1543.000000	100.003961 
1542.000000	100.001348 
1541.000000	100.001948 
1540.000000	100.003093 
1539.000000	99.999880  
1538.000000	99.994790  
1537.000000	99.992169  
1536.000000	99.990608  
1535.000000	99.987159  
1534.000000	99.981399  
1533.000000	99.974339  
1532.000000	99.967966  
1531.000000	99.963940  
1530.000000	99.961387  
1529.000000	99.958732  
1528.000000	99.955364  
1527.000000	99.950767  
1526.000000	99.945275  
1525.000000	99.940679  
1524.000000	99.938232  
1523.000000	99.937198  
1522.000000	99.934835  
1521.000000	99.928788  
1520.000000	99.921852  
1519.000000	99.917700  
1518.000000	99.915130  
1517.000000	99.910783  
1516.000000	99.903954  
1515.000000	99.896900  
1514.000000	99.890916  
1513.000000	99.884235  
1512.000000	99.876080  
1511.000000	99.868637  
1510.000000	99.862805  
1509.000000	99.856581  
1508.000000	99.849475  
1507.000000	99.845874  
1506.000000	99.843414  
1505.000000	99.839117  
1504.000000	99.836311  
1503.000000	99.835889  
1502.000000	99.835633  
1501.000000	99.833692  
1500.000000	99.829891  
1499.000000	99.825932  
1498.000000	99.822107  
1497.000000	99.815116  
1496.000000	99.804406  
1495.000000	99.794471  
1494.000000	99.787892  
1493.000000	99.782744  
1492.000000	99.776756  
1491.000000	99.769765  
1490.000000	99.762767  
1489.000000	99.756212  
1488.000000	99.750491  
1487.000000	99.745654  
1486.000000	99.740543  
1485.000000	99.735863  
1484.000000	99.732325  
1483.000000	99.728360  
1482.000000	99.722117  
1481.000000	99.714400  
1480.000000	99.708658  
1479.000000	99.706009  
1478.000000	99.703515  
1477.000000	99.698246  
1476.000000	99.692016  
1475.000000	99.687915  
1474.000000	99.686008  
1473.000000	99.684839  
1472.000000	99.684637  
1471.000000	99.687370  
1470.000000	99.692725  
1469.000000	99.697830  
1468.000000	99.700519  
1467.000000	99.700157  
1466.000000	99.697064  
1465.000000	99.692937  
1464.000000	99.690072  
1463.000000	99.690559  
1462.000000	99.693793  
1461.000000	99.697246  
1460.000000	99.699021  
1459.000000	99.698149  
1458.000000	99.691369  
1457.000000	99.671997  
1456.000000	99.643401  
1455.000000	99.620695  
1454.000000	99.609641  
1453.000000	99.604415  
1452.000000	99.599438  
1451.000000	99.594583  
1450.000000	99.592764  
1449.000000	99.594751  
1448.000000	99.599536  
1447.000000	99.605090  
1446.000000	99.610038  
1445.000000	99.613373  
1444.000000	99.613774  
1443.000000	99.612037  
1442.000000	99.609686  
1441.000000	99.607879  
1440.000000	99.607722  
1439.000000	99.610394  
1438.000000	99.613715  
1437.000000	99.611714  
1436.000000	99.604176  
1435.000000	99.600127  
1434.000000	99.603708  
1433.000000	99.610312  
1432.000000	99.615388  
1431.000000	99.618185  
1430.000000	99.618789  
1429.000000	99.615319  
1428.000000	99.608133  
1427.000000	99.600178  
1426.000000	99.593080  
1425.000000	99.585298  
1424.000000	99.575123  
1423.000000	99.564779  
1422.000000	99.555065  
1421.000000	99.540902  
1420.000000	99.515993  
1419.000000	99.482931  
1418.000000	99.451387  
1417.000000	99.423929  
1416.000000	99.397124  
1415.000000	99.370540  
1414.000000	99.345504  
1413.000000	99.320945  
1412.000000	99.295743  
1411.000000	99.272864  
1410.000000	99.255882  
1409.000000	99.244332  
1408.000000	99.237557  
1407.000000	99.237512  
1406.000000	99.245910  
1405.000000	99.261732  
1404.000000	99.282971  
1403.000000	99.309414  
1402.000000	99.340064  
1401.000000	99.371363  
1400.000000	99.399285  
1399.000000	99.419861  
1398.000000	99.425901  
1397.000000	99.407767  
1396.000000	99.365089  
1395.000000	99.320275  
1394.000000	99.308574  
1393.000000	99.343657  
1392.000000	99.407251  
1391.000000	99.471015  
1390.000000	99.517589  
1389.000000	99.543655  
1388.000000	99.553440  
1387.000000	99.553483  
1386.000000	99.550696  
1385.000000	99.550487  
1384.000000	99.555035  
1383.000000	99.563926  
1382.000000	99.575526  
1381.000000	99.588546  
1380.000000	99.603071  
1379.000000	99.619916  
1378.000000	99.639537  
1377.000000	99.661644  
1376.000000	99.685645  
1375.000000	99.710882  
1374.000000	99.736741  
1373.000000	99.762631  
1372.000000	99.788380  
1371.000000	99.814043  
1370.000000	99.839305  
1369.000000	99.863501  
1368.000000	99.886353  
1367.000000	99.908765  
1366.000000	99.931766  
1365.000000	99.954801  
1364.000000	99.975893  
1363.000000	99.993650  
1362.000000	100.008491 
1361.000000	100.021576 
1360.000000	100.033642 
1359.000000	100.045461 
1358.000000	100.058435 
1357.000000	100.073606 
1356.000000	100.090378 
1355.000000	100.107124 
1354.000000	100.122915 
1353.000000	100.137843 
1352.000000	100.152195 
1351.000000	100.165047 
1350.000000	100.175850 
1349.000000	100.185767 
1348.000000	100.194879 
1347.000000	100.202581 
1346.000000	100.209470 
1345.000000	100.216475 
1344.000000	100.223062 
1343.000000	100.227878 
1342.000000	100.230490 
1341.000000	100.231514 
1340.000000	100.231838 
1339.000000	100.232762 
1338.000000	100.236051 
1337.000000	100.242366 
1336.000000	100.250098 
1335.000000	100.256677 
1334.000000	100.260885 
1333.000000	100.263411 
1332.000000	100.265676 
1331.000000	100.268867 
1330.000000	100.273761 
1329.000000	100.280276 
1328.000000	100.287166 
1327.000000	100.292758 
1326.000000	100.296424 
1325.000000	100.299014 
1324.000000	100.301885 
1323.000000	100.305821 
1322.000000	100.310334 
1321.000000	100.314034 
1320.000000	100.316266 
1319.000000	100.318208 
1318.000000	100.321483 
1317.000000	100.326060 
1316.000000	100.330705 
1315.000000	100.334939 
1314.000000	100.338964 
1313.000000	100.342012 
1312.000000	100.342921 
1311.000000	100.342727 
1310.000000	100.344662 
1309.000000	100.350476 
1308.000000	100.358260 
1307.000000	100.364495 
1306.000000	100.367209 
1305.000000	100.366538 
1304.000000	100.363841 
1303.000000	100.361588 
1302.000000	100.362458 
1301.000000	100.366767 
1300.000000	100.371543 
1299.000000	100.373470 
1298.000000	100.372070 
1297.000000	100.369213 
1296.000000	100.366631 
1295.000000	100.365273 
1294.000000	100.366108 
1293.000000	100.369497 
1292.000000	100.373814 
1291.000000	100.376181 
1290.000000	100.375022 
1289.000000	100.371302 
1288.000000	100.367350 
1287.000000	100.364985 
1286.000000	100.364668 
1285.000000	100.365757 
1284.000000	100.367278 
1283.000000	100.368803 
1282.000000	100.370175 
1281.000000	100.370729 
1280.000000	100.369887 
1279.000000	100.367988 
1278.000000	100.365714 
1277.000000	100.363205 
1276.000000	100.360230 
1275.000000	100.356669 
1274.000000	100.352052 
1273.000000	100.345120 
1272.000000	100.334987 
1271.000000	100.322643 
1270.000000	100.310205 
1269.000000	100.298639 
1268.000000	100.287003 
1267.000000	100.273766 
1266.000000	100.258025 
1265.000000	100.239888 
1264.000000	100.220893 
1263.000000	100.203722 
1262.000000	100.190228 
1261.000000	100.179931 
1260.000000	100.171244 
1259.000000	100.163474 
1258.000000	100.156451 
1257.000000	100.149296 
1256.000000	100.141411 
1255.000000	100.133815 
1254.000000	100.127306 
1253.000000	100.120108 
1252.000000	100.110329 
1251.000000	100.100830 
1250.000000	100.098471 
1249.000000	100.107687 
1248.000000	100.126999 
1247.000000	100.151311 
1246.000000	100.173791 
1245.000000	100.185210 
1244.000000	100.177889 
1243.000000	100.155889 
1242.000000	100.138235 
1241.000000	100.144250 
1240.000000	100.174578 
1239.000000	100.209933 
1238.000000	100.229799 
1237.000000	100.229246 
1236.000000	100.216426 
1235.000000	100.199822 
1234.000000	100.182215 
1233.000000	100.164457 
1232.000000	100.149126 
1231.000000	100.138630 
1230.000000	100.132566 
1229.000000	100.129063 
1228.000000	100.127504 
1227.000000	100.128314 
1226.000000	100.130797 
1225.000000	100.132922 
1224.000000	100.133420 
1223.000000	100.132904 
1222.000000	100.132337 
1221.000000	100.131064 
1220.000000	100.127004 
1219.000000	100.118576 
1218.000000	100.106089 
1217.000000	100.091476 
1216.000000	100.076849 
1215.000000	100.062806 
1214.000000	100.047666 
1213.000000	100.028872 
1212.000000	100.005639 
1211.000000	99.979576  
1210.000000	99.952064  
1209.000000	99.922156  
1208.000000	99.888527  
1207.000000	99.852547  
1206.000000	99.817157  
1205.000000	99.782728  
1204.000000	99.746506  
1203.000000	99.707146  
1202.000000	99.667760  
1201.000000	99.632676  
1200.000000	99.602002  
1199.000000	99.571141  
1198.000000	99.535877  
1197.000000	99.496614  
1196.000000	99.456673  
1195.000000	99.417968  
1194.000000	99.379908  
1193.000000	99.341558  
1192.000000	99.302913  
1191.000000	99.263464  
1190.000000	99.221293  
1189.000000	99.175304  
1188.000000	99.127180  
1187.000000	99.079081  
1186.000000	99.030206  
1185.000000	98.978206  
1184.000000	98.923578  
1183.000000	98.869583  
1182.000000	98.817322  
1181.000000	98.763950  
1180.000000	98.706900  
1179.000000	98.647150  
1178.000000	98.586765  
1177.000000	98.525553  
1176.000000	98.461903  
1175.000000	98.394931  
1174.000000	98.324235  
1173.000000	98.249538  
1172.000000	98.172477  
1171.000000	98.097127  
1170.000000	98.026813  
1169.000000	97.961447  
1168.000000	97.899104  
1167.000000	97.838816  
1166.000000	97.781416  
1165.000000	97.730125  
1164.000000	97.691351  
1163.000000	97.671859  
1162.000000	97.672636  
1161.000000	97.686487  
1160.000000	97.702437  
1159.000000	97.711018  
1158.000000	97.705405  
1157.000000	97.681305  
1156.000000	97.638449  
1155.000000	97.580793  
1154.000000	97.513473  
1153.000000	97.440458  
1152.000000	97.365762  
1151.000000	97.294196  
1150.000000	97.228564  
1149.000000	97.167776  
1148.000000	97.109316  
1147.000000	97.051813  
1146.000000	96.994175  
1145.000000	96.934945  
1144.000000	96.874600  
1143.000000	96.816540  
1142.000000	96.763854  
1141.000000	96.716419  
1140.000000	96.671986  
1139.000000	96.627907  
1138.000000	96.581113  
1137.000000	96.529320  
1136.000000	96.473673  
1135.000000	96.417703  
1134.000000	96.362436  
1133.000000	96.305135  
1132.000000	96.243975  
1131.000000	96.180769  
1130.000000	96.117578  
1129.000000	96.053795  
1128.000000	95.988283  
1127.000000	95.921281  
1126.000000	95.852569  
1125.000000	95.780959  
1124.000000	95.707196  
1123.000000	95.634070  
1122.000000	95.562148  
1121.000000	95.488896  
1120.000000	95.413366  
1119.000000	95.337694  
1118.000000	95.262421  
1117.000000	95.184879  
1116.000000	95.104212  
1115.000000	95.023673  
1114.000000	94.945901  
1113.000000	94.870214  
1112.000000	94.796415  
1111.000000	94.726283  
1110.000000	94.659322  
1109.000000	94.591884  
1108.000000	94.522231  
1107.000000	94.452595  
1106.000000	94.384665  
1105.000000	94.317460  
1104.000000	94.250921  
1103.000000	94.187005  
1102.000000	94.125770  
1101.000000	94.064599  
1100.000000	94.002602  
1099.000000	93.941829  
1098.000000	93.882881  
1097.000000	93.823239  
1096.000000	93.760969  
1095.000000	93.695671  
1094.000000	93.624295  
1093.000000	93.540797  
1092.000000	93.442784  
1091.000000	93.335740  
1090.000000	93.228721  
1089.000000	93.127576  
1088.000000	93.033085  
1087.000000	92.942334  
1086.000000	92.850276  
1085.000000	92.753083  
1084.000000	92.651696  
1083.000000	92.549816  
1082.000000	92.448288  
1081.000000	92.345323  
1080.000000	92.242581  
1079.000000	92.145985  
1078.000000	92.059245  
1077.000000	91.981642  
1076.000000	91.913023  
1075.000000	91.854789  
1074.000000	91.804707  
1073.000000	91.757131  
1072.000000	91.708086  
1071.000000	91.650720  
1070.000000	91.565730  
1069.000000	91.431648  
1068.000000	91.253681  
1067.000000	91.074255  
1066.000000	90.941964  
1065.000000	90.871475  
1064.000000	90.839339  
1063.000000	90.808728  
1062.000000	90.750137  
1061.000000	90.646992  
1060.000000	90.499775  
1059.000000	90.330898  
1058.000000	90.174950  
1057.000000	90.054683  
1056.000000	89.966535  
1055.000000	89.888415  
1054.000000	89.799133  
1053.000000	89.692894  
1052.000000	89.579803  
1051.000000	89.473954  
1050.000000	89.380494  
1049.000000	89.294913  
1048.000000	89.212844  
1047.000000	89.135122  
1046.000000	89.063537  
1045.000000	88.998025  
1044.000000	88.939202  
1043.000000	88.887973  
1042.000000	88.840567  
1041.000000	88.788719  
1040.000000	88.728197  
1039.000000	88.665667  
1038.000000	88.615869  
1037.000000	88.592014  
1036.000000	88.596271  
1035.000000	88.616737  
1034.000000	88.636265  
1033.000000	88.646138  
1032.000000	88.645511  
1031.000000	88.626620  
1030.000000	88.574751  
1029.000000	88.494624  
1028.000000	88.425901  
1027.000000	88.412713  
1026.000000	88.458337  
1025.000000	88.523633  
1024.000000	88.569993  
1023.000000	88.589516  
1022.000000	88.592953  
1021.000000	88.587911  
1020.000000	88.576906  
1019.000000	88.563213  
1018.000000	88.548618  
1017.000000	88.532386  
1016.000000	88.517654  
1015.000000	88.511548  
1014.000000	88.515256  
1013.000000	88.521880  
1012.000000	88.527144  
1011.000000	88.533893  
1010.000000	88.543641  
1009.000000	88.553008  
1008.000000	88.561748  
1007.000000	88.575692  
1006.000000	88.598529  
1005.000000	88.628365  
1004.000000	88.664138  
1003.000000	88.706772  
1002.000000	88.752325  
1001.000000	88.793708  
1000.000000	88.831838  
999.000000	 88.875631  
998.000000	 88.928032  
997.000000	 88.981389  
996.000000	 89.029795  
995.000000	 89.076815  
994.000000	 89.127279  
993.000000	 89.180349  
992.000000	 89.234804  
991.000000	 89.292733  
990.000000	 89.353727  
989.000000	 89.413166  
988.000000	 89.470139  
987.000000	 89.529837  
986.000000	 89.595034  
985.000000	 89.663000  
984.000000	 89.732890  
983.000000	 89.807441  
982.000000	 89.886490  
981.000000	 89.966880  
980.000000	 90.049960  
979.000000	 90.141805  
978.000000	 90.243315  
977.000000	 90.347951  
976.000000	 90.452025  
975.000000	 90.559191  
974.000000	 90.672262  
973.000000	 90.788892  
972.000000	 90.908002  
971.000000	 91.032235  
970.000000	 91.160967  
969.000000	 91.288493  
968.000000	 91.412170  
967.000000	 91.535394  
966.000000	 91.660197  
965.000000	 91.783961  
964.000000	 91.905445  
963.000000	 92.026615  
962.000000	 92.146469  
961.000000	 92.260844  
960.000000	 92.370614  
959.000000	 92.481945  
958.000000	 92.595414  
957.000000	 92.703124  
956.000000	 92.800759  
955.000000	 92.895011  
954.000000	 92.994078  
953.000000	 93.096586  
952.000000	 93.195042  
951.000000	 93.285555  
950.000000	 93.369966  
949.000000	 93.452317  
948.000000	 93.536260  
947.000000	 93.622073  
946.000000	 93.703884  
945.000000	 93.774169  
944.000000	 93.833233  
943.000000	 93.890041  
942.000000	 93.951689  
941.000000	 94.016437  
940.000000	 94.079213  
939.000000	 94.139061  
938.000000	 94.198549  
937.000000	 94.259824  
936.000000	 94.323462  
935.000000	 94.387974  
934.000000	 94.449632  
933.000000	 94.506697  
932.000000	 94.563817  
931.000000	 94.627199  
930.000000	 94.695210  
929.000000	 94.759661  
928.000000	 94.817223  
927.000000	 94.872977  
926.000000	 94.930911  
925.000000	 94.987477  
924.000000	 95.037785  
923.000000	 95.082405  
922.000000	 95.124155  
921.000000	 95.162681  
920.000000	 95.196181  
919.000000	 95.225447  
918.000000	 95.253093  
917.000000	 95.281059  
916.000000	 95.310899  
915.000000	 95.344216  
914.000000	 95.381363  
913.000000	 95.421879  
912.000000	 95.466503  
911.000000	 95.516156  
910.000000	 95.569696  
909.000000	 95.626452  
908.000000	 95.689753  
907.000000	 95.762782  
906.000000	 95.841711  
905.000000	 95.919264  
904.000000	 95.995941  
903.000000	 96.081510  
902.000000	 96.183201  
901.000000	 96.296744  
900.000000	 96.410510  
899.000000	 96.515187  
898.000000	 96.608751  
897.000000	 96.695138  
896.000000	 96.778734  
895.000000	 96.858709  
894.000000	 96.930621  
893.000000	 96.996013  
892.000000	 97.066279  
891.000000	 97.151163  
890.000000	 97.245820  
889.000000	 97.335923  
888.000000	 97.413600  
887.000000	 97.481049  
886.000000	 97.540803  
885.000000	 97.591707  
884.000000	 97.634788  
883.000000	 97.673839  
882.000000	 97.708383  
881.000000	 97.735476  
880.000000	 97.761442  
879.000000	 97.801811  
878.000000	 97.864059  
877.000000	 97.938788  
876.000000	 98.013258  
875.000000	 98.085309  
874.000000	 98.157675  
873.000000	 98.227543  
872.000000	 98.291123  
871.000000	 98.353312  
870.000000	 98.423874  
869.000000	 98.506159  
868.000000	 98.595602  
867.000000	 98.687140  
866.000000	 98.779085  
865.000000	 98.870918  
864.000000	 98.961104  
863.000000	 99.046966  
862.000000	 99.125806  
861.000000	 99.197971  
860.000000	 99.268926  
859.000000	 99.344566  
858.000000	 99.423556  
857.000000	 99.498719  
856.000000	 99.567187  
855.000000	 99.633843  
854.000000	 99.702606  
853.000000	 99.769955  
852.000000	 99.830444  
851.000000	 99.883342  
850.000000	 99.930153  
849.000000	 99.970982  
848.000000	 100.007993 
847.000000	 100.047320 
846.000000	 100.091218 
845.000000	 100.131859 
844.000000	 100.159277 
843.000000	 100.173421 
842.000000	 100.183226 
841.000000	 100.195467 
840.000000	 100.209497 
839.000000	 100.221426 
838.000000	 100.228305 
837.000000	 100.228927 
836.000000	 100.224871 
835.000000	 100.220521 
834.000000	 100.219078 
833.000000	 100.220066 
832.000000	 100.223579 
831.000000	 100.233489 
830.000000	 100.251123 
829.000000	 100.268481 
828.000000	 100.275207 
827.000000	 100.272551 
826.000000	 100.273945 
825.000000	 100.290054 
824.000000	 100.318462 
823.000000	 100.348923 
822.000000	 100.372655 
821.000000	 100.385335 
820.000000	 100.387531 
819.000000	 100.384907 
818.000000	 100.383497 
817.000000	 100.382228 
816.000000	 100.372858 
815.000000	 100.348407 
814.000000	 100.307954 
813.000000	 100.250696 
812.000000	 100.168849 
811.000000	 100.051156 
810.000000	 99.893120  
809.000000	 99.700574  
808.000000	 99.482628  
807.000000	 99.243329  
806.000000	 98.981887  
805.000000	 98.701142  
804.000000	 98.414241  
803.000000	 98.140342  
802.000000	 97.893585  
801.000000	 97.679781  
800.000000	 97.503925  
799.000000	 97.374285  
798.000000	 97.295868  
797.000000	 97.264989  
796.000000	 97.272998  
795.000000	 97.310193  
794.000000	 97.364237  
793.000000	 97.421339  
792.000000	 97.472764  
791.000000	 97.515893  
790.000000	 97.547109  
789.000000	 97.559503  
788.000000	 97.550271  
787.000000	 97.523865  
786.000000	 97.482738  
785.000000	 97.419918  
784.000000	 97.327228  
783.000000	 97.209062  
782.000000	 97.083684  
781.000000	 96.972683  
780.000000	 96.892104  
779.000000	 96.849483  
778.000000	 96.843785  
777.000000	 96.869785  
776.000000	 96.924963  
775.000000	 97.008556  
774.000000	 97.112034  
773.000000	 97.216827  
772.000000	 97.307116  
771.000000	 97.382078  
770.000000	 97.451597  
769.000000	 97.522883  
768.000000	 97.595328  
767.000000	 97.665127  
766.000000	 97.728867  
765.000000	 97.783065  
764.000000	 97.825244  
763.000000	 97.857211  
762.000000	 97.885257  
761.000000	 97.916579  
760.000000	 97.956365  
759.000000	 98.006584  
758.000000	 98.064856  
757.000000	 98.125262  
756.000000	 98.182795  
755.000000	 98.237257  
754.000000	 98.291462  
753.000000	 98.346101  
752.000000	 98.398138  
751.000000	 98.444020  
750.000000	 98.482863  
749.000000	 98.516675  
748.000000	 98.548746  
747.000000	 98.581926  
746.000000	 98.617605  
745.000000	 98.655741  
744.000000	 98.695752  
743.000000	 98.737268  
742.000000	 98.780236  
741.000000	 98.825224  
740.000000	 98.874201  
739.000000	 98.930149  
738.000000	 98.994379  
737.000000	 99.063454  
736.000000	 99.129061  
735.000000	 99.182337  
734.000000	 99.219450  
733.000000	 99.243482  
732.000000	 99.261025  
731.000000	 99.277165  
730.000000	 99.293138  
729.000000	 99.306844  
728.000000	 99.317265  
727.000000	 99.328264  
726.000000	 99.345582  
725.000000	 99.372119  
724.000000	 99.407146  
723.000000	 99.448470  
722.000000	 99.493954  
721.000000	 99.540955  
720.000000	 99.585630  
719.000000	 99.623321  
718.000000	 99.650305  
717.000000	 99.666988  
716.000000	 99.679250  
715.000000	 99.695566  
714.000000	 99.721421  
713.000000	 99.755560  
712.000000	 99.792627  
711.000000	 99.828461  
710.000000	 99.863069  
709.000000	 99.897572  
708.000000	 99.928262  
707.000000	 99.949133  
706.000000	 99.956560  
705.000000	 99.951137  
704.000000	 99.935975  
703.000000	 99.910806  
702.000000	 99.870668  
701.000000	 99.809472  
700.000000	 99.721444  
699.000000	 99.604063  
698.000000	 99.462566  
697.000000	 99.315062  
696.000000	 99.190828  
695.000000	 99.114569  
694.000000	 99.095002  
693.000000	 99.126057  
692.000000	 99.193357  
691.000000	 99.282378  
690.000000	 99.381666  
689.000000	 99.483090  
688.000000	 99.578995  
687.000000	 99.658466  
686.000000	 99.714382  
685.000000	 99.750676  
684.000000	 99.775793  
683.000000	 99.793858  
682.000000	 99.806118  
681.000000	 99.817959  
680.000000	 99.836156  
679.000000	 99.861733  
678.000000	 99.890451  
677.000000	 99.915761  
676.000000	 99.935651  
675.000000	 99.954040  
674.000000	 99.976225  
673.000000	 100.008374 
672.000000	 100.060933 
671.000000	 100.145090 
670.000000	 100.261388 
669.000000	 100.381131 
668.000000	 100.421848 
667.000000	 100.359574 
666.000000	 100.286981 
665.000000	 100.252636 
664.000000	 100.243917 
663.000000	 100.256069 
662.000000	 100.283575 
661.000000	 100.315147 
660.000000	 100.341052 
659.000000	 100.364503 
658.000000	 100.386781 
657.000000	 100.395292 
656.000000	 100.383344 
655.000000	 100.366299 
654.000000	 100.359774 
653.000000	 100.360350 
652.000000	 100.360712 
651.000000	 100.361074 
650.000000	 100.357047 

