4000.000000	100.315698 
3999.000000	100.315297 
3998.000000	100.314900 
3997.000000	100.314510 
3996.000000	100.314121 
3995.000000	100.313731 
3994.000000	100.313335 
3993.000000	100.312932 
3992.000000	100.312523 
3991.000000	100.312113 
3990.000000	100.311706 
3989.000000	100.311305 
3988.000000	100.310911 
3987.000000	100.310522 
3986.000000	100.310130 
3985.000000	100.309729 
3984.000000	100.309318 
3983.000000	100.308899 
3982.000000	100.308480 
3981.000000	100.308063 
3980.000000	100.307649 
3979.000000	100.307233 
3978.000000	100.306814 
3977.000000	100.306391 
3976.000000	100.305967 
3975.000000	100.305544 
3974.000000	100.305123 
3973.000000	100.304705 
3972.000000	100.304286 
3971.000000	100.303867 
3970.000000	100.303451 
3969.000000	100.303038 
3968.000000	100.302629 
3967.000000	100.302225 
3966.000000	100.301831 
3965.000000	100.301447 
3964.000000	100.301063 
3963.000000	100.300667 
3962.000000	100.300248 
3961.000000	100.299807 
3960.000000	100.299361 
3959.000000	100.298928 
3958.000000	100.298516 
3957.000000	100.298116 
3956.000000	100.297709 
3955.000000	100.297275 
3954.000000	100.296812 
3953.000000	100.296333 
3952.000000	100.295859 
3951.000000	100.295403 
3950.000000	100.294975 
3949.000000	100.294567 
3948.000000	100.294156 
3947.000000	100.293707 
3946.000000	100.293175 
3945.000000	100.292515 
3944.000000	100.291741 
3943.000000	100.290969 
3942.000000	100.290358 
3941.000000	100.289952 
3940.000000	100.289620 
3939.000000	100.289169 
3938.000000	100.288542 
3937.000000	100.287868 
3936.000000	100.287336 
3935.000000	100.287029 
3934.000000	100.286872 
3933.000000	100.286708 
3932.000000	100.286444 
3931.000000	100.286116 
3930.000000	100.285793 
3929.000000	100.285439 
3928.000000	100.284924 
3927.000000	100.284170 
3926.000000	100.283259 
3925.000000	100.282401 
3924.000000	100.281758 
3923.000000	100.281343 
3922.000000	100.281050 
3921.000000	100.280725 
3920.000000	100.280246 
3919.000000	100.279581 
3918.000000	100.278789 
3917.000000	100.277971 
3916.000000	100.277217 
3915.000000	100.276579 
3914.000000	100.276067 
3913.000000	100.275647 
3912.000000	100.275250 
3911.000000	100.274818 
3910.000000	100.274326 
3909.000000	100.273782 
3908.000000	100.273205 
3907.000000	100.272620 
3906.000000	100.272040 
3905.000000	100.271472 
3904.000000	100.270915 
3903.000000	100.270367 
3902.000000	100.269819 
3901.000000	100.269261 
3900.000000	100.268677 
3899.000000	100.268059 
3898.000000	100.267403 
3897.000000	100.266714 
3896.000000	100.266001 
3895.000000	100.265281 
3894.000000	100.264568 
3893.000000	100.263865 
3892.000000	100.263147 
3891.000000	100.262380 
3890.000000	100.261557 
3889.000000	100.260728 
3888.000000	100.259959 
3887.000000	100.259248 
3886.000000	100.258499 
3885.000000	100.257625 
3884.000000	100.256701 
3883.000000	100.255935 
3882.000000	100.255430 
3881.000000	100.254996 
3880.000000	100.254278 
3879.000000	100.253188 
3878.000000	100.252059 
3877.000000	100.251277 
3876.000000	100.250829 
3875.000000	100.250311 
3874.000000	100.249321 
3873.000000	100.247829 
3872.000000	100.246199 
3871.000000	100.244912 
3870.000000	100.244169 
3869.000000	100.243744 
3868.000000	100.243484 
3867.000000	100.243637 
3866.000000	100.244390 
3865.000000	100.245372 
3864.000000	100.245785 
3863.000000	100.245161 
3862.000000	100.243725 
3861.000000	100.241712 
3860.000000	100.239020 
3859.000000	100.235668 
3858.000000	100.232180 
3857.000000	100.229385 
3856.000000	100.227976 
3855.000000	100.228169 
3854.000000	100.229630 
3853.000000	100.230992 
3852.000000	100.231270 
3851.000000	100.231172 
3850.000000	100.231607 
3849.000000	100.232375 
3848.000000	100.232774 
3847.000000	100.232267 
3846.000000	100.230986 
3845.000000	100.229536 
3844.000000	100.228348 
3843.000000	100.227526 
3842.000000	100.227099 
3841.000000	100.226860 
3840.000000	100.226510 
3839.000000	100.225930 
3838.000000	100.225368 
3837.000000	100.225382 
3836.000000	100.226174 
3835.000000	100.227234 
3834.000000	100.227891 
3833.000000	100.227932 
3832.000000	100.227711 
3831.000000	100.227652 
3830.000000	100.227800 
3829.000000	100.227858 
3828.000000	100.227316 
3827.000000	100.225783 
3826.000000	100.223525 
3825.000000	100.221335 
3824.000000	100.219946 
3823.000000	100.219425 
3822.000000	100.219247 
3821.000000	100.218685 
3820.000000	100.217345 
3819.000000	100.215851 
3818.000000	100.215102 
3817.000000	100.215007 
3816.000000	100.214411 
3815.000000	100.212520 
3814.000000	100.210068 
3813.000000	100.208225 
3812.000000	100.207194 
3811.000000	100.206384 
3810.000000	100.205512 
3809.000000	100.205047 
3808.000000	100.205414 
3807.000000	100.206020 
3806.000000	100.205744 
3805.000000	100.204257 
3804.000000	100.202330 
3803.000000	100.200955 
3802.000000	100.200703 
3801.000000	100.201360 
3800.000000	100.202401 
3799.000000	100.203788 
3798.000000	100.205407 
3797.000000	100.206552 
3796.000000	100.206448 
3795.000000	100.205055 
3794.000000	100.203185 
3793.000000	100.201723 
3792.000000	100.200903 
3791.000000	100.200401 
3790.000000	100.199940 
3789.000000	100.199570 
3788.000000	100.199325 
3787.000000	100.198973 
3786.000000	100.198272 
3785.000000	100.197316 
3784.000000	100.196535 
3783.000000	100.196292 
3782.000000	100.196569 
3781.000000	100.197006 
3780.000000	100.197184 
3779.000000	100.196877 
3778.000000	100.196193 
3777.000000	100.195460 
3776.000000	100.194864 
3775.000000	100.194288 
3774.000000	100.193553 
3773.000000	100.192612 
3772.000000	100.191487 
3771.000000	100.190302 
3770.000000	100.189516 
3769.000000	100.189801 
3768.000000	100.191517 
3767.000000	100.194161 
3766.000000	100.196274 
3765.000000	100.196482 
3764.000000	100.194628 
3763.000000	100.191809 
3762.000000	100.189335 
3761.000000	100.187800 
3760.000000	100.187114 
3759.000000	100.186623 
3758.000000	100.185583 
3757.000000	100.183548 
3756.000000	100.180295 
3755.000000	100.175933 
3754.000000	100.171006 
3753.000000	100.166457 
3752.000000	100.163442 
3751.000000	100.163107 
3750.000000	100.166196 
3749.000000	100.172594 
3748.000000	100.180861 
3747.000000	100.188351 
3746.000000	100.191985 
3745.000000	100.189947 
3744.000000	100.183314 
3743.000000	100.177269 
3742.000000	100.176908 
3741.000000	100.182076 
3740.000000	100.188698 
3739.000000	100.192546 
3738.000000	100.191824 
3737.000000	100.188343 
3736.000000	100.186133 
3735.000000	100.188256 
3734.000000	100.193757 
3733.000000	100.198464 
3732.000000	100.198589 
3731.000000	100.193167 
3730.000000	100.184245 
3729.000000	100.175049 
3728.000000	100.167677 
3727.000000	100.162471 
3726.000000	100.158813 
3725.000000	100.156252 
3724.000000	100.154722 
3723.000000	100.154094 
3722.000000	100.153844 
3721.000000	100.153023 
3720.000000	100.150811 
3719.000000	100.146388 
3718.000000	100.139355 
3717.000000	100.130545 
3716.000000	100.121505 
3715.000000	100.112893 
3714.000000	100.103339 
3713.000000	100.090825 
3712.000000	100.075916 
3711.000000	100.062033 
3710.000000	100.051997 
3709.000000	100.045978 
3708.000000	100.042018 
3707.000000	100.037247 
3706.000000	100.028925 
3705.000000	100.015433 
3704.000000	99.997148  
3703.000000	99.976282  
3702.000000	99.955586  
3701.000000	99.936409  
3700.000000	99.918394  
3699.000000	99.900708  
3698.000000	99.882489  
3697.000000	99.863064  
3696.000000	99.842636  
3695.000000	99.822641  
3694.000000	99.805193  
3693.000000	99.791869  
3692.000000	99.783014  
3691.000000	99.778063  
3690.000000	99.775443  
3689.000000	99.771688  
3688.000000	99.763519  
3687.000000	99.751935  
3686.000000	99.741216  
3685.000000	99.734612  
3684.000000	99.732653  
3683.000000	99.733505  
3682.000000	99.733806  
3681.000000	99.729526  
3680.000000	99.716966  
3679.000000	99.694915  
3678.000000	99.666649  
3677.000000	99.640267  
3676.000000	99.624884  
3675.000000	99.622185  
3674.000000	99.626254  
3673.000000	99.632083  
3672.000000	99.637935  
3671.000000	99.641663  
3670.000000	99.640468  
3669.000000	99.633816  
3668.000000	99.624534  
3667.000000	99.615537  
3666.000000	99.606823  
3665.000000	99.597067  
3664.000000	99.586472  
3663.000000	99.576875  
3662.000000	99.570024  
3661.000000	99.566486  
3660.000000	99.566051  
3659.000000	99.568790  
3658.000000	99.574677  
3657.000000	99.582583  
3656.000000	99.590153  
3655.000000	99.595632  
3654.000000	99.599431  
3653.000000	99.602660  
3652.000000	99.605640  
3651.000000	99.608326  
3650.000000	99.611414  
3649.000000	99.615473  
3648.000000	99.619461  
3647.000000	99.622036  
3646.000000	99.623233  
3645.000000	99.624087  
3644.000000	99.625254  
3643.000000	99.626523  
3642.000000	99.627861  
3641.000000	99.630185  
3640.000000	99.634299  
3639.000000	99.639601  
3638.000000	99.644363  
3637.000000	99.647308  
3636.000000	99.648316  
3635.000000	99.647972  
3634.000000	99.647152  
3633.000000	99.646978  
3632.000000	99.648206  
3631.000000	99.650011  
3630.000000	99.650118  
3629.000000	99.647456  
3628.000000	99.643977  
3627.000000	99.642716  
3626.000000	99.644591  
3625.000000	99.647893  
3624.000000	99.650983  
3623.000000	99.654078  
3622.000000	99.658072  
3621.000000	99.662432  
3620.000000	99.665189  
3619.000000	99.665253  
3618.000000	99.664019  
3617.000000	99.663942  
3616.000000	99.666121  
3615.000000	99.669796  
3614.000000	99.673349  
3613.000000	99.675582  
3612.000000	99.676461  
3611.000000	99.676855  
3610.000000	99.677639  
3609.000000	99.679342  
3608.000000	99.682205  
3607.000000	99.685965  
3606.000000	99.689798  
3605.000000	99.692660  
3604.000000	99.693926  
3603.000000	99.693908  
3602.000000	99.693886  
3601.000000	99.695314  
3600.000000	99.698603  
3599.000000	99.702657  
3598.000000	99.705745  
3597.000000	99.707016  
3596.000000	99.707152  
3595.000000	99.707857  
3594.000000	99.710241  
3593.000000	99.713659  
3592.000000	99.716466  
3591.000000	99.717680  
3590.000000	99.717562  
3589.000000	99.717151  
3588.000000	99.717297  
3587.000000	99.717861  
3586.000000	99.718078  
3585.000000	99.717563  
3584.000000	99.716494  
3583.000000	99.715152  
3582.000000	99.713885  
3581.000000	99.713117  
3580.000000	99.712950  
3579.000000	99.712840  
3578.000000	99.712020  
3577.000000	99.710387  
3576.000000	99.708604  
3575.000000	99.707252  
3574.000000	99.706202  
3573.000000	99.705034  
3572.000000	99.703948  
3571.000000	99.703860  
3570.000000	99.705360  
3569.000000	99.707740  
3568.000000	99.709360  
3567.000000	99.709214  
3566.000000	99.707868  
3565.000000	99.706770  
3564.000000	99.706863  
3563.000000	99.707901  
3562.000000	99.708841  
3561.000000	99.708658  
3560.000000	99.707058  
3559.000000	99.704705  
3558.000000	99.702826  
3557.000000	99.702209  
3556.000000	99.702478  
3555.000000	99.702407  
3554.000000	99.701102  
3553.000000	99.698802  
3552.000000	99.696540  
3551.000000	99.695173  
3550.000000	99.694787  
3549.000000	99.694975  
3548.000000	99.695272  
3547.000000	99.695374  
3546.000000	99.695161  
3545.000000	99.694654  
3544.000000	99.693974  
3543.000000	99.693285  
3542.000000	99.692726  
3541.000000	99.692359  
3540.000000	99.692176  
3539.000000	99.692160  
3538.000000	99.692316  
3537.000000	99.692587  
3536.000000	99.692793  
3535.000000	99.692750  
3534.000000	99.692420  
3533.000000	99.691917  
3532.000000	99.691357  
3531.000000	99.690813  
3530.000000	99.690434  
3529.000000	99.690469  
3528.000000	99.691046  
3527.000000	99.691942  
3526.000000	99.692698  
3525.000000	99.693022  
3524.000000	99.693020  
3523.000000	99.693021  
3522.000000	99.693182  
3521.000000	99.693315  
3520.000000	99.693123  
3519.000000	99.692563  
3518.000000	99.691951  
3517.000000	99.691753  
3516.000000	99.692207  
3515.000000	99.693162  
3514.000000	99.694149  
3513.000000	99.694656  
3512.000000	99.694430  
3511.000000	99.693619  
3510.000000	99.692735  
3509.000000	99.692275  
3508.000000	99.692363  
3507.000000	99.692770  
3506.000000	99.693224  
3505.000000	99.693618  
3504.000000	99.693950  
3503.000000	99.694237  
3502.000000	99.694559  
3501.000000	99.695002  
3500.000000	99.695378  
3499.000000	99.695128  
3498.000000	99.693780  
3497.000000	99.691507  
3496.000000	99.689172  
3495.000000	99.687666  
3494.000000	99.687267  
3493.000000	99.687662  
3492.000000	99.688353  
3491.000000	99.688977  
3490.000000	99.689340  
3489.000000	99.689363  
3488.000000	99.689125  
3487.000000	99.688855  
3486.000000	99.688651  
3485.000000	99.688196  
3484.000000	99.686999  
3483.000000	99.685056  
3482.000000	99.683133  
3481.000000	99.682083  
3480.000000	99.681836  
3479.000000	99.681366  
3478.000000	99.679773  
3477.000000	99.677181  
3476.000000	99.674566  
3475.000000	99.672808  
3474.000000	99.672092  
3473.000000	99.672107  
3472.000000	99.672423  
3471.000000	99.672667  
3470.000000	99.672588  
3469.000000	99.672130  
3468.000000	99.671369  
3467.000000	99.670283  
3466.000000	99.668643  
3465.000000	99.666216  
3464.000000	99.663055  
3463.000000	99.659629  
3462.000000	99.656665  
3461.000000	99.654718  
3460.000000	99.653817  
3459.000000	99.653512  
3458.000000	99.653307  
3457.000000	99.653017  
3456.000000	99.652607  
3455.000000	99.651906  
3454.000000	99.650668  
3453.000000	99.648848  
3452.000000	99.646683  
3451.000000	99.644580  
3450.000000	99.643017  
3449.000000	99.642358  
3448.000000	99.642500  
3447.000000	99.642753  
3446.000000	99.642383  
3445.000000	99.641326  
3444.000000	99.640154  
3443.000000	99.639451  
3442.000000	99.639391  
3441.000000	99.639769  
3440.000000	99.640103  
3439.000000	99.639700  
3438.000000	99.637988  
3437.000000	99.634960  
3436.000000	99.631206  
3435.000000	99.627537  
3434.000000	99.624593  
3433.000000	99.622661  
3432.000000	99.621614  
3431.000000	99.620941  
3430.000000	99.620142  
3429.000000	99.619148  
3428.000000	99.618179  
3427.000000	99.617215  
3426.000000	99.615912  
3425.000000	99.614107  
3424.000000	99.612166  
3423.000000	99.610650  
3422.000000	99.609687  
3421.000000	99.608818  
3420.000000	99.607487  
3419.000000	99.605672  
3418.000000	99.603994  
3417.000000	99.603129  
3416.000000	99.603116  
3415.000000	99.603249  
3414.000000	99.602701  
3413.000000	99.601317  
3412.000000	99.599678  
3411.000000	99.598498  
3410.000000	99.597998  
3409.000000	99.597883  
3408.000000	99.597683  
3407.000000	99.597073  
3406.000000	99.596030  
3405.000000	99.594844  
3404.000000	99.593944  
3403.000000	99.593518  
3402.000000	99.593327  
3401.000000	99.592936  
3400.000000	99.592174  
3399.000000	99.591273  
3398.000000	99.590601  
3397.000000	99.590327  
3396.000000	99.590362  
3395.000000	99.590496  
3394.000000	99.590559  
3393.000000	99.590499  
3392.000000	99.590354  
3391.000000	99.590155  
3390.000000	99.589853  
3389.000000	99.589372  
3388.000000	99.588735  
3387.000000	99.588136  
3386.000000	99.587838  
3385.000000	99.587941  
3384.000000	99.588217  
3383.000000	99.588223  
3382.000000	99.587715  
3381.000000	99.586991  
3380.000000	99.586714  
3379.000000	99.587275  
3378.000000	99.588428  
3377.000000	99.589553  
3376.000000	99.590273  
3375.000000	99.590713  
3374.000000	99.591164  
3373.000000	99.591712  
3372.000000	99.592224  
3371.000000	99.592571  
3370.000000	99.592739  
3369.000000	99.592732  
3368.000000	99.592498  
3367.000000	99.592045  
3366.000000	99.591514  
3365.000000	99.591112  
3364.000000	99.590997  
3363.000000	99.591212  
3362.000000	99.591693  
3361.000000	99.592330  
3360.000000	99.593003  
3359.000000	99.593625  
3358.000000	99.594149  
3357.000000	99.594554  
3356.000000	99.594835  
3355.000000	99.595008  
3354.000000	99.595122  
3353.000000	99.595245  
3352.000000	99.595420  
3351.000000	99.595643  
3350.000000	99.595892  
3349.000000	99.596158  
3348.000000	99.596452  
3347.000000	99.596775  
3346.000000	99.597090  
3345.000000	99.597336  
3344.000000	99.597478  
3343.000000	99.597535  
3342.000000	99.597570  
3341.000000	99.597655  
3340.000000	99.597823  
3339.000000	99.598042  
3338.000000	99.598227  
3337.000000	99.598298  
3336.000000	99.598246  
3335.000000	99.598156  
3334.000000	99.598118  
3333.000000	99.598118  
3332.000000	99.598062  
3331.000000	99.597898  
3330.000000	99.597689  
3329.000000	99.597565  
3328.000000	99.597586  
3327.000000	99.597693  
3326.000000	99.597773  
3325.000000	99.597762  
3324.000000	99.597659  
3323.000000	99.597458  
3322.000000	99.597158  
3321.000000	99.596826  
3320.000000	99.596607  
3319.000000	99.596615  
3318.000000	99.596841  
3317.000000	99.597133  
3316.000000	99.597276  
3315.000000	99.597134  
3314.000000	99.596743  
3313.000000	99.596329  
3312.000000	99.596146  
3311.000000	99.596286  
3310.000000	99.596653  
3309.000000	99.597062  
3308.000000	99.597351  
3307.000000	99.597370  
3306.000000	99.596969  
3305.000000	99.596081  
3304.000000	99.594861  
3303.000000	99.593669  
3302.000000	99.592874  
3301.000000	99.592608  
3300.000000	99.592683  
3299.000000	99.592737  
3298.000000	99.592533  
3297.000000	99.592163  
3296.000000	99.591945  
3295.000000	99.592143  
3294.000000	99.592728  
3293.000000	99.593369  
3292.000000	99.593709  
3291.000000	99.593706  
3290.000000	99.593690  
3289.000000	99.594000  
3288.000000	99.594530  
3287.000000	99.594745  
3286.000000	99.594201  
3285.000000	99.592964  
3284.000000	99.591527  
3283.000000	99.590404  
3282.000000	99.589857  
3281.000000	99.589924  
3280.000000	99.590518  
3279.000000	99.591453  
3278.000000	99.592465  
3277.000000	99.593226  
3276.000000	99.593396  
3275.000000	99.592808  
3274.000000	99.591668  
3273.000000	99.590522  
3272.000000	99.589860  
3271.000000	99.589773  
3270.000000	99.590048  
3269.000000	99.590433  
3268.000000	99.590713  
3267.000000	99.590636  
3266.000000	99.590006  
3265.000000	99.588892  
3264.000000	99.587622  
3263.000000	99.586489  
3262.000000	99.585549  
3261.000000	99.584770  
3260.000000	99.584256  
3259.000000	99.584168  
3258.000000	99.584421  
3257.000000	99.584610  
3256.000000	99.584325  
3255.000000	99.583553  
3254.000000	99.582722  
3253.000000	99.582282  
3252.000000	99.582226  
3251.000000	99.582097  
3250.000000	99.581495  
3249.000000	99.580506  
3248.000000	99.579578  
3247.000000	99.579105  
3246.000000	99.579249  
3245.000000	99.580017  
3244.000000	99.581324  
3243.000000	99.582897  
3242.000000	99.584225  
3241.000000	99.584703  
3240.000000	99.583963  
3239.000000	99.582318  
3238.000000	99.580849  
3237.000000	99.580605  
3236.000000	99.581526  
3235.000000	99.582400  
3234.000000	99.582155  
3233.000000	99.580997  
3232.000000	99.580014  
3231.000000	99.579778  
3230.000000	99.579697  
3229.000000	99.578725  
3228.000000	99.576413  
3227.000000	99.573351  
3226.000000	99.570806  
3225.000000	99.569802  
3224.000000	99.570274  
3223.000000	99.571150  
3222.000000	99.571520  
3221.000000	99.571635  
3220.000000	99.572414  
3219.000000	99.574201  
3218.000000	99.576387  
3217.000000	99.578108  
3216.000000	99.578960  
3215.000000	99.579079  
3214.000000	99.578968  
3213.000000	99.579283  
3212.000000	99.580447  
3211.000000	99.582311  
3210.000000	99.584270  
3209.000000	99.585674  
3208.000000	99.586044  
3207.000000	99.585191  
3206.000000	99.583526  
3205.000000	99.582168  
3204.000000	99.582208  
3203.000000	99.583816  
3202.000000	99.586302  
3201.000000	99.588974  
3200.000000	99.591645  
3199.000000	99.594204  
3198.000000	99.596195  
3197.000000	99.597162  
3196.000000	99.597192  
3195.000000	99.596896  
3194.000000	99.596924  
3193.000000	99.597564  
3192.000000	99.598657  
3191.000000	99.599733  
3190.000000	99.600337  
3189.000000	99.600350  
3188.000000	99.600051  
3187.000000	99.599902  
3186.000000	99.600290  
3185.000000	99.601344  
3184.000000	99.602815  
3183.000000	99.604167  
3182.000000	99.604976  
3181.000000	99.605310  
3180.000000	99.605635  
3179.000000	99.606354  
3178.000000	99.607476  
3177.000000	99.608719  
3176.000000	99.609794  
3175.000000	99.610591  
3174.000000	99.611202  
3173.000000	99.611877  
3172.000000	99.612865  
3171.000000	99.614216  
3170.000000	99.615691  
3169.000000	99.616921  
3168.000000	99.617674  
3167.000000	99.617931  
3166.000000	99.617854  
3165.000000	99.617720  
3164.000000	99.617824  
3163.000000	99.618317  
3162.000000	99.619136  
3161.000000	99.620073  
3160.000000	99.620914  
3159.000000	99.621568  
3158.000000	99.622132  
3157.000000	99.622821  
3156.000000	99.623763  
3155.000000	99.624834  
3154.000000	99.625771  
3153.000000	99.626431  
3152.000000	99.626841  
3151.000000	99.627051  
3150.000000	99.627111  
3149.000000	99.627223  
3148.000000	99.627717  
3147.000000	99.628749  
3146.000000	99.630193  
3145.000000	99.631856  
3144.000000	99.633639  
3143.000000	99.635358  
3142.000000	99.636664  
3141.000000	99.637362  
3140.000000	99.637628  
3139.000000	99.637819  
3138.000000	99.638179  
3137.000000	99.638819  
3136.000000	99.639788  
3135.000000	99.640982  
3134.000000	99.642124  
3133.000000	99.643027  
3132.000000	99.643699  
3131.000000	99.644138  
3130.000000	99.644294  
3129.000000	99.644415  
3128.000000	99.645102  
3127.000000	99.646736  
3126.000000	99.649062  
3125.000000	99.651419  
3124.000000	99.653333  
3123.000000	99.654719  
3122.000000	99.655692  
3121.000000	99.656505  
3120.000000	99.657507  
3119.000000	99.658837  
3118.000000	99.660180  
3117.000000	99.661088  
3116.000000	99.661496  
3115.000000	99.661761  
3114.000000	99.662224  
3113.000000	99.662959  
3112.000000	99.663911  
3111.000000	99.665020  
3110.000000	99.666171  
3109.000000	99.667203  
3108.000000	99.668046  
3107.000000	99.668717  
3106.000000	99.669226  
3105.000000	99.669630  
3104.000000	99.670190  
3103.000000	99.671221  
3102.000000	99.672681  
3101.000000	99.674044  
3100.000000	99.674675  
3099.000000	99.674301  
3098.000000	99.673254  
3097.000000	99.672428  
3096.000000	99.672839  
3095.000000	99.674821  
3094.000000	99.677521  
3093.000000	99.679576  
3092.000000	99.680341  
3091.000000	99.680047  
3090.000000	99.679019  
3089.000000	99.677619  
3088.000000	99.676939  
3087.000000	99.678431  
3086.000000	99.682281  
3085.000000	99.686793  
3084.000000	99.689936  
3083.000000	99.691082  
3082.000000	99.690876  
3081.000000	99.690142  
3080.000000	99.689472  
3079.000000	99.689406  
3078.000000	99.690204  
3077.000000	99.691379  
3076.000000	99.691860  
3075.000000	99.690868  
3074.000000	99.688741  
3073.000000	99.686873  
3072.000000	99.686520  
3071.000000	99.687427  
3070.000000	99.688101  
3069.000000	99.687797  
3068.000000	99.687673  
3067.000000	99.689064  
3066.000000	99.690967  
3065.000000	99.690528  
3064.000000	99.686375  
3063.000000	99.680549  
3062.000000	99.676599  
3061.000000	99.676341  
3060.000000	99.678771  
3059.000000	99.681546  
3058.000000	99.683039  
3057.000000	99.683335  
3056.000000	99.683578  
3055.000000	99.684116  
3054.000000	99.683382  
3053.000000	99.679423  
3052.000000	99.672804  
3051.000000	99.666915  
3050.000000	99.664377  
3049.000000	99.663728  
3048.000000	99.660997  
3047.000000	99.654495  
3046.000000	99.646664  
3045.000000	99.640745  
3044.000000	99.636676  
3043.000000	99.631337  
3042.000000	99.622397  
3041.000000	99.610649  
3040.000000	99.598369  
3039.000000	99.586424  
3038.000000	99.574010  
3037.000000	99.560803  
3036.000000	99.548011  
3035.000000	99.536805  
3034.000000	99.526443  
3033.000000	99.514416  
3032.000000	99.498287  
3031.000000	99.477391  
3030.000000	99.452781  
3029.000000	99.426202  
3028.000000	99.399747  
3027.000000	99.375442  
3026.000000	99.353876  
3025.000000	99.333286  
3024.000000	99.310755  
3023.000000	99.284632  
3022.000000	99.255770  
3021.000000	99.226600  
3020.000000	99.199204  
3019.000000	99.173806  
3018.000000	99.148332  
3017.000000	99.119307  
3016.000000	99.084169  
3015.000000	99.043659  
3014.000000	99.001932  
3013.000000	98.963639  
3012.000000	98.930345  
3011.000000	98.899642  
3010.000000	98.867546  
3009.000000	98.831674  
3008.000000	98.792556  
3007.000000	98.752716  
3006.000000	98.714753  
3005.000000	98.679601  
3004.000000	98.645756  
3003.000000	98.610203  
3002.000000	98.570915  
3001.000000	98.529010  
3000.000000	98.488205  
2999.000000	98.451801  
2998.000000	98.420552  
2997.000000	98.393871  
2996.000000	98.371845  
2995.000000	98.353436  
2994.000000	98.331753  
2993.000000	98.294349  
2992.000000	98.233144  
2991.000000	98.155817  
2990.000000	98.084673  
2989.000000	98.041060  
2988.000000	98.031006  
2987.000000	98.045334  
2986.000000	98.070174  
2985.000000	98.095424  
2984.000000	98.115317  
2983.000000	98.126687  
2982.000000	98.129661  
2981.000000	98.127706  
2980.000000	98.124399  
2979.000000	98.120803  
2978.000000	98.116960  
2977.000000	98.114017  
2976.000000	98.112770  
2975.000000	98.111494  
2974.000000	98.108006  
2973.000000	98.103827  
2972.000000	98.104099  
2971.000000	98.112942  
2970.000000	98.130449  
2969.000000	98.154388  
2968.000000	98.183025  
2967.000000	98.215473  
2966.000000	98.250517  
2965.000000	98.286192  
2964.000000	98.320180  
2963.000000	98.350325  
2962.000000	98.375583  
2961.000000	98.396927  
2960.000000	98.416715  
2959.000000	98.436843  
2958.000000	98.457945  
2957.000000	98.480130  
2956.000000	98.503164  
2955.000000	98.525684  
2954.000000	98.545794  
2953.000000	98.563570  
2952.000000	98.582013  
2951.000000	98.604142  
2950.000000	98.629219  
2949.000000	98.652660  
2948.000000	98.669618  
2947.000000	98.678186  
2946.000000	98.680167  
2945.000000	98.679980  
2944.000000	98.682332  
2943.000000	98.689917  
2942.000000	98.702656  
2941.000000	98.718575  
2940.000000	98.735076  
2939.000000	98.749674  
2938.000000	98.760602  
2937.000000	98.767828  
2936.000000	98.773464  
2935.000000	98.780335  
2934.000000	98.789658  
2933.000000	98.800179  
2932.000000	98.809312  
2931.000000	98.814918  
2930.000000	98.816414  
2929.000000	98.814989  
2928.000000	98.812921  
2927.000000	98.811971  
2926.000000	98.811821  
2925.000000	98.810105  
2924.000000	98.804450  
2923.000000	98.794822  
2922.000000	98.783797  
2921.000000	98.774251  
2920.000000	98.766718  
2919.000000	98.759173  
2918.000000	98.749148  
2917.000000	98.735311  
2916.000000	98.716872  
2915.000000	98.692827  
2914.000000	98.663507  
2913.000000	98.632800  
2912.000000	98.607040  
2911.000000	98.590259  
2910.000000	98.580867  
2909.000000	98.573733  
2908.000000	98.565156  
2907.000000	98.554616  
2906.000000	98.541530  
2905.000000	98.522299  
2904.000000	98.493323  
2903.000000	98.458170  
2902.000000	98.430144  
2901.000000	98.424464  
2900.000000	98.446466  
2899.000000	98.486823  
2898.000000	98.528158  
2897.000000	98.557322  
2896.000000	98.571948  
2895.000000	98.577460  
2894.000000	98.580644  
2893.000000	98.585850  
2892.000000	98.594453  
2891.000000	98.605335  
2890.000000	98.615875  
2889.000000	98.623781  
2888.000000	98.628601  
2887.000000	98.631638  
2886.000000	98.634866  
2885.000000	98.640444  
2884.000000	98.650758  
2883.000000	98.667678  
2882.000000	98.691091  
2881.000000	98.718595  
2880.000000	98.747285  
2879.000000	98.775910  
2878.000000	98.804751  
2877.000000	98.833413  
2876.000000	98.859643  
2875.000000	98.881135  
2874.000000	98.898186  
2873.000000	98.913514  
2872.000000	98.929279  
2871.000000	98.945202  
2870.000000	98.960214  
2869.000000	98.975070  
2868.000000	98.992223  
2867.000000	99.013363  
2866.000000	99.038078  
2865.000000	99.065020  
2864.000000	99.093559  
2863.000000	99.123915  
2862.000000	99.156032  
2861.000000	99.188779  
2860.000000	99.220558  
2859.000000	99.250897  
2858.000000	99.281256  
2857.000000	99.313486  
2856.000000	99.346870  
2855.000000	99.377314  
2854.000000	99.400506  
2853.000000	99.415641  
2852.000000	99.425293  
2851.000000	99.432587  
2850.000000	99.439646  
2849.000000	99.447842  
2848.000000	99.457633  
2847.000000	99.467850  
2846.000000	99.476430  
2845.000000	99.482287  
2844.000000	99.485906  
2843.000000	99.488357  
2842.000000	99.490679  
2841.000000	99.493920  
2840.000000	99.498432  
2839.000000	99.503161  
2838.000000	99.507002  
2837.000000	99.510987  
2836.000000	99.517515  
2835.000000	99.526845  
2834.000000	99.535862  
2833.000000	99.541269  
2832.000000	99.543110  
2831.000000	99.544375  
2830.000000	99.548000  
2829.000000	99.554868  
2828.000000	99.563720  
2827.000000	99.572014  
2826.000000	99.577478  
2825.000000	99.579819  
2824.000000	99.580721  
2823.000000	99.581848  
2822.000000	99.583386  
2821.000000	99.584797  
2820.000000	99.586064  
2819.000000	99.587519  
2818.000000	99.589268  
2817.000000	99.591497  
2816.000000	99.594638  
2815.000000	99.598491  
2814.000000	99.601868  
2813.000000	99.603901  
2812.000000	99.605102  
2811.000000	99.606437  
2810.000000	99.608027  
2809.000000	99.609660  
2808.000000	99.611896  
2807.000000	99.615457  
2806.000000	99.619725  
2805.000000	99.622910  
2804.000000	99.623886  
2803.000000	99.623235  
2802.000000	99.622496  
2801.000000	99.622847  
2800.000000	99.624465  
2799.000000	99.626685  
2798.000000	99.628672  
2797.000000	99.630203  
2796.000000	99.631826  
2795.000000	99.634103  
2794.000000	99.636775  
2793.000000	99.638804  
2792.000000	99.639242  
2791.000000	99.638033  
2790.000000	99.636195  
2789.000000	99.635239  
2788.000000	99.636040  
2787.000000	99.638247  
2786.000000	99.640814  
2785.000000	99.643071  
2784.000000	99.645047  
2783.000000	99.646851  
2782.000000	99.648269  
2781.000000	99.649087  
2780.000000	99.649432  
2779.000000	99.649624  
2778.000000	99.649913  
2777.000000	99.650468  
2776.000000	99.651361  
2775.000000	99.652369  
2774.000000	99.653044  
2773.000000	99.653256  
2772.000000	99.653504  
2771.000000	99.654424  
2770.000000	99.656087  
2769.000000	99.657952  
2768.000000	99.659427  
2767.000000	99.660329  
2766.000000	99.660795  
2765.000000	99.661003  
2764.000000	99.661069  
2763.000000	99.661096  
2762.000000	99.661243  
2761.000000	99.661717  
2760.000000	99.662622  
2759.000000	99.663781  
2758.000000	99.664846  
2757.000000	99.665706  
2756.000000	99.666668  
2755.000000	99.668052  
2754.000000	99.669714  
2753.000000	99.671166  
2752.000000	99.672184  
2751.000000	99.673057  
2750.000000	99.674181  
2749.000000	99.675547  
2748.000000	99.676744  
2747.000000	99.677436  
2746.000000	99.677744  
2745.000000	99.678129  
2744.000000	99.678862  
2743.000000	99.679683  
2742.000000	99.680154  
2741.000000	99.680299  
2740.000000	99.680658  
2739.000000	99.681639  
2738.000000	99.683056  
2737.000000	99.684456  
2736.000000	99.685682  
2735.000000	99.686886  
2734.000000	99.688176  
2733.000000	99.689587  
2732.000000	99.691242  
2731.000000	99.693186  
2730.000000	99.695087  
2729.000000	99.696452  
2728.000000	99.697210  
2727.000000	99.697861  
2726.000000	99.698977  
2725.000000	99.700706  
2724.000000	99.702761  
2723.000000	99.704612  
2722.000000	99.705649  
2721.000000	99.705504  
2720.000000	99.704446  
2719.000000	99.703369  
2718.000000	99.703147  
2717.000000	99.703920  
2716.000000	99.705050  
2715.000000	99.705716  
2714.000000	99.705572  
2713.000000	99.704916  
2712.000000	99.704381  
2711.000000	99.704532  
2710.000000	99.705619  
2709.000000	99.707474  
2708.000000	99.709569  
2707.000000	99.711380  
2706.000000	99.712807  
2705.000000	99.714095  
2704.000000	99.715233  
2703.000000	99.715777  
2702.000000	99.715535  
2701.000000	99.715142  
2700.000000	99.715436  
2699.000000	99.716373  
2698.000000	99.717104  
2697.000000	99.717079  
2696.000000	99.716460  
2695.000000	99.715440  
2694.000000	99.713881  
2693.000000	99.711972  
2692.000000	99.710606  
2691.000000	99.710572  
2690.000000	99.711788  
2689.000000	99.713700  
2688.000000	99.715981  
2687.000000	99.718232  
2686.000000	99.719434  
2685.000000	99.718568  
2684.000000	99.715756  
2683.000000	99.712249  
2682.000000	99.709139  
2681.000000	99.706656  
2680.000000	99.704912  
2679.000000	99.704499  
2678.000000	99.705792  
2677.000000	99.708002  
2676.000000	99.709530  
2675.000000	99.709431  
2674.000000	99.708205  
2673.000000	99.707108  
2672.000000	99.706828  
2671.000000	99.706972  
2670.000000	99.706641  
2669.000000	99.705194  
2668.000000	99.702521  
2667.000000	99.698893  
2666.000000	99.694793  
2665.000000	99.690764  
2664.000000	99.687197  
2663.000000	99.684230  
2662.000000	99.681817  
2661.000000	99.679827  
2660.000000	99.678121  
2659.000000	99.676664  
2658.000000	99.675547  
2657.000000	99.674741  
2656.000000	99.673900  
2655.000000	99.672745  
2654.000000	99.671608  
2653.000000	99.671091  
2652.000000	99.671003  
2651.000000	99.670217  
2650.000000	99.668018  
2649.000000	99.665126  
2648.000000	99.662833  
2647.000000	99.661524  
2646.000000	99.660723  
2645.000000	99.660238  
2644.000000	99.660342  
2643.000000	99.660751  
2642.000000	99.660293  
2641.000000	99.657965  
2640.000000	99.653963  
2639.000000	99.649618  
2638.000000	99.646551  
2637.000000	99.645698  
2636.000000	99.646647  
2635.000000	99.647819  
2634.000000	99.647967  
2633.000000	99.647586  
2632.000000	99.648162  
2631.000000	99.650213  
2630.000000	99.652759  
2629.000000	99.654546  
2628.000000	99.655076  
2627.000000	99.654325  
2626.000000	99.652431  
2625.000000	99.650060  
2624.000000	99.648338  
2623.000000	99.647781  
2622.000000	99.647818  
2621.000000	99.647785  
2620.000000	99.647908  
2619.000000	99.648745  
2618.000000	99.650161  
2617.000000	99.651520  
2616.000000	99.652594  
2615.000000	99.653566  
2614.000000	99.654328  
2613.000000	99.654422  
2612.000000	99.653690  
2611.000000	99.652527  
2610.000000	99.651513  
2609.000000	99.651040  
2608.000000	99.651277  
2607.000000	99.652111  
2606.000000	99.653096  
2605.000000	99.653692  
2604.000000	99.653678  
2603.000000	99.653278  
2602.000000	99.652989  
2601.000000	99.653256  
2600.000000	99.654138  
2599.000000	99.655213  
2598.000000	99.655949  
2597.000000	99.656297  
2596.000000	99.656674  
2595.000000	99.657361  
2594.000000	99.658186  
2593.000000	99.658837  
2592.000000	99.659249  
2591.000000	99.659548  
2590.000000	99.659764  
2589.000000	99.659792  
2588.000000	99.659630  
2587.000000	99.659484  
2586.000000	99.659593  
2585.000000	99.660073  
2584.000000	99.660932  
2583.000000	99.662058  
2582.000000	99.663238  
2581.000000	99.664342  
2580.000000	99.665397  
2579.000000	99.666328  
2578.000000	99.666814  
2577.000000	99.666735  
2576.000000	99.666612  
2575.000000	99.667196  
2574.000000	99.668566  
2573.000000	99.669954  
2572.000000	99.670592  
2571.000000	99.670436  
2570.000000	99.670024  
2569.000000	99.669828  
2568.000000	99.669859  
2567.000000	99.669814  
2566.000000	99.669432  
2565.000000	99.668848  
2564.000000	99.668552  
2563.000000	99.668839  
2562.000000	99.669406  
2561.000000	99.669860  
2560.000000	99.670369  
2559.000000	99.671323  
2558.000000	99.672636  
2557.000000	99.674003  
2556.000000	99.675514  
2555.000000	99.677267  
2554.000000	99.678630  
2553.000000	99.678843  
2552.000000	99.678313  
2551.000000	99.678405  
2550.000000	99.679695  
2549.000000	99.681209  
2548.000000	99.681711  
2547.000000	99.681079  
2546.000000	99.680099  
2545.000000	99.679420  
2544.000000	99.679057  
2543.000000	99.678591  
2542.000000	99.677612  
2541.000000	99.676177  
2540.000000	99.674946  
2539.000000	99.674574  
2538.000000	99.674897  
2537.000000	99.675027  
2536.000000	99.674281  
2535.000000	99.672740  
2534.000000	99.670890  
2533.000000	99.669060  
2532.000000	99.667301  
2531.000000	99.665632  
2530.000000	99.664416  
2529.000000	99.664528  
2528.000000	99.666772  
2527.000000	99.670860  
2526.000000	99.675227  
2525.000000	99.678450  
2524.000000	99.680652  
2523.000000	99.682820  
2522.000000	99.684872  
2521.000000	99.685296  
2520.000000	99.683017  
2519.000000	99.678930  
2518.000000	99.675275  
2517.000000	99.673669  
2516.000000	99.674034  
2515.000000	99.675098  
2514.000000	99.675394  
2513.000000	99.674034  
2512.000000	99.671068  
2511.000000	99.667471  
2510.000000	99.664639  
2509.000000	99.663487  
2508.000000	99.663862  
2507.000000	99.664729  
2506.000000	99.665034  
2505.000000	99.664494  
2504.000000	99.663564  
2503.000000	99.662844  
2502.000000	99.662742  
2501.000000	99.663585  
2500.000000	99.665586  
2499.000000	99.668391  
2498.000000	99.670907  
2497.000000	99.671991  
2496.000000	99.671365  
2495.000000	99.669844  
2494.000000	99.668696  
2493.000000	99.668697  
2492.000000	99.669697  
2491.000000	99.670930  
2490.000000	99.671758  
2489.000000	99.672148  
2488.000000	99.672451  
2487.000000	99.672885  
2486.000000	99.673340  
2485.000000	99.673572  
2484.000000	99.673428  
2483.000000	99.672943  
2482.000000	99.672361  
2481.000000	99.672030  
2480.000000	99.672080  
2479.000000	99.672250  
2478.000000	99.672137  
2477.000000	99.671595  
2476.000000	99.670801  
2475.000000	99.670034  
2474.000000	99.669507  
2473.000000	99.669302  
2472.000000	99.669260  
2471.000000	99.669038  
2470.000000	99.668533  
2469.000000	99.668168  
2468.000000	99.668444  
2467.000000	99.669294  
2466.000000	99.670131  
2465.000000	99.670493  
2464.000000	99.670293  
2463.000000	99.669555  
2462.000000	99.668418  
2461.000000	99.667407  
2460.000000	99.667175  
2459.000000	99.667749  
2458.000000	99.668357  
2457.000000	99.668207  
2456.000000	99.667165  
2455.000000	99.665551  
2454.000000	99.663838  
2453.000000	99.662771  
2452.000000	99.663038  
2451.000000	99.664339  
2450.000000	99.665178  
2449.000000	99.664386  
2448.000000	99.662528  
2447.000000	99.661192  
2446.000000	99.661045  
2445.000000	99.661318  
2444.000000	99.661049  
2443.000000	99.660128  
2442.000000	99.659040  
2441.000000	99.658236  
2440.000000	99.657938  
2439.000000	99.658105  
2438.000000	99.658457  
2437.000000	99.658815  
2436.000000	99.659355  
2435.000000	99.660262  
2434.000000	99.661278  
2433.000000	99.661953  
2432.000000	99.662336  
2431.000000	99.663021  
2430.000000	99.664461  
2429.000000	99.666522  
2428.000000	99.668606  
2427.000000	99.670058  
2426.000000	99.670618  
2425.000000	99.670668  
2424.000000	99.670963  
2423.000000	99.671875  
2422.000000	99.672976  
2421.000000	99.673533  
2420.000000	99.673347  
2419.000000	99.672956  
2418.000000	99.673085  
2417.000000	99.673969  
2416.000000	99.675110  
2415.000000	99.675631  
2414.000000	99.675018  
2413.000000	99.673636  
2412.000000	99.672461  
2411.000000	99.672251  
2410.000000	99.673131  
2409.000000	99.674777  
2408.000000	99.676616  
2407.000000	99.677997  
2406.000000	99.678752  
2405.000000	99.679561  
2404.000000	99.681054  
2403.000000	99.682551  
2402.000000	99.682607  
2401.000000	99.681006  
2400.000000	99.679330  
2399.000000	99.679255  
2398.000000	99.681031  
2397.000000	99.683861  
2396.000000	99.686652  
2395.000000	99.687938  
2394.000000	99.686274  
2393.000000	99.682092  
2392.000000	99.678259  
2391.000000	99.677309  
2390.000000	99.678763  
2389.000000	99.679922  
2388.000000	99.679015  
2387.000000	99.676354  
2386.000000	99.672959  
2385.000000	99.669500  
2384.000000	99.666599  
2383.000000	99.665088  
2382.000000	99.665578  
2381.000000	99.668188  
2380.000000	99.672558  
2379.000000	99.677772  
2378.000000	99.682573  
2377.000000	99.686129  
2376.000000	99.688239  
2375.000000	99.688700  
2374.000000	99.687330  
2373.000000	99.684694  
2372.000000	99.681827  
2371.000000	99.678855  
2370.000000	99.675088  
2369.000000	99.670799  
2368.000000	99.667322  
2367.000000	99.665150  
2366.000000	99.663532  
2365.000000	99.661918  
2364.000000	99.660224  
2363.000000	99.657660  
2362.000000	99.653160  
2361.000000	99.647871  
2360.000000	99.643981  
2359.000000	99.641961  
2358.000000	99.640739  
2357.000000	99.639975  
2356.000000	99.640179  
2355.000000	99.641221  
2354.000000	99.644290  
2353.000000	99.648988  
2352.000000	99.650989  
2351.000000	99.646428  
2350.000000	99.635335  
2349.000000	99.621819  
2348.000000	99.610391  
2347.000000	99.605075  
2346.000000	99.606143  
2345.000000	99.608111  
2344.000000	99.606134  
2343.000000	99.600616  
2342.000000	99.595825  
2341.000000	99.593012  
2340.000000	99.590925  
2339.000000	99.589009  
2338.000000	99.588618  
2337.000000	99.590010  
2336.000000	99.589797  
2335.000000	99.584902  
2334.000000	99.577955  
2333.000000	99.574019  
2332.000000	99.573558  
2331.000000	99.573416  
2330.000000	99.570722  
2329.000000	99.565230  
2328.000000	99.554578  
2327.000000	99.537396  
2326.000000	99.516456  
2325.000000	99.497674  
2324.000000	99.486960  
2323.000000	99.485573  
2322.000000	99.491846  
2321.000000	99.500848  
2320.000000	99.508551  
2319.000000	99.513824  
2318.000000	99.517775  
2317.000000	99.522155  
2316.000000	99.527699  
2315.000000	99.534566  
2314.000000	99.541046  
2313.000000	99.544868  
2312.000000	99.544670  
2311.000000	99.542023  
2310.000000	99.539406  
2309.000000	99.537634  
2308.000000	99.536194  
2307.000000	99.535291  
2306.000000	99.535988  
2305.000000	99.537892  
2304.000000	99.539527  
2303.000000	99.539999  
2302.000000	99.539438  
2301.000000	99.537655  
2300.000000	99.534564  
2299.000000	99.532076  
2298.000000	99.533048  
2297.000000	99.538164  
2296.000000	99.543883  
2295.000000	99.545583  
2294.000000	99.541721  
2293.000000	99.534800  
2292.000000	99.528600  
2291.000000	99.525087  
2290.000000	99.523850  
2289.000000	99.523089  
2288.000000	99.521487  
2287.000000	99.519466  
2286.000000	99.519307  
2285.000000	99.522965  
2284.000000	99.529919  
2283.000000	99.537215  
2282.000000	99.542203  
2281.000000	99.544502  
2280.000000	99.545375  
2279.000000	99.546017  
2278.000000	99.547117  
2277.000000	99.549220  
2276.000000	99.552322  
2275.000000	99.555461  
2274.000000	99.557607  
2273.000000	99.559138  
2272.000000	99.561381  
2271.000000	99.564639  
2270.000000	99.567572  
2269.000000	99.569090  
2268.000000	99.569968  
2267.000000	99.571829  
2266.000000	99.574966  
2265.000000	99.578002  
2264.000000	99.579618  
2263.000000	99.579898  
2262.000000	99.579882  
2261.000000	99.580309  
2260.000000	99.581083  
2259.000000	99.581852  
2258.000000	99.582757  
2257.000000	99.584392  
2256.000000	99.587063  
2255.000000	99.590258  
2254.000000	99.592898  
2253.000000	99.594385  
2252.000000	99.595031  
2251.000000	99.595668  
2250.000000	99.596814  
2249.000000	99.598335  
2248.000000	99.599881  
2247.000000	99.601295  
2246.000000	99.602641  
2245.000000	99.603997  
2244.000000	99.605334  
2243.000000	99.606579  
2242.000000	99.607718  
2241.000000	99.608833  
2240.000000	99.610033  
2239.000000	99.611331  
2238.000000	99.612609  
2237.000000	99.613759  
2236.000000	99.614772  
2235.000000	99.615696  
2234.000000	99.616583  
2233.000000	99.617499  
2232.000000	99.618514  
2231.000000	99.619615  
2230.000000	99.620674  
2229.000000	99.621566  
2228.000000	99.622319  
2227.000000	99.623095  
2226.000000	99.624017  
2225.000000	99.625072  
2224.000000	99.626116  
2223.000000	99.626901  
2222.000000	99.627281  
2221.000000	99.627538  
2220.000000	99.628269  
2219.000000	99.629572  
2218.000000	99.630603  
2217.000000	99.630430  
2216.000000	99.629195  
2215.000000	99.628074  
2214.000000	99.628091  
2213.000000	99.629578  
2212.000000	99.632479  
2211.000000	99.636409  
2210.000000	99.640358  
2209.000000	99.643202  
2208.000000	99.644726  
2207.000000	99.645551  
2206.000000	99.645907  
2205.000000	99.645370  
2204.000000	99.644168  
2203.000000	99.643452  
2202.000000	99.643763  
2201.000000	99.644967  
2200.000000	99.647692  
2199.000000	99.652319  
2198.000000	99.656724  
2197.000000	99.657364  
2196.000000	99.653539  
2195.000000	99.649144  
2194.000000	99.648586  
2193.000000	99.652054  
2192.000000	99.656075  
2191.000000	99.657641  
2190.000000	99.656493  
2189.000000	99.654346  
2188.000000	99.653330  
2187.000000	99.654843  
2186.000000	99.659081  
2185.000000	99.665712  
2184.000000	99.674817  
2183.000000	99.686215  
2182.000000	99.697838  
2181.000000	99.706290  
2180.000000	99.710040  
2179.000000	99.711253  
2178.000000	99.713668  
2177.000000	99.718851  
2176.000000	99.724610  
2175.000000	99.726957  
2174.000000	99.723661  
2173.000000	99.715926  
2172.000000	99.706553  
2171.000000	99.697281  
2170.000000	99.689023  
2169.000000	99.683761  
2168.000000	99.683661  
2167.000000	99.687953  
2166.000000	99.692772  
2165.000000	99.695058  
2164.000000	99.695168  
2163.000000	99.695838  
2162.000000	99.701883  
2161.000000	99.721045  
2160.000000	99.759285  
2159.000000	99.810528  
2158.000000	99.855167  
2157.000000	99.877050  
2156.000000	99.877574  
2155.000000	99.869611  
2154.000000	99.862753  
2153.000000	99.857572  
2152.000000	99.850425  
2151.000000	99.838439  
2150.000000	99.821684  
2149.000000	99.804849  
2148.000000	99.795474  
2147.000000	99.796879  
2146.000000	99.804074  
2145.000000	99.809610  
2144.000000	99.811777  
2143.000000	99.813267  
2142.000000	99.813960  
2141.000000	99.810653  
2140.000000	99.803610  
2139.000000	99.797871  
2138.000000	99.796612  
2137.000000	99.797346  
2136.000000	99.796465  
2135.000000	99.794056  
2134.000000	99.791962  
2133.000000	99.789770  
2132.000000	99.785496  
2131.000000	99.778773  
2130.000000	99.771059  
2129.000000	99.763241  
2128.000000	99.754764  
2127.000000	99.745402  
2126.000000	99.736962  
2125.000000	99.732334  
2124.000000	99.732323  
2123.000000	99.733828  
2122.000000	99.732166  
2121.000000	99.725583  
2120.000000	99.716270  
2119.000000	99.706342  
2118.000000	99.694650  
2117.000000	99.679537  
2116.000000	99.663594  
2115.000000	99.653013  
2114.000000	99.651524  
2113.000000	99.656116  
2112.000000	99.660106  
2111.000000	99.658988  
2110.000000	99.653353  
2109.000000	99.647926  
2108.000000	99.647664  
2107.000000	99.653406  
2106.000000	99.660722  
2105.000000	99.663765  
2104.000000	99.660781  
2103.000000	99.655063  
2102.000000	99.650968  
2101.000000	99.650329  
2100.000000	99.652488  
2099.000000	99.655999  
2098.000000	99.659486  
2097.000000	99.662183  
2096.000000	99.664681  
2095.000000	99.668413  
2094.000000	99.673418  
2093.000000	99.677030  
2092.000000	99.675937  
2091.000000	99.669641  
2090.000000	99.661415  
2089.000000	99.655532  
2088.000000	99.653301  
2087.000000	99.652460  
2086.000000	99.650484  
2085.000000	99.647866  
2084.000000	99.647439  
2083.000000	99.650785  
2082.000000	99.656205  
2081.000000	99.660194  
2080.000000	99.660385  
2079.000000	99.656814  
2078.000000	99.651343  
2077.000000	99.646443  
2076.000000	99.643688  
2075.000000	99.643046  
2074.000000	99.643813  
2073.000000	99.646042  
2072.000000	99.650278  
2071.000000	99.655838  
2070.000000	99.660511  
2069.000000	99.662725  
2068.000000	99.663216  
2067.000000	99.663881  
2066.000000	99.665393  
2065.000000	99.666824  
2064.000000	99.667342  
2063.000000	99.667339  
2062.000000	99.667749  
2061.000000	99.668839  
2060.000000	99.669880  
2059.000000	99.669899  
2058.000000	99.668804  
2057.000000	99.667996  
2056.000000	99.669446  
2055.000000	99.673555  
2054.000000	99.678040  
2053.000000	99.679791  
2052.000000	99.678036  
2051.000000	99.674934  
2050.000000	99.673297  
2049.000000	99.674419  
2048.000000	99.678183  
2047.000000	99.684164  
2046.000000	99.691835  
2045.000000	99.699946  
2044.000000	99.706645  
2043.000000	99.710466  
2042.000000	99.711167  
2041.000000	99.709820  
2040.000000	99.707774  
2039.000000	99.705156  
2038.000000	99.701149  
2037.000000	99.696371  
2036.000000	99.693876  
2035.000000	99.696425  
2034.000000	99.703350  
2033.000000	99.711080  
2032.000000	99.716658  
2031.000000	99.719637  
2030.000000	99.720689  
2029.000000	99.720183  
2028.000000	99.718564  
2027.000000	99.717138  
2026.000000	99.717956  
2025.000000	99.722830  
2024.000000	99.731720  
2023.000000	99.741605  
2022.000000	99.747993  
2021.000000	99.748666  
2020.000000	99.745196  
2019.000000	99.740574  
2018.000000	99.736441  
2017.000000	99.733001  
2016.000000	99.729816  
2015.000000	99.725465  
2014.000000	99.718219  
2013.000000	99.708629  
2012.000000	99.700139  
2011.000000	99.695784  
2010.000000	99.695713  
2009.000000	99.698724  
2008.000000	99.704052  
2007.000000	99.709877  
2006.000000	99.712126  
2005.000000	99.707908  
2004.000000	99.699124  
2003.000000	99.690681  
2002.000000	99.685570  
2001.000000	99.683337  
2000.000000	99.682469  
1999.000000	99.682188  
1998.000000	99.682180  
1997.000000	99.682275  
1996.000000	99.682765  
1995.000000	99.683860  
1994.000000	99.684644  
1993.000000	99.683512  
1992.000000	99.679852  
1991.000000	99.674658  
1990.000000	99.669662  
1989.000000	99.666573  
1988.000000	99.666423  
1987.000000	99.668466  
1986.000000	99.670127  
1985.000000	99.669058  
1984.000000	99.664947  
1983.000000	99.658916  
1982.000000	99.652542  
1981.000000	99.648480  
1980.000000	99.650162  
1979.000000	99.658646  
1978.000000	99.669971  
1977.000000	99.677968  
1976.000000	99.680696  
1975.000000	99.681336  
1974.000000	99.683049  
1973.000000	99.685404  
1972.000000	99.686215  
1971.000000	99.684632  
1970.000000	99.681436  
1969.000000	99.677711  
1968.000000	99.674060  
1967.000000	99.670436  
1966.000000	99.666789  
1965.000000	99.664587  
1964.000000	99.666831  
1963.000000	99.674991  
1962.000000	99.685885  
1961.000000	99.693458  
1960.000000	99.694548  
1959.000000	99.691073  
1958.000000	99.686660  
1957.000000	99.682559  
1956.000000	99.677800  
1955.000000	99.671902  
1954.000000	99.666077  
1953.000000	99.662281  
1952.000000	99.661620  
1951.000000	99.663195  
1950.000000	99.664110  
1949.000000	99.661361  
1948.000000	99.654355  
1947.000000	99.645430  
1946.000000	99.637802  
1945.000000	99.632950  
1944.000000	99.630085  
1943.000000	99.627629  
1942.000000	99.624846  
1941.000000	99.622179  
1940.000000	99.620392  
1939.000000	99.619790  
1938.000000	99.620209  
1937.000000	99.621163  
1936.000000	99.621711  
1935.000000	99.620655  
1934.000000	99.617373  
1933.000000	99.612688  
1932.000000	99.608346  
1931.000000	99.605259  
1930.000000	99.602696  
1929.000000	99.599320  
1928.000000	99.594678  
1927.000000	99.589568  
1926.000000	99.585039  
1925.000000	99.581075  
1924.000000	99.576371  
1923.000000	99.569744  
1922.000000	99.561894  
1921.000000	99.555156  
1920.000000	99.551038  
1919.000000	99.549000  
1918.000000	99.547852  
1917.000000	99.547155  
1916.000000	99.546653  
1915.000000	99.545123  
1914.000000	99.541102  
1913.000000	99.534732  
1912.000000	99.528128  
1911.000000	99.523298  
1910.000000	99.520222  
1909.000000	99.517643  
1908.000000	99.514889  
1907.000000	99.512112  
1906.000000	99.509269  
1905.000000	99.505956  
1904.000000	99.502000  
1903.000000	99.497533  
1902.000000	99.492980  
1901.000000	99.489179  
1900.000000	99.486589  
1899.000000	99.484297  
1898.000000	99.480925  
1897.000000	99.476734  
1896.000000	99.473536  
1895.000000	99.471942  
1894.000000	99.470390  
1893.000000	99.467744  
1892.000000	99.464912  
1891.000000	99.462873  
1890.000000	99.460879  
1889.000000	99.457730  
1888.000000	99.453638  
1887.000000	99.449456  
1886.000000	99.445340  
1885.000000	99.441561  
1884.000000	99.439318  
1883.000000	99.439508  
1882.000000	99.441633  
1881.000000	99.444624  
1880.000000	99.447624  
1879.000000	99.449691  
1878.000000	99.449924  
1877.000000	99.448252  
1876.000000	99.445237  
1875.000000	99.441038  
1874.000000	99.435830  
1873.000000	99.431142  
1872.000000	99.428746  
1871.000000	99.428386  
1870.000000	99.428748  
1869.000000	99.430779  
1868.000000	99.436534  
1867.000000	99.444295  
1866.000000	99.449251  
1865.000000	99.449273  
1864.000000	99.446410  
1863.000000	99.442806  
1862.000000	99.438359  
1861.000000	99.433780  
1860.000000	99.432585  
1859.000000	99.437201  
1858.000000	99.445491  
1857.000000	99.453381  
1856.000000	99.459439  
1855.000000	99.464409  
1854.000000	99.468308  
1853.000000	99.471178  
1852.000000	99.474788  
1851.000000	99.480556  
1850.000000	99.486784  
1849.000000	99.490267  
1848.000000	99.490350  
1847.000000	99.489290  
1846.000000	99.489346  
1845.000000	99.491250  
1844.000000	99.494621  
1843.000000	99.498377  
1842.000000	99.501307  
1841.000000	99.502681  
1840.000000	99.502361  
1839.000000	99.500586  
1838.000000	99.497764  
1837.000000	99.495352  
1836.000000	99.495837  
1835.000000	99.499944  
1834.000000	99.504843  
1833.000000	99.506923  
1832.000000	99.505282  
1831.000000	99.502027  
1830.000000	99.499814  
1829.000000	99.499195  
1828.000000	99.499292  
1827.000000	99.498920  
1826.000000	99.496543  
1825.000000	99.492383  
1824.000000	99.489193  
1823.000000	99.488609  
1822.000000	99.488867  
1821.000000	99.488464  
1820.000000	99.489839  
1819.000000	99.496085  
1818.000000	99.504990  
1817.000000	99.510679  
1816.000000	99.511369  
1815.000000	99.510422  
1814.000000	99.509890  
1813.000000	99.507988  
1812.000000	99.503678  
1811.000000	99.499386  
1810.000000	99.497004  
1809.000000	99.495556  
1808.000000	99.494338  
1807.000000	99.494217  
1806.000000	99.495384  
1805.000000	99.496452  
1804.000000	99.496057  
1803.000000	99.493866  
1802.000000	99.490960  
1801.000000	99.490017  
1800.000000	99.493269  
1799.000000	99.499504  
1798.000000	99.504786  
1797.000000	99.507729  
1796.000000	99.512080  
1795.000000	99.522303  
1794.000000	99.538097  
1793.000000	99.553843  
1792.000000	99.564286  
1791.000000	99.569899  
1790.000000	99.574757  
1789.000000	99.582384  
1788.000000	99.594318  
1787.000000	99.609104  
1786.000000	99.622567  
1785.000000	99.632321  
1784.000000	99.641419  
1783.000000	99.654219  
1782.000000	99.671094  
1781.000000	99.689344  
1780.000000	99.707119  
1779.000000	99.724938  
1778.000000	99.743367  
1777.000000	99.761440  
1776.000000	99.777977  
1775.000000	99.793074  
1774.000000	99.808308  
1773.000000	99.826356  
1772.000000	99.848763  
1771.000000	99.874373  
1770.000000	99.900658  
1769.000000	99.924989  
1768.000000	99.947786  
1767.000000	99.973567  
1766.000000	100.005189 
1765.000000	100.040013 
1764.000000	100.073078 
1763.000000	100.101921 
1762.000000	100.127685 
1761.000000	100.152845 
1760.000000	100.179633 
1759.000000	100.208694 
1758.000000	100.237220 
1757.000000	100.260739 
1756.000000	100.278394 
1755.000000	100.295464 
1754.000000	100.315735 
1753.000000	100.334231 
1752.000000	100.341539 
1751.000000	100.335948 
1750.000000	100.326858 
1749.000000	100.321596 
1748.000000	100.317546 
1747.000000	100.310034 
1746.000000	100.298587 
1745.000000	100.282783 
1744.000000	100.260033 
1743.000000	100.230215 
1742.000000	100.196313 
1741.000000	100.159202 
1740.000000	100.117713 
1739.000000	100.075366 
1738.000000	100.040175 
1737.000000	100.013275 
1736.000000	99.986104  
1735.000000	99.949024  
1734.000000	99.903279  
1733.000000	99.863130  
1732.000000	99.837817  
1731.000000	99.821341  
1730.000000	99.804170  
1729.000000	99.784721  
1728.000000	99.767315  
1727.000000	99.756031  
1726.000000	99.750419  
1725.000000	99.746425  
1724.000000	99.739967  
1723.000000	99.730568  
1722.000000	99.720730  
1721.000000	99.713058  
1720.000000	99.707971  
1719.000000	99.704018  
1718.000000	99.697878  
1717.000000	99.686535  
1716.000000	99.674595  
1715.000000	99.668497  
1714.000000	99.666126  
1713.000000	99.663286  
1712.000000	99.660604  
1711.000000	99.660343  
1710.000000	99.662041  
1709.000000	99.663482  
1708.000000	99.663485  
1707.000000	99.662138  
1706.000000	99.659388  
1705.000000	99.655260  
1704.000000	99.652408  
1703.000000	99.651588  
1702.000000	99.648634  
1701.000000	99.638749  
1700.000000	99.625142  
1699.000000	99.618574  
1698.000000	99.620977  
1697.000000	99.623515  
1696.000000	99.619809  
1695.000000	99.611809  
1694.000000	99.605313  
1693.000000	99.602602  
1692.000000	99.601609  
1691.000000	99.601580  
1690.000000	99.602258  
1689.000000	99.602576  
1688.000000	99.602426  
1687.000000	99.603214  
1686.000000	99.605939  
1685.000000	99.609794  
1684.000000	99.612158  
1683.000000	99.611618  
1682.000000	99.611285  
1681.000000	99.611913  
1680.000000	99.610882  
1679.000000	99.609733  
1678.000000	99.610996  
1677.000000	99.614564  
1676.000000	99.617095  
1675.000000	99.616619  
1674.000000	99.615728  
1673.000000	99.617615  
1672.000000	99.621401  
1671.000000	99.624618  
1670.000000	99.626140  
1669.000000	99.626395  
1668.000000	99.626723  
1667.000000	99.628233  
1666.000000	99.630517  
1665.000000	99.632090  
1664.000000	99.632453  
1663.000000	99.632615  
1662.000000	99.633460  
1661.000000	99.634918  
1660.000000	99.636136  
1659.000000	99.636972  
1658.000000	99.638422  
1657.000000	99.641260  
1656.000000	99.644015  
1655.000000	99.644620  
1654.000000	99.645121  
1653.000000	99.647240  
1652.000000	99.647762  
1651.000000	99.648811  
1650.000000	99.651384  
1649.000000	99.650955  
1648.000000	99.648400  
1647.000000	99.647051  
1646.000000	99.648462  
1645.000000	99.651009  
1644.000000	99.654995  
1643.000000	99.660037  
1642.000000	99.664611  
1641.000000	99.667729  
1640.000000	99.669754  
1639.000000	99.671516  
1638.000000	99.673040  
1637.000000	99.674844  
1636.000000	99.678305  
1635.000000	99.681826  
1634.000000	99.683572  
1633.000000	99.685262  
1632.000000	99.688335  
1631.000000	99.692762  
1630.000000	99.697553  
1629.000000	99.701517  
1628.000000	99.704392  
1627.000000	99.706573  
1626.000000	99.708557  
1625.000000	99.710842  
1624.000000	99.714111  
1623.000000	99.718313  
1622.000000	99.722437  
1621.000000	99.726481  
1620.000000	99.730492  
1619.000000	99.733417  
1618.000000	99.735200  
1617.000000	99.738475  
1616.000000	99.745351  
1615.000000	99.754306  
1614.000000	99.762485  
1613.000000	99.768030  
1612.000000	99.771245  
1611.000000	99.773348  
1610.000000	99.775167  
1609.000000	99.777857  
1608.000000	99.782688  
1607.000000	99.789184  
1606.000000	99.795409  
1605.000000	99.800594  
1604.000000	99.805797  
1603.000000	99.812338  
1602.000000	99.820225  
1601.000000	99.828449  
1600.000000	99.836152  
1599.000000	99.842914  
1598.000000	99.848693  
1597.000000	99.854113  
1596.000000	99.860349  
1595.000000	99.867731  
1594.000000	99.874976  
1593.000000	99.881072  
1592.000000	99.886817  
1591.000000	99.893157  
1590.000000	99.899217  
1589.000000	99.903538  
1588.000000	99.906587  
1587.000000	99.910515  
1586.000000	99.916521  
1585.000000	99.923659  
1584.000000	99.929447  
1583.000000	99.931877  
1582.000000	99.932036  
1581.000000	99.933392  
1580.000000	99.937577  
1579.000000	99.942415  
1578.000000	99.945257  
1577.000000	99.947164  
1576.000000	99.950296  
1575.000000	99.953619  
1574.000000	99.957528  
1573.000000	99.963012  
1572.000000	99.968416  
1571.000000	99.972871  
1570.000000	99.976374  
1569.000000	99.979303  
1568.000000	99.981731  
1567.000000	99.984059  
1566.000000	99.985935  
1565.000000	99.987288  
1564.000000	99.988211  
1563.000000	99.988844  
1562.000000	99.989285  
1561.000000	99.989434  
1560.000000	99.989242  
1559.000000	99.987717  
1558.000000	99.978320  
1557.000000	99.967427  
1556.000000	99.965946  
1555.000000	99.967021  
1554.000000	99.967433  
1553.000000	99.966416  
1552.000000	99.964847  
1551.000000	99.960692  
1550.000000	99.954022  
1549.000000	99.949142  
1548.000000	99.950197  
1547.000000	99.954751  
1546.000000	99.954883  
1545.000000	99.944936  
1544.000000	99.927753  
1543.000000	99.910755  
1542.000000	99.897018  
1541.000000	99.885257  
1540.000000	99.873683  
1539.000000	99.858638  
1538.000000	99.842687  
1537.000000	99.831874  
1536.000000	99.823739  
1535.000000	99.813428  
1534.000000	99.797565  
1533.000000	99.776362  
1532.000000	99.754438  
1531.000000	99.737158  
1530.000000	99.724623  
1529.000000	99.713567  
1528.000000	99.701379  
1527.000000	99.686591  
1526.000000	99.669008  
1525.000000	99.650865  
1524.000000	99.635327  
1523.000000	99.622806  
1522.000000	99.609558  
1521.000000	99.591455  
1520.000000	99.571866  
1519.000000	99.556987  
1518.000000	99.544958  
1517.000000	99.529856  
1516.000000	99.510558  
1515.000000	99.491143  
1514.000000	99.473611  
1513.000000	99.454532  
1512.000000	99.432245  
1511.000000	99.410496  
1510.000000	99.392356  
1509.000000	99.374772  
1508.000000	99.353751  
1507.000000	99.332844  
1506.000000	99.311566  
1505.000000	99.287888  
1504.000000	99.268784  
1503.000000	99.255047  
1502.000000	99.242026  
1501.000000	99.226234  
1500.000000	99.207830  
1499.000000	99.189365  
1498.000000	99.170640  
1497.000000	99.147155  
1496.000000	99.117903  
1495.000000	99.090244  
1494.000000	99.070017  
1493.000000	99.055143  
1492.000000	99.040636  
1491.000000	99.023372  
1490.000000	99.002751  
1489.000000	98.979740  
1488.000000	98.956759  
1487.000000	98.935983  
1486.000000	98.916661  
1485.000000	98.897941  
1484.000000	98.880260  
1483.000000	98.862951  
1482.000000	98.844115  
1481.000000	98.824018  
1480.000000	98.806285  
1479.000000	98.792711  
1478.000000	98.779757  
1477.000000	98.763376  
1476.000000	98.745976  
1475.000000	98.732897  
1474.000000	98.724237  
1473.000000	98.715508  
1472.000000	98.705095  
1471.000000	98.697063  
1470.000000	98.694151  
1469.000000	98.693703  
1468.000000	98.691624  
1467.000000	98.685782  
1466.000000	98.676089  
1465.000000	98.664527  
1464.000000	98.654593  
1463.000000	98.649216  
1462.000000	98.647985  
1461.000000	98.647878  
1460.000000	98.646272  
1459.000000	98.641252  
1458.000000	98.629541  
1457.000000	98.606107  
1456.000000	98.574707  
1455.000000	98.549989  
1454.000000	98.537907  
1453.000000	98.531905  
1452.000000	98.526222  
1451.000000	98.520739  
1450.000000	98.519033  
1449.000000	98.522754  
1448.000000	98.530127  
1447.000000	98.537566  
1446.000000	98.542842  
1445.000000	98.546044  
1444.000000	98.547876  
1443.000000	98.548789  
1442.000000	98.549212  
1441.000000	98.550717  
1440.000000	98.555910  
1439.000000	98.566023  
1438.000000	98.578419  
1437.000000	98.587686  
1436.000000	98.592370  
1435.000000	98.598155  
1434.000000	98.609344  
1433.000000	98.623843  
1432.000000	98.638215  
1431.000000	98.651153  
1430.000000	98.662469  
1429.000000	98.671333  
1428.000000	98.677761  
1427.000000	98.683545  
1426.000000	98.689784  
1425.000000	98.695421  
1424.000000	98.699141  
1423.000000	98.701663  
1422.000000	98.703612  
1421.000000	98.702581  
1420.000000	98.694405  
1419.000000	98.679221  
1418.000000	98.662735  
1417.000000	98.648370  
1416.000000	98.635678  
1415.000000	98.624643  
1414.000000	98.615804  
1413.000000	98.608226  
1412.000000	98.601133  
1411.000000	98.596424  
1410.000000	98.596917  
1409.000000	98.603301  
1408.000000	98.615311  
1407.000000	98.633526  
1406.000000	98.658543  
1405.000000	98.690122  
1404.000000	98.727390  
1403.000000	98.769271  
1402.000000	98.814075  
1401.000000	98.859375  
1400.000000	98.902197  
1399.000000	98.938015  
1398.000000	98.959528  
1397.000000	98.959257  
1396.000000	98.938096  
1395.000000	98.915544  
1394.000000	98.922049  
1393.000000	98.970457  
1392.000000	99.045519  
1391.000000	99.121321  
1390.000000	99.180900  
1389.000000	99.220998  
1388.000000	99.245982  
1387.000000	99.261605  
1386.000000	99.273418  
1385.000000	99.286623  
1384.000000	99.304128  
1383.000000	99.325438  
1382.000000	99.348318  
1381.000000	99.371486  
1380.000000	99.395293  
1379.000000	99.420354  
1378.000000	99.446835  
1377.000000	99.474893  
1376.000000	99.504775  
1375.000000	99.536270  
1374.000000	99.568581  
1373.000000	99.600848  
1372.000000	99.632682  
1371.000000	99.664009  
1370.000000	99.694558  
1369.000000	99.724032  
1368.000000	99.752666  
1367.000000	99.781323  
1366.000000	99.810744  
1365.000000	99.840306  
1364.000000	99.867631  
1363.000000	99.890363  
1362.000000	99.908473  
1361.000000	99.924006  
1360.000000	99.938803  
1359.000000	99.953805  
1358.000000	99.970153  
1357.000000	99.989108  
1356.000000	100.010323 
1355.000000	100.031408 
1354.000000	100.050029 
1353.000000	100.065779 
1352.000000	100.079345 
1351.000000	100.090892 
1350.000000	100.100975 
1349.000000	100.111194 
1348.000000	100.122037 
1347.000000	100.132607 
1346.000000	100.142289 
1345.000000	100.151073 
1344.000000	100.159007 
1343.000000	100.166475 
1342.000000	100.174149 
1341.000000	100.181497 
1340.000000	100.186356 
1339.000000	100.187802 
1338.000000	100.188643 
1337.000000	100.192773 
1336.000000	100.200670 
1335.000000	100.209565 
1334.000000	100.217217 
1333.000000	100.223494 
1332.000000	100.228725 
1331.000000	100.232911 
1330.000000	100.236881 
1329.000000	100.242113 
1328.000000	100.248622 
1327.000000	100.254537 
1326.000000	100.258608 
1325.000000	100.261924 
1324.000000	100.266518 
1323.000000	100.272828 
1322.000000	100.279164 
1321.000000	100.283332 
1320.000000	100.284710 
1319.000000	100.284938 
1318.000000	100.286412 
1317.000000	100.290008 
1316.000000	100.294794 
1315.000000	100.299755 
1314.000000	100.304573 
1313.000000	100.308504 
1312.000000	100.310116 
1311.000000	100.309376 
1310.000000	100.308813 
1309.000000	100.311103 
1308.000000	100.316097 
1307.000000	100.321179 
1306.000000	100.323917 
1305.000000	100.323437 
1304.000000	100.320299 
1303.000000	100.316549 
1302.000000	100.315148 
1301.000000	100.317354 
1300.000000	100.320964 
1299.000000	100.322594 
1298.000000	100.321397 
1297.000000	100.319190 
1296.000000	100.317568 
1295.000000	100.316779 
1294.000000	100.317188 
1293.000000	100.319625 
1292.000000	100.323542 
1291.000000	100.326358 
1290.000000	100.325655 
1289.000000	100.321343 
1288.000000	100.315280 
1287.000000	100.309581 
1286.000000	100.305703 
1285.000000	100.304180 
1284.000000	100.304470 
1283.000000	100.305432 
1282.000000	100.306103 
1281.000000	100.306142 
1280.000000	100.306052 
1279.000000	100.306612 
1278.000000	100.307810 
1277.000000	100.308643 
1276.000000	100.308062 
1275.000000	100.305791 
1274.000000	100.301882 
1273.000000	100.295888 
1272.000000	100.287281 
1271.000000	100.276631 
1270.000000	100.265423 
1269.000000	100.254370 
1268.000000	100.242595 
1267.000000	100.228683 
1266.000000	100.211998 
1265.000000	100.193023 
1264.000000	100.173097 
1263.000000	100.153812 
1262.000000	100.136060 
1261.000000	100.119842 
1260.000000	100.105338 
1259.000000	100.093130 
1258.000000	100.082474 
1257.000000	100.070718 
1256.000000	100.055973 
1255.000000	100.039288 
1254.000000	100.022376 
1253.000000	100.004645 
1252.000000	99.985394  
1251.000000	99.968098  
1250.000000	99.958850  
1249.000000	99.960327  
1248.000000	99.970235  
1247.000000	99.984675  
1246.000000	99.998071  
1245.000000	99.999961  
1244.000000	99.980016  
1243.000000	99.942198  
1242.000000	99.909246  
1241.000000	99.904445  
1240.000000	99.928179  
1239.000000	99.957234  
1238.000000	99.967608  
1237.000000	99.953538  
1236.000000	99.924235  
1235.000000	99.889405  
1234.000000	99.852752  
1233.000000	99.815886  
1232.000000	99.781709  
1231.000000	99.752080  
1230.000000	99.725221  
1229.000000	99.697549  
1228.000000	99.666932  
1227.000000	99.632862  
1226.000000	99.594525  
1225.000000	99.550501  
1224.000000	99.500342  
1223.000000	99.444986  
1222.000000	99.384987  
1221.000000	99.319171  
1220.000000	99.245596  
1219.000000	99.163174  
1218.000000	99.072049  
1217.000000	98.973441  
1216.000000	98.869747  
1215.000000	98.763475  
1214.000000	98.654896  
1213.000000	98.541768  
1212.000000	98.422454  
1211.000000	98.298138  
1210.000000	98.171038  
1209.000000	98.042188  
1208.000000	97.912424  
1207.000000	97.783490  
1206.000000	97.655919  
1205.000000	97.527452  
1204.000000	97.395947  
1203.000000	97.262893  
1202.000000	97.132483  
1201.000000	97.007899  
1200.000000	96.889272  
1199.000000	96.773805  
1198.000000	96.657131  
1197.000000	96.536348  
1196.000000	96.412556  
1195.000000	96.289053  
1194.000000	96.167043  
1193.000000	96.045026  
1192.000000	95.921955  
1191.000000	95.797834  
1190.000000	95.671317  
1189.000000	95.540612  
1188.000000	95.407258  
1187.000000	95.274951  
1186.000000	95.143729  
1185.000000	95.009476  
1184.000000	94.870214  
1183.000000	94.728302  
1182.000000	94.584907  
1181.000000	94.437035  
1180.000000	94.282242  
1179.000000	94.122026  
1178.000000	93.958131  
1177.000000	93.789317  
1176.000000	93.613823  
1175.000000	93.431267  
1174.000000	93.240634  
1173.000000	93.040993  
1172.000000	92.836078  
1171.000000	92.633225  
1170.000000	92.435393  
1169.000000	92.238889  
1168.000000	92.041090  
1167.000000	91.845998  
1166.000000	91.661733  
1165.000000	91.499670  
1164.000000	91.377811  
1163.000000	91.315993  
1162.000000	91.321399  
1161.000000	91.381326  
1160.000000	91.470458  
1159.000000	91.560006  
1158.000000	91.621464  
1157.000000	91.632714  
1156.000000	91.586917  
1155.000000	91.492485  
1154.000000	91.362574  
1153.000000	91.207927  
1152.000000	91.039316  
1151.000000	90.868324  
1150.000000	90.700905  
1149.000000	90.535569  
1148.000000	90.371128  
1147.000000	90.210474  
1146.000000	90.054338  
1145.000000	89.898571  
1144.000000	89.741425  
1143.000000	89.587148  
1142.000000	89.438874  
1141.000000	89.294053  
1140.000000	89.149771  
1139.000000	89.005887  
1138.000000	88.860273  
1137.000000	88.708307  
1136.000000	88.550292  
1135.000000	88.392189  
1134.000000	88.235935  
1133.000000	88.076457  
1132.000000	87.911262  
1131.000000	87.744964  
1130.000000	87.580814  
1129.000000	87.415616  
1128.000000	87.246522  
1127.000000	87.075066  
1126.000000	86.901467  
1125.000000	86.723323  
1124.000000	86.542947  
1123.000000	86.367035  
1122.000000	86.195893  
1121.000000	86.022370  
1120.000000	85.844485  
1119.000000	85.668484  
1118.000000	85.495883  
1117.000000	85.319429  
1116.000000	85.136493  
1115.000000	84.954737  
1114.000000	84.779488  
1113.000000	84.607103  
1112.000000	84.435714  
1111.000000	84.269779  
1110.000000	84.109476  
1109.000000	83.948613  
1108.000000	83.786619  
1107.000000	83.630702  
1106.000000	83.482290  
1105.000000	83.333524  
1104.000000	83.181304  
1103.000000	83.032270  
1102.000000	82.889911  
1101.000000	82.749763  
1100.000000	82.611211  
1099.000000	82.480756  
1098.000000	82.359056  
1097.000000	82.237757  
1096.000000	82.113413  
1095.000000	81.991437  
1094.000000	81.871919  
1093.000000	81.745295  
1092.000000	81.607824  
1091.000000	81.469215  
1090.000000	81.339816  
1089.000000	81.221738  
1088.000000	81.115920  
1087.000000	81.024649  
1086.000000	80.942722  
1085.000000	80.858978  
1084.000000	80.770909  
1083.000000	80.686150  
1082.000000	80.607701  
1081.000000	80.531298  
1080.000000	80.459231  
1079.000000	80.401677  
1078.000000	80.361284  
1077.000000	80.330800  
1076.000000	80.307778  
1075.000000	80.295501  
1074.000000	80.287375  
1073.000000	80.267187  
1072.000000	80.225645  
1071.000000	80.157456  
1070.000000	80.041815  
1069.000000	79.851885  
1068.000000	79.594036  
1067.000000	79.319550  
1066.000000	79.082697  
1065.000000	78.897489  
1064.000000	78.744138  
1063.000000	78.597429  
1062.000000	78.435446  
1061.000000	78.240283  
1060.000000	78.012007  
1059.000000	77.776743  
1058.000000	77.567391  
1057.000000	77.398539  
1056.000000	77.263852  
1055.000000	77.147055  
1054.000000	77.029696  
1053.000000	76.900572  
1052.000000	76.766186  
1051.000000	76.643109  
1050.000000	76.535683  
1049.000000	76.433271  
1048.000000	76.331100  
1047.000000	76.236374  
1046.000000	76.150949  
1045.000000	76.065995  
1044.000000	75.977325  
1043.000000	75.889756  
1042.000000	75.802432  
1041.000000	75.705459  
1040.000000	75.597097  
1039.000000	75.491662  
1038.000000	75.405225  
1037.000000	75.343932  
1036.000000	75.307594  
1035.000000	75.291695  
1034.000000	75.284246  
1033.000000	75.272580  
1032.000000	75.252781  
1031.000000	75.222239  
1030.000000	75.171428  
1029.000000	75.102037  
1028.000000	75.046281  
1027.000000	75.042143  
1026.000000	75.088228  
1025.000000	75.144905  
1024.000000	75.181688  
1023.000000	75.200566  
1022.000000	75.211509  
1021.000000	75.212961  
1020.000000	75.204289  
1019.000000	75.194189  
1018.000000	75.186802  
1017.000000	75.177273  
1016.000000	75.167658  
1015.000000	75.169294  
1014.000000	75.183711  
1013.000000	75.199090  
1012.000000	75.210535  
1011.000000	75.225896  
1010.000000	75.247661  
1009.000000	75.268377  
1008.000000	75.288724  
1007.000000	75.320928  
1006.000000	75.368862  
1005.000000	75.422875  
1004.000000	75.478744  
1003.000000	75.543237  
1002.000000	75.616382  
1001.000000	75.687501  
1000.000000	75.754476  
999.000000	 75.828684  
998.000000	 75.915100  
997.000000	 76.005090  
996.000000	 76.094001  
995.000000	 76.188258  
994.000000	 76.289767  
993.000000	 76.391133  
992.000000	 76.491967  
991.000000	 76.602723  
990.000000	 76.726666  
989.000000	 76.854427  
988.000000	 76.981456  
987.000000	 77.114662  
986.000000	 77.257139  
985.000000	 77.403257  
984.000000	 77.553286  
983.000000	 77.715974  
982.000000	 77.892489  
981.000000	 78.073534  
980.000000	 78.256212  
979.000000	 78.448328  
978.000000	 78.651994  
977.000000	 78.859574  
976.000000	 79.070039  
975.000000	 79.292781  
974.000000	 79.530435  
973.000000	 79.773696  
972.000000	 80.017678  
971.000000	 80.267992  
970.000000	 80.525960  
969.000000	 80.782936  
968.000000	 81.034303  
967.000000	 81.285366  
966.000000	 81.539183  
965.000000	 81.791897  
964.000000	 82.043183  
963.000000	 82.297348  
962.000000	 82.551064  
961.000000	 82.794417  
960.000000	 83.027589  
959.000000	 83.262127  
958.000000	 83.501758  
957.000000	 83.736260  
956.000000	 83.959311  
955.000000	 84.178656  
954.000000	 84.402807  
953.000000	 84.629278  
952.000000	 84.851308  
951.000000	 85.065554  
950.000000	 85.269302  
949.000000	 85.460954  
948.000000	 85.646792  
947.000000	 85.836602  
946.000000	 86.028983  
945.000000	 86.211589  
944.000000	 86.378836  
943.000000	 86.538431  
942.000000	 86.697885  
941.000000	 86.855953  
940.000000	 87.011329  
939.000000	 87.168600  
938.000000	 87.330502  
937.000000	 87.493450  
936.000000	 87.654657  
935.000000	 87.815284  
934.000000	 87.974349  
933.000000	 88.128773  
932.000000	 88.281206  
931.000000	 88.437955  
930.000000	 88.597279  
929.000000	 88.750298  
928.000000	 88.895820  
927.000000	 89.043138  
926.000000	 89.196527  
925.000000	 89.347462  
924.000000	 89.486830  
923.000000	 89.615711  
922.000000	 89.739666  
921.000000	 89.860470  
920.000000	 89.977858  
919.000000	 90.092436  
918.000000	 90.203173  
917.000000	 90.308087  
916.000000	 90.410114  
915.000000	 90.516667  
914.000000	 90.631515  
913.000000	 90.752375  
912.000000	 90.876997  
911.000000	 91.005680  
910.000000	 91.138212  
909.000000	 91.275319  
908.000000	 91.422462  
907.000000	 91.584122  
906.000000	 91.754551  
905.000000	 91.922698  
904.000000	 92.086848  
903.000000	 92.256471  
902.000000	 92.439169  
901.000000	 92.632927  
900.000000	 92.830983  
899.000000	 93.026883  
898.000000	 93.214945  
897.000000	 93.392948  
896.000000	 93.563866  
895.000000	 93.729531  
894.000000	 93.885658  
893.000000	 94.030231  
892.000000	 94.172406  
891.000000	 94.322845  
890.000000	 94.476916  
889.000000	 94.617181  
888.000000	 94.730672  
887.000000	 94.814625  
886.000000	 94.869379  
885.000000	 94.898111  
884.000000	 94.912136  
883.000000	 94.922907  
882.000000	 94.928044  
881.000000	 94.919382  
880.000000	 94.906846  
879.000000	 94.918738  
878.000000	 94.973273  
877.000000	 95.064670  
876.000000	 95.182662  
875.000000	 95.329717  
874.000000	 95.510292  
873.000000	 95.717394  
872.000000	 95.940641  
871.000000	 96.177424  
870.000000	 96.426257  
869.000000	 96.676549  
868.000000	 96.913676  
867.000000	 97.130471  
866.000000	 97.329116  
865.000000	 97.515352  
864.000000	 97.693717  
863.000000	 97.864794  
862.000000	 98.025178  
861.000000	 98.173343  
860.000000	 98.314990  
859.000000	 98.457276  
858.000000	 98.598467  
857.000000	 98.730459  
856.000000	 98.851826  
855.000000	 98.970498  
854.000000	 99.091981  
853.000000	 99.212289  
852.000000	 99.324330  
851.000000	 99.424152  
850.000000	 99.509823  
849.000000	 99.582687  
848.000000	 99.652121  
847.000000	 99.730122  
846.000000	 99.816554  
845.000000	 99.896863  
844.000000	 99.958610  
843.000000	 100.003934 
842.000000	 100.042502 
841.000000	 100.079529 
840.000000	 100.115526 
839.000000	 100.150854 
838.000000	 100.184153 
837.000000	 100.210694 
836.000000	 100.227464 
835.000000	 100.236872 
834.000000	 100.242646 
833.000000	 100.246561 
832.000000	 100.251912 
831.000000	 100.263976 
830.000000	 100.282282 
829.000000	 100.298254 
828.000000	 100.306368 
827.000000	 100.312572 
826.000000	 100.325289 
825.000000	 100.342466 
824.000000	 100.353945 
823.000000	 100.352030 
822.000000	 100.333479 
821.000000	 100.296580 
820.000000	 100.243438 
819.000000	 100.180554 
818.000000	 100.110274 
817.000000	 100.023843 
816.000000	 99.906873  
815.000000	 99.748569  
814.000000	 99.541562  
813.000000	 99.275646  
812.000000	 98.936548  
811.000000	 98.509644  
810.000000	 97.982305  
809.000000	 97.346735  
808.000000	 96.606092  
807.000000	 95.775928  
806.000000	 94.876434  
805.000000	 93.929012  
804.000000	 92.965371  
803.000000	 92.030185  
802.000000	 91.164880  
801.000000	 90.396746  
800.000000	 89.750592  
799.000000	 89.256021  
798.000000	 88.930569  
797.000000	 88.766545  
796.000000	 88.742295  
795.000000	 88.832772  
794.000000	 89.003128  
793.000000	 89.209481  
792.000000	 89.416617  
791.000000	 89.604498  
790.000000	 89.753782  
789.000000	 89.839684  
788.000000	 89.845956  
787.000000	 89.771019  
786.000000	 89.613490  
785.000000	 89.365375  
784.000000	 89.029481  
783.000000	 88.633671  
782.000000	 88.219982  
781.000000	 87.829979  
780.000000	 87.506297  
779.000000	 87.291088  
778.000000	 87.208473  
777.000000	 87.257568  
776.000000	 87.428330  
775.000000	 87.708939  
774.000000	 88.071732  
773.000000	 88.471675  
772.000000	 88.872162  
771.000000	 89.261678  
770.000000	 89.638820  
769.000000	 89.995655  
768.000000	 90.325563  
767.000000	 90.634390  
766.000000	 90.930565  
765.000000	 91.210857  
764.000000	 91.466446  
763.000000	 91.698549  
762.000000	 91.919994  
761.000000	 92.144895  
760.000000	 92.382246  
759.000000	 92.634209  
758.000000	 92.894140  
757.000000	 93.150013  
756.000000	 93.394456  
755.000000	 93.628469  
754.000000	 93.853316  
753.000000	 94.064138  
752.000000	 94.254923  
751.000000	 94.424625  
750.000000	 94.575135  
749.000000	 94.708852  
748.000000	 94.832045  
747.000000	 94.955055  
746.000000	 95.084400  
745.000000	 95.218475  
744.000000	 95.354659  
743.000000	 95.496221  
742.000000	 95.647917  
741.000000	 95.808625  
740.000000	 95.972960  
739.000000	 96.137091  
738.000000	 96.298612  
737.000000	 96.452604  
736.000000	 96.591505  
735.000000	 96.708898  
734.000000	 96.802530  
733.000000	 96.874860  
732.000000	 96.931837  
731.000000	 96.980182  
730.000000	 97.024619  
729.000000	 97.067172  
728.000000	 97.111708  
727.000000	 97.165939  
726.000000	 97.233984  
725.000000	 97.312172  
724.000000	 97.395294  
723.000000	 97.483653  
722.000000	 97.581268  
721.000000	 97.688932  
720.000000	 97.800669  
719.000000	 97.905149  
718.000000	 97.990810  
717.000000	 98.054211  
716.000000	 98.104335  
715.000000	 98.156655  
714.000000	 98.222036  
713.000000	 98.302047  
712.000000	 98.394259  
711.000000	 98.496010  
710.000000	 98.601734  
709.000000	 98.701469  
708.000000	 98.784753  
707.000000	 98.845306  
706.000000	 98.876463  
705.000000	 98.868111  
704.000000	 98.812553  
703.000000	 98.704532  
702.000000	 98.533012  
701.000000	 98.277061  
700.000000	 97.914687  
699.000000	 97.444633  
698.000000	 96.901864  
697.000000	 96.360081  
696.000000	 95.917715  
695.000000	 95.659354  
694.000000	 95.619465  
693.000000	 95.774311  
692.000000	 96.062603  
691.000000	 96.420131  
690.000000	 96.798995  
689.000000	 97.167992  
688.000000	 97.505841  
687.000000	 97.797377  
686.000000	 98.040053  
685.000000	 98.243420  
684.000000	 98.415607  
683.000000	 98.558558  
682.000000	 98.676703  
681.000000	 98.782576  
680.000000	 98.887667  
679.000000	 98.994877  
678.000000	 99.102832  
677.000000	 99.204767  
676.000000	 99.295206  
675.000000	 99.378626  
674.000000	 99.465444  
673.000000	 99.563556  
672.000000	 99.681661  
671.000000	 99.836473  
670.000000	 100.047914 
669.000000	 100.300651 
668.000000	 100.462884 
667.000000	 100.431125 
666.000000	 100.321296 
665.000000	 100.242125 
664.000000	 100.214702 
663.000000	 100.241266 
662.000000	 100.302911 
661.000000	 100.361568 
660.000000	 100.393241 
659.000000	 100.403305 
658.000000	 100.398553 
657.000000	 100.366658 
656.000000	 100.311002 
655.000000	 100.268976 
654.000000	 100.261601 
653.000000	 100.265402 
652.000000	 100.261581 
651.000000	 100.264707 
650.000000	 100.282787 

