4000.000000	98.036882 
3999.000000	98.036904 
3998.000000	98.037140 
3997.000000	98.037389 
3996.000000	98.037598 
3995.000000	98.037823 
3994.000000	98.038055 
3993.000000	98.038237 
3992.000000	98.038317 
3991.000000	98.038249 
3990.000000	98.038138 
3989.000000	98.038200 
3988.000000	98.038419 
3987.000000	98.038504 
3986.000000	98.038221 
3985.000000	98.037583 
3984.000000	98.036856 
3983.000000	98.036346 
3982.000000	98.036171 
3981.000000	98.036259 
3980.000000	98.036418 
3979.000000	98.036458 
3978.000000	98.036316 
3977.000000	98.036046 
3976.000000	98.035711 
3975.000000	98.035339 
3974.000000	98.034981 
3973.000000	98.034736 
3972.000000	98.034645 
3971.000000	98.034635 
3970.000000	98.034621 
3969.000000	98.034624 
3968.000000	98.034732 
3967.000000	98.034943 
3966.000000	98.035125 
3965.000000	98.035123 
3964.000000	98.034879 
3963.000000	98.034482 
3962.000000	98.034125 
3961.000000	98.033956 
3960.000000	98.033955 
3959.000000	98.033975 
3958.000000	98.033877 
3957.000000	98.033655 
3956.000000	98.033414 
3955.000000	98.033260 
3954.000000	98.033206 
3953.000000	98.033167 
3952.000000	98.033020 
3951.000000	98.032704 
3950.000000	98.032284 
3949.000000	98.031940 
3948.000000	98.031827 
3947.000000	98.031923 
3946.000000	98.031989 
3945.000000	98.031767 
3944.000000	98.031167 
3943.000000	98.030395 
3942.000000	98.029824 
3941.000000	98.029651 
3940.000000	98.029716 
3939.000000	98.029786 
3938.000000	98.029907 
3937.000000	98.030228 
3936.000000	98.030715 
3935.000000	98.031151 
3934.000000	98.031401 
3933.000000	98.031475 
3932.000000	98.031422 
3931.000000	98.031244 
3930.000000	98.030967 
3929.000000	98.030708 
3928.000000	98.030531 
3927.000000	98.030399 
3926.000000	98.030285 
3925.000000	98.030244 
3924.000000	98.030291 
3923.000000	98.030356 
3922.000000	98.030380 
3921.000000	98.030379 
3920.000000	98.030381 
3919.000000	98.030395 
3918.000000	98.030420 
3917.000000	98.030455 
3916.000000	98.030499 
3915.000000	98.030551 
3914.000000	98.030611 
3913.000000	98.030671 
3912.000000	98.030729 
3911.000000	98.030787 
3910.000000	98.030855 
3909.000000	98.030934 
3908.000000	98.031013 
3907.000000	98.031074 
3906.000000	98.031102 
3905.000000	98.031095 
3904.000000	98.031061 
3903.000000	98.031008 
3902.000000	98.030940 
3901.000000	98.030856 
3900.000000	98.030763 
3899.000000	98.030666 
3898.000000	98.030571 
3897.000000	98.030475 
3896.000000	98.030363 
3895.000000	98.030217 
3894.000000	98.030025 
3893.000000	98.029793 
3892.000000	98.029539 
3891.000000	98.029282 
3890.000000	98.029034 
3889.000000	98.028798 
3888.000000	98.028569 
3887.000000	98.028350 
3886.000000	98.028148 
3885.000000	98.027965 
3884.000000	98.027794 
3883.000000	98.027614 
3882.000000	98.027414 
3881.000000	98.027204 
3880.000000	98.027008 
3879.000000	98.026841 
3878.000000	98.026692 
3877.000000	98.026539 
3876.000000	98.026363 
3875.000000	98.026157 
3874.000000	98.025927 
3873.000000	98.025679 
3872.000000	98.025419 
3871.000000	98.025157 
3870.000000	98.024905 
3869.000000	98.024670 
3868.000000	98.024446 
3867.000000	98.024223 
3866.000000	98.024007 
3865.000000	98.023823 
3864.000000	98.023691 
3863.000000	98.023618 
3862.000000	98.023599 
3861.000000	98.023629 
3860.000000	98.023700 
3859.000000	98.023802 
3858.000000	98.023912 
3857.000000	98.023981 
3856.000000	98.024002 
3855.000000	98.024042 
3854.000000	98.023976 
3853.000000	98.023617 
3852.000000	98.023332 
3851.000000	98.023376 
3850.000000	98.023485 
3849.000000	98.023678 
3848.000000	98.024219 
3847.000000	98.025161 
3846.000000	98.026221 
3845.000000	98.027076 
3844.000000	98.027665 
3843.000000	98.028147 
3842.000000	98.028512 
3841.000000	98.028623 
3840.000000	98.028558 
3839.000000	98.028558 
3838.000000	98.028759 
3837.000000	98.029047 
3836.000000	98.029240 
3835.000000	98.029258 
3834.000000	98.029162 
3833.000000	98.029112 
3832.000000	98.029229 
3831.000000	98.029495 
3830.000000	98.029786 
3829.000000	98.029981 
3828.000000	98.030060 
3827.000000	98.030110 
3826.000000	98.030205 
3825.000000	98.030330 
3824.000000	98.030408 
3823.000000	98.030378 
3822.000000	98.030257 
3821.000000	98.030093 
3820.000000	98.029902 
3819.000000	98.029666 
3818.000000	98.029375 
3817.000000	98.029039 
3816.000000	98.028690 
3815.000000	98.028360 
3814.000000	98.028055 
3813.000000	98.027767 
3812.000000	98.027492 
3811.000000	98.027237 
3810.000000	98.026995 
3809.000000	98.026742 
3808.000000	98.026449 
3807.000000	98.026108 
3806.000000	98.025720 
3805.000000	98.025284 
3804.000000	98.024802 
3803.000000	98.024286 
3802.000000	98.023763 
3801.000000	98.023262 
3800.000000	98.022791 
3799.000000	98.022340 
3798.000000	98.021905 
3797.000000	98.021499 
3796.000000	98.021142 
3795.000000	98.020840 
3794.000000	98.020587 
3793.000000	98.020376 
3792.000000	98.020208 
3791.000000	98.020089 
3790.000000	98.020020 
3789.000000	98.019992 
3788.000000	98.019990 
3787.000000	98.020003 
3786.000000	98.020032 
3785.000000	98.020086 
3784.000000	98.020174 
3783.000000	98.020294 
3782.000000	98.020438 
3781.000000	98.020606 
3780.000000	98.020787 
3779.000000	98.020969 
3778.000000	98.021161 
3777.000000	98.021371 
3776.000000	98.021597 
3775.000000	98.021931 
3774.000000	98.022541 
3773.000000	98.023388 
3772.000000	98.024154 
3771.000000	98.024616 
3770.000000	98.024907 
3769.000000	98.025319 
3768.000000	98.025610 
3767.000000	98.025035 
3766.000000	98.023704 
3765.000000	98.023070 
3764.000000	98.024319 
3763.000000	98.026786 
3762.000000	98.028546 
3761.000000	98.028890 
3760.000000	98.028617 
3759.000000	98.028573 
3758.000000	98.028963 
3757.000000	98.029521 
3756.000000	98.030160 
3755.000000	98.030979 
3754.000000	98.032496 
3753.000000	98.035768 
3752.000000	98.040026 
3751.000000	98.042059 
3750.000000	98.041526 
3749.000000	98.041912 
3748.000000	98.042704 
3747.000000	98.039007 
3746.000000	98.030498 
3745.000000	98.021789 
3744.000000	98.018991 
3743.000000	98.024534 
3742.000000	98.029275 
3741.000000	98.025161 
3740.000000	98.017715 
3739.000000	98.016525 
3738.000000	98.023003 
3737.000000	98.028961 
3736.000000	98.028378 
3735.000000	98.023016 
3734.000000	98.015083 
3733.000000	98.003842 
3732.000000	97.992501 
3731.000000	97.987880 
3730.000000	97.989803 
3729.000000	97.990502 
3728.000000	97.985669 
3727.000000	97.978951 
3726.000000	97.975238 
3725.000000	97.973331 
3724.000000	97.968709 
3723.000000	97.961002 
3722.000000	97.953828 
3721.000000	97.949773 
3720.000000	97.946710 
3719.000000	97.941826 
3718.000000	97.936767 
3717.000000	97.934200 
3716.000000	97.933744 
3715.000000	97.932760 
3714.000000	97.929665 
3713.000000	97.923461 
3712.000000	97.910682 
3711.000000	97.889872 
3710.000000	97.864947 
3709.000000	97.840702 
3708.000000	97.820152 
3707.000000	97.804665 
3706.000000	97.793288 
3705.000000	97.782897 
3704.000000	97.769544 
3703.000000	97.750451 
3702.000000	97.725801 
3701.000000	97.699289 
3700.000000	97.674429 
3699.000000	97.650423 
3698.000000	97.627018 
3697.000000	97.608187 
3696.000000	97.597925 
3695.000000	97.595169 
3694.000000	97.594208 
3693.000000	97.589951 
3692.000000	97.580717 
3691.000000	97.566888 
3690.000000	97.548951 
3689.000000	97.529756 
3688.000000	97.514901 
3687.000000	97.505376 
3686.000000	97.496301 
3685.000000	97.485777 
3684.000000	97.478188 
3683.000000	97.476981 
3682.000000	97.478165 
3681.000000	97.473027 
3680.000000	97.458311 
3679.000000	97.438143 
3678.000000	97.417264 
3677.000000	97.396187 
3676.000000	97.371923 
3675.000000	97.349225 
3674.000000	97.334685 
3673.000000	97.319389 
3672.000000	97.294323 
3671.000000	97.264860 
3670.000000	97.238998 
3669.000000	97.217940 
3668.000000	97.197739 
3667.000000	97.174528 
3666.000000	97.150975 
3665.000000	97.133008 
3664.000000	97.120583 
3663.000000	97.107540 
3662.000000	97.088983 
3661.000000	97.065625 
3660.000000	97.042016 
3659.000000	97.020943 
3658.000000	97.001810 
3657.000000	96.983778 
3656.000000	96.969357 
3655.000000	96.961345 
3654.000000	96.953936 
3653.000000	96.938329 
3652.000000	96.916252 
3651.000000	96.896552 
3650.000000	96.880144 
3649.000000	96.859216 
3648.000000	96.832946 
3647.000000	96.808784 
3646.000000	96.790968 
3645.000000	96.777508 
3644.000000	96.764848 
3643.000000	96.752930 
3642.000000	96.742817 
3641.000000	96.732355 
3640.000000	96.718103 
3639.000000	96.700264 
3638.000000	96.683247 
3637.000000	96.669207 
3636.000000	96.654844 
3635.000000	96.637160 
3634.000000	96.618477 
3633.000000	96.602923 
3632.000000	96.590217 
3631.000000	96.578399 
3630.000000	96.566581 
3629.000000	96.554143 
3628.000000	96.544235 
3627.000000	96.536731 
3626.000000	96.522852 
3625.000000	96.502743 
3624.000000	96.485989 
3623.000000	96.476198 
3622.000000	96.469296 
3621.000000	96.463278 
3620.000000	96.462873 
3619.000000	96.473915 
3618.000000	96.496381 
3617.000000	96.521927 
3616.000000	96.542744 
3615.000000	96.560138 
3614.000000	96.580460 
3613.000000	96.606728 
3612.000000	96.635618 
3611.000000	96.660750 
3610.000000	96.679205 
3609.000000	96.693450 
3608.000000	96.706552 
3607.000000	96.719142 
3606.000000	96.729538 
3605.000000	96.736824 
3604.000000	96.743043 
3603.000000	96.749754 
3602.000000	96.756785 
3601.000000	96.764940 
3600.000000	96.777284 
3599.000000	96.794725 
3598.000000	96.813500 
3597.000000	96.827517 
3596.000000	96.834237 
3595.000000	96.837263 
3594.000000	96.842960 
3593.000000	96.855028 
3592.000000	96.870913 
3591.000000	96.885013 
3590.000000	96.894086 
3589.000000	96.898365 
3588.000000	96.899000 
3587.000000	96.898760 
3586.000000	96.900188 
3585.000000	96.902168 
3584.000000	96.903592 
3583.000000	96.906210 
3582.000000	96.911406 
3581.000000	96.917724 
3580.000000	96.922825 
3579.000000	96.926083 
3578.000000	96.928669 
3577.000000	96.932257 
3576.000000	96.937286 
3575.000000	96.942814 
3574.000000	96.946933 
3573.000000	96.948534 
3572.000000	96.948555 
3571.000000	96.948990 
3570.000000	96.950995 
3569.000000	96.953436 
3568.000000	96.952709 
3567.000000	96.947128 
3566.000000	96.940239 
3565.000000	96.936120 
3564.000000	96.935296 
3563.000000	96.936965 
3562.000000	96.939555 
3561.000000	96.940893 
3560.000000	96.939753 
3559.000000	96.937140 
3558.000000	96.934758 
3557.000000	96.933290 
3556.000000	96.932369 
3555.000000	96.931650 
3554.000000	96.931395 
3553.000000	96.932200 
3552.000000	96.934420 
3551.000000	96.937327 
3550.000000	96.939255 
3549.000000	96.939564 
3548.000000	96.939265 
3547.000000	96.939133 
3546.000000	96.938257 
3545.000000	96.935494 
3544.000000	96.931418 
3543.000000	96.928135 
3542.000000	96.927257 
3541.000000	96.928599 
3540.000000	96.930533 
3539.000000	96.931376 
3538.000000	96.930872 
3537.000000	96.930103 
3536.000000	96.930314 
3535.000000	96.931574 
3534.000000	96.933003 
3533.000000	96.933969 
3532.000000	96.934426 
3531.000000	96.934333 
3530.000000	96.933380 
3529.000000	96.931727 
3528.000000	96.930348 
3527.000000	96.930057 
3526.000000	96.930367 
3525.000000	96.929961 
3524.000000	96.928216 
3523.000000	96.925857 
3522.000000	96.923962 
3521.000000	96.922861 
3520.000000	96.922398 
3519.000000	96.922556 
3518.000000	96.923292 
3517.000000	96.923922 
3516.000000	96.923595 
3515.000000	96.922445 
3514.000000	96.921789 
3513.000000	96.922806 
3512.000000	96.925239 
3511.000000	96.927600 
3510.000000	96.928699 
3509.000000	96.928581 
3508.000000	96.927824 
3507.000000	96.926611 
3506.000000	96.925005 
3505.000000	96.923667 
3504.000000	96.923371 
3503.000000	96.923950 
3502.000000	96.924320 
3501.000000	96.923629 
3500.000000	96.921946 
3499.000000	96.919773 
3498.000000	96.917593 
3497.000000	96.915994 
3496.000000	96.915609 
3495.000000	96.916328 
3494.000000	96.916925 
3493.000000	96.916057 
3492.000000	96.913505 
3491.000000	96.910143 
3490.000000	96.906995 
3489.000000	96.904596 
3488.000000	96.902878 
3487.000000	96.901192 
3486.000000	96.898631 
3485.000000	96.894759 
3484.000000	96.890190 
3483.000000	96.886206 
3482.000000	96.883665 
3481.000000	96.882371 
3480.000000	96.881324 
3479.000000	96.879626 
3478.000000	96.877275 
3477.000000	96.875094 
3476.000000	96.873695 
3475.000000	96.872527 
3474.000000	96.870313 
3473.000000	96.866406 
3472.000000	96.861462 
3471.000000	96.856796 
3470.000000	96.853265 
3469.000000	96.850856 
3468.000000	96.848912 
3467.000000	96.846482 
3466.000000	96.842910 
3465.000000	96.838387 
3464.000000	96.833937 
3463.000000	96.830514 
3462.000000	96.828108 
3461.000000	96.825901 
3460.000000	96.823167 
3459.000000	96.819894 
3458.000000	96.816529 
3457.000000	96.813385 
3456.000000	96.810445 
3455.000000	96.807452 
3454.000000	96.804188 
3453.000000	96.800702 
3452.000000	96.797277 
3451.000000	96.794096 
3450.000000	96.790974 
3449.000000	96.787618 
3448.000000	96.784119 
3447.000000	96.780906 
3446.000000	96.778090 
3445.000000	96.775141 
3444.000000	96.771579 
3443.000000	96.767761 
3442.000000	96.764518 
3441.000000	96.762079 
3440.000000	96.759816 
3439.000000	96.757024 
3438.000000	96.753724 
3437.000000	96.750534 
3436.000000	96.748030 
3435.000000	96.746185 
3434.000000	96.744356 
3433.000000	96.741865 
3432.000000	96.738718 
3431.000000	96.735608 
3430.000000	96.732908 
3429.000000	96.729998 
3428.000000	96.725964 
3427.000000	96.720887 
3426.000000	96.715995 
3425.000000	96.712353 
3424.000000	96.709878 
3423.000000	96.707744 
3422.000000	96.705503 
3421.000000	96.703412 
3420.000000	96.701627 
3419.000000	96.699635 
3418.000000	96.696993 
3417.000000	96.694309 
3416.000000	96.692778 
3415.000000	96.692781 
3414.000000	96.693376 
3413.000000	96.693265 
3412.000000	96.691928 
3411.000000	96.689664 
3410.000000	96.687063 
3409.000000	96.684685 
3408.000000	96.682773 
3407.000000	96.680996 
3406.000000	96.678861 
3405.000000	96.676569 
3404.000000	96.675028 
3403.000000	96.674668 
3402.000000	96.674686 
3401.000000	96.673854 
3400.000000	96.671845 
3399.000000	96.669419 
3398.000000	96.667468 
3397.000000	96.666241 
3396.000000	96.665387 
3395.000000	96.664546 
3394.000000	96.663877 
3393.000000	96.663977 
3392.000000	96.665096 
3391.000000	96.666528 
3390.000000	96.667124 
3389.000000	96.666407 
3388.000000	96.664886 
3387.000000	96.663363 
3386.000000	96.662418 
3385.000000	96.662533 
3384.000000	96.664067 
3383.000000	96.666732 
3382.000000	96.669443 
3381.000000	96.671117 
3380.000000	96.671487 
3379.000000	96.670975 
3378.000000	96.670041 
3377.000000	96.668868 
3376.000000	96.667516 
3375.000000	96.666204 
3374.000000	96.665447 
3373.000000	96.665871 
3372.000000	96.667669 
3371.000000	96.670204 
3370.000000	96.672378 
3369.000000	96.673575 
3368.000000	96.674004 
3367.000000	96.674051 
3366.000000	96.673737 
3365.000000	96.673116 
3364.000000	96.672830 
3363.000000	96.673701 
3362.000000	96.675795 
3361.000000	96.678250 
3360.000000	96.680121 
3359.000000	96.681184 
3358.000000	96.681830 
3357.000000	96.682470 
3356.000000	96.683207 
3355.000000	96.683954 
3354.000000	96.684637 
3353.000000	96.685244 
3352.000000	96.685803 
3351.000000	96.686399 
3350.000000	96.687217 
3349.000000	96.688476 
3348.000000	96.690251 
3347.000000	96.692296 
3346.000000	96.694150 
3345.000000	96.695466 
3344.000000	96.696236 
3343.000000	96.696659 
3342.000000	96.696867 
3341.000000	96.696863 
3340.000000	96.696666 
3339.000000	96.696404 
3338.000000	96.696298 
3337.000000	96.696571 
3336.000000	96.697371 
3335.000000	96.698713 
3334.000000	96.700432 
3333.000000	96.702187 
3332.000000	96.703583 
3331.000000	96.704352 
3330.000000	96.704544 
3329.000000	96.704568 
3328.000000	96.704954 
3327.000000	96.705958 
3326.000000	96.707356 
3325.000000	96.708588 
3324.000000	96.709170 
3323.000000	96.709058 
3322.000000	96.708760 
3321.000000	96.709047 
3320.000000	96.710405 
3319.000000	96.712687 
3318.000000	96.715251 
3317.000000	96.717451 
3316.000000	96.719032 
3315.000000	96.720170 
3314.000000	96.721239 
3313.000000	96.722464 
3312.000000	96.723702 
3311.000000	96.724608 
3310.000000	96.725102 
3309.000000	96.725524 
3308.000000	96.726194 
3307.000000	96.726932 
3306.000000	96.727278 
3305.000000	96.727123 
3304.000000	96.726884 
3303.000000	96.727079 
3302.000000	96.727884 
3301.000000	96.729096 
3300.000000	96.730347 
3299.000000	96.731321 
3298.000000	96.731936 
3297.000000	96.732389 
3296.000000	96.732993 
3295.000000	96.733895 
3294.000000	96.734987 
3293.000000	96.736045 
3292.000000	96.736882 
3291.000000	96.737433 
3290.000000	96.737799 
3289.000000	96.738249 
3288.000000	96.739036 
3287.000000	96.740165 
3286.000000	96.741402 
3285.000000	96.742504 
3284.000000	96.743407 
3283.000000	96.744183 
3282.000000	96.744929 
3281.000000	96.745723 
3280.000000	96.746592 
3279.000000	96.747500 
3278.000000	96.748388 
3277.000000	96.749259 
3276.000000	96.750151 
3275.000000	96.751028 
3274.000000	96.751768 
3273.000000	96.752307 
3272.000000	96.752730 
3271.000000	96.753208 
3270.000000	96.753870 
3269.000000	96.754771 
3268.000000	96.755923 
3267.000000	96.757267 
3266.000000	96.758635 
3265.000000	96.759836 
3264.000000	96.760766 
3263.000000	96.761427 
3262.000000	96.761903 
3261.000000	96.762317 
3260.000000	96.762840 
3259.000000	96.763616 
3258.000000	96.764678 
3257.000000	96.765966 
3256.000000	96.767366 
3255.000000	96.768710 
3254.000000	96.769840 
3253.000000	96.770733 
3252.000000	96.771557 
3251.000000	96.772534 
3250.000000	96.773746 
3249.000000	96.775122 
3248.000000	96.776563 
3247.000000	96.778003 
3246.000000	96.779380 
3245.000000	96.780635 
3244.000000	96.781748 
3243.000000	96.782757 
3242.000000	96.783707 
3241.000000	96.784647 
3240.000000	96.785647 
3239.000000	96.786785 
3238.000000	96.788106 
3237.000000	96.789637 
3236.000000	96.791407 
3235.000000	96.793364 
3234.000000	96.795298 
3233.000000	96.796942 
3232.000000	96.798214 
3231.000000	96.799316 
3230.000000	96.800546 
3229.000000	96.802000 
3228.000000	96.803525 
3227.000000	96.804956 
3226.000000	96.806394 
3225.000000	96.808203 
3224.000000	96.810659 
3223.000000	96.813632 
3222.000000	96.816549 
3221.000000	96.818799 
3220.000000	96.820213 
3219.000000	96.821177 
3218.000000	96.822384 
3217.000000	96.824264 
3216.000000	96.826718 
3215.000000	96.829295 
3214.000000	96.831615 
3213.000000	96.833651 
3212.000000	96.835635 
3211.000000	96.837790 
3210.000000	96.840118 
3209.000000	96.842376 
3208.000000	96.844205 
3207.000000	96.845414 
3206.000000	96.846301 
3205.000000	96.847609 
3204.000000	96.849938 
3203.000000	96.853215 
3202.000000	96.856832 
3201.000000	96.860303 
3200.000000	96.863555 
3199.000000	96.866578 
3198.000000	96.869174 
3197.000000	96.871276 
3196.000000	96.873288 
3195.000000	96.875806 
3194.000000	96.879019 
3193.000000	96.882596 
3192.000000	96.886122 
3191.000000	96.889483 
3190.000000	96.892823 
3189.000000	96.896287 
3188.000000	96.899843 
3187.000000	96.903256 
3186.000000	96.906182 
3185.000000	96.908481 
3184.000000	96.910525 
3183.000000	96.913069 
3182.000000	96.916613 
3181.000000	96.920920 
3180.000000	96.925206 
3179.000000	96.928890 
3178.000000	96.932032 
3177.000000	96.935103 
3176.000000	96.938439 
3175.000000	96.941963 
3174.000000	96.945348 
3173.000000	96.948342 
3172.000000	96.950969 
3171.000000	96.953538 
3170.000000	96.956415 
3169.000000	96.959697 
3168.000000	96.963128 
3167.000000	96.966404 
3166.000000	96.969536 
3165.000000	96.972824 
3164.000000	96.976498 
3163.000000	96.980453 
3162.000000	96.984352 
3161.000000	96.987900 
3160.000000	96.991074 
3159.000000	96.994169 
3158.000000	96.997610 
3157.000000	97.001588 
3156.000000	97.005817 
3155.000000	97.009739 
3154.000000	97.013116 
3153.000000	97.016319 
3152.000000	97.019893 
3151.000000	97.023844 
3150.000000	97.027519 
3149.000000	97.030303 
3148.000000	97.032329 
3147.000000	97.034453 
3146.000000	97.037455 
3145.000000	97.041459 
3144.000000	97.046098 
3143.000000	97.051063 
3142.000000	97.056286 
3141.000000	97.061623 
3140.000000	97.066635 
3139.000000	97.070897 
3138.000000	97.074507 
3137.000000	97.078010 
3136.000000	97.081849 
3135.000000	97.086016 
3134.000000	97.090258 
3133.000000	97.094365 
3132.000000	97.098171 
3131.000000	97.101519 
3130.000000	97.104445 
3129.000000	97.107348 
3128.000000	97.110753 
3127.000000	97.114864 
3126.000000	97.119472 
3125.000000	97.124202 
3124.000000	97.128780 
3123.000000	97.133095 
3122.000000	97.137117 
3121.000000	97.140852 
3120.000000	97.144336 
3119.000000	97.147657 
3118.000000	97.151005 
3117.000000	97.154640 
3116.000000	97.158715 
3115.000000	97.163112 
3114.000000	97.167517 
3113.000000	97.171721 
3112.000000	97.175776 
3111.000000	97.179860 
3110.000000	97.184037 
3109.000000	97.188188 
3108.000000	97.192118 
3107.000000	97.195697 
3106.000000	97.198982 
3105.000000	97.202222 
3104.000000	97.205652 
3103.000000	97.209259 
3102.000000	97.212866 
3101.000000	97.216524 
3100.000000	97.220668 
3099.000000	97.225611 
3098.000000	97.230876 
3097.000000	97.235392 
3096.000000	97.238585 
3095.000000	97.241067 
3094.000000	97.244057 
3093.000000	97.248126 
3092.000000	97.252751 
3091.000000	97.256827 
3090.000000	97.259602 
3089.000000	97.261340 
3088.000000	97.263286 
3087.000000	97.266783 
3086.000000	97.272297 
3085.000000	97.279252 
3084.000000	97.286501 
3083.000000	97.292758 
3082.000000	97.296967 
3081.000000	97.299059 
3080.000000	97.300470 
3079.000000	97.303073 
3078.000000	97.307225 
3077.000000	97.311353 
3076.000000	97.313842 
3075.000000	97.314855 
3074.000000	97.315913 
3073.000000	97.318011 
3072.000000	97.320644 
3071.000000	97.322808 
3070.000000	97.324530 
3069.000000	97.326946 
3068.000000	97.330631 
3067.000000	97.334360 
3066.000000	97.336499 
3065.000000	97.337595 
3064.000000	97.340283 
3063.000000	97.345806 
3062.000000	97.351806 
3061.000000	97.354957 
3060.000000	97.355196 
3059.000000	97.355698 
3058.000000	97.358583 
3057.000000	97.362100 
3056.000000	97.362949 
3055.000000	97.360400 
3054.000000	97.357069 
3053.000000	97.356051 
3052.000000	97.357968 
3051.000000	97.360885 
3050.000000	97.362521 
3049.000000	97.362273 
3048.000000	97.361295 
3047.000000	97.360954 
3046.000000	97.361502 
3045.000000	97.362258 
3044.000000	97.362716 
3043.000000	97.363156 
3042.000000	97.363993 
3041.000000	97.364661 
3040.000000	97.363538 
3039.000000	97.359395 
3038.000000	97.352930 
3037.000000	97.346198 
3036.000000	97.340055 
3035.000000	97.332951 
3034.000000	97.323198 
3033.000000	97.311661 
3032.000000	97.300954 
3031.000000	97.292094 
3030.000000	97.283065 
3029.000000	97.271393 
3028.000000	97.257173 
3027.000000	97.242585 
3026.000000	97.229034 
3025.000000	97.215954 
3024.000000	97.202222 
3023.000000	97.187495 
3022.000000	97.171887 
3021.000000	97.155350 
3020.000000	97.137968 
3019.000000	97.120347 
3018.000000	97.103116 
3017.000000	97.086110 
3016.000000	97.068379 
3015.000000	97.049093 
3014.000000	97.028338 
3013.000000	97.006870 
3012.000000	96.985095 
3011.000000	96.962623 
3010.000000	96.939147 
3009.000000	96.915396 
3008.000000	96.892440 
3007.000000	96.870139 
3006.000000	96.847290 
3005.000000	96.823664 
3004.000000	96.800773 
3003.000000	96.779671 
3002.000000	96.758902 
3001.000000	96.736097 
3000.000000	96.711352 
2999.000000	96.687714 
2998.000000	96.668270 
2997.000000	96.653977 
2996.000000	96.644053 
2995.000000	96.636104 
2994.000000	96.624598 
2993.000000	96.601590 
2992.000000	96.562856 
2991.000000	96.514486 
2990.000000	96.471293 
2989.000000	96.446355 
2988.000000	96.442143 
2987.000000	96.451517 
2986.000000	96.465451 
2985.000000	96.478830 
2984.000000	96.490197 
2983.000000	96.499318 
2982.000000	96.506432 
2981.000000	96.512109 
2980.000000	96.516192 
2979.000000	96.517469 
2978.000000	96.515373 
2977.000000	96.511306 
2976.000000	96.507176 
2975.000000	96.503287 
2974.000000	96.499125 
2973.000000	96.496067 
2972.000000	96.497774 
2971.000000	96.507348 
2970.000000	96.524758 
2969.000000	96.547156 
2968.000000	96.570996 
2967.000000	96.593981 
2966.000000	96.615994 
2965.000000	96.638553 
2964.000000	96.662749 
2963.000000	96.687341 
2962.000000	96.709353 
2961.000000	96.726706 
2960.000000	96.739823 
2959.000000	96.750857 
2958.000000	96.762283 
2957.000000	96.776214 
2956.000000	96.793622 
2955.000000	96.813235 
2954.000000	96.831974 
2953.000000	96.847523 
2952.000000	96.860312 
2951.000000	96.872508 
2950.000000	96.885456 
2949.000000	96.898668 
2948.000000	96.910832 
2947.000000	96.920913 
2946.000000	96.928626 
2945.000000	96.934682 
2944.000000	96.940455 
2943.000000	96.946954 
2942.000000	96.954013 
2941.000000	96.960610 
2940.000000	96.966093 
2939.000000	96.970974 
2938.000000	96.976458 
2937.000000	96.983386 
2936.000000	96.991741 
2935.000000	97.001040 
2934.000000	97.011024 
2933.000000	97.021647 
2932.000000	97.032085 
2931.000000	97.040054 
2930.000000	97.042988 
2929.000000	97.040442 
2928.000000	97.035227 
2927.000000	97.031680 
2926.000000	97.032516 
2925.000000	97.037005 
2924.000000	97.041908 
2923.000000	97.044182 
2922.000000	97.043175 
2921.000000	97.040447 
2920.000000	97.037476 
2919.000000	97.033852 
2918.000000	97.027960 
2917.000000	97.018977 
2916.000000	97.007439 
2915.000000	96.994224 
2914.000000	96.980120 
2913.000000	96.966655 
2912.000000	96.956160 
2911.000000	96.949986 
2910.000000	96.947081 
2909.000000	96.945055 
2908.000000	96.942472 
2907.000000	96.939201 
2906.000000	96.934381 
2905.000000	96.925151 
2904.000000	96.909117 
2903.000000	96.888997 
2902.000000	96.874144 
2901.000000	96.874809 
2900.000000	96.893900 
2899.000000	96.924083 
2898.000000	96.952671 
2897.000000	96.971089 
2896.000000	96.979125 
2895.000000	96.981817 
2894.000000	96.984328 
2893.000000	96.989446 
2892.000000	96.997483 
2891.000000	97.006724 
2890.000000	97.014492 
2889.000000	97.019063 
2888.000000	97.020799 
2887.000000	97.021389 
2886.000000	97.022647 
2885.000000	97.026342 
2884.000000	97.034241 
2883.000000	97.047076 
2882.000000	97.063591 
2881.000000	97.081454 
2880.000000	97.099319 
2879.000000	97.117611 
2878.000000	97.137177 
2877.000000	97.157493 
2876.000000	97.176410 
2875.000000	97.191847 
2874.000000	97.203833 
2873.000000	97.214608 
2872.000000	97.226256 
2871.000000	97.238319 
2870.000000	97.248519 
2869.000000	97.255982 
2868.000000	97.263066 
2867.000000	97.273640 
2866.000000	97.290046 
2865.000000	97.311879 
2864.000000	97.336849 
2863.000000	97.362287 
2862.000000	97.386513 
2861.000000	97.409618 
2860.000000	97.432920 
2859.000000	97.457276 
2858.000000	97.481893 
2857.000000	97.504855 
2856.000000	97.524364 
2855.000000	97.539547 
2854.000000	97.551179 
2853.000000	97.561655 
2852.000000	97.572916 
2851.000000	97.584145 
2850.000000	97.592518 
2849.000000	97.596499 
2848.000000	97.597556 
2847.000000	97.598585 
2846.000000	97.601685 
2845.000000	97.607756 
2844.000000	97.616765 
2843.000000	97.627391 
2842.000000	97.637301 
2841.000000	97.644777 
2840.000000	97.649722 
2839.000000	97.652858 
2838.000000	97.654964 
2837.000000	97.657300 
2836.000000	97.661261 
2835.000000	97.666632 
2834.000000	97.671519 
2833.000000	97.675147 
2832.000000	97.679300 
2831.000000	97.685470 
2830.000000	97.691851 
2829.000000	97.695340 
2828.000000	97.695837 
2827.000000	97.696305 
2826.000000	97.698746 
2825.000000	97.702257 
2824.000000	97.705504 
2823.000000	97.709049 
2822.000000	97.714098 
2821.000000	97.720199 
2820.000000	97.725352 
2819.000000	97.727981 
2818.000000	97.728194 
2817.000000	97.727511 
2816.000000	97.727694 
2815.000000	97.729464 
2814.000000	97.732208 
2813.000000	97.735121 
2812.000000	97.738380 
2811.000000	97.742675 
2810.000000	97.747851 
2809.000000	97.752830 
2808.000000	97.756811 
2807.000000	97.759747 
2806.000000	97.761685 
2805.000000	97.762488 
2804.000000	97.762453 
2803.000000	97.762517 
2802.000000	97.763425 
2801.000000	97.765063 
2800.000000	97.766909 
2799.000000	97.768802 
2798.000000	97.770992 
2797.000000	97.773624 
2796.000000	97.776413 
2795.000000	97.778851 
2794.000000	97.780735 
2793.000000	97.782398 
2792.000000	97.784281 
2791.000000	97.786275 
2790.000000	97.787781 
2789.000000	97.788498 
2788.000000	97.788872 
2787.000000	97.789635 
2786.000000	97.791121 
2785.000000	97.793211 
2784.000000	97.795664 
2783.000000	97.798196 
2782.000000	97.800380 
2781.000000	97.801866 
2780.000000	97.802774 
2779.000000	97.803726 
2778.000000	97.805299 
2777.000000	97.807528 
2776.000000	97.809964 
2775.000000	97.812107 
2774.000000	97.813814 
2773.000000	97.815330 
2772.000000	97.816996 
2771.000000	97.818885 
2770.000000	97.820721 
2769.000000	97.822196 
2768.000000	97.823305 
2767.000000	97.824298 
2766.000000	97.825362 
2765.000000	97.826447 
2764.000000	97.827425 
2763.000000	97.828360 
2762.000000	97.829544 
2761.000000	97.831241 
2760.000000	97.833410 
2759.000000	97.835675 
2758.000000	97.837630 
2757.000000	97.839228 
2756.000000	97.840746 
2755.000000	97.842407 
2754.000000	97.844109 
2753.000000	97.845633 
2752.000000	97.847017 
2751.000000	97.848536 
2750.000000	97.850328 
2749.000000	97.852227 
2748.000000	97.854009 
2747.000000	97.855664 
2746.000000	97.857316 
2745.000000	97.858984 
2744.000000	97.860584 
2743.000000	97.862108 
2742.000000	97.863633 
2741.000000	97.865128 
2740.000000	97.866440 
2739.000000	97.867528 
2738.000000	97.868622 
2737.000000	97.870025 
2736.000000	97.871771 
2735.000000	97.873565 
2734.000000	97.875080 
2733.000000	97.876290 
2732.000000	97.877445 
2731.000000	97.878791 
2730.000000	97.880366 
2729.000000	97.882068 
2728.000000	97.883816 
2727.000000	97.885569 
2726.000000	97.887246 
2725.000000	97.888726 
2724.000000	97.889973 
2723.000000	97.891101 
2722.000000	97.892270 
2721.000000	97.893543 
2720.000000	97.894860 
2719.000000	97.896130 
2718.000000	97.897327 
2717.000000	97.898498 
2716.000000	97.899690 
2715.000000	97.900871 
2714.000000	97.901944 
2713.000000	97.902840 
2712.000000	97.903603 
2711.000000	97.904369 
2710.000000	97.905273 
2709.000000	97.906371 
2708.000000	97.907649 
2707.000000	97.909030 
2706.000000	97.910350 
2705.000000	97.911376 
2704.000000	97.911951 
2703.000000	97.912195 
2702.000000	97.912570 
2701.000000	97.913540 
2700.000000	97.915160 
2699.000000	97.916926 
2698.000000	97.918165 
2697.000000	97.918621 
2696.000000	97.918598 
2695.000000	97.918653 
2694.000000	97.919178 
2693.000000	97.920237 
2692.000000	97.921552 
2691.000000	97.922635 
2690.000000	97.923216 
2689.000000	97.923555 
2688.000000	97.924076 
2687.000000	97.924688 
2686.000000	97.924880 
2685.000000	97.924592 
2684.000000	97.924509 
2683.000000	97.925159 
2682.000000	97.926150 
2681.000000	97.926704 
2680.000000	97.926631 
2679.000000	97.926349 
2678.000000	97.926195 
2677.000000	97.926173 
2676.000000	97.926281 
2675.000000	97.926657 
2674.000000	97.927338 
2673.000000	97.928097 
2672.000000	97.928540 
2671.000000	97.928393 
2670.000000	97.927879 
2669.000000	97.927763 
2668.000000	97.928541 
2667.000000	97.929494 
2666.000000	97.929200 
2665.000000	97.927276 
2664.000000	97.924957 
2663.000000	97.923497 
2662.000000	97.922453 
2661.000000	97.920418 
2660.000000	97.917074 
2659.000000	97.913685 
2658.000000	97.911623 
2657.000000	97.911118 
2656.000000	97.911592 
2655.000000	97.912440 
2654.000000	97.913198 
2653.000000	97.913503 
2652.000000	97.913331 
2651.000000	97.912967 
2650.000000	97.912492 
2649.000000	97.911586 
2648.000000	97.910094 
2647.000000	97.908609 
2646.000000	97.908158 
2645.000000	97.909241 
2644.000000	97.911341 
2643.000000	97.913273 
2642.000000	97.914031 
2641.000000	97.913424 
2640.000000	97.912052 
2639.000000	97.910838 
2638.000000	97.910508 
2637.000000	97.911264 
2636.000000	97.912735 
2635.000000	97.914210 
2634.000000	97.915140 
2633.000000	97.915543 
2632.000000	97.915803 
2631.000000	97.916140 
2630.000000	97.916411 
2629.000000	97.916464 
2628.000000	97.916437 
2627.000000	97.916597 
2626.000000	97.916997 
2625.000000	97.917447 
2624.000000	97.917784 
2623.000000	97.918061 
2622.000000	97.918464 
2621.000000	97.919086 
2620.000000	97.919837 
2619.000000	97.920571 
2618.000000	97.921252 
2617.000000	97.921924 
2616.000000	97.922550 
2615.000000	97.923025 
2614.000000	97.923337 
2613.000000	97.923631 
2612.000000	97.924081 
2611.000000	97.924731 
2610.000000	97.925503 
2609.000000	97.926296 
2608.000000	97.927061 
2607.000000	97.927786 
2606.000000	97.928481 
2605.000000	97.929193 
2604.000000	97.929976 
2603.000000	97.930822 
2602.000000	97.931689 
2601.000000	97.932542 
2600.000000	97.933375 
2599.000000	97.934196 
2598.000000	97.935019 
2597.000000	97.935854 
2596.000000	97.936707 
2595.000000	97.937577 
2594.000000	97.938455 
2593.000000	97.939332 
2592.000000	97.940205 
2591.000000	97.941079 
2590.000000	97.941958 
2589.000000	97.942853 
2588.000000	97.943769 
2587.000000	97.944704 
2586.000000	97.945650 
2585.000000	97.946594 
2584.000000	97.947530 
2583.000000	97.948457 
2582.000000	97.949378 
2581.000000	97.950296 
2580.000000	97.951219 
2579.000000	97.952149 
2578.000000	97.953087 
2577.000000	97.954030 
2576.000000	97.954975 
2575.000000	97.955919 
2574.000000	97.956852 
2573.000000	97.957770 
2572.000000	97.958672 
2571.000000	97.959557 
2570.000000	97.960426 
2569.000000	97.961281 
2568.000000	97.962128 
2567.000000	97.962971 
2566.000000	97.963806 
2565.000000	97.964620 
2564.000000	97.965407 
2563.000000	97.966163 
2562.000000	97.966891 
2561.000000	97.967591 
2560.000000	97.968265 
2559.000000	97.968916 
2558.000000	97.969546 
2557.000000	97.970154 
2556.000000	97.970741 
2555.000000	97.971309 
2554.000000	97.971849 
2553.000000	97.972348 
2552.000000	97.972816 
2551.000000	97.973296 
2550.000000	97.973804 
2549.000000	97.974310 
2548.000000	97.974782 
2547.000000	97.975230 
2546.000000	97.975666 
2545.000000	97.976068 
2544.000000	97.976416 
2543.000000	97.976732 
2542.000000	97.977064 
2541.000000	97.977444 
2540.000000	97.977885 
2539.000000	97.978356 
2538.000000	97.978742 
2537.000000	97.978935 
2536.000000	97.978981 
2535.000000	97.979069 
2534.000000	97.979311 
2533.000000	97.979626 
2532.000000	97.979856 
2531.000000	97.979922 
2530.000000	97.979849 
2529.000000	97.979745 
2528.000000	97.979786 
2527.000000	97.980098 
2526.000000	97.980593 
2525.000000	97.980952 
2524.000000	97.980918 
2523.000000	97.980515 
2522.000000	97.980025 
2521.000000	97.979768 
2520.000000	97.979898 
2519.000000	97.980370 
2518.000000	97.980929 
2517.000000	97.981316 
2516.000000	97.981555 
2515.000000	97.981954 
2514.000000	97.982765 
2513.000000	97.983911 
2512.000000	97.985021 
2511.000000	97.985714 
2510.000000	97.985853 
2509.000000	97.985647 
2508.000000	97.985537 
2507.000000	97.985807 
2506.000000	97.986341 
2505.000000	97.986822 
2504.000000	97.987098 
2503.000000	97.987223 
2502.000000	97.987208 
2501.000000	97.987040 
2500.000000	97.986950 
2499.000000	97.987365 
2498.000000	97.988475 
2497.000000	97.990011 
2496.000000	97.991464 
2495.000000	97.992424 
2494.000000	97.992763 
2493.000000	97.992733 
2492.000000	97.992922 
2491.000000	97.993781 
2490.000000	97.995187 
2489.000000	97.996574 
2488.000000	97.997549 
2487.000000	97.998204 
2486.000000	97.998790 
2485.000000	97.999329 
2484.000000	97.999664 
2483.000000	97.999678 
2482.000000	97.999378 
2481.000000	97.999002 
2480.000000	97.999012 
2479.000000	97.999745 
2478.000000	98.001051 
2477.000000	98.002338 
2476.000000	98.003103 
2475.000000	98.003295 
2474.000000	98.003157 
2473.000000	98.002940 
2472.000000	98.002780 
2471.000000	98.002706 
2470.000000	98.002660 
2469.000000	98.002602 
2468.000000	98.002595 
2467.000000	98.002689 
2466.000000	98.002765 
2465.000000	98.002679 
2464.000000	98.002515 
2463.000000	98.002529 
2462.000000	98.002835 
2461.000000	98.003295 
2460.000000	98.003675 
2459.000000	98.003819 
2458.000000	98.003704 
2457.000000	98.003459 
2456.000000	98.003331 
2455.000000	98.003479 
2454.000000	98.003822 
2453.000000	98.004091 
2452.000000	98.004127 
2451.000000	98.004028 
2450.000000	98.003981 
2449.000000	98.004068 
2448.000000	98.004296 
2447.000000	98.004648 
2446.000000	98.005058 
2445.000000	98.005408 
2444.000000	98.005659 
2443.000000	98.005894 
2442.000000	98.006179 
2441.000000	98.006460 
2440.000000	98.006650 
2439.000000	98.006790 
2438.000000	98.007001 
2437.000000	98.007283 
2436.000000	98.007475 
2435.000000	98.007467 
2434.000000	98.007366 
2433.000000	98.007415 
2432.000000	98.007805 
2431.000000	98.008557 
2430.000000	98.009514 
2429.000000	98.010471 
2428.000000	98.011340 
2427.000000	98.012049 
2426.000000	98.012336 
2425.000000	98.012030 
2424.000000	98.011599 
2423.000000	98.011842 
2422.000000	98.012905 
2421.000000	98.014108 
2420.000000	98.014858 
2419.000000	98.015195 
2418.000000	98.015296 
2417.000000	98.015205 
2416.000000	98.015367 
2415.000000	98.016515 
2414.000000	98.018508 
2413.000000	98.020127 
2412.000000	98.020600 
2411.000000	98.020568 
2410.000000	98.020910 
2409.000000	98.021467 
2408.000000	98.021541 
2407.000000	98.020884 
2406.000000	98.019661 
2405.000000	98.018042 
2404.000000	98.016403 
2403.000000	98.015372 
2402.000000	98.015183 
2401.000000	98.015339 
2400.000000	98.015403 
2399.000000	98.015718 
2398.000000	98.016896 
2397.000000	98.018827 
2396.000000	98.020629 
2395.000000	98.021502 
2394.000000	98.021383 
2393.000000	98.020837 
2392.000000	98.020441 
2391.000000	98.020317 
2390.000000	98.019975 
2389.000000	98.018515 
2388.000000	98.015597 
2387.000000	98.012016 
2386.000000	98.009006 
2385.000000	98.007425 
2384.000000	98.006968 
2383.000000	98.006022 
2382.000000	98.002967 
2381.000000	97.997800 
2380.000000	97.992275 
2379.000000	97.988330 
2378.000000	97.986663 
2377.000000	97.986962 
2376.000000	97.988829 
2375.000000	97.991763 
2374.000000	97.994851 
2373.000000	97.997166 
2372.000000	97.998438 
2371.000000	97.998729 
2370.000000	97.997631 
2369.000000	97.994784 
2368.000000	97.991175 
2367.000000	97.988784 
2366.000000	97.988527 
2365.000000	97.989488 
2364.000000	97.990534 
2363.000000	97.990689 
2362.000000	97.988889 
2361.000000	97.986045 
2360.000000	97.984504 
2359.000000	97.986050 
2358.000000	97.990508 
2357.000000	97.995541 
2356.000000	98.000155 
2355.000000	98.004065 
2354.000000	98.006513 
2353.000000	98.006910 
2352.000000	98.005512 
2351.000000	98.003290 
2350.000000	97.997886 
2349.000000	97.986703 
2348.000000	97.970866 
2347.000000	97.955781 
2346.000000	97.948520 
2345.000000	97.950700 
2344.000000	97.959211 
2343.000000	97.968229 
2342.000000	97.973911 
2341.000000	97.976159 
2340.000000	97.975521 
2339.000000	97.974203 
2338.000000	97.973872 
2337.000000	97.974935 
2336.000000	97.976141 
2335.000000	97.976453 
2334.000000	97.975784 
2333.000000	97.975229 
2332.000000	97.975920 
2331.000000	97.978893 
2330.000000	97.982755 
2329.000000	97.985056 
2328.000000	97.984184 
2327.000000	97.979554 
2326.000000	97.973089 
2325.000000	97.966550 
2324.000000	97.962812 
2323.000000	97.962741 
2322.000000	97.965261 
2321.000000	97.968352 
2320.000000	97.970760 
2319.000000	97.973204 
2318.000000	97.975471 
2317.000000	97.976624 
2316.000000	97.975416 
2315.000000	97.972268 
2314.000000	97.968273 
2313.000000	97.964295 
2312.000000	97.960882 
2311.000000	97.958407 
2310.000000	97.957263 
2309.000000	97.957107 
2308.000000	97.957816 
2307.000000	97.959108 
2306.000000	97.960811 
2305.000000	97.962022 
2304.000000	97.962223 
2303.000000	97.961192 
2302.000000	97.959141 
2301.000000	97.956247 
2300.000000	97.952954 
2299.000000	97.949894 
2298.000000	97.947436 
2297.000000	97.945073 
2296.000000	97.942583 
2295.000000	97.939864 
2294.000000	97.936941 
2293.000000	97.933384 
2292.000000	97.930061 
2291.000000	97.928200 
2290.000000	97.927956 
2289.000000	97.927419 
2288.000000	97.925281 
2287.000000	97.922209 
2286.000000	97.919629 
2285.000000	97.917900 
2284.000000	97.916973 
2283.000000	97.917354 
2282.000000	97.919279 
2281.000000	97.922100 
2280.000000	97.925226 
2279.000000	97.928754 
2278.000000	97.931907 
2277.000000	97.933221 
2276.000000	97.932704 
2275.000000	97.932375 
2274.000000	97.933317 
2273.000000	97.934424 
2272.000000	97.934872 
2271.000000	97.935775 
2270.000000	97.938337 
2269.000000	97.941843 
2268.000000	97.944684 
2267.000000	97.946006 
2266.000000	97.945691 
2265.000000	97.944183 
2264.000000	97.942840 
2263.000000	97.942824 
2262.000000	97.943348 
2261.000000	97.942306 
2260.000000	97.939183 
2259.000000	97.935852 
2258.000000	97.934282 
2257.000000	97.934593 
2256.000000	97.935780 
2255.000000	97.937098 
2254.000000	97.938186 
2253.000000	97.938855 
2252.000000	97.939208 
2251.000000	97.939592 
2250.000000	97.940130 
2249.000000	97.940626 
2248.000000	97.940954 
2247.000000	97.941166 
2246.000000	97.941318 
2245.000000	97.941445 
2244.000000	97.941599 
2243.000000	97.941815 
2242.000000	97.942073 
2241.000000	97.942335 
2240.000000	97.942589 
2239.000000	97.942865 
2238.000000	97.943167 
2237.000000	97.943399 
2236.000000	97.943446 
2235.000000	97.943305 
2234.000000	97.943153 
2233.000000	97.943169 
2232.000000	97.943378 
2231.000000	97.943647 
2230.000000	97.943790 
2229.000000	97.943684 
2228.000000	97.943326 
2227.000000	97.942806 
2226.000000	97.942113 
2225.000000	97.941132 
2224.000000	97.940127 
2223.000000	97.939847 
2222.000000	97.940648 
2221.000000	97.941763 
2220.000000	97.942026 
2219.000000	97.941370 
2218.000000	97.940959 
2217.000000	97.941756 
2216.000000	97.943526 
2215.000000	97.945345 
2214.000000	97.946417 
2213.000000	97.946204 
2212.000000	97.944405 
2211.000000	97.941396 
2210.000000	97.938397 
2209.000000	97.936791 
2208.000000	97.937283 
2207.000000	97.939604 
2206.000000	97.942696 
2205.000000	97.945448 
2204.000000	97.947505 
2203.000000	97.949088 
2202.000000	97.950144 
2201.000000	97.950061 
2200.000000	97.948192 
2199.000000	97.944709 
2198.000000	97.940615 
2197.000000	97.936955 
2196.000000	97.934514 
2195.000000	97.933589 
2194.000000	97.933691 
2193.000000	97.933847 
2192.000000	97.933210 
2191.000000	97.931206 
2190.000000	97.927683 
2189.000000	97.923538 
2188.000000	97.920495 
2187.000000	97.919487 
2186.000000	97.920110 
2185.000000	97.922322 
2184.000000	97.927147 
2183.000000	97.934164 
2182.000000	97.939796 
2181.000000	97.940703 
2180.000000	97.937993 
2179.000000	97.935576 
2178.000000	97.935101 
2177.000000	97.935606 
2176.000000	97.937443 
2175.000000	97.942581 
2174.000000	97.950344 
2173.000000	97.956477 
2172.000000	97.958073 
2171.000000	97.956462 
2170.000000	97.954003 
2169.000000	97.950866 
2168.000000	97.946814 
2167.000000	97.943675 
2166.000000	97.943380 
2165.000000	97.944794 
2164.000000	97.944715 
2163.000000	97.941688 
2162.000000	97.938080 
2161.000000	97.939288 
2160.000000	97.950646 
2159.000000	97.972720 
2158.000000	97.997978 
2157.000000	98.015739 
2156.000000	98.022191 
2155.000000	98.021265 
2154.000000	98.017868 
2153.000000	98.013559 
2152.000000	98.008978 
2151.000000	98.006047 
2150.000000	98.005365 
2149.000000	98.004683 
2148.000000	98.002683 
2147.000000	98.002060 
2146.000000	98.006392 
2145.000000	98.015667 
2144.000000	98.026915 
2143.000000	98.037516 
2142.000000	98.045593 
2141.000000	98.048794 
2140.000000	98.045734 
2139.000000	98.038347 
2138.000000	98.031064 
2137.000000	98.027384 
2136.000000	98.027897 
2135.000000	98.030899 
2134.000000	98.033871 
2133.000000	98.035349 
2132.000000	98.036328 
2131.000000	98.038971 
2130.000000	98.043186 
2129.000000	98.045625 
2128.000000	98.043148 
2127.000000	98.036233 
2126.000000	98.028232 
2125.000000	98.021957 
2124.000000	98.017729 
2123.000000	98.014312 
2122.000000	98.010740 
2121.000000	98.007188 
2120.000000	98.004378 
2119.000000	98.002232 
2118.000000	97.999660 
2117.000000	97.996127 
2116.000000	97.992659 
2115.000000	97.990426 
2114.000000	97.989406 
2113.000000	97.989603 
2112.000000	97.992468 
2111.000000	97.998786 
2110.000000	98.005485 
2109.000000	98.007579 
2108.000000	98.003789 
2107.000000	97.997698 
2106.000000	97.992958 
2105.000000	97.989528 
2104.000000	97.985823 
2103.000000	97.982246 
2102.000000	97.980551 
2101.000000	97.981075 
2100.000000	97.982398 
2099.000000	97.983204 
2098.000000	97.983560 
2097.000000	97.984770 
2096.000000	97.988285 
2095.000000	97.993958 
2094.000000	97.999125 
2093.000000	98.000789 
2092.000000	97.998553 
2091.000000	97.994558 
2090.000000	97.991116 
2089.000000	97.988817 
2088.000000	97.986939 
2087.000000	97.984703 
2086.000000	97.982008 
2085.000000	97.979713 
2084.000000	97.979199 
2083.000000	97.981057 
2082.000000	97.984159 
2081.000000	97.986396 
2080.000000	97.986843 
2079.000000	97.986367 
2078.000000	97.986177 
2077.000000	97.986544 
2076.000000	97.987076 
2075.000000	97.987458 
2074.000000	97.987504 
2073.000000	97.987081 
2072.000000	97.986438 
2071.000000	97.986264 
2070.000000	97.986997 
2069.000000	97.988315 
2068.000000	97.989572 
2067.000000	97.990522 
2066.000000	97.991249 
2065.000000	97.991884 
2064.000000	97.992728 
2063.000000	97.994168 
2062.000000	97.996082 
2061.000000	97.997699 
2060.000000	97.998383 
2059.000000	97.998224 
2058.000000	97.997755 
2057.000000	97.997625 
2056.000000	97.998591 
2055.000000	98.000978 
2054.000000	98.003687 
2053.000000	98.004563 
2052.000000	98.002450 
2051.000000	97.998368 
2050.000000	97.994657 
2049.000000	97.993009 
2048.000000	97.994012 
2047.000000	97.997809 
2046.000000	98.003860 
2045.000000	98.010295 
2044.000000	98.014856 
2043.000000	98.016575 
2042.000000	98.015953 
2041.000000	98.014253 
2040.000000	98.013046 
2039.000000	98.013761 
2038.000000	98.016972 
2037.000000	98.022069 
2036.000000	98.027805 
2035.000000	98.032972 
2034.000000	98.036543 
2033.000000	98.038190 
2032.000000	98.038914 
2031.000000	98.039880 
2030.000000	98.040397 
2029.000000	98.038948 
2028.000000	98.036284 
2027.000000	98.035317 
2026.000000	98.037126 
2025.000000	98.039187 
2024.000000	98.038818 
2023.000000	98.036753 
2022.000000	98.035748 
2021.000000	98.036894 
2020.000000	98.038889 
2019.000000	98.040075 
2018.000000	98.039638 
2017.000000	98.037519 
2016.000000	98.034733 
2015.000000	98.033279 
2014.000000	98.034539 
2013.000000	98.037810 
2012.000000	98.040805 
2011.000000	98.041511 
2010.000000	98.039550 
2009.000000	98.036666 
2008.000000	98.035638 
2007.000000	98.037156 
2006.000000	98.038334 
2005.000000	98.036265 
2004.000000	98.032307 
2003.000000	98.030144 
2002.000000	98.029787 
2001.000000	98.027339 
2000.000000	98.021475 
1999.000000	98.015932 
1998.000000	98.013839 
1997.000000	98.013723 
1996.000000	98.013103 
1995.000000	98.012337 
1994.000000	98.011912 
1993.000000	98.009273 
1992.000000	98.002415 
1991.000000	97.994670 
1990.000000	97.991442 
1989.000000	97.993517 
1988.000000	97.996820 
1987.000000	97.997639 
1986.000000	97.996080 
1985.000000	97.994561 
1984.000000	97.994816 
1983.000000	97.996032 
1982.000000	97.995085 
1981.000000	97.990002 
1980.000000	97.983839 
1979.000000	97.982690 
1978.000000	97.988780 
1977.000000	97.998175 
1976.000000	98.006414 
1975.000000	98.013496 
1974.000000	98.020588 
1973.000000	98.025996 
1972.000000	98.027624 
1971.000000	98.026185 
1970.000000	98.023054 
1969.000000	98.017581 
1968.000000	98.009553 
1967.000000	98.002012 
1966.000000	97.998361 
1965.000000	97.998335 
1964.000000	97.999371 
1963.000000	98.000336 
1962.000000	98.001955 
1961.000000	98.004611 
1960.000000	98.007345 
1959.000000	98.008504 
1958.000000	98.006786 
1957.000000	98.002690 
1956.000000	97.999178 
1955.000000	97.999159 
1954.000000	98.001948 
1953.000000	98.003713 
1952.000000	98.002049 
1951.000000	97.998443 
1950.000000	97.995684 
1949.000000	97.994486 
1948.000000	97.993987 
1947.000000	97.993870 
1946.000000	97.994304 
1945.000000	97.994947 
1944.000000	97.995252 
1943.000000	97.995117 
1942.000000	97.994435 
1941.000000	97.992799 
1940.000000	97.990299 
1939.000000	97.987814 
1938.000000	97.986072 
1937.000000	97.984921 
1936.000000	97.983916 
1935.000000	97.982913 
1934.000000	97.981907 
1933.000000	97.980783 
1932.000000	97.979496 
1931.000000	97.978193 
1930.000000	97.976946 
1929.000000	97.975714 
1928.000000	97.974490 
1927.000000	97.973286 
1926.000000	97.972100 
1925.000000	97.970908 
1924.000000	97.969680 
1923.000000	97.968425 
1922.000000	97.967194 
1921.000000	97.965994 
1920.000000	97.964761 
1919.000000	97.963437 
1918.000000	97.962027 
1917.000000	97.960569 
1916.000000	97.959154 
1915.000000	97.957959 
1914.000000	97.957024 
1913.000000	97.956046 
1912.000000	97.954694 
1911.000000	97.953201 
1910.000000	97.951947 
1909.000000	97.950699 
1908.000000	97.949011 
1907.000000	97.946928 
1906.000000	97.944925 
1905.000000	97.943200 
1904.000000	97.941681 
1903.000000	97.940523 
1902.000000	97.939708 
1901.000000	97.938700 
1900.000000	97.937234 
1899.000000	97.935873 
1898.000000	97.935186 
1897.000000	97.934729 
1896.000000	97.933648 
1895.000000	97.932016 
1894.000000	97.930505 
1893.000000	97.929243 
1892.000000	97.927989 
1891.000000	97.926849 
1890.000000	97.925991 
1889.000000	97.925266 
1888.000000	97.924843 
1887.000000	97.925223 
1886.000000	97.925939 
1885.000000	97.925347 
1884.000000	97.922688 
1883.000000	97.919588 
1882.000000	97.918132 
1881.000000	97.918475 
1880.000000	97.919598 
1879.000000	97.920970 
1878.000000	97.922380 
1877.000000	97.923222 
1876.000000	97.923323 
1875.000000	97.923607 
1874.000000	97.924425 
1873.000000	97.924454 
1872.000000	97.922948 
1871.000000	97.921357 
1870.000000	97.920731 
1869.000000	97.919458 
1868.000000	97.916979 
1867.000000	97.916346 
1866.000000	97.919255 
1865.000000	97.923360 
1864.000000	97.926084 
1863.000000	97.928206 
1862.000000	97.931312 
1861.000000	97.933829 
1860.000000	97.933243 
1859.000000	97.930709 
1858.000000	97.929667 
1857.000000	97.930902 
1856.000000	97.932526 
1855.000000	97.933810 
1854.000000	97.935703 
1853.000000	97.938340 
1852.000000	97.941217 
1851.000000	97.944666 
1850.000000	97.949076 
1849.000000	97.953543 
1848.000000	97.956845 
1847.000000	97.959155 
1846.000000	97.961250 
1845.000000	97.962713 
1844.000000	97.963191 
1843.000000	97.964003 
1842.000000	97.965507 
1841.000000	97.966078 
1840.000000	97.964774 
1839.000000	97.962438 
1838.000000	97.960604 
1837.000000	97.959694 
1836.000000	97.959546 
1835.000000	97.960794 
1834.000000	97.963750 
1833.000000	97.967099 
1832.000000	97.968811 
1831.000000	97.967799 
1830.000000	97.964976 
1829.000000	97.962565 
1828.000000	97.961709 
1827.000000	97.962222 
1826.000000	97.963692 
1825.000000	97.965188 
1824.000000	97.965748 
1823.000000	97.965742 
1822.000000	97.966233 
1821.000000	97.967370 
1820.000000	97.968518 
1819.000000	97.969795 
1818.000000	97.971891 
1817.000000	97.973819 
1816.000000	97.973703 
1815.000000	97.971650 
1814.000000	97.969434 
1813.000000	97.967977 
1812.000000	97.966724 
1811.000000	97.965743 
1810.000000	97.965897 
1809.000000	97.966567 
1808.000000	97.966410 
1807.000000	97.965639 
1806.000000	97.965167 
1805.000000	97.964737 
1804.000000	97.963692 
1803.000000	97.962619 
1802.000000	97.962555 
1801.000000	97.963230 
1800.000000	97.963547 
1799.000000	97.963518 
1798.000000	97.963819 
1797.000000	97.964230 
1796.000000	97.964452 
1795.000000	97.965177 
1794.000000	97.967044 
1793.000000	97.969033 
1792.000000	97.969423 
1791.000000	97.968684 
1790.000000	97.968553 
1789.000000	97.969225 
1788.000000	97.969958 
1787.000000	97.970784 
1786.000000	97.972321 
1785.000000	97.974249 
1784.000000	97.975566 
1783.000000	97.976156 
1782.000000	97.976609 
1781.000000	97.977343 
1780.000000	97.978357 
1779.000000	97.979649 
1778.000000	97.981246 
1777.000000	97.982770 
1776.000000	97.983810 
1775.000000	97.984346 
1774.000000	97.984703 
1773.000000	97.985163 
1772.000000	97.985624 
1771.000000	97.986375 
1770.000000	97.988546 
1769.000000	97.992684 
1768.000000	97.997521 
1767.000000	98.000880 
1766.000000	98.002098 
1765.000000	98.002238 
1764.000000	98.002316 
1763.000000	98.002410 
1762.000000	98.002769 
1761.000000	98.004363 
1760.000000	98.007158 
1759.000000	98.010150 
1758.000000	98.012796 
1757.000000	98.015254 
1756.000000	98.017567 
1755.000000	98.019233 
1754.000000	98.020800 
1753.000000	98.024280 
1752.000000	98.030063 
1751.000000	98.034598 
1750.000000	98.034993 
1749.000000	98.032792 
1748.000000	98.030736 
1747.000000	98.029214 
1746.000000	98.027915 
1745.000000	98.028120 
1744.000000	98.030345 
1743.000000	98.032596 
1742.000000	98.033443 
1741.000000	98.033728 
1740.000000	98.034215 
1739.000000	98.034401 
1738.000000	98.033515 
1737.000000	98.031377 
1736.000000	98.029102 
1735.000000	98.028410 
1734.000000	98.028940 
1733.000000	98.029005 
1732.000000	98.027866 
1731.000000	98.026053 
1730.000000	98.025332 
1729.000000	98.026398 
1728.000000	98.027792 
1727.000000	98.027592 
1726.000000	98.025363 
1725.000000	98.022295 
1724.000000	98.019177 
1723.000000	98.016458 
1722.000000	98.014530 
1721.000000	98.012787 
1720.000000	98.010357 
1719.000000	98.007758 
1718.000000	98.006209 
1717.000000	98.003538 
1716.000000	97.997534 
1715.000000	97.991752 
1714.000000	97.989604 
1713.000000	97.989123 
1712.000000	97.987064 
1711.000000	97.983435 
1710.000000	97.980094 
1709.000000	97.976975 
1708.000000	97.972577 
1707.000000	97.967184 
1706.000000	97.962392 
1705.000000	97.957520 
1704.000000	97.951184 
1703.000000	97.944610 
1702.000000	97.940512 
1701.000000	97.938535 
1700.000000	97.934401 
1699.000000	97.927877 
1698.000000	97.922235 
1697.000000	97.917773 
1696.000000	97.913508 
1695.000000	97.909008 
1694.000000	97.903893 
1693.000000	97.897894 
1692.000000	97.891593 
1691.000000	97.886172 
1690.000000	97.881720 
1689.000000	97.877031 
1688.000000	97.871189 
1687.000000	97.864416 
1686.000000	97.857785 
1685.000000	97.850898 
1684.000000	97.842974 
1683.000000	97.836162 
1682.000000	97.830596 
1681.000000	97.824848 
1680.000000	97.820017 
1679.000000	97.815912 
1678.000000	97.810636 
1677.000000	97.804482 
1676.000000	97.800837 
1675.000000	97.799860 
1674.000000	97.796581 
1673.000000	97.788478 
1672.000000	97.777407 
1671.000000	97.766431 
1670.000000	97.756092 
1669.000000	97.747501 
1668.000000	97.744143 
1667.000000	97.744048 
1666.000000	97.741728 
1665.000000	97.734732 
1664.000000	97.724615 
1663.000000	97.715001 
1662.000000	97.706553 
1661.000000	97.698299 
1660.000000	97.692415 
1659.000000	97.689252 
1658.000000	97.683676 
1657.000000	97.671836 
1656.000000	97.656823 
1655.000000	97.644857 
1654.000000	97.636194 
1653.000000	97.628616 
1652.000000	97.624754 
1651.000000	97.620975 
1650.000000	97.612267 
1649.000000	97.603774 
1648.000000	97.599168 
1647.000000	97.596139 
1646.000000	97.593627 
1645.000000	97.591651 
1644.000000	97.588964 
1643.000000	97.586320 
1642.000000	97.584988 
1641.000000	97.584343 
1640.000000	97.583203 
1639.000000	97.580560 
1638.000000	97.576998 
1637.000000	97.575234 
1636.000000	97.577870 
1635.000000	97.582646 
1634.000000	97.584798 
1633.000000	97.584669 
1632.000000	97.586987 
1631.000000	97.594733 
1630.000000	97.604499 
1629.000000	97.610672 
1628.000000	97.613429 
1627.000000	97.616260 
1626.000000	97.619582 
1625.000000	97.624106 
1624.000000	97.634916 
1623.000000	97.654212 
1622.000000	97.673942 
1621.000000	97.686139 
1620.000000	97.692999 
1619.000000	97.701069 
1618.000000	97.713130 
1617.000000	97.727261 
1616.000000	97.742509 
1615.000000	97.755725 
1614.000000	97.762842 
1613.000000	97.768236 
1612.000000	97.780861 
1611.000000	97.801506 
1610.000000	97.819809 
1609.000000	97.829380 
1608.000000	97.836402 
1607.000000	97.846392 
1606.000000	97.855429 
1605.000000	97.861100 
1604.000000	97.868378 
1603.000000	97.879457 
1602.000000	97.889891 
1601.000000	97.897450 
1600.000000	97.905394 
1599.000000	97.914404 
1598.000000	97.920385 
1597.000000	97.922412 
1596.000000	97.925394 
1595.000000	97.932546 
1594.000000	97.940604 
1593.000000	97.946242 
1592.000000	97.951359 
1591.000000	97.958171 
1590.000000	97.964675 
1589.000000	97.969174 
1588.000000	97.974087 
1587.000000	97.981382 
1586.000000	97.988559 
1585.000000	97.993216 
1584.000000	97.997771 
1583.000000	98.004231 
1582.000000	98.009648 
1581.000000	98.012210 
1580.000000	98.014457 
1579.000000	98.017239 
1578.000000	98.017796 
1577.000000	98.016131 
1576.000000	98.018110 
1575.000000	98.024167 
1574.000000	98.026164 
1573.000000	98.021958 
1572.000000	98.017161 
1571.000000	98.016547 
1570.000000	98.019162 
1569.000000	98.023746 
1568.000000	98.031326 
1567.000000	98.038209 
1566.000000	98.039854 
1565.000000	98.037880 
1564.000000	98.036812 
1563.000000	98.036522 
1562.000000	98.034262 
1561.000000	98.033080 
1560.000000	98.041839 
1559.000000	98.050741 
1558.000000	98.045995 
1557.000000	98.035418 
1556.000000	98.028551 
1555.000000	98.027524 
1554.000000	98.028834 
1553.000000	98.028702 
1552.000000	98.027752 
1551.000000	98.027505 
1550.000000	98.028106 
1549.000000	98.027799 
1548.000000	98.025984 
1547.000000	98.023612 
1546.000000	98.020381 
1545.000000	98.014628 
1544.000000	98.007124 
1543.000000	98.001175 
1542.000000	97.998330 
1541.000000	97.993924 
1540.000000	97.986075 
1539.000000	97.981124 
1538.000000	97.977157 
1537.000000	97.967602 
1536.000000	97.953953 
1535.000000	97.942022 
1534.000000	97.934128 
1533.000000	97.928405 
1532.000000	97.923310 
1531.000000	97.919021 
1530.000000	97.914701 
1529.000000	97.907473 
1528.000000	97.896319 
1527.000000	97.884519 
1526.000000	97.874821 
1525.000000	97.865264 
1524.000000	97.853865 
1523.000000	97.842935 
1522.000000	97.834872 
1521.000000	97.827539 
1520.000000	97.817759 
1519.000000	97.805993 
1518.000000	97.794913 
1517.000000	97.786076 
1516.000000	97.778991 
1515.000000	97.772848 
1514.000000	97.767709 
1513.000000	97.763186 
1512.000000	97.756432 
1511.000000	97.745948 
1510.000000	97.734043 
1509.000000	97.723318 
1508.000000	97.713102 
1507.000000	97.703181 
1506.000000	97.696176 
1505.000000	97.689597 
1504.000000	97.680406 
1503.000000	97.669751 
1502.000000	97.659287 
1501.000000	97.649174 
1500.000000	97.638336 
1499.000000	97.627049 
1498.000000	97.618225 
1497.000000	97.613428 
1496.000000	97.610014 
1495.000000	97.605283 
1494.000000	97.599488 
1493.000000	97.593192 
1492.000000	97.585876 
1491.000000	97.576874 
1490.000000	97.566684 
1489.000000	97.555963 
1488.000000	97.544765 
1487.000000	97.534699 
1486.000000	97.526887 
1485.000000	97.519819 
1484.000000	97.512346 
1483.000000	97.504910 
1482.000000	97.498055 
1481.000000	97.490759 
1480.000000	97.481815 
1479.000000	97.472473 
1478.000000	97.464954 
1477.000000	97.458772 
1476.000000	97.451590 
1475.000000	97.443893 
1474.000000	97.437446 
1473.000000	97.431044 
1472.000000	97.422790 
1471.000000	97.414288 
1470.000000	97.407451 
1469.000000	97.400878 
1468.000000	97.392563 
1467.000000	97.383533 
1466.000000	97.376335 
1465.000000	97.370548 
1464.000000	97.363454 
1463.000000	97.353837 
1462.000000	97.342931 
1461.000000	97.331483 
1460.000000	97.319093 
1459.000000	97.305722 
1458.000000	97.293646 
1457.000000	97.285496 
1456.000000	97.278105 
1455.000000	97.266376 
1454.000000	97.251663 
1453.000000	97.238522 
1452.000000	97.228353 
1451.000000	97.219680 
1450.000000	97.213170 
1449.000000	97.210632 
1448.000000	97.209037 
1447.000000	97.203731 
1446.000000	97.194640 
1445.000000	97.185788 
1444.000000	97.179373 
1443.000000	97.173157 
1442.000000	97.165490 
1441.000000	97.157710 
1440.000000	97.149792 
1439.000000	97.139739 
1438.000000	97.130483 
1437.000000	97.128487 
1436.000000	97.132333 
1435.000000	97.133470 
1434.000000	97.129720 
1433.000000	97.124819 
1432.000000	97.120813 
1431.000000	97.115723 
1430.000000	97.109463 
1429.000000	97.105266 
1428.000000	97.102377 
1427.000000	97.097204 
1426.000000	97.089523 
1425.000000	97.084709 
1424.000000	97.084884 
1423.000000	97.083158 
1422.000000	97.075103 
1421.000000	97.065895 
1420.000000	97.060953 
1419.000000	97.056413 
1418.000000	97.048584 
1417.000000	97.039594 
1416.000000	97.029551 
1415.000000	97.016642 
1414.000000	97.001086 
1413.000000	96.986429 
1412.000000	96.975837 
1411.000000	96.968515 
1410.000000	96.963718 
1409.000000	96.962501 
1408.000000	96.964644 
1407.000000	96.969446 
1406.000000	96.978344 
1405.000000	96.995311 
1404.000000	97.020587 
1403.000000	97.047373 
1402.000000	97.070594 
1401.000000	97.092000 
1400.000000	97.114156 
1399.000000	97.132728 
1398.000000	97.139266 
1397.000000	97.129746 
1396.000000	97.108799 
1395.000000	97.090791 
1394.000000	97.093416 
1393.000000	97.123516 
1392.000000	97.170662 
1391.000000	97.217200 
1390.000000	97.251946 
1389.000000	97.273570 
1388.000000	97.285616 
1387.000000	97.291673 
1386.000000	97.295064 
1385.000000	97.299664 
1384.000000	97.307987 
1383.000000	97.319238 
1382.000000	97.331428 
1381.000000	97.344365 
1380.000000	97.359614 
1379.000000	97.377602 
1378.000000	97.396628 
1377.000000	97.415507 
1376.000000	97.435137 
1375.000000	97.456370 
1374.000000	97.478368 
1373.000000	97.500102 
1372.000000	97.521209 
1371.000000	97.541325 
1370.000000	97.559976 
1369.000000	97.578405 
1368.000000	97.598506 
1367.000000	97.619152 
1366.000000	97.637199 
1365.000000	97.651562 
1364.000000	97.664443 
1363.000000	97.678902 
1362.000000	97.695957 
1361.000000	97.714333 
1360.000000	97.732411 
1359.000000	97.749290 
1358.000000	97.764700 
1357.000000	97.779234 
1356.000000	97.793651 
1355.000000	97.807392 
1354.000000	97.819680 
1353.000000	97.831291 
1352.000000	97.843874 
1351.000000	97.857846 
1350.000000	97.870847 
1349.000000	97.881141 
1348.000000	97.888879 
1347.000000	97.894286 
1346.000000	97.898389 
1345.000000	97.904050 
1344.000000	97.913310 
1343.000000	97.923904 
1342.000000	97.931334 
1341.000000	97.934363 
1340.000000	97.935987 
1339.000000	97.938759 
1338.000000	97.942562 
1337.000000	97.947348 
1336.000000	97.953955 
1335.000000	97.961982 
1334.000000	97.970023 
1333.000000	97.977789 
1332.000000	97.985338 
1331.000000	97.990536 
1330.000000	97.990813 
1329.000000	97.987795 
1328.000000	97.986497 
1327.000000	97.989111 
1326.000000	97.992945 
1325.000000	97.995888 
1324.000000	97.998938 
1323.000000	98.002404 
1322.000000	98.004371 
1321.000000	98.003991 
1320.000000	98.003145 
1319.000000	98.003861 
1318.000000	98.006551 
1317.000000	98.011018 
1316.000000	98.016796 
1315.000000	98.022305 
1314.000000	98.026079 
1313.000000	98.028864 
1312.000000	98.032312 
1311.000000	98.035924 
1310.000000	98.037845 
1309.000000	98.038181 
1308.000000	98.038838 
1307.000000	98.040335 
1306.000000	98.041138 
1305.000000	98.040951 
1304.000000	98.041209 
1303.000000	98.041990 
1302.000000	98.041613 
1301.000000	98.039669 
1300.000000	98.037849 
1299.000000	98.037247 
1298.000000	98.037334 
1297.000000	98.037958 
1296.000000	98.040009 
1295.000000	98.043171 
1294.000000	98.045353 
1293.000000	98.045366 
1292.000000	98.044222 
1291.000000	98.043139 
1290.000000	98.041881 
1289.000000	98.039985 
1288.000000	98.038161 
1287.000000	98.037321 
1286.000000	98.037157 
1285.000000	98.036705 
1284.000000	98.035779 
1283.000000	98.035357 
1282.000000	98.036494 
1281.000000	98.038983 
1280.000000	98.041413 
1279.000000	98.042446 
1278.000000	98.042152 
1277.000000	98.041787 
1276.000000	98.042030 
1275.000000	98.042102 
1274.000000	98.041238 
1273.000000	98.040296 
1272.000000	98.040808 
1271.000000	98.042732 
1270.000000	98.044100 
1269.000000	98.042905 
1268.000000	98.038780 
1267.000000	98.033169 
1266.000000	98.028440 
1265.000000	98.026052 
1264.000000	98.025023 
1263.000000	98.023100 
1262.000000	98.019768 
1261.000000	98.016918 
1260.000000	98.015900 
1259.000000	98.015217 
1258.000000	98.012664 
1257.000000	98.008558 
1256.000000	98.005122 
1255.000000	98.003382 
1254.000000	98.002034 
1253.000000	97.999150 
1252.000000	97.994341 
1251.000000	97.989762 
1250.000000	97.989436 
1249.000000	97.996520 
1248.000000	98.010230 
1247.000000	98.025809 
1246.000000	98.037711 
1245.000000	98.041873 
1244.000000	98.036274 
1243.000000	98.023462 
1242.000000	98.013030 
1241.000000	98.016210 
1240.000000	98.034288 
1239.000000	98.055212 
1238.000000	98.065147 
1237.000000	98.061310 
1236.000000	98.050681 
1235.000000	98.039303 
1234.000000	98.027525 
1233.000000	98.014599 
1232.000000	98.002736 
1231.000000	97.995217 
1230.000000	97.993191 
1229.000000	97.994938 
1228.000000	97.996524 
1227.000000	97.993580 
1226.000000	97.984775 
1225.000000	97.973401 
1224.000000	97.963619 
1223.000000	97.955618 
1222.000000	97.946426 
1221.000000	97.934461 
1220.000000	97.920460 
1219.000000	97.904384 
1218.000000	97.884555 
1217.000000	97.860188 
1216.000000	97.832234 
1215.000000	97.801374 
1214.000000	97.767340 
1213.000000	97.730498 
1212.000000	97.691892 
1211.000000	97.651310 
1210.000000	97.607144 
1209.000000	97.558630 
1208.000000	97.506793 
1207.000000	97.453040 
1206.000000	97.398266 
1205.000000	97.343045 
1204.000000	97.286797 
1203.000000	97.226871 
1202.000000	97.160701 
1201.000000	97.089286 
1200.000000	97.016679 
1199.000000	96.945687 
1198.000000	96.876131 
1197.000000	96.807554 
1196.000000	96.740548 
1195.000000	96.674088 
1194.000000	96.604413 
1193.000000	96.528899 
1192.000000	96.449261 
1191.000000	96.368820 
1190.000000	96.288271 
1189.000000	96.206366 
1188.000000	96.122948 
1187.000000	96.038215 
1186.000000	95.950238 
1185.000000	95.856721 
1184.000000	95.759166 
1183.000000	95.662143 
1182.000000	95.567930 
1181.000000	95.474496 
1180.000000	95.379329 
1179.000000	95.282404 
1178.000000	95.184323 
1177.000000	95.083905 
1176.000000	94.979036 
1175.000000	94.868456 
1174.000000	94.751886 
1173.000000	94.629875 
1172.000000	94.504255 
1171.000000	94.377520 
1170.000000	94.251358 
1169.000000	94.126920 
1168.000000	94.006699 
1167.000000	93.895247 
1166.000000	93.798774 
1165.000000	93.725441 
1164.000000	93.684270 
1163.000000	93.680221 
1162.000000	93.709664 
1161.000000	93.761787 
1160.000000	93.822692 
1159.000000	93.876344 
1158.000000	93.905809 
1157.000000	93.899406 
1156.000000	93.856006 
1155.000000	93.782770 
1154.000000	93.689170 
1153.000000	93.584386 
1152.000000	93.476733 
1151.000000	93.370547 
1150.000000	93.264279 
1149.000000	93.155537 
1148.000000	93.046966 
1147.000000	92.943284 
1146.000000	92.843998 
1145.000000	92.743913 
1144.000000	92.640053 
1143.000000	92.533221 
1142.000000	92.423694 
1141.000000	92.310818 
1140.000000	92.196657 
1139.000000	92.084698 
1138.000000	91.974472 
1137.000000	91.862013 
1136.000000	91.745679 
1135.000000	91.627254 
1134.000000	91.508063 
1133.000000	91.388679 
1132.000000	91.271212 
1131.000000	91.156239 
1130.000000	91.038668 
1129.000000	90.913030 
1128.000000	90.781951 
1127.000000	90.652785 
1126.000000	90.526801 
1125.000000	90.399116 
1124.000000	90.268601 
1123.000000	90.139151 
1122.000000	90.010770 
1121.000000	89.878497 
1120.000000	89.742065 
1119.000000	89.608042 
1118.000000	89.480064 
1117.000000	89.355102 
1116.000000	89.231602 
1115.000000	89.113070 
1114.000000	89.000812 
1113.000000	88.890820 
1112.000000	88.780453 
1111.000000	88.670905 
1110.000000	88.561961 
1109.000000	88.451847 
1108.000000	88.342138 
1107.000000	88.235244 
1106.000000	88.127245 
1105.000000	88.012279 
1104.000000	87.893868 
1103.000000	87.781868 
1102.000000	87.677625 
1101.000000	87.573330 
1100.000000	87.465619 
1099.000000	87.359989 
1098.000000	87.258306 
1097.000000	87.153987 
1096.000000	87.043005 
1095.000000	86.928535 
1094.000000	86.811728 
1093.000000	86.687837 
1092.000000	86.555229 
1091.000000	86.419137 
1090.000000	86.283564 
1089.000000	86.148075 
1088.000000	86.014563 
1087.000000	85.887555 
1086.000000	85.765630 
1085.000000	85.641898 
1084.000000	85.514354 
1083.000000	85.386428 
1082.000000	85.257328 
1081.000000	85.122900 
1080.000000	84.986119 
1079.000000	84.854560 
1078.000000	84.726943 
1077.000000	84.594968 
1076.000000	84.458662 
1075.000000	84.325634 
1074.000000	84.194281 
1073.000000	84.052349 
1072.000000	83.892144 
1071.000000	83.710424 
1070.000000	83.493332 
1069.000000	83.223336 
1068.000000	82.909053 
1067.000000	82.591777 
1066.000000	82.310157 
1065.000000	82.067608 
1064.000000	81.841687 
1063.000000	81.609534 
1062.000000	81.354936 
1061.000000	81.068022 
1060.000000	80.753678 
1059.000000	80.432998 
1058.000000	80.125722 
1057.000000	79.835241 
1056.000000	79.554034 
1055.000000	79.273545 
1054.000000	78.984781 
1053.000000	78.681716 
1052.000000	78.370496 
1051.000000	78.063892 
1050.000000	77.761560 
1049.000000	77.449293 
1048.000000	77.121705 
1047.000000	76.789816 
1046.000000	76.463273 
1045.000000	76.141546 
1044.000000	75.824837 
1043.000000	75.516838 
1042.000000	75.213303 
1041.000000	74.903600 
1040.000000	74.588134 
1039.000000	74.280692 
1038.000000	73.990919 
1037.000000	73.718254 
1036.000000	73.463723 
1035.000000	73.231320 
1034.000000	73.015993 
1033.000000	72.805728 
1032.000000	72.596022 
1031.000000	72.388082 
1030.000000	72.177528 
1029.000000	71.965024 
1028.000000	71.773941 
1027.000000	71.631900 
1026.000000	71.533176 
1025.000000	71.442504 
1024.000000	71.338023 
1023.000000	71.226960 
1022.000000	71.118281 
1021.000000	71.007249 
1020.000000	70.891979 
1019.000000	70.780329 
1018.000000	70.672979 
1017.000000	70.560899 
1016.000000	70.445178 
1015.000000	70.338556 
1014.000000	70.242704 
1013.000000	70.145193 
1012.000000	70.043445 
1011.000000	69.950418 
1010.000000	69.871927 
1009.000000	69.799488 
1008.000000	69.730276 
1007.000000	69.673267 
1006.000000	69.630902 
1005.000000	69.595091 
1004.000000	69.565870 
1003.000000	69.553990 
1002.000000	69.560763 
1001.000000	69.574794 
1000.000000	69.591983 
999.000000	 69.619412 
998.000000	 69.657085 
997.000000	 69.695927 
996.000000	 69.736125 
995.000000	 69.787022 
994.000000	 69.846651 
993.000000	 69.902154 
992.000000	 69.952997 
991.000000	 70.013224 
990.000000	 70.088334 
989.000000	 70.170112 
988.000000	 70.255997 
987.000000	 70.352699 
986.000000	 70.458813 
985.000000	 70.565267 
984.000000	 70.675304 
983.000000	 70.803171 
982.000000	 70.951321 
981.000000	 71.109382 
980.000000	 71.276740 
979.000000	 71.464610 
978.000000	 71.673651 
977.000000	 71.891147 
976.000000	 72.112863 
975.000000	 72.346945 
974.000000	 72.594152 
973.000000	 72.845327 
972.000000	 73.100656 
971.000000	 73.370553 
970.000000	 73.654847 
969.000000	 73.941114 
968.000000	 74.225674 
967.000000	 74.516266 
966.000000	 74.812134 
965.000000	 75.101975 
964.000000	 75.384228 
963.000000	 75.669520 
962.000000	 75.959924 
961.000000	 76.244694 
960.000000	 76.519491 
959.000000	 76.791473 
958.000000	 77.062542 
957.000000	 77.325417 
956.000000	 77.579237 
955.000000	 77.831673 
954.000000	 78.082430 
953.000000	 78.321014 
952.000000	 78.543490 
951.000000	 78.755933 
950.000000	 78.959938 
949.000000	 79.150518 
948.000000	 79.329564 
947.000000	 79.505182 
946.000000	 79.675734 
945.000000	 79.829800 
944.000000	 79.963624 
943.000000	 80.084300 
942.000000	 80.195615 
941.000000	 80.295680 
940.000000	 80.388528 
939.000000	 80.482244 
938.000000	 80.575001 
937.000000	 80.658672 
936.000000	 80.736467 
935.000000	 80.820921 
934.000000	 80.914298 
933.000000	 81.007535 
932.000000	 81.098413 
931.000000	 81.193294 
930.000000	 81.290484 
929.000000	 81.379773 
928.000000	 81.459823 
927.000000	 81.538867 
926.000000	 81.617234 
925.000000	 81.686676 
924.000000	 81.747975 
923.000000	 81.810942 
922.000000	 81.874926 
921.000000	 81.927333 
920.000000	 81.964252 
919.000000	 81.995468 
918.000000	 82.026746 
917.000000	 82.054707 
916.000000	 82.081901 
915.000000	 82.119175 
914.000000	 82.169704 
913.000000	 82.228215 
912.000000	 82.299666 
911.000000	 82.400795 
910.000000	 82.538511 
909.000000	 82.703273 
908.000000	 82.887697 
907.000000	 83.095456 
906.000000	 83.327940 
905.000000	 83.578129 
904.000000	 83.841566 
903.000000	 84.119345 
902.000000	 84.408245 
901.000000	 84.701459 
900.000000	 84.999140 
899.000000	 85.304544 
898.000000	 85.610868 
897.000000	 85.906941 
896.000000	 86.193664 
895.000000	 86.479388 
894.000000	 86.761977 
893.000000	 87.032155 
892.000000	 87.291998 
891.000000	 87.551850 
890.000000	 87.809507 
889.000000	 88.050273 
888.000000	 88.268179 
887.000000	 88.470647 
886.000000	 88.662118 
885.000000	 88.839676 
884.000000	 89.005432 
883.000000	 89.165977 
882.000000	 89.318077 
881.000000	 89.452433 
880.000000	 89.574231 
879.000000	 89.702525 
878.000000	 89.845212 
877.000000	 89.991371 
876.000000	 90.132787 
875.000000	 90.277232 
874.000000	 90.437373 
873.000000	 90.622031 
872.000000	 90.839987 
871.000000	 91.095017 
870.000000	 91.373676 
869.000000	 91.653405 
868.000000	 91.925436 
867.000000	 92.196331 
866.000000	 92.467397 
865.000000	 92.728376 
864.000000	 92.973226 
863.000000	 93.207261 
862.000000	 93.435254 
861.000000	 93.655000 
860.000000	 93.865853 
859.000000	 94.071818 
858.000000	 94.272550 
857.000000	 94.461461 
856.000000	 94.635679 
855.000000	 94.798900 
854.000000	 94.952674 
853.000000	 95.093648 
852.000000	 95.220807 
851.000000	 95.337145 
850.000000	 95.443887 
849.000000	 95.541445 
848.000000	 95.635092 
847.000000	 95.729503 
846.000000	 95.817780 
845.000000	 95.886487 
844.000000	 95.932072 
843.000000	 95.962417 
842.000000	 95.982353 
841.000000	 95.988547 
840.000000	 95.979588 
839.000000	 95.959844 
838.000000	 95.930821 
837.000000	 95.888558 
836.000000	 95.832690 
835.000000	 95.770147 
834.000000	 95.708210 
833.000000	 95.651953 
832.000000	 95.609070 
831.000000	 95.587107 
830.000000	 95.583664 
829.000000	 95.588761 
828.000000	 95.599070 
827.000000	 95.620937 
826.000000	 95.659446 
825.000000	 95.715569 
824.000000	 95.792428 
823.000000	 95.888734 
822.000000	 95.986264 
821.000000	 96.060895 
820.000000	 96.107073 
819.000000	 96.138328 
818.000000	 96.165584 
817.000000	 96.187470 
816.000000	 96.199359 
815.000000	 96.196616 
814.000000	 96.166669 
813.000000	 96.090821 
812.000000	 95.958243 
811.000000	 95.769330 
810.000000	 95.523801 
809.000000	 95.216050 
808.000000	 94.844565 
807.000000	 94.414825 
806.000000	 93.930100 
805.000000	 93.392820 
804.000000	 92.821793 
803.000000	 92.256112 
802.000000	 91.733753 
801.000000	 91.275944 
800.000000	 90.896490 
799.000000	 90.610103 
798.000000	 90.422367 
797.000000	 90.324724 
796.000000	 90.306572 
795.000000	 90.359638 
794.000000	 90.466139 
793.000000	 90.597980 
792.000000	 90.734007 
791.000000	 90.865941 
790.000000	 90.984499 
789.000000	 91.073799 
788.000000	 91.123501 
787.000000	 91.133461 
786.000000	 91.102288 
785.000000	 91.023723 
784.000000	 90.898976 
783.000000	 90.741623 
782.000000	 90.566700 
781.000000	 90.386205 
780.000000	 90.218469 
779.000000	 90.088789 
778.000000	 90.015132 
777.000000	 90.003188 
776.000000	 90.056369 
775.000000	 90.175654 
774.000000	 90.346104 
773.000000	 90.538552 
772.000000	 90.730211 
771.000000	 90.913319 
770.000000	 91.083191 
769.000000	 91.231723 
768.000000	 91.355536 
767.000000	 91.458646 
766.000000	 91.544496 
765.000000	 91.615419 
764.000000	 91.679847 
763.000000	 91.747898 
762.000000	 91.818923 
761.000000	 91.885074 
760.000000	 91.947042 
759.000000	 92.013627 
758.000000	 92.086374 
757.000000	 92.158985 
756.000000	 92.232242 
755.000000	 92.314802 
754.000000	 92.408090 
753.000000	 92.504620 
752.000000	 92.602061 
751.000000	 92.704721 
750.000000	 92.810392 
749.000000	 92.910828 
748.000000	 93.007506 
747.000000	 93.112557 
746.000000	 93.231166 
745.000000	 93.356261 
744.000000	 93.483508 
743.000000	 93.619036 
742.000000	 93.769737 
741.000000	 93.937103 
740.000000	 94.120884 
739.000000	 94.316680 
738.000000	 94.510394 
737.000000	 94.687870 
736.000000	 94.849538 
735.000000	 95.003157 
734.000000	 95.144773 
733.000000	 95.261940 
732.000000	 95.354293 
731.000000	 95.435354 
730.000000	 95.513282 
729.000000	 95.584429 
728.000000	 95.646898 
727.000000	 95.705760 
726.000000	 95.762878 
725.000000	 95.815178 
724.000000	 95.865563 
723.000000	 95.923566 
722.000000	 95.993942 
721.000000	 96.075564 
720.000000	 96.170000 
719.000000	 96.276936 
718.000000	 96.381977 
717.000000	 96.464937 
716.000000	 96.521315 
715.000000	 96.563426 
714.000000	 96.601850 
713.000000	 96.639636 
712.000000	 96.683563 
711.000000	 96.743533 
710.000000	 96.817014 
709.000000	 96.888129 
708.000000	 96.944910 
707.000000	 96.983209 
706.000000	 96.995412 
705.000000	 96.973154 
704.000000	 96.921777 
703.000000	 96.853267 
702.000000	 96.760604 
701.000000	 96.616492 
700.000000	 96.403042 
699.000000	 96.128429 
698.000000	 95.814581 
697.000000	 95.489989 
696.000000	 95.199679 
695.000000	 94.997228 
694.000000	 94.910716 
693.000000	 94.927923 
692.000000	 95.019753 
691.000000	 95.163283 
690.000000	 95.337763 
689.000000	 95.517611 
688.000000	 95.683565 
687.000000	 95.831185 
686.000000	 95.959751 
685.000000	 96.065337 
684.000000	 96.152074 
683.000000	 96.235098 
682.000000	 96.323858 
681.000000	 96.413563 
680.000000	 96.498783 
679.000000	 96.583046 
678.000000	 96.668036 
677.000000	 96.744911 
676.000000	 96.807062 
675.000000	 96.860640 
674.000000	 96.914484 
673.000000	 96.968651 
672.000000	 97.021673 
671.000000	 97.084016 
670.000000	 97.177361 
669.000000	 97.327551 
668.000000	 97.533606 
667.000000	 97.703738 
666.000000	 97.752866 
665.000000	 97.728755 
664.000000	 97.716435 
663.000000	 97.756356 
662.000000	 97.835877 
661.000000	 97.917388 
660.000000	 97.983999 
659.000000	 98.041767 
658.000000	 98.090528 
657.000000	 98.120049 
656.000000	 98.131116 
655.000000	 98.132201 
654.000000	 98.116943 
653.000000	 98.071599 
652.000000	 98.007552 
651.000000	 97.962484 
650.000000	 97.961161 

