4000.000000	99.936817 
3999.000000	99.936092 
3998.000000	99.935707 
3997.000000	99.935473 
3996.000000	99.935052 
3995.000000	99.934270 
3994.000000	99.933281 
3993.000000	99.932467 
3992.000000	99.932096 
3991.000000	99.932134 
3990.000000	99.932365 
3989.000000	99.932573 
3988.000000	99.932595 
3987.000000	99.932337 
3986.000000	99.931772 
3985.000000	99.930985 
3984.000000	99.930197 
3983.000000	99.929612 
3982.000000	99.929282 
3981.000000	99.929104 
3980.000000	99.928917 
3979.000000	99.928650 
3978.000000	99.928338 
3977.000000	99.928053 
3976.000000	99.927808 
3975.000000	99.927531 
3974.000000	99.927152 
3973.000000	99.926683 
3972.000000	99.926215 
3971.000000	99.925829 
3970.000000	99.925527 
3969.000000	99.925263 
3968.000000	99.924995 
3967.000000	99.924732 
3966.000000	99.924517 
3965.000000	99.924378 
3964.000000	99.924296 
3963.000000	99.924205 
3962.000000	99.924028 
3961.000000	99.923734 
3960.000000	99.923346 
3959.000000	99.922924 
3958.000000	99.922529 
3957.000000	99.922183 
3956.000000	99.921866 
3955.000000	99.921529 
3954.000000	99.921147 
3953.000000	99.920733 
3952.000000	99.920319 
3951.000000	99.919936 
3950.000000	99.919598 
3949.000000	99.919305 
3948.000000	99.919038 
3947.000000	99.918760 
3946.000000	99.918433 
3945.000000	99.918044 
3944.000000	99.917615 
3943.000000	99.917200 
3942.000000	99.916843 
3941.000000	99.916533 
3940.000000	99.916203 
3939.000000	99.915788 
3938.000000	99.915281 
3937.000000	99.914725 
3936.000000	99.914172 
3935.000000	99.913656 
3934.000000	99.913224 
3933.000000	99.912944 
3932.000000	99.912842 
3931.000000	99.912830 
3930.000000	99.912730 
3929.000000	99.912413 
3928.000000	99.911861 
3927.000000	99.911131 
3926.000000	99.910318 
3925.000000	99.909554 
3924.000000	99.908986 
3923.000000	99.908656 
3922.000000	99.908421 
3921.000000	99.908066 
3920.000000	99.907535 
3919.000000	99.906954 
3918.000000	99.906463 
3917.000000	99.906088 
3916.000000	99.905764 
3915.000000	99.905428 
3914.000000	99.905058 
3913.000000	99.904741 
3912.000000	99.904653 
3911.000000	99.904836 
3910.000000	99.905048 
3909.000000	99.904865 
3908.000000	99.904057 
3907.000000	99.902714 
3906.000000	99.901120 
3905.000000	99.899556 
3904.000000	99.898244 
3903.000000	99.897420 
3902.000000	99.897207 
3901.000000	99.897395 
3900.000000	99.897582 
3899.000000	99.897534 
3898.000000	99.897262 
3897.000000	99.896857 
3896.000000	99.896361 
3895.000000	99.895864 
3894.000000	99.895494 
3893.000000	99.895166 
3892.000000	99.894599 
3891.000000	99.893664 
3890.000000	99.892614 
3889.000000	99.891676 
3888.000000	99.890825 
3887.000000	99.890053 
3886.000000	99.889431 
3885.000000	99.888969 
3884.000000	99.888592 
3883.000000	99.888168 
3882.000000	99.887644 
3881.000000	99.887085 
3880.000000	99.886538 
3879.000000	99.885992 
3878.000000	99.885430 
3877.000000	99.884851 
3876.000000	99.884267 
3875.000000	99.883685 
3874.000000	99.883101 
3873.000000	99.882516 
3872.000000	99.881940 
3871.000000	99.881379 
3870.000000	99.880839 
3869.000000	99.880329 
3868.000000	99.879849 
3867.000000	99.879396 
3866.000000	99.878968 
3865.000000	99.878565 
3864.000000	99.878186 
3863.000000	99.877821 
3862.000000	99.877455 
3861.000000	99.877082 
3860.000000	99.876704 
3859.000000	99.876327 
3858.000000	99.875957 
3857.000000	99.875600 
3856.000000	99.875264 
3855.000000	99.874949 
3854.000000	99.874646 
3853.000000	99.874344 
3852.000000	99.874053 
3851.000000	99.873785 
3850.000000	99.873549 
3849.000000	99.873347 
3848.000000	99.873177 
3847.000000	99.873030 
3846.000000	99.872892 
3845.000000	99.872743 
3844.000000	99.872571 
3843.000000	99.872373 
3842.000000	99.872152 
3841.000000	99.871900 
3840.000000	99.871611 
3839.000000	99.871296 
3838.000000	99.870985 
3837.000000	99.870716 
3836.000000	99.870526 
3835.000000	99.870413 
3834.000000	99.870312 
3833.000000	99.870157 
3832.000000	99.869965 
3831.000000	99.869834 
3830.000000	99.869835 
3829.000000	99.869893 
3828.000000	99.869823 
3827.000000	99.869541 
3826.000000	99.869234 
3825.000000	99.869163 
3824.000000	99.869294 
3823.000000	99.869253 
3822.000000	99.868652 
3821.000000	99.867413 
3820.000000	99.866270 
3819.000000	99.865847 
3818.000000	99.865673 
3817.000000	99.865207 
3816.000000	99.864584 
3815.000000	99.864249 
3814.000000	99.864304 
3813.000000	99.864240 
3812.000000	99.863752 
3811.000000	99.863321 
3810.000000	99.863413 
3809.000000	99.863712 
3808.000000	99.863461 
3807.000000	99.862428 
3806.000000	99.861335 
3805.000000	99.860848 
3804.000000	99.860530 
3803.000000	99.859719 
3802.000000	99.858512 
3801.000000	99.857465 
3800.000000	99.857282 
3799.000000	99.857766 
3798.000000	99.857897 
3797.000000	99.857534 
3796.000000	99.857296 
3795.000000	99.857497 
3794.000000	99.857853 
3793.000000	99.858032 
3792.000000	99.858131 
3791.000000	99.858438 
3790.000000	99.858939 
3789.000000	99.859362 
3788.000000	99.859470 
3787.000000	99.859152 
3786.000000	99.858341 
3785.000000	99.857278 
3784.000000	99.856631 
3783.000000	99.856871 
3782.000000	99.857570 
3781.000000	99.857712 
3780.000000	99.856746 
3779.000000	99.855141 
3778.000000	99.853998 
3777.000000	99.853786 
3776.000000	99.854117 
3775.000000	99.854626 
3774.000000	99.855386 
3773.000000	99.856191 
3772.000000	99.856176 
3771.000000	99.854634 
3770.000000	99.852078 
3769.000000	99.850072 
3768.000000	99.849610 
3767.000000	99.850068 
3766.000000	99.850554 
3765.000000	99.851307 
3764.000000	99.852926 
3763.000000	99.854761 
3762.000000	99.855103 
3761.000000	99.853404 
3760.000000	99.851073 
3759.000000	99.849295 
3758.000000	99.847678 
3757.000000	99.845312 
3756.000000	99.842230 
3755.000000	99.839119 
3754.000000	99.836535 
3753.000000	99.834919 
3752.000000	99.834182 
3751.000000	99.832676 
3750.000000	99.829581 
3749.000000	99.827749 
3748.000000	99.829159 
3747.000000	99.831061 
3746.000000	99.830620 
3745.000000	99.828424 
3744.000000	99.827077 
3743.000000	99.830821 
3742.000000	99.838735 
3741.000000	99.843801 
3740.000000	99.844230 
3739.000000	99.843251 
3738.000000	99.842696 
3737.000000	99.842370 
3736.000000	99.843694 
3735.000000	99.848713 
3734.000000	99.854408 
3733.000000	99.854493 
3732.000000	99.848038 
3731.000000	99.840599 
3730.000000	99.836124 
3729.000000	99.832857 
3728.000000	99.828836 
3727.000000	99.826356 
3726.000000	99.828180 
3725.000000	99.832391 
3724.000000	99.833790 
3723.000000	99.830327 
3722.000000	99.824834 
3721.000000	99.820814 
3720.000000	99.818780 
3719.000000	99.816697 
3718.000000	99.813420 
3717.000000	99.809708 
3716.000000	99.806631 
3715.000000	99.803750 
3714.000000	99.799451 
3713.000000	99.792241 
3712.000000	99.781108 
3711.000000	99.766785 
3710.000000	99.753208 
3709.000000	99.744515 
3708.000000	99.741685 
3707.000000	99.742412 
3706.000000	99.742638 
3705.000000	99.738725 
3704.000000	99.729268 
3703.000000	99.715640 
3702.000000	99.700428 
3701.000000	99.685861 
3700.000000	99.673150 
3699.000000	99.661666 
3698.000000	99.649748 
3697.000000	99.637009 
3696.000000	99.624456 
3695.000000	99.612702 
3694.000000	99.601355 
3693.000000	99.590372 
3692.000000	99.580775 
3691.000000	99.572873 
3690.000000	99.564521 
3689.000000	99.553054 
3688.000000	99.540274 
3687.000000	99.530978 
3686.000000	99.526514 
3685.000000	99.525339 
3684.000000	99.527639 
3683.000000	99.534182 
3682.000000	99.542031 
3681.000000	99.544412 
3680.000000	99.535998 
3679.000000	99.517905 
3678.000000	99.495880 
3677.000000	99.476568 
3676.000000	99.463778 
3675.000000	99.458614 
3674.000000	99.462650 
3673.000000	99.472307 
3672.000000	99.479953 
3671.000000	99.484442 
3670.000000	99.488027 
3669.000000	99.490896 
3668.000000	99.493237 
3667.000000	99.494374 
3666.000000	99.493500 
3665.000000	99.491608 
3664.000000	99.490413 
3663.000000	99.491078 
3662.000000	99.494081 
3661.000000	99.499197 
3660.000000	99.505870 
3659.000000	99.513845 
3658.000000	99.522822 
3657.000000	99.531965 
3656.000000	99.540060 
3655.000000	99.547380 
3654.000000	99.553752 
3653.000000	99.557586 
3652.000000	99.559948 
3651.000000	99.564963 
3650.000000	99.573681 
3649.000000	99.582131 
3648.000000	99.588392 
3647.000000	99.595218 
3646.000000	99.604851 
3645.000000	99.616284 
3644.000000	99.627508 
3643.000000	99.637893 
3642.000000	99.648302 
3641.000000	99.659102 
3640.000000	99.669274 
3639.000000	99.677622 
3638.000000	99.684373 
3637.000000	99.690976 
3636.000000	99.697948 
3635.000000	99.704218 
3634.000000	99.708497 
3633.000000	99.710445 
3632.000000	99.710085 
3631.000000	99.708180 
3630.000000	99.707370 
3629.000000	99.709628 
3628.000000	99.715184 
3627.000000	99.723710 
3626.000000	99.731828 
3625.000000	99.736889 
3624.000000	99.740744 
3623.000000	99.745911 
3622.000000	99.752153 
3621.000000	99.757150 
3620.000000	99.758674 
3619.000000	99.756072 
3618.000000	99.751301 
3617.000000	99.747600 
3616.000000	99.746734 
3615.000000	99.748673 
3614.000000	99.752370 
3613.000000	99.756199 
3612.000000	99.758920 
3611.000000	99.760436 
3610.000000	99.761758 
3609.000000	99.764439 
3608.000000	99.769099 
3607.000000	99.774672 
3606.000000	99.779382 
3605.000000	99.782154 
3604.000000	99.783226 
3603.000000	99.783626 
3602.000000	99.784237 
3601.000000	99.785420 
3600.000000	99.786977 
3599.000000	99.788298 
3598.000000	99.788876 
3597.000000	99.788998 
3596.000000	99.789475 
3595.000000	99.790794 
3594.000000	99.792603 
3593.000000	99.794128 
3592.000000	99.794939 
3591.000000	99.795252 
3590.000000	99.795701 
3589.000000	99.796835 
3588.000000	99.798614 
3587.000000	99.800475 
3586.000000	99.801858 
3585.000000	99.802704 
3584.000000	99.803295 
3583.000000	99.803947 
3582.000000	99.804795 
3581.000000	99.805788 
3580.000000	99.806815 
3579.000000	99.807788 
3578.000000	99.808676 
3577.000000	99.809486 
3576.000000	99.810251 
3575.000000	99.811022 
3574.000000	99.811841 
3573.000000	99.812696 
3572.000000	99.813512 
3571.000000	99.814192 
3570.000000	99.814705 
3569.000000	99.815170 
3568.000000	99.815809 
3567.000000	99.816714 
3566.000000	99.817734 
3565.000000	99.818675 
3564.000000	99.819528 
3563.000000	99.820468 
3562.000000	99.821662 
3561.000000	99.823045 
3560.000000	99.824309 
3559.000000	99.825176 
3558.000000	99.825657 
3557.000000	99.826007 
3556.000000	99.826383 
3555.000000	99.826611 
3554.000000	99.826387 
3553.000000	99.825692 
3552.000000	99.824894 
3551.000000	99.824361 
3550.000000	99.824137 
3549.000000	99.824197 
3548.000000	99.824850 
3547.000000	99.826490 
3546.000000	99.828870 
3545.000000	99.830931 
3544.000000	99.831796 
3543.000000	99.831529 
3542.000000	99.830918 
3541.000000	99.830701 
3540.000000	99.831041 
3539.000000	99.831736 
3538.000000	99.832663 
3537.000000	99.833850 
3536.000000	99.835143 
3535.000000	99.836030 
3534.000000	99.835996 
3533.000000	99.835013 
3532.000000	99.833586 
3531.000000	99.832421 
3530.000000	99.831962 
3529.000000	99.832269 
3528.000000	99.833162 
3527.000000	99.834380 
3526.000000	99.835702 
3525.000000	99.837006 
3524.000000	99.838218 
3523.000000	99.839169 
3522.000000	99.839633 
3521.000000	99.839553 
3520.000000	99.839189 
3519.000000	99.838972 
3518.000000	99.839206 
3517.000000	99.839925 
3516.000000	99.840947 
3515.000000	99.841998 
3514.000000	99.842805 
3513.000000	99.843197 
3512.000000	99.843192 
3511.000000	99.843051 
3510.000000	99.843120 
3509.000000	99.843560 
3508.000000	99.844213 
3507.000000	99.844783 
3506.000000	99.845181 
3505.000000	99.845654 
3504.000000	99.846503 
3503.000000	99.847693 
3502.000000	99.848840 
3501.000000	99.849571 
3500.000000	99.849756 
3499.000000	99.849379 
3498.000000	99.848457 
3497.000000	99.847231 
3496.000000	99.846214 
3495.000000	99.845863 
3494.000000	99.846294 
3493.000000	99.847443 
3492.000000	99.849308 
3491.000000	99.851767 
3490.000000	99.854176 
3489.000000	99.855621 
3488.000000	99.855701 
3487.000000	99.854899 
3486.000000	99.854024 
3485.000000	99.853273 
3484.000000	99.852225 
3483.000000	99.850716 
3482.000000	99.849349 
3481.000000	99.848962 
3480.000000	99.849671 
3479.000000	99.850650 
3478.000000	99.850925 
3477.000000	99.850284 
3476.000000	99.849292 
3475.000000	99.848606 
3474.000000	99.848439 
3473.000000	99.848696 
3472.000000	99.849320 
3471.000000	99.850311 
3470.000000	99.851490 
3469.000000	99.852459 
3468.000000	99.852839 
3467.000000	99.852496 
3466.000000	99.851557 
3465.000000	99.850300 
3464.000000	99.849081 
3463.000000	99.848282 
3462.000000	99.848101 
3461.000000	99.848329 
3460.000000	99.848458 
3459.000000	99.848220 
3458.000000	99.847923 
3457.000000	99.848048 
3456.000000	99.848563 
3455.000000	99.848902 
3454.000000	99.848652 
3453.000000	99.847983 
3452.000000	99.847279 
3451.000000	99.846695 
3450.000000	99.846322 
3449.000000	99.846502 
3448.000000	99.847582 
3447.000000	99.849399 
3446.000000	99.851234 
3445.000000	99.852364 
3444.000000	99.852632 
3443.000000	99.852519 
3442.000000	99.852797 
3441.000000	99.853850 
3440.000000	99.855167 
3439.000000	99.855715 
3438.000000	99.854987 
3437.000000	99.853546 
3436.000000	99.852375 
3435.000000	99.851867 
3434.000000	99.851721 
3433.000000	99.851597 
3432.000000	99.851428 
3431.000000	99.851184 
3430.000000	99.850750 
3429.000000	99.850168 
3428.000000	99.849676 
3427.000000	99.849367 
3426.000000	99.849045 
3425.000000	99.848532 
3424.000000	99.847931 
3423.000000	99.847472 
3422.000000	99.847218 
3421.000000	99.847025 
3420.000000	99.846744 
3419.000000	99.846379 
3418.000000	99.846082 
3417.000000	99.846004 
3416.000000	99.846124 
3415.000000	99.846243 
3414.000000	99.846166 
3413.000000	99.845887 
3412.000000	99.845556 
3411.000000	99.845319 
3410.000000	99.845193 
3409.000000	99.845101 
3408.000000	99.844966 
3407.000000	99.844760 
3406.000000	99.844503 
3405.000000	99.844227 
3404.000000	99.843955 
3403.000000	99.843696 
3402.000000	99.843444 
3401.000000	99.843199 
3400.000000	99.842961 
3399.000000	99.842733 
3398.000000	99.842515 
3397.000000	99.842311 
3396.000000	99.842124 
3395.000000	99.841952 
3394.000000	99.841794 
3393.000000	99.841647 
3392.000000	99.841509 
3391.000000	99.841377 
3390.000000	99.841245 
3389.000000	99.841099 
3388.000000	99.840931 
3387.000000	99.840754 
3386.000000	99.840606 
3385.000000	99.840513 
3384.000000	99.840454 
3383.000000	99.840371 
3382.000000	99.840231 
3381.000000	99.840080 
3380.000000	99.840009 
3379.000000	99.840067 
3378.000000	99.840203 
3377.000000	99.840311 
3376.000000	99.840331 
3375.000000	99.840268 
3374.000000	99.840152 
3373.000000	99.840022 
3372.000000	99.839927 
3371.000000	99.839895 
3370.000000	99.839863 
3369.000000	99.839705 
3368.000000	99.839363 
3367.000000	99.838916 
3366.000000	99.838497 
3365.000000	99.838170 
3364.000000	99.837932 
3363.000000	99.837791 
3362.000000	99.837810 
3361.000000	99.838060 
3360.000000	99.838500 
3359.000000	99.838919 
3358.000000	99.839066 
3357.000000	99.838853 
3356.000000	99.838394 
3355.000000	99.837868 
3354.000000	99.837375 
3353.000000	99.836944 
3352.000000	99.836580 
3351.000000	99.836265 
3350.000000	99.835947 
3349.000000	99.835599 
3348.000000	99.835261 
3347.000000	99.834981 
3346.000000	99.834726 
3345.000000	99.834383 
3344.000000	99.833863 
3343.000000	99.833180 
3342.000000	99.832447 
3341.000000	99.831813 
3340.000000	99.831374 
3339.000000	99.831117 
3338.000000	99.830916 
3337.000000	99.830620 
3336.000000	99.830193 
3335.000000	99.829723 
3334.000000	99.829282 
3333.000000	99.828790 
3332.000000	99.828076 
3331.000000	99.827088 
3330.000000	99.826008 
3329.000000	99.825156 
3328.000000	99.824710 
3327.000000	99.824553 
3326.000000	99.824332 
3325.000000	99.823784 
3324.000000	99.822920 
3323.000000	99.821931 
3322.000000	99.820991 
3321.000000	99.820214 
3320.000000	99.819701 
3319.000000	99.819518 
3318.000000	99.819554 
3317.000000	99.819487 
3316.000000	99.818969 
3315.000000	99.817908 
3314.000000	99.816644 
3313.000000	99.815769 
3312.000000	99.815653 
3311.000000	99.816121 
3310.000000	99.816585 
3309.000000	99.816595 
3308.000000	99.816176 
3307.000000	99.815620 
3306.000000	99.815018 
3305.000000	99.814102 
3304.000000	99.812526 
3303.000000	99.810245 
3302.000000	99.807703 
3301.000000	99.805622 
3300.000000	99.804461 
3299.000000	99.804054 
3298.000000	99.803882 
3297.000000	99.803714 
3296.000000	99.803836 
3295.000000	99.804546 
3294.000000	99.805638 
3293.000000	99.806520 
3292.000000	99.806794 
3291.000000	99.806603 
3290.000000	99.806435 
3289.000000	99.806607 
3288.000000	99.806908 
3287.000000	99.806746 
3286.000000	99.805692 
3285.000000	99.803890 
3284.000000	99.801845 
3283.000000	99.799920 
3282.000000	99.798222 
3281.000000	99.796898 
3280.000000	99.796283 
3279.000000	99.796592 
3278.000000	99.797556 
3277.000000	99.798419 
3276.000000	99.798374 
3275.000000	99.797115 
3274.000000	99.795104 
3273.000000	99.793347 
3272.000000	99.792623 
3271.000000	99.792926 
3270.000000	99.793660 
3269.000000	99.794237 
3268.000000	99.794371 
3267.000000	99.793871 
3266.000000	99.792562 
3265.000000	99.790590 
3264.000000	99.788499 
3263.000000	99.786735 
3262.000000	99.785219 
3261.000000	99.783620 
3260.000000	99.781947 
3259.000000	99.780637 
3258.000000	99.780031 
3257.000000	99.779981 
3256.000000	99.780030 
3255.000000	99.779868 
3254.000000	99.779512 
3253.000000	99.779088 
3252.000000	99.778540 
3251.000000	99.777623 
3250.000000	99.776192 
3249.000000	99.774456 
3248.000000	99.772847 
3247.000000	99.771643 
3246.000000	99.770786 
3245.000000	99.770099 
3244.000000	99.769589 
3243.000000	99.769412 
3242.000000	99.769504 
3241.000000	99.769389 
3240.000000	99.768522 
3239.000000	99.766887 
3238.000000	99.765145 
3237.000000	99.764016 
3236.000000	99.763492 
3235.000000	99.762899 
3234.000000	99.761788 
3233.000000	99.760502 
3232.000000	99.759662 
3231.000000	99.759256 
3230.000000	99.758553 
3229.000000	99.756917 
3228.000000	99.754486 
3227.000000	99.752070 
3226.000000	99.750455 
3225.000000	99.749826 
3224.000000	99.749686 
3223.000000	99.749326 
3222.000000	99.748535 
3221.000000	99.747803 
3220.000000	99.747701 
3219.000000	99.748196 
3218.000000	99.748711 
3217.000000	99.748733 
3216.000000	99.748222 
3215.000000	99.747503 
3214.000000	99.746976 
3213.000000	99.746886 
3212.000000	99.747189 
3211.000000	99.747588 
3210.000000	99.747762 
3209.000000	99.747534 
3208.000000	99.746797 
3207.000000	99.745461 
3206.000000	99.743681 
3205.000000	99.742077 
3204.000000	99.741365 
3203.000000	99.741752 
3202.000000	99.742847 
3201.000000	99.744064 
3200.000000	99.745045 
3199.000000	99.745617 
3198.000000	99.745620 
3197.000000	99.744988 
3196.000000	99.743942 
3195.000000	99.742936 
3194.000000	99.742369 
3193.000000	99.742323 
3192.000000	99.742527 
3191.000000	99.742577 
3190.000000	99.742292 
3189.000000	99.741818 
3188.000000	99.741358 
3187.000000	99.740903 
3186.000000	99.740360 
3185.000000	99.739848 
3184.000000	99.739599 
3183.000000	99.739586 
3182.000000	99.739492 
3181.000000	99.739110 
3180.000000	99.738605 
3179.000000	99.738297 
3178.000000	99.738314 
3177.000000	99.738532 
3176.000000	99.738704 
3175.000000	99.738614 
3174.000000	99.738212 
3173.000000	99.737728 
3172.000000	99.737552 
3171.000000	99.737901 
3170.000000	99.738611 
3169.000000	99.739248 
3168.000000	99.739373 
3167.000000	99.738713 
3166.000000	99.737278 
3165.000000	99.735461 
3164.000000	99.733890 
3163.000000	99.732971 
3162.000000	99.732629 
3161.000000	99.732465 
3160.000000	99.732099 
3159.000000	99.731437 
3158.000000	99.730704 
3157.000000	99.730264 
3156.000000	99.730279 
3155.000000	99.730533 
3154.000000	99.730663 
3153.000000	99.730542 
3152.000000	99.730272 
3151.000000	99.729885 
3150.000000	99.729319 
3149.000000	99.728659 
3148.000000	99.728160 
3147.000000	99.727970 
3146.000000	99.728081 
3145.000000	99.728558 
3144.000000	99.729489 
3143.000000	99.730603 
3142.000000	99.731219 
3141.000000	99.730847 
3140.000000	99.729644 
3139.000000	99.728248 
3138.000000	99.727254 
3137.000000	99.726879 
3136.000000	99.726987 
3135.000000	99.727217 
3134.000000	99.727208 
3133.000000	99.726855 
3132.000000	99.726319 
3131.000000	99.725802 
3130.000000	99.725463 
3129.000000	99.725530 
3128.000000	99.726217 
3127.000000	99.727414 
3126.000000	99.728661 
3125.000000	99.729514 
3124.000000	99.729853 
3123.000000	99.729796 
3122.000000	99.729534 
3121.000000	99.729302 
3120.000000	99.729295 
3119.000000	99.729456 
3118.000000	99.729479 
3117.000000	99.729136 
3116.000000	99.728491 
3115.000000	99.727780 
3114.000000	99.727273 
3113.000000	99.727240 
3112.000000	99.727790 
3111.000000	99.728599 
3110.000000	99.729021 
3109.000000	99.728715 
3108.000000	99.727948 
3107.000000	99.727171 
3106.000000	99.726466 
3105.000000	99.725663 
3104.000000	99.724822 
3103.000000	99.724262 
3102.000000	99.724144 
3101.000000	99.724237 
3100.000000	99.724123 
3099.000000	99.723456 
3098.000000	99.722172 
3097.000000	99.720769 
3096.000000	99.720262 
3095.000000	99.721386 
3094.000000	99.723663 
3093.000000	99.725636 
3092.000000	99.726221 
3091.000000	99.725292 
3090.000000	99.723187 
3089.000000	99.720522 
3088.000000	99.718484 
3087.000000	99.718272 
3086.000000	99.719794 
3085.000000	99.721643 
3084.000000	99.722709 
3083.000000	99.723161 
3082.000000	99.723591 
3081.000000	99.723892 
3080.000000	99.723483 
3079.000000	99.722273 
3078.000000	99.721015 
3077.000000	99.720692 
3076.000000	99.721456 
3075.000000	99.722161 
3074.000000	99.721324 
3073.000000	99.718786 
3072.000000	99.715925 
3071.000000	99.713851 
3070.000000	99.712122 
3069.000000	99.709930 
3068.000000	99.707825 
3067.000000	99.707118 
3066.000000	99.707865 
3065.000000	99.708596 
3064.000000	99.708017 
3063.000000	99.706096 
3062.000000	99.703505 
3061.000000	99.700921 
3060.000000	99.698952 
3059.000000	99.698044 
3058.000000	99.698276 
3057.000000	99.699561 
3056.000000	99.701635 
3055.000000	99.703292 
3054.000000	99.702324 
3053.000000	99.697571 
3052.000000	99.690994 
3051.000000	99.686295 
3050.000000	99.684853 
3049.000000	99.683952 
3048.000000	99.679849 
3047.000000	99.671969 
3046.000000	99.663247 
3045.000000	99.656577 
3044.000000	99.651687 
3043.000000	99.645925 
3042.000000	99.637666 
3041.000000	99.628083 
3040.000000	99.619256 
3039.000000	99.611233 
3038.000000	99.602082 
3037.000000	99.590735 
3036.000000	99.578362 
3035.000000	99.566377 
3034.000000	99.554207 
3033.000000	99.539864 
3032.000000	99.522326 
3031.000000	99.502700 
3030.000000	99.482970 
3029.000000	99.464374 
3028.000000	99.447188 
3027.000000	99.430957 
3026.000000	99.414371 
3025.000000	99.395676 
3024.000000	99.373800 
3023.000000	99.349061 
3022.000000	99.322845 
3021.000000	99.296930 
3020.000000	99.272890 
3019.000000	99.251227 
3018.000000	99.230480 
3017.000000	99.207510 
3016.000000	99.179476 
3015.000000	99.146084 
3014.000000	99.110136 
3013.000000	99.075747 
3012.000000	99.045459 
3011.000000	99.018571 
3010.000000	98.992037 
3009.000000	98.963059 
3008.000000	98.931041 
3007.000000	98.897511 
3006.000000	98.864662 
3005.000000	98.833796 
3004.000000	98.804437 
3003.000000	98.774597 
3002.000000	98.742509 
3001.000000	98.708628 
3000.000000	98.675569 
2999.000000	98.645720 
2998.000000	98.619562 
2997.000000	98.596897 
2996.000000	98.578423 
2995.000000	98.563525 
2994.000000	98.545975 
2993.000000	98.514801 
2992.000000	98.463350 
2991.000000	98.398536 
2990.000000	98.339067 
2989.000000	98.302306 
2988.000000	98.292948 
2987.000000	98.303591 
2986.000000	98.323329 
2985.000000	98.344282 
2984.000000	98.361589 
2983.000000	98.371936 
2982.000000	98.374783 
2981.000000	98.373210 
2980.000000	98.371081 
2979.000000	98.369637 
2978.000000	98.368039 
2977.000000	98.366037 
2976.000000	98.364101 
2975.000000	98.361661 
2974.000000	98.357805 
2973.000000	98.354171 
2972.000000	98.355134 
2971.000000	98.364209 
2970.000000	98.381467 
2969.000000	98.404797 
2968.000000	98.432080 
2967.000000	98.461370 
2966.000000	98.490521 
2965.000000	98.518159 
2964.000000	98.544410 
2963.000000	98.569613 
2962.000000	98.592915 
2961.000000	98.613034 
2960.000000	98.629950 
2959.000000	98.645103 
2958.000000	98.660367 
2957.000000	98.677266 
2956.000000	98.696275 
2955.000000	98.715990 
2954.000000	98.733792 
2953.000000	98.748564 
2952.000000	98.762398 
2951.000000	98.778516 
2950.000000	98.797477 
2949.000000	98.816179 
2948.000000	98.830553 
2947.000000	98.838669 
2946.000000	98.841866 
2945.000000	98.843836 
2944.000000	98.848299 
2943.000000	98.856847 
2942.000000	98.868791 
2941.000000	98.882893 
2940.000000	98.898602 
2939.000000	98.915344 
2938.000000	98.931450 
2937.000000	98.945011 
2936.000000	98.955754 
2935.000000	98.965174 
2934.000000	98.974717 
2933.000000	98.984441 
2932.000000	98.993425 
2931.000000	99.000768 
2930.000000	99.006015 
2929.000000	99.009263 
2928.000000	99.011206 
2927.000000	99.012627 
2926.000000	99.013403 
2925.000000	99.012176 
2924.000000	99.007438 
2923.000000	98.999051 
2922.000000	98.988453 
2921.000000	98.977206 
2920.000000	98.965554 
2919.000000	98.952801 
2918.000000	98.938694 
2917.000000	98.923344 
2916.000000	98.905505 
2915.000000	98.882474 
2914.000000	98.853451 
2913.000000	98.822679 
2912.000000	98.797350 
2911.000000	98.781483 
2910.000000	98.772770 
2909.000000	98.765830 
2908.000000	98.757404 
2907.000000	98.747158 
2906.000000	98.734128 
2905.000000	98.714727 
2904.000000	98.686194 
2903.000000	98.652607 
2902.000000	98.626198 
2901.000000	98.620241 
2900.000000	98.639009 
2899.000000	98.673768 
2898.000000	98.708844 
2897.000000	98.732689 
2896.000000	98.743574 
2895.000000	98.746475 
2894.000000	98.747319 
2893.000000	98.750110 
2892.000000	98.756483 
2891.000000	98.765389 
2890.000000	98.773704 
2889.000000	98.778786 
2888.000000	98.780583 
2887.000000	98.780905 
2886.000000	98.781574 
2885.000000	98.784328 
2884.000000	98.791614 
2883.000000	98.805460 
2882.000000	98.825206 
2881.000000	98.847580 
2880.000000	98.869647 
2879.000000	98.891061 
2878.000000	98.912932 
2877.000000	98.935228 
2876.000000	98.956144 
2875.000000	98.973941 
2874.000000	98.988811 
2873.000000	99.002524 
2872.000000	99.016352 
2871.000000	99.029772 
2870.000000	99.041678 
2869.000000	99.052679 
2868.000000	99.065456 
2867.000000	99.082519 
2866.000000	99.104089 
2865.000000	99.128582 
2864.000000	99.154729 
2863.000000	99.182529 
2862.000000	99.212129 
2861.000000	99.242543 
2860.000000	99.272186 
2859.000000	99.300684 
2858.000000	99.329553 
2857.000000	99.360342 
2856.000000	99.391753 
2855.000000	99.419305 
2854.000000	99.438863 
2853.000000	99.450289 
2852.000000	99.456803 
2851.000000	99.461361 
2850.000000	99.464856 
2849.000000	99.467371 
2848.000000	99.469412 
2847.000000	99.471293 
2846.000000	99.472519 
2845.000000	99.472558 
2844.000000	99.471560 
2843.000000	99.470042 
2842.000000	99.468669 
2841.000000	99.468517 
2840.000000	99.470413 
2839.000000	99.473610 
2838.000000	99.476380 
2837.000000	99.478616 
2836.000000	99.482529 
2835.000000	99.489634 
2834.000000	99.497978 
2833.000000	99.503737 
2832.000000	99.505223 
2831.000000	99.504323 
2830.000000	99.504403 
2829.000000	99.507533 
2828.000000	99.513285 
2827.000000	99.519203 
2826.000000	99.522581 
2825.000000	99.522648 
2824.000000	99.521052 
2823.000000	99.520010 
2822.000000	99.520429 
2821.000000	99.522095 
2820.000000	99.524730 
2819.000000	99.527928 
2818.000000	99.530789 
2817.000000	99.532728 
2816.000000	99.534265 
2815.000000	99.536136 
2814.000000	99.538058 
2813.000000	99.539352 
2812.000000	99.540317 
2811.000000	99.541779 
2810.000000	99.543519 
2809.000000	99.544456 
2808.000000	99.544432 
2807.000000	99.544662 
2806.000000	99.546033 
2805.000000	99.547844 
2804.000000	99.548714 
2803.000000	99.548198 
2802.000000	99.547150 
2801.000000	99.546812 
2800.000000	99.547822 
2799.000000	99.549885 
2798.000000	99.552141 
2797.000000	99.553873 
2796.000000	99.554991 
2795.000000	99.555890 
2794.000000	99.556876 
2793.000000	99.557763 
2792.000000	99.558055 
2791.000000	99.557550 
2790.000000	99.556710 
2789.000000	99.556412 
2788.000000	99.557168 
2787.000000	99.558719 
2786.000000	99.560354 
2785.000000	99.561643 
2784.000000	99.562726 
2783.000000	99.563853 
2782.000000	99.564955 
2781.000000	99.565748 
2780.000000	99.566056 
2779.000000	99.565916 
2778.000000	99.565549 
2777.000000	99.565338 
2776.000000	99.565613 
2775.000000	99.566312 
2774.000000	99.566990 
2773.000000	99.567348 
2772.000000	99.567638 
2771.000000	99.568311 
2770.000000	99.569409 
2769.000000	99.570520 
2768.000000	99.571270 
2767.000000	99.571644 
2766.000000	99.571812 
2765.000000	99.571884 
2764.000000	99.571894 
2763.000000	99.571879 
2762.000000	99.571892 
2761.000000	99.572001 
2760.000000	99.572298 
2759.000000	99.572833 
2758.000000	99.573584 
2757.000000	99.574561 
2756.000000	99.575851 
2755.000000	99.577408 
2754.000000	99.578882 
2753.000000	99.579912 
2752.000000	99.580515 
2751.000000	99.580962 
2750.000000	99.581360 
2749.000000	99.581632 
2748.000000	99.581831 
2747.000000	99.582159 
2746.000000	99.582658 
2745.000000	99.583167 
2744.000000	99.583577 
2743.000000	99.583909 
2742.000000	99.584144 
2741.000000	99.584277 
2740.000000	99.584525 
2739.000000	99.585214 
2738.000000	99.586390 
2737.000000	99.587715 
2736.000000	99.588782 
2735.000000	99.589358 
2734.000000	99.589396 
2733.000000	99.589151 
2732.000000	99.589277 
2731.000000	99.590419 
2730.000000	99.592540 
2729.000000	99.594842 
2728.000000	99.596527 
2727.000000	99.597558 
2726.000000	99.598484 
2725.000000	99.599704 
2724.000000	99.601051 
2723.000000	99.602014 
2722.000000	99.602216 
2721.000000	99.601748 
2720.000000	99.601170 
2719.000000	99.601111 
2718.000000	99.601722 
2717.000000	99.602501 
2716.000000	99.602699 
2715.000000	99.601935 
2714.000000	99.600465 
2713.000000	99.598963 
2712.000000	99.598080 
2711.000000	99.598149 
2710.000000	99.599127 
2709.000000	99.600631 
2708.000000	99.602055 
2707.000000	99.602916 
2706.000000	99.603194 
2705.000000	99.603263 
2704.000000	99.603420 
2703.000000	99.603594 
2702.000000	99.603617 
2701.000000	99.603558 
2700.000000	99.603532 
2699.000000	99.603339 
2698.000000	99.602658 
2697.000000	99.601597 
2696.000000	99.600704 
2695.000000	99.600306 
2694.000000	99.600143 
2693.000000	99.599806 
2692.000000	99.599310 
2691.000000	99.599039 
2690.000000	99.599292 
2689.000000	99.600113 
2688.000000	99.601349 
2687.000000	99.602611 
2686.000000	99.603316 
2685.000000	99.603088 
2684.000000	99.602105 
2683.000000	99.600943 
2682.000000	99.600018 
2681.000000	99.599319 
2680.000000	99.598742 
2679.000000	99.598395 
2678.000000	99.598444 
2677.000000	99.598758 
2676.000000	99.598881 
2675.000000	99.598456 
2674.000000	99.597640 
2673.000000	99.596997 
2672.000000	99.596897 
2671.000000	99.597177 
2670.000000	99.597406 
2669.000000	99.597335 
2668.000000	99.596943 
2667.000000	99.596225 
2666.000000	99.595128 
2665.000000	99.593710 
2664.000000	99.592217 
2663.000000	99.590982 
2662.000000	99.590257 
2661.000000	99.590057 
2660.000000	99.590087 
2659.000000	99.589955 
2658.000000	99.589534 
2657.000000	99.589006 
2656.000000	99.588524 
2655.000000	99.588070 
2654.000000	99.587732 
2653.000000	99.587714 
2652.000000	99.587809 
2651.000000	99.587300 
2650.000000	99.585881 
2649.000000	99.584303 
2648.000000	99.583503 
2647.000000	99.583342 
2646.000000	99.582906 
2645.000000	99.581937 
2644.000000	99.581117 
2643.000000	99.580802 
2642.000000	99.580308 
2641.000000	99.578805 
2640.000000	99.576342 
2639.000000	99.573665 
2638.000000	99.571462 
2637.000000	99.570030 
2636.000000	99.569257 
2635.000000	99.568681 
2634.000000	99.568038 
2633.000000	99.567908 
2632.000000	99.569204 
2631.000000	99.571909 
2630.000000	99.574827 
2629.000000	99.576758 
2628.000000	99.577396 
2627.000000	99.576849 
2626.000000	99.575127 
2625.000000	99.572546 
2624.000000	99.570015 
2623.000000	99.568332 
2622.000000	99.567543 
2621.000000	99.567413 
2620.000000	99.567982 
2619.000000	99.569171 
2618.000000	99.570355 
2617.000000	99.570958 
2616.000000	99.571180 
2615.000000	99.571510 
2614.000000	99.571773 
2613.000000	99.571291 
2612.000000	99.569820 
2611.000000	99.567842 
2610.000000	99.566076 
2609.000000	99.565033 
2608.000000	99.564922 
2607.000000	99.565560 
2606.000000	99.566353 
2605.000000	99.566700 
2604.000000	99.566455 
2603.000000	99.565865 
2602.000000	99.565215 
2601.000000	99.564689 
2600.000000	99.564373 
2599.000000	99.564204 
2598.000000	99.564054 
2597.000000	99.564023 
2596.000000	99.564408 
2595.000000	99.565232 
2594.000000	99.566076 
2593.000000	99.566530 
2592.000000	99.566618 
2591.000000	99.566591 
2590.000000	99.566512 
2589.000000	99.566256 
2588.000000	99.565813 
2587.000000	99.565382 
2586.000000	99.565171 
2585.000000	99.565235 
2584.000000	99.565523 
2583.000000	99.565962 
2582.000000	99.566503 
2581.000000	99.567157 
2580.000000	99.567915 
2579.000000	99.568555 
2578.000000	99.568705 
2577.000000	99.568236 
2576.000000	99.567497 
2575.000000	99.567062 
2574.000000	99.567127 
2573.000000	99.567443 
2572.000000	99.567663 
2571.000000	99.567673 
2570.000000	99.567591 
2569.000000	99.567581 
2568.000000	99.567707 
2567.000000	99.567859 
2566.000000	99.567828 
2565.000000	99.567539 
2564.000000	99.567247 
2563.000000	99.567348 
2562.000000	99.567914 
2561.000000	99.568538 
2560.000000	99.568820 
2559.000000	99.568780 
2558.000000	99.568666 
2557.000000	99.568665 
2556.000000	99.568922 
2555.000000	99.569472 
2554.000000	99.570034 
2553.000000	99.570281 
2552.000000	99.570402 
2551.000000	99.570955 
2550.000000	99.572101 
2549.000000	99.573396 
2548.000000	99.574423 
2547.000000	99.575103 
2546.000000	99.575317 
2545.000000	99.574776 
2544.000000	99.573496 
2543.000000	99.571933 
2542.000000	99.570424 
2541.000000	99.568902 
2540.000000	99.567378 
2539.000000	99.566300 
2538.000000	99.566144 
2537.000000	99.566865 
2536.000000	99.567886 
2535.000000	99.568433 
2534.000000	99.567932 
2533.000000	99.566386 
2532.000000	99.564396 
2531.000000	99.562637 
2530.000000	99.561390 
2529.000000	99.560870 
2528.000000	99.561628 
2527.000000	99.564015 
2526.000000	99.567408 
2525.000000	99.570605 
2524.000000	99.573104 
2523.000000	99.575328 
2522.000000	99.577381 
2521.000000	99.578198 
2520.000000	99.576508 
2519.000000	99.572332 
2518.000000	99.567297 
2517.000000	99.563572 
2516.000000	99.562327 
2515.000000	99.563134 
2514.000000	99.564524 
2513.000000	99.565182 
2512.000000	99.564717 
2511.000000	99.563355 
2510.000000	99.561337 
2509.000000	99.558968 
2508.000000	99.556929 
2507.000000	99.555878 
2506.000000	99.555713 
2505.000000	99.555656 
2504.000000	99.555209 
2503.000000	99.554667 
2502.000000	99.554582 
2501.000000	99.555096 
2500.000000	99.555985 
2499.000000	99.556943 
2498.000000	99.557589 
2497.000000	99.557508 
2496.000000	99.556589 
2495.000000	99.555284 
2494.000000	99.554334 
2493.000000	99.554179 
2492.000000	99.554733 
2491.000000	99.555589 
2490.000000	99.556312 
2489.000000	99.556601 
2488.000000	99.556362 
2487.000000	99.555764 
2486.000000	99.555145 
2485.000000	99.554748 
2484.000000	99.554542 
2483.000000	99.554358 
2482.000000	99.554126 
2481.000000	99.553894 
2480.000000	99.553672 
2479.000000	99.553384 
2478.000000	99.552986 
2477.000000	99.552504 
2476.000000	99.552006 
2475.000000	99.551566 
2474.000000	99.551231 
2473.000000	99.551002 
2472.000000	99.550822 
2471.000000	99.550614 
2470.000000	99.550345 
2469.000000	99.550039 
2468.000000	99.549747 
2467.000000	99.549482 
2466.000000	99.549225 
2465.000000	99.548947 
2464.000000	99.548633 
2463.000000	99.548279 
2462.000000	99.547893 
2461.000000	99.547500 
2460.000000	99.547129 
2459.000000	99.546794 
2458.000000	99.546480 
2457.000000	99.546146 
2456.000000	99.545765 
2455.000000	99.545347 
2454.000000	99.544919 
2453.000000	99.544515 
2452.000000	99.544192 
2451.000000	99.543980 
2450.000000	99.543785 
2449.000000	99.543431 
2448.000000	99.542851 
2447.000000	99.542175 
2446.000000	99.541571 
2445.000000	99.541058 
2444.000000	99.540578 
2443.000000	99.540116 
2442.000000	99.539657 
2441.000000	99.539113 
2440.000000	99.538425 
2439.000000	99.537686 
2438.000000	99.537098 
2437.000000	99.536841 
2436.000000	99.536982 
2435.000000	99.537419 
2434.000000	99.537859 
2433.000000	99.538007 
2432.000000	99.537809 
2431.000000	99.537433 
2430.000000	99.537081 
2429.000000	99.536860 
2428.000000	99.536786 
2427.000000	99.536801 
2426.000000	99.536817 
2425.000000	99.536848 
2424.000000	99.537015 
2423.000000	99.537346 
2422.000000	99.537634 
2421.000000	99.537628 
2420.000000	99.537344 
2419.000000	99.537071 
2418.000000	99.537066 
2417.000000	99.537328 
2416.000000	99.537647 
2415.000000	99.537784 
2414.000000	99.537612 
2413.000000	99.537190 
2412.000000	99.536719 
2411.000000	99.536373 
2410.000000	99.536191 
2409.000000	99.536118 
2408.000000	99.536091 
2407.000000	99.536070 
2406.000000	99.536078 
2405.000000	99.536222 
2404.000000	99.536539 
2403.000000	99.536801 
2402.000000	99.536677 
2401.000000	99.536174 
2400.000000	99.535736 
2399.000000	99.535795 
2398.000000	99.536363 
2397.000000	99.537121 
2396.000000	99.537724 
2395.000000	99.537931 
2394.000000	99.537561 
2393.000000	99.536622 
2392.000000	99.535673 
2391.000000	99.535493 
2390.000000	99.536113 
2389.000000	99.536545 
2388.000000	99.535926 
2387.000000	99.534351 
2386.000000	99.532432 
2385.000000	99.530618 
2384.000000	99.529158 
2383.000000	99.528312 
2382.000000	99.528297 
2381.000000	99.529183 
2380.000000	99.530891 
2379.000000	99.533067 
2378.000000	99.534938 
2377.000000	99.535689 
2376.000000	99.535029 
2375.000000	99.533351 
2374.000000	99.531451 
2373.000000	99.530008 
2372.000000	99.529172 
2371.000000	99.528465 
2370.000000	99.527356 
2369.000000	99.526097 
2368.000000	99.525507 
2367.000000	99.525788 
2366.000000	99.526199 
2365.000000	99.526048 
2364.000000	99.525133 
2363.000000	99.522856 
2362.000000	99.518913 
2361.000000	99.514868 
2360.000000	99.512321 
2359.000000	99.511391 
2358.000000	99.510710 
2357.000000	99.509732 
2356.000000	99.509278 
2355.000000	99.509688 
2354.000000	99.512182 
2353.000000	99.516548 
2352.000000	99.520968 
2351.000000	99.522863 
2350.000000	99.519438 
2349.000000	99.510769 
2348.000000	99.499508 
2347.000000	99.491483 
2346.000000	99.488995 
2345.000000	99.488125 
2344.000000	99.484973 
2343.000000	99.479257 
2342.000000	99.475294 
2341.000000	99.474480 
2340.000000	99.475051 
2339.000000	99.474686 
2338.000000	99.473488 
2337.000000	99.472427 
2336.000000	99.470685 
2335.000000	99.466683 
2334.000000	99.461772 
2333.000000	99.458241 
2332.000000	99.456409 
2331.000000	99.455434 
2330.000000	99.454063 
2329.000000	99.453092 
2328.000000	99.449848 
2327.000000	99.442956 
2326.000000	99.432514 
2325.000000	99.421021 
2324.000000	99.412320 
2323.000000	99.407998 
2322.000000	99.408965 
2321.000000	99.412602 
2320.000000	99.416515 
2319.000000	99.419373 
2318.000000	99.421428 
2317.000000	99.423412 
2316.000000	99.425715 
2315.000000	99.429238 
2314.000000	99.433293 
2313.000000	99.436340 
2312.000000	99.436373 
2311.000000	99.433951 
2310.000000	99.430580 
2309.000000	99.427601 
2308.000000	99.425455 
2307.000000	99.425150 
2306.000000	99.427494 
2305.000000	99.431597 
2304.000000	99.435179 
2303.000000	99.436539 
2302.000000	99.435720 
2301.000000	99.433792 
2300.000000	99.431768 
2299.000000	99.430706 
2298.000000	99.431049 
2297.000000	99.432586 
2296.000000	99.433888 
2295.000000	99.433630 
2294.000000	99.431394 
2293.000000	99.428327 
2292.000000	99.426161 
2291.000000	99.425771 
2290.000000	99.426462 
2289.000000	99.426882 
2288.000000	99.426567 
2287.000000	99.426163 
2286.000000	99.426383 
2285.000000	99.427059 
2284.000000	99.427483 
2283.000000	99.427236 
2282.000000	99.426592 
2281.000000	99.426049 
2280.000000	99.425756 
2279.000000	99.425513 
2278.000000	99.425224 
2277.000000	99.424919 
2276.000000	99.424593 
2275.000000	99.424238 
2274.000000	99.423846 
2273.000000	99.423419 
2272.000000	99.422969 
2271.000000	99.422510 
2270.000000	99.422052 
2269.000000	99.421598 
2268.000000	99.421141 
2267.000000	99.420672 
2266.000000	99.420185 
2265.000000	99.419670 
2264.000000	99.419123 
2263.000000	99.418543 
2262.000000	99.417941 
2261.000000	99.417331 
2260.000000	99.416724 
2259.000000	99.416131 
2258.000000	99.415554 
2257.000000	99.414992 
2256.000000	99.414435 
2255.000000	99.413869 
2254.000000	99.413281 
2253.000000	99.412671 
2252.000000	99.412048 
2251.000000	99.411425 
2250.000000	99.410807 
2249.000000	99.410188 
2248.000000	99.409555 
2247.000000	99.408897 
2246.000000	99.408209 
2245.000000	99.407495 
2244.000000	99.406758 
2243.000000	99.406003 
2242.000000	99.405239 
2241.000000	99.404479 
2240.000000	99.403737 
2239.000000	99.403014 
2238.000000	99.402297 
2237.000000	99.401566 
2236.000000	99.400807 
2235.000000	99.400016 
2234.000000	99.399199 
2233.000000	99.398365 
2232.000000	99.397522 
2231.000000	99.396678 
2230.000000	99.395831 
2229.000000	99.394973 
2228.000000	99.394092 
2227.000000	99.393179 
2226.000000	99.392233 
2225.000000	99.391260 
2224.000000	99.390267 
2223.000000	99.389260 
2222.000000	99.388246 
2221.000000	99.387233 
2220.000000	99.386231 
2219.000000	99.385249 
2218.000000	99.384297 
2217.000000	99.383359 
2216.000000	99.382398 
2215.000000	99.381393 
2214.000000	99.380365 
2213.000000	99.379356 
2212.000000	99.378400 
2211.000000	99.377510 
2210.000000	99.376620 
2209.000000	99.375612 
2208.000000	99.374437 
2207.000000	99.373145 
2206.000000	99.371711 
2205.000000	99.370089 
2204.000000	99.368552 
2203.000000	99.367585 
2202.000000	99.367355 
2201.000000	99.367641 
2200.000000	99.368362 
2199.000000	99.369491 
2198.000000	99.370191 
2197.000000	99.369095 
2196.000000	99.365905 
2195.000000	99.362188 
2194.000000	99.359806 
2193.000000	99.358901 
2192.000000	99.358290 
2191.000000	99.357414 
2190.000000	99.356813 
2189.000000	99.356715 
2188.000000	99.356434 
2187.000000	99.355323 
2186.000000	99.353621 
2185.000000	99.352235 
2184.000000	99.352016 
2183.000000	99.353130 
2182.000000	99.354770 
2181.000000	99.355680 
2180.000000	99.355472 
2179.000000	99.355418 
2178.000000	99.357424 
2177.000000	99.361922 
2176.000000	99.366830 
2175.000000	99.369071 
2174.000000	99.367272 
2173.000000	99.362686 
2172.000000	99.357526 
2171.000000	99.352835 
2170.000000	99.348813 
2169.000000	99.346459 
2168.000000	99.347164 
2167.000000	99.350528 
2166.000000	99.354121 
2165.000000	99.356216 
2164.000000	99.357401 
2163.000000	99.358632 
2162.000000	99.359485 
2161.000000	99.359729 
2160.000000	99.361053 
2159.000000	99.365214 
2158.000000	99.371464 
2157.000000	99.377710 
2156.000000	99.383310 
2155.000000	99.388856 
2154.000000	99.394245 
2153.000000	99.398398 
2152.000000	99.399981 
2151.000000	99.397695 
2150.000000	99.391426 
2149.000000	99.384173 
2148.000000	99.380928 
2147.000000	99.383788 
2146.000000	99.389812 
2145.000000	99.394473 
2144.000000	99.396922 
2143.000000	99.399456 
2142.000000	99.402753 
2141.000000	99.404680 
2140.000000	99.403959 
2139.000000	99.402139 
2138.000000	99.401199 
2137.000000	99.401211 
2136.000000	99.401392 
2135.000000	99.401702 
2134.000000	99.402251 
2133.000000	99.402416 
2132.000000	99.401676 
2131.000000	99.400550 
2130.000000	99.399893 
2129.000000	99.399807 
2128.000000	99.399823 
2127.000000	99.399750 
2126.000000	99.399875 
2125.000000	99.400477 
2124.000000	99.401393 
2123.000000	99.402013 
2122.000000	99.401716 
2121.000000	99.400490 
2120.000000	99.398982 
2119.000000	99.397817 
2118.000000	99.396978 
2117.000000	99.396048 
2116.000000	99.394876 
2115.000000	99.393728 
2114.000000	99.392873 
2113.000000	99.392240 
2112.000000	99.391546 
2111.000000	99.390608 
2110.000000	99.389474 
2109.000000	99.388363 
2108.000000	99.387551 
2107.000000	99.387131 
2106.000000	99.386832 
2105.000000	99.386169 
2104.000000	99.384974 
2103.000000	99.383614 
2102.000000	99.382556 
2101.000000	99.381910 
2100.000000	99.381433 
2099.000000	99.380825 
2098.000000	99.379897 
2097.000000	99.378587 
2096.000000	99.377045 
2095.000000	99.375703 
2094.000000	99.374982 
2093.000000	99.374780 
2092.000000	99.374376 
2091.000000	99.373128 
2090.000000	99.371079 
2089.000000	99.368868 
2088.000000	99.366956 
2087.000000	99.365164 
2086.000000	99.363178 
2085.000000	99.361225 
2084.000000	99.359977 
2083.000000	99.359767 
2082.000000	99.360109 
2081.000000	99.360033 
2080.000000	99.358863 
2079.000000	99.356446 
2078.000000	99.352952 
2077.000000	99.348833 
2076.000000	99.344802 
2075.000000	99.341476 
2074.000000	99.339101 
2073.000000	99.337780 
2072.000000	99.337702 
2071.000000	99.338649 
2070.000000	99.339516 
2069.000000	99.339111 
2068.000000	99.337425 
2067.000000	99.335510 
2066.000000	99.334025 
2065.000000	99.332536 
2064.000000	99.330498 
2063.000000	99.328060 
2062.000000	99.325512 
2061.000000	99.322649 
2060.000000	99.319165 
2059.000000	99.315288 
2058.000000	99.311650 
2057.000000	99.308779 
2056.000000	99.306952 
2055.000000	99.306162 
2054.000000	99.306012 
2053.000000	99.305793 
2052.000000	99.304773 
2051.000000	99.302358 
2050.000000	99.298248 
2049.000000	99.293073 
2048.000000	99.288734 
2047.000000	99.286940 
2046.000000	99.287532 
2045.000000	99.288783 
2044.000000	99.289303 
2043.000000	99.289057 
2042.000000	99.288295 
2041.000000	99.286649 
2040.000000	99.283791 
2039.000000	99.280012 
2038.000000	99.275655 
2037.000000	99.270871 
2036.000000	99.266428 
2035.000000	99.263745 
2034.000000	99.263375 
2033.000000	99.264123 
2032.000000	99.264425 
2031.000000	99.264055 
2030.000000	99.263531 
2029.000000	99.262652 
2028.000000	99.260788 
2027.000000	99.258250 
2026.000000	99.256369 
2025.000000	99.256200 
2024.000000	99.257800 
2023.000000	99.260584 
2022.000000	99.263632 
2021.000000	99.265628 
2020.000000	99.265301 
2019.000000	99.262366 
2018.000000	99.258079 
2017.000000	99.254563 
2016.000000	99.252944 
2015.000000	99.252152 
2014.000000	99.249876 
2013.000000	99.245019 
2012.000000	99.239141 
2011.000000	99.235170 
2010.000000	99.234809 
2009.000000	99.237813 
2008.000000	99.242842 
2007.000000	99.248079 
2006.000000	99.251356 
2005.000000	99.251168 
2004.000000	99.248138 
2003.000000	99.244774 
2002.000000	99.243149 
2001.000000	99.243544 
2000.000000	99.245388 
1999.000000	99.248230 
1998.000000	99.251293 
1997.000000	99.253277 
1996.000000	99.253686 
1995.000000	99.253506 
1994.000000	99.253726 
1993.000000	99.253861 
1992.000000	99.252875 
1991.000000	99.250869 
1990.000000	99.248826 
1989.000000	99.247372 
1988.000000	99.246719 
1987.000000	99.246873 
1986.000000	99.246885 
1985.000000	99.244859 
1984.000000	99.239949 
1983.000000	99.233825 
1982.000000	99.229125 
1981.000000	99.227054 
1980.000000	99.227452 
1979.000000	99.230040 
1978.000000	99.234016 
1977.000000	99.237550 
1976.000000	99.239815 
1975.000000	99.242515 
1974.000000	99.247234 
1973.000000	99.252208 
1972.000000	99.253752 
1971.000000	99.250441 
1970.000000	99.244502 
1969.000000	99.239579 
1968.000000	99.238034 
1967.000000	99.239794 
1966.000000	99.242965 
1965.000000	99.246295 
1964.000000	99.251213 
1963.000000	99.260023 
1962.000000	99.271617 
1961.000000	99.281110 
1960.000000	99.285465 
1959.000000	99.287215 
1958.000000	99.290804 
1957.000000	99.296438 
1956.000000	99.300013 
1955.000000	99.298537 
1954.000000	99.293285 
1953.000000	99.288090 
1952.000000	99.285765 
1951.000000	99.286373 
1950.000000	99.287841 
1949.000000	99.287660 
1948.000000	99.284923 
1947.000000	99.281140 
1946.000000	99.278765 
1945.000000	99.278869 
1944.000000	99.280531 
1943.000000	99.282204 
1942.000000	99.283217 
1941.000000	99.284082 
1940.000000	99.285839 
1939.000000	99.289231 
1938.000000	99.294049 
1937.000000	99.298972 
1936.000000	99.302323 
1935.000000	99.303236 
1934.000000	99.302133 
1933.000000	99.300341 
1932.000000	99.299193 
1931.000000	99.299247 
1930.000000	99.300087 
1929.000000	99.300784 
1928.000000	99.300808 
1927.000000	99.300500 
1926.000000	99.300586 
1925.000000	99.301210 
1924.000000	99.301630 
1923.000000	99.301031 
1922.000000	99.299454 
1921.000000	99.297834 
1920.000000	99.297158 
1919.000000	99.297671 
1918.000000	99.298922 
1917.000000	99.300198 
1916.000000	99.301040 
1915.000000	99.301329 
1914.000000	99.301100 
1913.000000	99.300532 
1912.000000	99.299971 
1911.000000	99.299764 
1910.000000	99.299997 
1909.000000	99.300440 
1908.000000	99.300771 
1907.000000	99.300880 
1906.000000	99.300857 
1905.000000	99.300793 
1904.000000	99.300719 
1903.000000	99.300681 
1902.000000	99.300735 
1901.000000	99.300902 
1900.000000	99.301206 
1899.000000	99.301704 
1898.000000	99.302401 
1897.000000	99.303201 
1896.000000	99.303960 
1895.000000	99.304559 
1894.000000	99.304875 
1893.000000	99.304833 
1892.000000	99.304585 
1891.000000	99.304449 
1890.000000	99.304538 
1889.000000	99.304605 
1888.000000	99.304453 
1887.000000	99.304351 
1886.000000	99.304696 
1885.000000	99.305513 
1884.000000	99.306594 
1883.000000	99.308054 
1882.000000	99.310203 
1881.000000	99.312857 
1880.000000	99.315198 
1879.000000	99.316539 
1878.000000	99.316971 
1877.000000	99.317027 
1876.000000	99.316958 
1875.000000	99.316637 
1874.000000	99.316093 
1873.000000	99.315726 
1872.000000	99.315861 
1871.000000	99.316361 
1870.000000	99.316964 
1869.000000	99.317876 
1868.000000	99.319554 
1867.000000	99.321775 
1866.000000	99.323600 
1865.000000	99.324434 
1864.000000	99.324446 
1863.000000	99.324012 
1862.000000	99.323254 
1861.000000	99.322402 
1860.000000	99.322198 
1859.000000	99.323327 
1858.000000	99.325643 
1857.000000	99.328253 
1856.000000	99.330406 
1855.000000	99.331948 
1854.000000	99.332834 
1853.000000	99.332970 
1852.000000	99.332754 
1851.000000	99.332966 
1850.000000	99.333832 
1849.000000	99.334774 
1848.000000	99.335244 
1847.000000	99.335385 
1846.000000	99.335629 
1845.000000	99.336030 
1844.000000	99.336377 
1843.000000	99.336809 
1842.000000	99.337588 
1841.000000	99.338567 
1840.000000	99.339332 
1839.000000	99.339402 
1838.000000	99.338495 
1837.000000	99.337035 
1836.000000	99.336309 
1835.000000	99.337384 
1834.000000	99.339527 
1833.000000	99.340754 
1832.000000	99.340335 
1831.000000	99.339661 
1830.000000	99.340522 
1829.000000	99.342956 
1828.000000	99.345239 
1827.000000	99.345841 
1826.000000	99.344570 
1825.000000	99.342449 
1824.000000	99.341087 
1823.000000	99.341365 
1822.000000	99.342448 
1821.000000	99.342982 
1820.000000	99.343407 
1819.000000	99.345919 
1818.000000	99.351321 
1817.000000	99.356668 
1816.000000	99.358501 
1815.000000	99.357540 
1814.000000	99.357144 
1813.000000	99.358710 
1812.000000	99.360789 
1811.000000	99.362209 
1810.000000	99.363453 
1809.000000	99.364461 
1808.000000	99.364755 
1807.000000	99.365425 
1806.000000	99.367893 
1805.000000	99.371059 
1804.000000	99.372370 
1803.000000	99.371731 
1802.000000	99.372075 
1801.000000	99.375992 
1800.000000	99.382648 
1799.000000	99.389352 
1798.000000	99.394651 
1797.000000	99.398614 
1796.000000	99.402544 
1795.000000	99.408376 
1794.000000	99.416429 
1793.000000	99.423288 
1792.000000	99.425039 
1791.000000	99.423638 
1790.000000	99.424262 
1789.000000	99.428641 
1788.000000	99.435421 
1787.000000	99.443330 
1786.000000	99.452309 
1785.000000	99.461953 
1784.000000	99.470780 
1783.000000	99.477992 
1782.000000	99.484317 
1781.000000	99.491921 
1780.000000	99.502399 
1779.000000	99.514864 
1778.000000	99.527056 
1777.000000	99.537441 
1776.000000	99.546242 
1775.000000	99.554437 
1774.000000	99.562467 
1773.000000	99.570104 
1772.000000	99.577717 
1771.000000	99.587131 
1770.000000	99.599996 
1769.000000	99.617429 
1768.000000	99.640417 
1767.000000	99.667097 
1766.000000	99.692914 
1765.000000	99.715011 
1764.000000	99.734028 
1763.000000	99.752742 
1762.000000	99.773688 
1761.000000	99.797389 
1760.000000	99.822274 
1759.000000	99.846586 
1758.000000	99.868620 
1757.000000	99.886133 
1756.000000	99.898572 
1755.000000	99.908786 
1754.000000	99.920449 
1753.000000	99.934065 
1752.000000	99.945923 
1751.000000	99.951257 
1750.000000	99.950234 
1749.000000	99.946980 
1748.000000	99.943364 
1747.000000	99.938036 
1746.000000	99.929930 
1745.000000	99.920071 
1744.000000	99.908888 
1743.000000	99.894258 
1742.000000	99.873380 
1741.000000	99.845372 
1740.000000	99.812757 
1739.000000	99.781443 
1738.000000	99.755196 
1737.000000	99.731111 
1736.000000	99.703993 
1735.000000	99.671758 
1734.000000	99.637681 
1733.000000	99.609538 
1732.000000	99.590615 
1731.000000	99.577411 
1730.000000	99.566139 
1729.000000	99.554359 
1728.000000	99.542062 
1727.000000	99.532126 
1726.000000	99.527292 
1725.000000	99.526626 
1724.000000	99.525164 
1723.000000	99.519312 
1722.000000	99.510347 
1721.000000	99.501217 
1720.000000	99.493321 
1719.000000	99.486738 
1718.000000	99.480552 
1717.000000	99.472741 
1716.000000	99.463878 
1715.000000	99.458744 
1714.000000	99.459684 
1713.000000	99.462590 
1712.000000	99.462757 
1711.000000	99.461478 
1710.000000	99.462995 
1709.000000	99.467155 
1708.000000	99.469474 
1707.000000	99.467849 
1706.000000	99.465320 
1705.000000	99.463896 
1704.000000	99.461101 
1703.000000	99.455053 
1702.000000	99.448878 
1701.000000	99.446639 
1700.000000	99.445587 
1699.000000	99.443826 
1698.000000	99.443852 
1697.000000	99.445108 
1696.000000	99.445639 
1695.000000	99.444428 
1694.000000	99.442435 
1693.000000	99.441151 
1692.000000	99.441154 
1691.000000	99.443717 
1690.000000	99.448963 
1689.000000	99.454537 
1688.000000	99.457986 
1687.000000	99.458811 
1686.000000	99.459317 
1685.000000	99.460775 
1684.000000	99.462531 
1683.000000	99.466230 
1682.000000	99.470574 
1681.000000	99.472825 
1680.000000	99.474174 
1679.000000	99.475889 
1678.000000	99.478021 
1677.000000	99.481010 
1676.000000	99.485588 
1675.000000	99.490430 
1674.000000	99.493357 
1673.000000	99.494678 
1672.000000	99.495464 
1671.000000	99.495911 
1670.000000	99.495515 
1669.000000	99.495275 
1668.000000	99.497632 
1667.000000	99.502092 
1666.000000	99.505812 
1665.000000	99.507312 
1664.000000	99.507710 
1663.000000	99.509296 
1662.000000	99.512215 
1661.000000	99.514506 
1660.000000	99.515411 
1659.000000	99.515899 
1658.000000	99.516868 
1657.000000	99.518175 
1656.000000	99.519455 
1655.000000	99.520873 
1654.000000	99.522973 
1653.000000	99.524697 
1652.000000	99.525992 
1651.000000	99.527640 
1650.000000	99.528999 
1649.000000	99.529798 
1648.000000	99.530456 
1647.000000	99.531372 
1646.000000	99.532910 
1645.000000	99.535119 
1644.000000	99.537685 
1643.000000	99.540292 
1642.000000	99.542683 
1641.000000	99.544778 
1640.000000	99.546665 
1639.000000	99.548394 
1638.000000	99.549986 
1637.000000	99.551579 
1636.000000	99.553321 
1635.000000	99.555125 
1634.000000	99.556807 
1633.000000	99.558352 
1632.000000	99.559984 
1631.000000	99.561978 
1630.000000	99.564253 
1629.000000	99.566362 
1628.000000	99.568045 
1627.000000	99.569461 
1626.000000	99.570746 
1625.000000	99.571913 
1624.000000	99.573171 
1623.000000	99.574843 
1622.000000	99.576855 
1621.000000	99.578777 
1620.000000	99.580416 
1619.000000	99.581920 
1618.000000	99.583510 
1617.000000	99.585226 
1616.000000	99.587388 
1615.000000	99.590177 
1614.000000	99.592856 
1613.000000	99.594743 
1612.000000	99.595985 
1611.000000	99.596980 
1610.000000	99.597826 
1609.000000	99.598828 
1608.000000	99.600694 
1607.000000	99.603338 
1606.000000	99.605386 
1605.000000	99.606032 
1604.000000	99.606228 
1603.000000	99.607313 
1602.000000	99.609426 
1601.000000	99.611917 
1600.000000	99.614482 
1599.000000	99.616938 
1598.000000	99.618651 
1597.000000	99.619289 
1596.000000	99.619515 
1595.000000	99.620168 
1594.000000	99.621059 
1593.000000	99.621591 
1592.000000	99.622060 
1591.000000	99.623193 
1590.000000	99.624759 
1589.000000	99.625841 
1588.000000	99.626281 
1587.000000	99.626812 
1586.000000	99.627724 
1585.000000	99.628414 
1584.000000	99.628632 
1583.000000	99.628724 
1582.000000	99.628861 
1581.000000	99.629035 
1580.000000	99.629180 
1579.000000	99.628683 
1578.000000	99.626813 
1577.000000	99.624132 
1576.000000	99.622758 
1575.000000	99.624106 
1574.000000	99.626727 
1573.000000	99.628683 
1572.000000	99.629912 
1571.000000	99.631071 
1570.000000	99.631666 
1569.000000	99.631710 
1568.000000	99.632769 
1567.000000	99.634717 
1566.000000	99.635954 
1565.000000	99.635990 
1564.000000	99.635763 
1563.000000	99.635254 
1562.000000	99.633615 
1561.000000	99.631430 
1560.000000	99.631257 
1559.000000	99.630438 
1558.000000	99.627274 
1557.000000	99.624724 
1556.000000	99.624728 
1555.000000	99.628192 
1554.000000	99.633195 
1553.000000	99.636731 
1552.000000	99.638411 
1551.000000	99.639862 
1550.000000	99.642220 
1549.000000	99.645096 
1548.000000	99.648275 
1547.000000	99.652323 
1546.000000	99.656371 
1545.000000	99.657809 
1544.000000	99.655343 
1543.000000	99.650655 
1542.000000	99.646223 
1541.000000	99.642079 
1540.000000	99.637435 
1539.000000	99.634477 
1538.000000	99.633819 
1537.000000	99.633270 
1536.000000	99.631830 
1535.000000	99.630351 
1534.000000	99.629290 
1533.000000	99.627773 
1532.000000	99.625380 
1531.000000	99.622909 
1530.000000	99.621354 
1529.000000	99.620593 
1528.000000	99.619693 
1527.000000	99.618300 
1526.000000	99.616343 
1525.000000	99.613481 
1524.000000	99.610043 
1523.000000	99.607462 
1522.000000	99.606800 
1521.000000	99.606803 
1520.000000	99.605235 
1519.000000	99.602028 
1518.000000	99.598853 
1517.000000	99.596974 
1516.000000	99.596099 
1515.000000	99.594972 
1514.000000	99.593027 
1513.000000	99.590260 
1512.000000	99.586227 
1511.000000	99.580937 
1510.000000	99.575790 
1509.000000	99.572495 
1508.000000	99.572120 
1507.000000	99.574261 
1506.000000	99.576340 
1505.000000	99.575533 
1504.000000	99.572940 
1503.000000	99.570662 
1502.000000	99.569153 
1501.000000	99.567778 
1500.000000	99.565302 
1499.000000	99.561677 
1498.000000	99.558628 
1497.000000	99.557349 
1496.000000	99.556538 
1495.000000	99.555395 
1494.000000	99.554845 
1493.000000	99.555085 
1492.000000	99.555310 
1491.000000	99.555313 
1490.000000	99.555706 
1489.000000	99.555996 
1488.000000	99.554362 
1487.000000	99.551136 
1486.000000	99.547887 
1485.000000	99.544033 
1484.000000	99.538868 
1483.000000	99.533553 
1482.000000	99.529929 
1481.000000	99.528116 
1480.000000	99.526569 
1479.000000	99.524594 
1478.000000	99.522579 
1477.000000	99.520094 
1476.000000	99.516526 
1475.000000	99.513851 
1474.000000	99.515555 
1473.000000	99.522853 
1472.000000	99.532992 
1471.000000	99.542557 
1470.000000	99.550803 
1469.000000	99.557775 
1468.000000	99.562562 
1467.000000	99.564873 
1466.000000	99.566340 
1465.000000	99.569329 
1464.000000	99.574654 
1463.000000	99.580691 
1462.000000	99.585478 
1461.000000	99.587696 
1460.000000	99.586792 
1459.000000	99.583566 
1458.000000	99.580086 
1457.000000	99.576126 
1456.000000	99.568005 
1455.000000	99.555598 
1454.000000	99.544061 
1453.000000	99.537283 
1452.000000	99.534885 
1451.000000	99.534286 
1450.000000	99.535245 
1449.000000	99.540084 
1448.000000	99.548210 
1447.000000	99.555052 
1446.000000	99.557306 
1445.000000	99.556585 
1444.000000	99.555846 
1443.000000	99.555252 
1442.000000	99.553693 
1441.000000	99.551601 
1440.000000	99.550853 
1439.000000	99.553209 
1438.000000	99.560195 
1437.000000	99.570682 
1436.000000	99.578887 
1435.000000	99.580973 
1434.000000	99.580024 
1433.000000	99.580446 
1432.000000	99.583143 
1431.000000	99.585791 
1430.000000	99.586296 
1429.000000	99.584744 
1428.000000	99.581298 
1427.000000	99.575812 
1426.000000	99.568843 
1425.000000	99.561833 
1424.000000	99.555062 
1423.000000	99.546156 
1422.000000	99.533021 
1421.000000	99.516311 
1420.000000	99.497827 
1419.000000	99.478009 
1418.000000	99.456757 
1417.000000	99.434299 
1416.000000	99.410944 
1415.000000	99.387258 
1414.000000	99.363602 
1413.000000	99.340488 
1412.000000	99.319209 
1411.000000	99.300938 
1410.000000	99.285887 
1409.000000	99.274205 
1408.000000	99.267138 
1407.000000	99.266458 
1406.000000	99.272478 
1405.000000	99.284374 
1404.000000	99.301263 
1403.000000	99.321300 
1402.000000	99.342089 
1401.000000	99.362368 
1400.000000	99.381292 
1399.000000	99.394919 
1398.000000	99.395322 
1397.000000	99.376155 
1396.000000	99.340892 
1395.000000	99.308120 
1394.000000	99.301345 
1393.000000	99.327540 
1392.000000	99.372739 
1391.000000	99.416648 
1390.000000	99.447080 
1389.000000	99.462957 
1388.000000	99.468915 
1387.000000	99.469241 
1386.000000	99.466450 
1385.000000	99.463433 
1384.000000	99.463511 
1383.000000	99.467776 
1382.000000	99.474542 
1381.000000	99.482058 
1380.000000	99.490661 
1379.000000	99.501342 
1378.000000	99.513571 
1377.000000	99.526167 
1376.000000	99.539427 
1375.000000	99.554610 
1374.000000	99.571435 
1373.000000	99.587856 
1372.000000	99.602714 
1371.000000	99.617018 
1370.000000	99.631967 
1369.000000	99.647264 
1368.000000	99.661891 
1367.000000	99.675490 
1366.000000	99.688608 
1365.000000	99.701774 
1364.000000	99.714502 
1363.000000	99.725332 
1362.000000	99.733039 
1361.000000	99.737793 
1360.000000	99.741051 
1359.000000	99.744551 
1358.000000	99.749662 
1357.000000	99.757340 
1356.000000	99.767796 
1355.000000	99.779741 
1354.000000	99.790799 
1353.000000	99.799502 
1352.000000	99.806019 
1351.000000	99.811002 
1350.000000	99.814943 
1349.000000	99.818219 
1348.000000	99.820992 
1347.000000	99.823588 
1346.000000	99.826343 
1345.000000	99.828893 
1344.000000	99.830477 
1343.000000	99.831015 
1342.000000	99.831337 
1341.000000	99.832267 
1340.000000	99.833813 
1339.000000	99.835500 
1338.000000	99.837355 
1337.000000	99.839965 
1336.000000	99.843200 
1335.000000	99.845738 
1334.000000	99.846610 
1333.000000	99.846539 
1332.000000	99.846922 
1331.000000	99.848151 
1330.000000	99.849908 
1329.000000	99.852477 
1328.000000	99.856345 
1327.000000	99.860647 
1326.000000	99.863544 
1325.000000	99.864606 
1324.000000	99.865549 
1323.000000	99.867716 
1322.000000	99.870122 
1321.000000	99.871115 
1320.000000	99.871091 
1319.000000	99.872196 
1318.000000	99.875555 
1317.000000	99.880239 
1316.000000	99.885065 
1315.000000	99.889942 
1314.000000	99.894829 
1313.000000	99.898466 
1312.000000	99.899351 
1311.000000	99.897921 
1310.000000	99.896913 
1309.000000	99.898978 
1308.000000	99.904103 
1307.000000	99.909643 
1306.000000	99.912817 
1305.000000	99.912933 
1304.000000	99.911403 
1303.000000	99.910192 
1302.000000	99.910625 
1301.000000	99.912962 
1300.000000	99.916266 
1299.000000	99.918852 
1298.000000	99.919659 
1297.000000	99.919215 
1296.000000	99.918822 
1295.000000	99.919115 
1294.000000	99.919967 
1293.000000	99.921223 
1292.000000	99.922412 
1291.000000	99.922071 
1290.000000	99.918926 
1289.000000	99.913943 
1288.000000	99.909843 
1287.000000	99.908124 
1286.000000	99.907852 
1285.000000	99.907774 
1284.000000	99.907969 
1283.000000	99.908829 
1282.000000	99.909712 
1281.000000	99.909688 
1280.000000	99.909046 
1279.000000	99.908519 
1278.000000	99.907458 
1277.000000	99.904398 
1276.000000	99.898975 
1275.000000	99.892063 
1274.000000	99.884251 
1273.000000	99.875337 
1272.000000	99.865298 
1271.000000	99.854769 
1270.000000	99.844347 
1269.000000	99.834107 
1268.000000	99.823803 
1267.000000	99.812920 
1266.000000	99.800697 
1265.000000	99.786965 
1264.000000	99.772854 
1263.000000	99.759830 
1262.000000	99.748232 
1261.000000	99.737690 
1260.000000	99.728662 
1259.000000	99.722012 
1258.000000	99.717037 
1257.000000	99.711626 
1256.000000	99.704829 
1255.000000	99.697753 
1254.000000	99.691297 
1253.000000	99.684721 
1252.000000	99.677854 
1251.000000	99.673389 
1250.000000	99.675056 
1249.000000	99.683993 
1248.000000	99.698250 
1247.000000	99.714769 
1246.000000	99.729673 
1245.000000	99.737339 
1244.000000	99.733195 
1243.000000	99.720042 
1242.000000	99.709600 
1241.000000	99.713359 
1240.000000	99.731529 
1239.000000	99.752415 
1238.000000	99.763610 
1237.000000	99.762602 
1236.000000	99.755197 
1235.000000	99.747016 
1234.000000	99.739162 
1233.000000	99.731245 
1232.000000	99.724736 
1231.000000	99.721574 
1230.000000	99.721496 
1229.000000	99.722669 
1228.000000	99.724154 
1227.000000	99.726281 
1226.000000	99.729154 
1225.000000	99.732139 
1224.000000	99.734743 
1223.000000	99.737055 
1222.000000	99.739332 
1221.000000	99.741790 
1220.000000	99.744547 
1219.000000	99.747107 
1218.000000	99.748205 
1217.000000	99.747039 
1216.000000	99.744462 
1215.000000	99.742091 
1214.000000	99.740203 
1213.000000	99.737373 
1212.000000	99.732357 
1211.000000	99.725496 
1210.000000	99.717963 
1209.000000	99.710325 
1208.000000	99.702403 
1207.000000	99.694095 
1206.000000	99.685544 
1205.000000	99.676427 
1204.000000	99.665788 
1203.000000	99.653396 
1202.000000	99.641288 
1201.000000	99.632927 
1200.000000	99.629780 
1199.000000	99.629113 
1198.000000	99.626223 
1197.000000	99.619212 
1196.000000	99.610251 
1195.000000	99.602065 
1194.000000	99.595156 
1193.000000	99.588731 
1192.000000	99.582566 
1191.000000	99.576683 
1190.000000	99.570496 
1189.000000	99.563691 
1188.000000	99.556906 
1187.000000	99.550137 
1186.000000	99.541538 
1185.000000	99.529650 
1184.000000	99.516193 
1183.000000	99.504750 
1182.000000	99.496723 
1181.000000	99.490165 
1180.000000	99.482632 
1179.000000	99.473611 
1178.000000	99.463849 
1177.000000	99.453598 
1176.000000	99.442062 
1175.000000	99.427851 
1174.000000	99.409900 
1173.000000	99.388788 
1172.000000	99.367279 
1171.000000	99.348718 
1170.000000	99.334495 
1169.000000	99.323337 
1168.000000	99.312608 
1167.000000	99.299672 
1166.000000	99.283009 
1165.000000	99.263850 
1164.000000	99.246627 
1163.000000	99.235933 
1162.000000	99.232332 
1161.000000	99.232066 
1160.000000	99.230948 
1159.000000	99.227302 
1158.000000	99.221047 
1157.000000	99.211778 
1156.000000	99.198532 
1155.000000	99.180366 
1154.000000	99.156796 
1153.000000	99.128879 
1152.000000	99.100181 
1151.000000	99.075165 
1150.000000	99.055587 
1149.000000	99.039279 
1148.000000	99.022778 
1147.000000	99.004129 
1146.000000	98.983215 
1145.000000	98.961184 
1144.000000	98.940413 
1143.000000	98.923658 
1142.000000	98.912031 
1141.000000	98.904236 
1140.000000	98.897878 
1139.000000	98.890518 
1138.000000	98.879773 
1137.000000	98.864305 
1136.000000	98.845478 
1135.000000	98.826674 
1134.000000	98.809954 
1133.000000	98.794150 
1132.000000	98.776669 
1131.000000	98.756126 
1130.000000	98.732913 
1129.000000	98.708229 
1128.000000	98.682922 
1127.000000	98.656362 
1126.000000	98.626667 
1125.000000	98.593349 
1124.000000	98.559425 
1123.000000	98.528998 
1122.000000	98.502559 
1121.000000	98.476527 
1120.000000	98.447494 
1119.000000	98.414896 
1118.000000	98.379565 
1117.000000	98.342227 
1116.000000	98.304084 
1115.000000	98.266651 
1114.000000	98.230035 
1113.000000	98.193188 
1112.000000	98.156429 
1111.000000	98.121583 
1110.000000	98.089028 
1109.000000	98.057218 
1108.000000	98.025668 
1107.000000	97.995886 
1106.000000	97.968593 
1105.000000	97.942315 
1104.000000	97.915673 
1103.000000	97.889150 
1102.000000	97.863737 
1101.000000	97.839667 
1100.000000	97.817308 
1099.000000	97.797482 
1098.000000	97.779905 
1097.000000	97.762648 
1096.000000	97.743610 
1095.000000	97.720783 
1094.000000	97.690731 
1093.000000	97.649295 
1092.000000	97.595485 
1091.000000	97.533890 
1090.000000	97.472176 
1089.000000	97.416173 
1088.000000	97.367009 
1087.000000	97.321365 
1086.000000	97.274077 
1085.000000	97.221991 
1084.000000	97.165830 
1083.000000	97.107876 
1082.000000	97.049094 
1081.000000	96.990404 
1080.000000	96.935276 
1079.000000	96.887827 
1078.000000	96.849023 
1077.000000	96.818057 
1076.000000	96.796290 
1075.000000	96.785546 
1074.000000	96.783447 
1073.000000	96.785143 
1072.000000	96.787832 
1071.000000	96.786542 
1070.000000	96.766747 
1069.000000	96.712694 
1068.000000	96.629495 
1067.000000	96.550129 
1066.000000	96.510756 
1065.000000	96.520881 
1064.000000	96.560865 
1063.000000	96.601480 
1062.000000	96.621004 
1061.000000	96.608676 
1060.000000	96.565304 
1059.000000	96.506681 
1058.000000	96.458205 
1057.000000	96.436857 
1056.000000	96.438599 
1055.000000	96.445436 
1054.000000	96.443866 
1053.000000	96.435064 
1052.000000	96.428809 
1051.000000	96.431687 
1050.000000	96.442558 
1049.000000	96.456571 
1048.000000	96.470163 
1047.000000	96.482214 
1046.000000	96.493231 
1045.000000	96.505132 
1044.000000	96.520975 
1043.000000	96.543127 
1042.000000	96.570607 
1041.000000	96.598398 
1040.000000	96.620946 
1039.000000	96.638250 
1038.000000	96.658414 
1037.000000	96.691452 
1036.000000	96.739114 
1035.000000	96.792710 
1034.000000	96.842426 
1033.000000	96.885353 
1032.000000	96.920352 
1031.000000	96.939593 
1030.000000	96.934786 
1029.000000	96.913667 
1028.000000	96.902114 
1027.000000	96.922357 
1026.000000	96.972075 
1025.000000	97.029071 
1024.000000	97.073927 
1023.000000	97.103130 
1022.000000	97.123150 
1021.000000	97.139775 
1020.000000	97.154760 
1019.000000	97.168188 
1018.000000	97.180462 
1017.000000	97.193097 
1016.000000	97.208611 
1015.000000	97.228651 
1014.000000	97.252219 
1013.000000	97.276950 
1012.000000	97.301688 
1011.000000	97.326393 
1010.000000	97.350622 
1009.000000	97.374056 
1008.000000	97.397757 
1007.000000	97.423122 
1006.000000	97.450114 
1005.000000	97.477749 
1004.000000	97.505516 
1003.000000	97.533134 
1002.000000	97.559816 
1001.000000	97.585046 
1000.000000	97.609574 
999.000000	 97.634685 
998.000000	 97.660687 
997.000000	 97.686725 
996.000000	 97.712078 
995.000000	 97.737015 
994.000000	 97.762033 
993.000000	 97.786950 
992.000000	 97.811450 
991.000000	 97.835911 
990.000000	 97.860592 
989.000000	 97.884733 
988.000000	 97.907892 
987.000000	 97.931377 
986.000000	 97.956394 
985.000000	 97.981708 
984.000000	 98.005119 
983.000000	 98.026516 
982.000000	 98.047228 
981.000000	 98.067826 
980.000000	 98.088254 
979.000000	 98.108972 
978.000000	 98.130856 
977.000000	 98.154680 
976.000000	 98.181166 
975.000000	 98.210328 
974.000000	 98.240479 
973.000000	 98.269611 
972.000000	 98.298236 
971.000000	 98.328938 
970.000000	 98.362278 
969.000000	 98.394951 
968.000000	 98.423220 
967.000000	 98.446985 
966.000000	 98.469698 
965.000000	 98.495182 
964.000000	 98.524651 
963.000000	 98.555399 
962.000000	 98.582269 
961.000000	 98.602217 
960.000000	 98.617835 
959.000000	 98.634636 
958.000000	 98.654353 
957.000000	 98.673445 
956.000000	 98.689369 
955.000000	 98.705410 
954.000000	 98.726730 
953.000000	 98.753010 
952.000000	 98.777825 
951.000000	 98.795259 
950.000000	 98.805592 
949.000000	 98.814802 
948.000000	 98.829326 
947.000000	 98.850621 
946.000000	 98.873740 
945.000000	 98.891561 
944.000000	 98.901345 
943.000000	 98.907111 
942.000000	 98.915327 
941.000000	 98.928677 
940.000000	 98.944652 
939.000000	 98.959346 
938.000000	 98.971388 
937.000000	 98.982303 
936.000000	 98.994048 
935.000000	 99.006681 
934.000000	 99.018457 
933.000000	 99.028177 
932.000000	 99.036784 
931.000000	 99.046052 
930.000000	 99.056198 
929.000000	 99.065857 
928.000000	 99.074615 
927.000000	 99.084218 
926.000000	 99.096308 
925.000000	 99.109722 
924.000000	 99.121348 
923.000000	 99.129538 
922.000000	 99.135572 
921.000000	 99.141530 
920.000000	 99.147458 
919.000000	 99.151474 
918.000000	 99.152601 
917.000000	 99.152359 
916.000000	 99.153272 
915.000000	 99.156802 
914.000000	 99.163114 
913.000000	 99.171532 
912.000000	 99.180024 
911.000000	 99.185331 
910.000000	 99.185813 
909.000000	 99.184063 
908.000000	 99.184592 
907.000000	 99.188379 
906.000000	 99.191668 
905.000000	 99.191121 
904.000000	 99.188573 
903.000000	 99.189434 
902.000000	 99.197466 
901.000000	 99.212160 
900.000000	 99.229852 
899.000000	 99.246419 
898.000000	 99.259873 
897.000000	 99.271122 
896.000000	 99.281411 
895.000000	 99.289335 
894.000000	 99.292574 
893.000000	 99.293058 
892.000000	 99.297467 
891.000000	 99.310418 
890.000000	 99.329286 
889.000000	 99.347437 
888.000000	 99.361413 
887.000000	 99.372379 
886.000000	 99.382064 
885.000000	 99.390768 
884.000000	 99.398614 
883.000000	 99.405314 
882.000000	 99.408849 
881.000000	 99.408225 
880.000000	 99.408135 
879.000000	 99.416349 
878.000000	 99.434778 
877.000000	 99.456411 
876.000000	 99.473370 
875.000000	 99.485320 
874.000000	 99.496224 
873.000000	 99.506620 
872.000000	 99.514091 
871.000000	 99.519651 
870.000000	 99.528324 
869.000000	 99.542956 
868.000000	 99.561114 
867.000000	 99.578878 
866.000000	 99.595378 
865.000000	 99.612422 
864.000000	 99.630996 
863.000000	 99.649185 
862.000000	 99.663689 
861.000000	 99.673687 
860.000000	 99.682743 
859.000000	 99.695455 
858.000000	 99.712293 
857.000000	 99.729975 
856.000000	 99.747088 
855.000000	 99.765904 
854.000000	 99.787135 
853.000000	 99.806319 
852.000000	 99.818439 
851.000000	 99.823931 
850.000000	 99.827529 
849.000000	 99.833272 
848.000000	 99.843225 
847.000000	 99.858507 
846.000000	 99.877458 
845.000000	 99.893979 
844.000000	 99.901816 
843.000000	 99.901052 
842.000000	 99.898238 
841.000000	 99.899898 
840.000000	 99.907343 
839.000000	 99.917203 
838.000000	 99.924960 
837.000000	 99.928114 
836.000000	 99.927420 
835.000000	 99.925253 
834.000000	 99.922566 
833.000000	 99.918965 
832.000000	 99.916181 
831.000000	 99.918092 
830.000000	 99.924692 
829.000000	 99.929028 
828.000000	 99.924703 
827.000000	 99.915387 
826.000000	 99.912164 
825.000000	 99.920782 
824.000000	 99.935399 
823.000000	 99.945599 
822.000000	 99.945675 
821.000000	 99.936622 
820.000000	 99.923808 
819.000000	 99.914142 
818.000000	 99.911454 
817.000000	 99.912315 
816.000000	 99.908601 
815.000000	 99.895880 
814.000000	 99.877603 
813.000000	 99.859184 
812.000000	 99.839174 
811.000000	 99.808725 
810.000000	 99.760035 
809.000000	 99.694008 
808.000000	 99.619156 
807.000000	 99.543515 
806.000000	 99.468486 
805.000000	 99.391200 
804.000000	 99.311963 
803.000000	 99.237088 
802.000000	 99.173969 
801.000000	 99.125874 
800.000000	 99.092573 
799.000000	 99.072941 
798.000000	 99.064813 
797.000000	 99.064901 
796.000000	 99.071443 
795.000000	 99.085318 
794.000000	 99.106751 
793.000000	 99.132788 
792.000000	 99.159505 
791.000000	 99.184175 
790.000000	 99.203356 
789.000000	 99.211878 
788.000000	 99.207065 
787.000000	 99.192053 
786.000000	 99.171441 
785.000000	 99.144923 
784.000000	 99.109157 
783.000000	 99.065622 
782.000000	 99.022892 
781.000000	 98.990518 
780.000000	 98.973174 
779.000000	 98.970401 
778.000000	 98.979278 
777.000000	 98.997439 
776.000000	 99.025086 
775.000000	 99.062874 
774.000000	 99.106151 
773.000000	 99.144020 
772.000000	 99.168380 
771.000000	 99.182888 
770.000000	 99.198705 
769.000000	 99.221783 
768.000000	 99.248747 
767.000000	 99.274909 
766.000000	 99.300218 
765.000000	 99.325176 
764.000000	 99.346613 
763.000000	 99.362083 
762.000000	 99.375034 
761.000000	 99.390863 
760.000000	 99.409643 
759.000000	 99.426904 
758.000000	 99.440602 
757.000000	 99.453600 
756.000000	 99.469688 
755.000000	 99.490367 
754.000000	 99.515061 
753.000000	 99.541127 
752.000000	 99.563525 
751.000000	 99.577460 
750.000000	 99.582624 
749.000000	 99.583902 
748.000000	 99.587655 
747.000000	 99.597549 
746.000000	 99.612617 
745.000000	 99.627623 
744.000000	 99.636562 
743.000000	 99.638198 
742.000000	 99.637482 
741.000000	 99.639721 
740.000000	 99.645077 
739.000000	 99.651459 
738.000000	 99.660295 
737.000000	 99.674729 
736.000000	 99.692866 
735.000000	 99.707993 
734.000000	 99.716272 
733.000000	 99.720009 
732.000000	 99.722489 
731.000000	 99.723485 
730.000000	 99.721612 
729.000000	 99.717342 
728.000000	 99.713351 
727.000000	 99.713478 
726.000000	 99.720372 
725.000000	 99.733344 
724.000000	 99.748112 
723.000000	 99.760180 
722.000000	 99.769307 
721.000000	 99.778800 
720.000000	 99.789571 
719.000000	 99.796796 
718.000000	 99.794705 
717.000000	 99.784226 
716.000000	 99.773499 
715.000000	 99.771027 
714.000000	 99.779245 
713.000000	 99.793961 
712.000000	 99.809420 
711.000000	 99.822369 
710.000000	 99.832107 
709.000000	 99.839746 
708.000000	 99.844620 
707.000000	 99.846038 
706.000000	 99.844484 
705.000000	 99.840391 
704.000000	 99.834217 
703.000000	 99.826752 
702.000000	 99.819313 
701.000000	 99.812167 
700.000000	 99.802496 
699.000000	 99.787088 
698.000000	 99.765744 
697.000000	 99.742249 
696.000000	 99.722828 
695.000000	 99.712571 
694.000000	 99.714238 
693.000000	 99.727157 
692.000000	 99.746260 
691.000000	 99.766246 
690.000000	 99.785692 
689.000000	 99.806164 
688.000000	 99.827565 
687.000000	 99.846076 
686.000000	 99.858639 
685.000000	 99.865514 
684.000000	 99.867310 
683.000000	 99.864220 
682.000000	 99.858684 
681.000000	 99.855188 
680.000000	 99.855535 
679.000000	 99.857722 
678.000000	 99.860029 
677.000000	 99.862032 
676.000000	 99.864103 
675.000000	 99.866527 
674.000000	 99.870127 
673.000000	 99.876732 
672.000000	 99.888679 
671.000000	 99.908097 
670.000000	 99.937251 
669.000000	 99.970642 
668.000000	 99.982792 
667.000000	 99.963126 
666.000000	 99.934595 
665.000000	 99.913923 
664.000000	 99.902614 
663.000000	 99.900222 
662.000000	 99.904268 
661.000000	 99.910248 
660.000000	 99.915365 
659.000000	 99.919746 
658.000000	 99.922727 
657.000000	 99.921763 
656.000000	 99.917721 
655.000000	 99.915855 
654.000000	 99.919158 
653.000000	 99.925676 
652.000000	 99.932737 
651.000000	 99.938188 
650.000000	 99.938710 

