4000.000000	99.908289 
3999.000000	99.907466 
3998.000000	99.907265 
3997.000000	99.907738 
3996.000000	99.908568 
3995.000000	99.909249 
3994.000000	99.909551 
3993.000000	99.909607 
3992.000000	99.909635 
3991.000000	99.909671 
3990.000000	99.909621 
3989.000000	99.909490 
3988.000000	99.909380 
3987.000000	99.909237 
3986.000000	99.908777 
3985.000000	99.907814 
3984.000000	99.906588 
3983.000000	99.905628 
3982.000000	99.905262 
3981.000000	99.905349 
3980.000000	99.905480 
3979.000000	99.905434 
3978.000000	99.905361 
3977.000000	99.905536 
3976.000000	99.906012 
3975.000000	99.906538 
3974.000000	99.906783 
3973.000000	99.906592 
3972.000000	99.906037 
3971.000000	99.905321 
3970.000000	99.904650 
3969.000000	99.904142 
3968.000000	99.903852 
3967.000000	99.903831 
3966.000000	99.904106 
3965.000000	99.904592 
3964.000000	99.905065 
3963.000000	99.905278 
3962.000000	99.905138 
3961.000000	99.904763 
3960.000000	99.904367 
3959.000000	99.904107 
3958.000000	99.904010 
3957.000000	99.904005 
3956.000000	99.903989 
3955.000000	99.903861 
3954.000000	99.903566 
3953.000000	99.903124 
3952.000000	99.902631 
3951.000000	99.902220 
3950.000000	99.901987 
3949.000000	99.901931 
3948.000000	99.901959 
3947.000000	99.901939 
3946.000000	99.901776 
3945.000000	99.901463 
3944.000000	99.901086 
3943.000000	99.900790 
3942.000000	99.900677 
3941.000000	99.900715 
3940.000000	99.900742 
3939.000000	99.900607 
3938.000000	99.900286 
3937.000000	99.899870 
3936.000000	99.899468 
3935.000000	99.899151 
3934.000000	99.898964 
3933.000000	99.898963 
3932.000000	99.899184 
3931.000000	99.899554 
3930.000000	99.899857 
3929.000000	99.899828 
3928.000000	99.899336 
3927.000000	99.898459 
3926.000000	99.897463 
3925.000000	99.896640 
3924.000000	99.896129 
3923.000000	99.895875 
3922.000000	99.895702 
3921.000000	99.895440 
3920.000000	99.895027 
3919.000000	99.894517 
3918.000000	99.893998 
3917.000000	99.893513 
3916.000000	99.893062 
3915.000000	99.892644 
3914.000000	99.892273 
3913.000000	99.891962 
3912.000000	99.891699 
3911.000000	99.891446 
3910.000000	99.891151 
3909.000000	99.890775 
3908.000000	99.890313 
3907.000000	99.889801 
3906.000000	99.889292 
3905.000000	99.888821 
3904.000000	99.888396 
3903.000000	99.888006 
3902.000000	99.887631 
3901.000000	99.887251 
3900.000000	99.886849 
3899.000000	99.886418 
3898.000000	99.885963 
3897.000000	99.885492 
3896.000000	99.885019 
3895.000000	99.884556 
3894.000000	99.884108 
3893.000000	99.883671 
3892.000000	99.883237 
3891.000000	99.882795 
3890.000000	99.882342 
3889.000000	99.881880 
3888.000000	99.881420 
3887.000000	99.880971 
3886.000000	99.880536 
3885.000000	99.880112 
3884.000000	99.879692 
3883.000000	99.879269 
3882.000000	99.878846 
3881.000000	99.878436 
3880.000000	99.878034 
3879.000000	99.877610 
3878.000000	99.877147 
3877.000000	99.876669 
3876.000000	99.876226 
3875.000000	99.875824 
3874.000000	99.875392 
3873.000000	99.874860 
3872.000000	99.874257 
3871.000000	99.873722 
3870.000000	99.873366 
3869.000000	99.873142 
3868.000000	99.872901 
3867.000000	99.872599 
3866.000000	99.872354 
3865.000000	99.872274 
3864.000000	99.872298 
3863.000000	99.872205 
3862.000000	99.871808 
3861.000000	99.871088 
3860.000000	99.870165 
3859.000000	99.869146 
3858.000000	99.868109 
3857.000000	99.867251 
3856.000000	99.866905 
3855.000000	99.867241 
3854.000000	99.867897 
3853.000000	99.868310 
3852.000000	99.868321 
3851.000000	99.867990 
3850.000000	99.867489 
3849.000000	99.867058 
3848.000000	99.866801 
3847.000000	99.866634 
3846.000000	99.866359 
3845.000000	99.865850 
3844.000000	99.865192 
3843.000000	99.864580 
3842.000000	99.864138 
3841.000000	99.863872 
3840.000000	99.863722 
3839.000000	99.863655 
3838.000000	99.863735 
3837.000000	99.863996 
3836.000000	99.864276 
3835.000000	99.864297 
3834.000000	99.863936 
3833.000000	99.863350 
3832.000000	99.862813 
3831.000000	99.862465 
3830.000000	99.862228 
3829.000000	99.861974 
3828.000000	99.861713 
3827.000000	99.861541 
3826.000000	99.861463 
3825.000000	99.861373 
3824.000000	99.861183 
3823.000000	99.860822 
3822.000000	99.860167 
3821.000000	99.859228 
3820.000000	99.858254 
3819.000000	99.857467 
3818.000000	99.856992 
3817.000000	99.856874 
3816.000000	99.856922 
3815.000000	99.856784 
3814.000000	99.856281 
3813.000000	99.855506 
3812.000000	99.854689 
3811.000000	99.854027 
3810.000000	99.853613 
3809.000000	99.853451 
3808.000000	99.853453 
3807.000000	99.853425 
3806.000000	99.853145 
3805.000000	99.852493 
3804.000000	99.851550 
3803.000000	99.850604 
3802.000000	99.849930 
3801.000000	99.849574 
3800.000000	99.849373 
3799.000000	99.849163 
3798.000000	99.848974 
3797.000000	99.848905 
3796.000000	99.848879 
3795.000000	99.848697 
3794.000000	99.848274 
3793.000000	99.847756 
3792.000000	99.847380 
3791.000000	99.847222 
3790.000000	99.847141 
3789.000000	99.846979 
3788.000000	99.846712 
3787.000000	99.846366 
3786.000000	99.845932 
3785.000000	99.845443 
3784.000000	99.845040 
3783.000000	99.844826 
3782.000000	99.844690 
3781.000000	99.844359 
3780.000000	99.843708 
3779.000000	99.842967 
3778.000000	99.842502 
3777.000000	99.842454 
3776.000000	99.842826 
3775.000000	99.843507 
3774.000000	99.844069 
3773.000000	99.843801 
3772.000000	99.842208 
3771.000000	99.839559 
3770.000000	99.837015 
3769.000000	99.835935 
3768.000000	99.836840 
3767.000000	99.839398 
3766.000000	99.842928 
3765.000000	99.846271 
3764.000000	99.847895 
3763.000000	99.846873 
3762.000000	99.843706 
3761.000000	99.839950 
3760.000000	99.837033 
3759.000000	99.835252 
3758.000000	99.833529 
3757.000000	99.830408 
3756.000000	99.825757 
3755.000000	99.821075 
3754.000000	99.818059 
3753.000000	99.817186 
3752.000000	99.817735 
3751.000000	99.819314 
3750.000000	99.822228 
3749.000000	99.825586 
3748.000000	99.827722 
3747.000000	99.828835 
3746.000000	99.830676 
3745.000000	99.833788 
3744.000000	99.836712 
3743.000000	99.837943 
3742.000000	99.837700 
3741.000000	99.837612 
3740.000000	99.838981 
3739.000000	99.841681 
3738.000000	99.844312 
3737.000000	99.845415 
3736.000000	99.845285 
3735.000000	99.845890 
3734.000000	99.848203 
3733.000000	99.850797 
3732.000000	99.851634 
3731.000000	99.849629 
3730.000000	99.844572 
3729.000000	99.837507 
3728.000000	99.831127 
3727.000000	99.828305 
3726.000000	99.829303 
3725.000000	99.830955 
3724.000000	99.829444 
3723.000000	99.823724 
3722.000000	99.816121 
3721.000000	99.809814 
3720.000000	99.806057 
3719.000000	99.804063 
3718.000000	99.802263 
3717.000000	99.798997 
3716.000000	99.793278 
3715.000000	99.785038 
3714.000000	99.774664 
3713.000000	99.762575 
3712.000000	99.749522 
3711.000000	99.737223 
3710.000000	99.727449 
3709.000000	99.720918 
3708.000000	99.717026 
3707.000000	99.713700 
3706.000000	99.708234 
3705.000000	99.698935 
3704.000000	99.686112 
3703.000000	99.671541 
3702.000000	99.657172 
3701.000000	99.644175 
3700.000000	99.632655 
3699.000000	99.622110 
3698.000000	99.611843 
3697.000000	99.600893 
3696.000000	99.588777 
3695.000000	99.576413 
3694.000000	99.565550 
3693.000000	99.557230 
3692.000000	99.551037 
3691.000000	99.546037 
3690.000000	99.541897 
3689.000000	99.538760 
3688.000000	99.535805 
3687.000000	99.531195 
3686.000000	99.524529 
3685.000000	99.517669 
3684.000000	99.513061 
3683.000000	99.511842 
3682.000000	99.512904 
3681.000000	99.513051 
3680.000000	99.508497 
3679.000000	99.497430 
3678.000000	99.481735 
3677.000000	99.466471 
3676.000000	99.456549 
3675.000000	99.453052 
3674.000000	99.452528 
3673.000000	99.451182 
3672.000000	99.448777 
3671.000000	99.446830 
3670.000000	99.445384 
3669.000000	99.443100 
3668.000000	99.438810 
3667.000000	99.432119 
3666.000000	99.423592 
3665.000000	99.414449 
3664.000000	99.406142 
3663.000000	99.399986 
3662.000000	99.396353 
3661.000000	99.394457 
3660.000000	99.393371 
3659.000000	99.393082 
3658.000000	99.394058 
3657.000000	99.395924 
3656.000000	99.397247 
3655.000000	99.397067 
3654.000000	99.395988 
3653.000000	99.395602 
3652.000000	99.396884 
3651.000000	99.398677 
3650.000000	99.398277 
3649.000000	99.394418 
3648.000000	99.388806 
3647.000000	99.383980 
3646.000000	99.381278 
3645.000000	99.380658 
3644.000000	99.381145 
3643.000000	99.381715 
3642.000000	99.382099 
3641.000000	99.382944 
3640.000000	99.384953 
3639.000000	99.387855 
3638.000000	99.390517 
3637.000000	99.392003 
3636.000000	99.392236 
3635.000000	99.391640 
3634.000000	99.390395 
3633.000000	99.388338 
3632.000000	99.385202 
3631.000000	99.380522 
3630.000000	99.373803 
3629.000000	99.366040 
3628.000000	99.359998 
3627.000000	99.356813 
3626.000000	99.355307 
3625.000000	99.354712 
3624.000000	99.355318 
3623.000000	99.357432 
3622.000000	99.360580 
3621.000000	99.363220 
3620.000000	99.363700 
3619.000000	99.362191 
3618.000000	99.360940 
3617.000000	99.362037 
3616.000000	99.366124 
3615.000000	99.372442 
3614.000000	99.379067 
3613.000000	99.383843 
3612.000000	99.385863 
3611.000000	99.386155 
3610.000000	99.386991 
3609.000000	99.390346 
3608.000000	99.396296 
3607.000000	99.402937 
3606.000000	99.407971 
3605.000000	99.410352 
3604.000000	99.410503 
3603.000000	99.409534 
3602.000000	99.408686 
3601.000000	99.408998 
3600.000000	99.410833 
3599.000000	99.413646 
3598.000000	99.416373 
3597.000000	99.418432 
3596.000000	99.420233 
3595.000000	99.422412 
3594.000000	99.424683 
3593.000000	99.425942 
3592.000000	99.425643 
3591.000000	99.424925 
3590.000000	99.425942 
3589.000000	99.429835 
3588.000000	99.435119 
3587.000000	99.438785 
3586.000000	99.439155 
3585.000000	99.436963 
3584.000000	99.434250 
3583.000000	99.432741 
3582.000000	99.433037 
3581.000000	99.434718 
3580.000000	99.436679 
3579.000000	99.437666 
3578.000000	99.436935 
3577.000000	99.434736 
3576.000000	99.432094 
3575.000000	99.430030 
3574.000000	99.428892 
3573.000000	99.428421 
3572.000000	99.428212 
3571.000000	99.428129 
3570.000000	99.428328 
3569.000000	99.428906 
3568.000000	99.429573 
3567.000000	99.429925 
3566.000000	99.429904 
3565.000000	99.429820 
3564.000000	99.430100 
3563.000000	99.430973 
3562.000000	99.432160 
3561.000000	99.432955 
3560.000000	99.432712 
3559.000000	99.431415 
3558.000000	99.429751 
3557.000000	99.428463 
3556.000000	99.427579 
3555.000000	99.426433 
3554.000000	99.424512 
3553.000000	99.422182 
3552.000000	99.420396 
3551.000000	99.419711 
3550.000000	99.419952 
3549.000000	99.420745 
3548.000000	99.421969 
3547.000000	99.423520 
3546.000000	99.424878 
3545.000000	99.425317 
3544.000000	99.424575 
3543.000000	99.423110 
3542.000000	99.421727 
3541.000000	99.421004 
3540.000000	99.421082 
3539.000000	99.421846 
3538.000000	99.423129 
3537.000000	99.424658 
3536.000000	99.425989 
3535.000000	99.426665 
3534.000000	99.426507 
3533.000000	99.425710 
3532.000000	99.424671 
3531.000000	99.423757 
3530.000000	99.423208 
3529.000000	99.423166 
3528.000000	99.423698 
3527.000000	99.424770 
3526.000000	99.426232 
3525.000000	99.427827 
3524.000000	99.429228 
3523.000000	99.430156 
3522.000000	99.430524 
3521.000000	99.430438 
3520.000000	99.430083 
3519.000000	99.429636 
3518.000000	99.429326 
3517.000000	99.429447 
3516.000000	99.430190 
3515.000000	99.431448 
3514.000000	99.432843 
3513.000000	99.433980 
3512.000000	99.434678 
3511.000000	99.435004 
3510.000000	99.435184 
3509.000000	99.435461 
3508.000000	99.435947 
3507.000000	99.436557 
3506.000000	99.437116 
3505.000000	99.437513 
3504.000000	99.437808 
3503.000000	99.438231 
3502.000000	99.439031 
3501.000000	99.440203 
3500.000000	99.441274 
3499.000000	99.441486 
3498.000000	99.440409 
3497.000000	99.438494 
3496.000000	99.436973 
3495.000000	99.436860 
3494.000000	99.438228 
3493.000000	99.440398 
3492.000000	99.442647 
3491.000000	99.444648 
3490.000000	99.446281 
3489.000000	99.447385 
3488.000000	99.447862 
3487.000000	99.447856 
3486.000000	99.447571 
3485.000000	99.446958 
3484.000000	99.445857 
3483.000000	99.444475 
3482.000000	99.443485 
3481.000000	99.443387 
3480.000000	99.443821 
3479.000000	99.443806 
3478.000000	99.442768 
3477.000000	99.441099 
3476.000000	99.439675 
3475.000000	99.439009 
3474.000000	99.439054 
3473.000000	99.439628 
3472.000000	99.440650 
3471.000000	99.441915 
3470.000000	99.442940 
3469.000000	99.443288 
3468.000000	99.442898 
3467.000000	99.441935 
3466.000000	99.440363 
3465.000000	99.437919 
3464.000000	99.434624 
3463.000000	99.431221 
3462.000000	99.428829 
3461.000000	99.427990 
3460.000000	99.428197 
3459.000000	99.428468 
3458.000000	99.428415 
3457.000000	99.428483 
3456.000000	99.429093 
3455.000000	99.429867 
3454.000000	99.429951 
3453.000000	99.428906 
3452.000000	99.427080 
3451.000000	99.425332 
3450.000000	99.424490 
3449.000000	99.424910 
3448.000000	99.426220 
3447.000000	99.427455 
3446.000000	99.427756 
3445.000000	99.427005 
3444.000000	99.425772 
3443.000000	99.424780 
3442.000000	99.424413 
3441.000000	99.424484 
3440.000000	99.424328 
3439.000000	99.423274 
3438.000000	99.421233 
3437.000000	99.418739 
3436.000000	99.416327 
3435.000000	99.414085 
3434.000000	99.411978 
3433.000000	99.410296 
3432.000000	99.409405 
3431.000000	99.409171 
3430.000000	99.409026 
3429.000000	99.408598 
3428.000000	99.407963 
3427.000000	99.407304 
3426.000000	99.406616 
3425.000000	99.405855 
3424.000000	99.405099 
3423.000000	99.404438 
3422.000000	99.403810 
3421.000000	99.403044 
3420.000000	99.402002 
3419.000000	99.400706 
3418.000000	99.399430 
3417.000000	99.398607 
3416.000000	99.398452 
3415.000000	99.398653 
3414.000000	99.398524 
3413.000000	99.397651 
3412.000000	99.396258 
3411.000000	99.394982 
3410.000000	99.394292 
3409.000000	99.394173 
3408.000000	99.394219 
3407.000000	99.393946 
3406.000000	99.393163 
3405.000000	99.392160 
3404.000000	99.391486 
3403.000000	99.391423 
3402.000000	99.391731 
3401.000000	99.391941 
3400.000000	99.391851 
3399.000000	99.391612 
3398.000000	99.391414 
3397.000000	99.391236 
3396.000000	99.390911 
3395.000000	99.390357 
3394.000000	99.389711 
3393.000000	99.389267 
3392.000000	99.389230 
3391.000000	99.389475 
3390.000000	99.389608 
3389.000000	99.389328 
3388.000000	99.388736 
3387.000000	99.388256 
3386.000000	99.388295 
3385.000000	99.388992 
3384.000000	99.390122 
3383.000000	99.391134 
3382.000000	99.391494 
3381.000000	99.391222 
3380.000000	99.391004 
3379.000000	99.391555 
3378.000000	99.392916 
3377.000000	99.394512 
3376.000000	99.395798 
3375.000000	99.396678 
3374.000000	99.397300 
3373.000000	99.397764 
3372.000000	99.398123 
3371.000000	99.398447 
3370.000000	99.398754 
3369.000000	99.398939 
3368.000000	99.398925 
3367.000000	99.398824 
3366.000000	99.398867 
3365.000000	99.399190 
3364.000000	99.399790 
3363.000000	99.400642 
3362.000000	99.401785 
3361.000000	99.403214 
3360.000000	99.404740 
3359.000000	99.406025 
3358.000000	99.406861 
3357.000000	99.407342 
3356.000000	99.407704 
3355.000000	99.408070 
3354.000000	99.408428 
3353.000000	99.408782 
3352.000000	99.409220 
3351.000000	99.409793 
3350.000000	99.410456 
3349.000000	99.411129 
3348.000000	99.411780 
3347.000000	99.412406 
3346.000000	99.413000 
3345.000000	99.413551 
3344.000000	99.414066 
3343.000000	99.414563 
3342.000000	99.415052 
3341.000000	99.415543 
3340.000000	99.416046 
3339.000000	99.416569 
3338.000000	99.417094 
3337.000000	99.417591 
3336.000000	99.418045 
3335.000000	99.418485 
3334.000000	99.418948 
3333.000000	99.419429 
3332.000000	99.419870 
3331.000000	99.420231 
3330.000000	99.420560 
3329.000000	99.420961 
3328.000000	99.421484 
3327.000000	99.422064 
3326.000000	99.422568 
3325.000000	99.422937 
3324.000000	99.423212 
3323.000000	99.423460 
3322.000000	99.423720 
3321.000000	99.424048 
3320.000000	99.424553 
3319.000000	99.425311 
3318.000000	99.426206 
3317.000000	99.426920 
3316.000000	99.427180 
3315.000000	99.426991 
3314.000000	99.426703 
3313.000000	99.426749 
3312.000000	99.427296 
3311.000000	99.428146 
3310.000000	99.428937 
3309.000000	99.429532 
3308.000000	99.430106 
3307.000000	99.430813 
3306.000000	99.431429 
3305.000000	99.431488 
3304.000000	99.430745 
3303.000000	99.429451 
3302.000000	99.428198 
3301.000000	99.427494 
3300.000000	99.427508 
3299.000000	99.428102 
3298.000000	99.429014 
3297.000000	99.430054 
3296.000000	99.431193 
3295.000000	99.432479 
3294.000000	99.433848 
3293.000000	99.435054 
3292.000000	99.435848 
3291.000000	99.436236 
3290.000000	99.436517 
3289.000000	99.437006 
3288.000000	99.437703 
3287.000000	99.438285 
3286.000000	99.438442 
3285.000000	99.438205 
3284.000000	99.437917 
3283.000000	99.437928 
3282.000000	99.438350 
3281.000000	99.439082 
3280.000000	99.440000 
3279.000000	99.441052 
3278.000000	99.442172 
3277.000000	99.443124 
3276.000000	99.443572 
3275.000000	99.443373 
3274.000000	99.442804 
3273.000000	99.442447 
3272.000000	99.442693 
3271.000000	99.443459 
3270.000000	99.444379 
3269.000000	99.445197 
3268.000000	99.445906 
3267.000000	99.446556 
3266.000000	99.447076 
3265.000000	99.447354 
3264.000000	99.447379 
3263.000000	99.447258 
3262.000000	99.447142 
3261.000000	99.447186 
3260.000000	99.447495 
3259.000000	99.448044 
3258.000000	99.448641 
3257.000000	99.449073 
3256.000000	99.449303 
3255.000000	99.449522 
3254.000000	99.449962 
3253.000000	99.450644 
3252.000000	99.451303 
3251.000000	99.451607 
3250.000000	99.451455 
3249.000000	99.451061 
3248.000000	99.450801 
3247.000000	99.450945 
3246.000000	99.451538 
3245.000000	99.452457 
3244.000000	99.453560 
3243.000000	99.454766 
3242.000000	99.455939 
3241.000000	99.456775 
3240.000000	99.456961 
3239.000000	99.456554 
3238.000000	99.456099 
3237.000000	99.456170 
3236.000000	99.456780 
3235.000000	99.457432 
3234.000000	99.457751 
3233.000000	99.457897 
3232.000000	99.458238 
3231.000000	99.458766 
3230.000000	99.459065 
3229.000000	99.458787 
3228.000000	99.458025 
3227.000000	99.457280 
3226.000000	99.457124 
3225.000000	99.457793 
3224.000000	99.458954 
3223.000000	99.459943 
3222.000000	99.460436 
3221.000000	99.460816 
3220.000000	99.461679 
3219.000000	99.463091 
3218.000000	99.464504 
3217.000000	99.465360 
3216.000000	99.465612 
3215.000000	99.465694 
3214.000000	99.466177 
3213.000000	99.467432 
3212.000000	99.469434 
3211.000000	99.471746 
3210.000000	99.473745 
3209.000000	99.474967 
3208.000000	99.475255 
3207.000000	99.474739 
3206.000000	99.473851 
3205.000000	99.473285 
3204.000000	99.473656 
3203.000000	99.475116 
3202.000000	99.477372 
3201.000000	99.480029 
3200.000000	99.482788 
3199.000000	99.485324 
3198.000000	99.487215 
3197.000000	99.488214 
3196.000000	99.488517 
3195.000000	99.488654 
3194.000000	99.489102 
3193.000000	99.489996 
3192.000000	99.491136 
3191.000000	99.492216 
3190.000000	99.493074 
3189.000000	99.493764 
3188.000000	99.494396 
3187.000000	99.495006 
3186.000000	99.495653 
3185.000000	99.496548 
3184.000000	99.497887 
3183.000000	99.499504 
3182.000000	99.500896 
3181.000000	99.501680 
3180.000000	99.501970 
3179.000000	99.502285 
3178.000000	99.503080 
3177.000000	99.504373 
3176.000000	99.505783 
3175.000000	99.506906 
3174.000000	99.507738 
3173.000000	99.508685 
3172.000000	99.510137 
3171.000000	99.512083 
3170.000000	99.514172 
3169.000000	99.516062 
3168.000000	99.517548 
3167.000000	99.518417 
3166.000000	99.518511 
3165.000000	99.518035 
3164.000000	99.517604 
3163.000000	99.517770 
3162.000000	99.518596 
3161.000000	99.519728 
3160.000000	99.520742 
3159.000000	99.521471 
3158.000000	99.522055 
3157.000000	99.522745 
3156.000000	99.523642 
3155.000000	99.524623 
3154.000000	99.525521 
3153.000000	99.526333 
3152.000000	99.527159 
3151.000000	99.528014 
3150.000000	99.528802 
3149.000000	99.529484 
3148.000000	99.530150 
3147.000000	99.530917 
3146.000000	99.531886 
3145.000000	99.533191 
3144.000000	99.534896 
3143.000000	99.536757 
3142.000000	99.538237 
3141.000000	99.538958 
3140.000000	99.539018 
3139.000000	99.538904 
3138.000000	99.539099 
3137.000000	99.539749 
3136.000000	99.540700 
3135.000000	99.541670 
3134.000000	99.542465 
3133.000000	99.543110 
3132.000000	99.543755 
3131.000000	99.544460 
3130.000000	99.545164 
3129.000000	99.545895 
3128.000000	99.546844 
3127.000000	99.548139 
3126.000000	99.549652 
3125.000000	99.551103 
3124.000000	99.552313 
3123.000000	99.553256 
3122.000000	99.553984 
3121.000000	99.554581 
3120.000000	99.555155 
3119.000000	99.555775 
3118.000000	99.556407 
3117.000000	99.556983 
3116.000000	99.557507 
3115.000000	99.558056 
3114.000000	99.558729 
3113.000000	99.559615 
3112.000000	99.560740 
3111.000000	99.561972 
3110.000000	99.563032 
3109.000000	99.563716 
3108.000000	99.564061 
3107.000000	99.564281 
3106.000000	99.564582 
3105.000000	99.565085 
3104.000000	99.565831 
3103.000000	99.566731 
3102.000000	99.567553 
3101.000000	99.568091 
3100.000000	99.568322 
3099.000000	99.568338 
3098.000000	99.568249 
3097.000000	99.568295 
3096.000000	99.568902 
3095.000000	99.570253 
3094.000000	99.571779 
3093.000000	99.572640 
3092.000000	99.572737 
3091.000000	99.572676 
3090.000000	99.572650 
3089.000000	99.572220 
3088.000000	99.571579 
3087.000000	99.572122 
3086.000000	99.574900 
3085.000000	99.578953 
3084.000000	99.581975 
3083.000000	99.582546 
3082.000000	99.581154 
3081.000000	99.579316 
3080.000000	99.578308 
3079.000000	99.578763 
3078.000000	99.580843 
3077.000000	99.584180 
3076.000000	99.587592 
3075.000000	99.589311 
3074.000000	99.588159 
3073.000000	99.584753 
3072.000000	99.581172 
3071.000000	99.579049 
3070.000000	99.578309 
3069.000000	99.578065 
3068.000000	99.578080 
3067.000000	99.578592 
3066.000000	99.579129 
3065.000000	99.578653 
3064.000000	99.577004 
3063.000000	99.575380 
3062.000000	99.575077 
3061.000000	99.576282 
3060.000000	99.578176 
3059.000000	99.579712 
3058.000000	99.580271 
3057.000000	99.580046 
3056.000000	99.579796 
3055.000000	99.579748 
3054.000000	99.578930 
3053.000000	99.576334 
3052.000000	99.572640 
3051.000000	99.569805 
3050.000000	99.568564 
3049.000000	99.567336 
3048.000000	99.564334 
3047.000000	99.560039 
3046.000000	99.556490 
3045.000000	99.554300 
3044.000000	99.551405 
3043.000000	99.545319 
3042.000000	99.536075 
3041.000000	99.526402 
3040.000000	99.518924 
3039.000000	99.513602 
3038.000000	99.508313 
3037.000000	99.501552 
3036.000000	99.493800 
3035.000000	99.486134 
3034.000000	99.478334 
3033.000000	99.468965 
3032.000000	99.456997 
3031.000000	99.442801 
3030.000000	99.427471 
3029.000000	99.411857 
3028.000000	99.396773 
3027.000000	99.383380 
3026.000000	99.372438 
3025.000000	99.363165 
3024.000000	99.353199 
3023.000000	99.339977 
3022.000000	99.322490 
3021.000000	99.302217 
3020.000000	99.282368 
3019.000000	99.265476 
3018.000000	99.251013 
3017.000000	99.235423 
3016.000000	99.215066 
3015.000000	99.189465 
3014.000000	99.161786 
3013.000000	99.136225 
3012.000000	99.114789 
3011.000000	99.096199 
3010.000000	99.077296 
3009.000000	99.055498 
3008.000000	99.030525 
3007.000000	99.004537 
3006.000000	98.980648 
3005.000000	98.960599 
3004.000000	98.943110 
3003.000000	98.924564 
3002.000000	98.902009 
3001.000000	98.875958 
3000.000000	98.850021 
2999.000000	98.827558 
2998.000000	98.809097 
2997.000000	98.793342 
2996.000000	98.779652 
2995.000000	98.767622 
2994.000000	98.753704 
2993.000000	98.730576 
2992.000000	98.693025 
2991.000000	98.645392 
2990.000000	98.601381 
2989.000000	98.574534 
2988.000000	98.568962 
2987.000000	98.579054 
2986.000000	98.596009 
2985.000000	98.613465 
2984.000000	98.627894 
2983.000000	98.637101 
2982.000000	98.640476 
2981.000000	98.639584 
2980.000000	98.636797 
2979.000000	98.633505 
2978.000000	98.630421 
2977.000000	98.628634 
2976.000000	98.628839 
2975.000000	98.629900 
2974.000000	98.629948 
2973.000000	98.629230 
2972.000000	98.630651 
2971.000000	98.637037 
2970.000000	98.648865 
2969.000000	98.664965 
2968.000000	98.684219 
2967.000000	98.705701 
2966.000000	98.727966 
2965.000000	98.749383 
2964.000000	98.769144 
2963.000000	98.787387 
2962.000000	98.804447 
2961.000000	98.820394 
2960.000000	98.835153 
2959.000000	98.848828 
2958.000000	98.862104 
2957.000000	98.876229 
2956.000000	98.891868 
2955.000000	98.907792 
2954.000000	98.921583 
2953.000000	98.932391 
2952.000000	98.942328 
2951.000000	98.954289 
2950.000000	98.968569 
2949.000000	98.982309 
2948.000000	98.992098 
2947.000000	98.996568 
2946.000000	98.997093 
2945.000000	98.996946 
2944.000000	98.999466 
2943.000000	99.006137 
2942.000000	99.016114 
2941.000000	99.027736 
2940.000000	99.040137 
2939.000000	99.052997 
2938.000000	99.065258 
2937.000000	99.075410 
2936.000000	99.083367 
2935.000000	99.091081 
2934.000000	99.100529 
2933.000000	99.111439 
2932.000000	99.121414 
2931.000000	99.128117 
2930.000000	99.131077 
2929.000000	99.131820 
2928.000000	99.132692 
2927.000000	99.135215 
2926.000000	99.138917 
2925.000000	99.141537 
2924.000000	99.140830 
2923.000000	99.136433 
2922.000000	99.129895 
2921.000000	99.122789 
2920.000000	99.115146 
2919.000000	99.106020 
2918.000000	99.095166 
2917.000000	99.083178 
2916.000000	99.069835 
2915.000000	99.053354 
2914.000000	99.032492 
2913.000000	99.009136 
2912.000000	98.987795 
2911.000000	98.972014 
2910.000000	98.961861 
2909.000000	98.954956 
2908.000000	98.949033 
2907.000000	98.942562 
2906.000000	98.933431 
2905.000000	98.918695 
2904.000000	98.897140 
2903.000000	98.872603 
2902.000000	98.853948 
2901.000000	98.850025 
2900.000000	98.863410 
2899.000000	98.888110 
2898.000000	98.913530 
2897.000000	98.931533 
2896.000000	98.940257 
2895.000000	98.942396 
2894.000000	98.941678 
2893.000000	98.941137 
2892.000000	98.942935 
2891.000000	98.947801 
2890.000000	98.954482 
2889.000000	98.960696 
2888.000000	98.965015 
2887.000000	98.967597 
2886.000000	98.969410 
2885.000000	98.971610 
2884.000000	98.975729 
2883.000000	98.983471 
2882.000000	98.995528 
2881.000000	99.010877 
2880.000000	99.027764 
2879.000000	99.045309 
2878.000000	99.063576 
2877.000000	99.082138 
2876.000000	99.099352 
2875.000000	99.113683 
2874.000000	99.125449 
2873.000000	99.136519 
2872.000000	99.148072 
2871.000000	99.159188 
2870.000000	99.168239 
2869.000000	99.175411 
2868.000000	99.183239 
2867.000000	99.194541 
2866.000000	99.210182 
2865.000000	99.228957 
2864.000000	99.249148 
2863.000000	99.269852 
2862.000000	99.290948 
2861.000000	99.312312 
2860.000000	99.333568 
2859.000000	99.354773 
2858.000000	99.376910 
2857.000000	99.400912 
2856.000000	99.425746 
2855.000000	99.448012 
2854.000000	99.464227 
2853.000000	99.473498 
2852.000000	99.477582 
2851.000000	99.479015 
2850.000000	99.479930 
2849.000000	99.482043 
2848.000000	99.486215 
2847.000000	99.491506 
2846.000000	99.495645 
2845.000000	99.497037 
2844.000000	99.495994 
2843.000000	99.493959 
2842.000000	99.492225 
2841.000000	99.491444 
2840.000000	99.491459 
2839.000000	99.491194 
2838.000000	99.489666 
2837.000000	99.487755 
2836.000000	99.488170 
2835.000000	99.492708 
2834.000000	99.499948 
2833.000000	99.506411 
2832.000000	99.509895 
2831.000000	99.511102 
2830.000000	99.512344 
2829.000000	99.515305 
2828.000000	99.519906 
2827.000000	99.524689 
2826.000000	99.528117 
2825.000000	99.529731 
2824.000000	99.530081 
2823.000000	99.529683 
2822.000000	99.528628 
2821.000000	99.527438 
2820.000000	99.527564 
2819.000000	99.530224 
2818.000000	99.534918 
2817.000000	99.539622 
2816.000000	99.542408 
2815.000000	99.542675 
2814.000000	99.541224 
2813.000000	99.539637 
2812.000000	99.539243 
2811.000000	99.540116 
2810.000000	99.541191 
2809.000000	99.541700 
2808.000000	99.542138 
2807.000000	99.543411 
2806.000000	99.545422 
2805.000000	99.547153 
2804.000000	99.547999 
2803.000000	99.548413 
2802.000000	99.549195 
2801.000000	99.550603 
2800.000000	99.552278 
2799.000000	99.553689 
2798.000000	99.554554 
2797.000000	99.554997 
2796.000000	99.555408 
2795.000000	99.556131 
2794.000000	99.557178 
2793.000000	99.558213 
2792.000000	99.558872 
2791.000000	99.559110 
2790.000000	99.559214 
2789.000000	99.559568 
2788.000000	99.560343 
2787.000000	99.561428 
2786.000000	99.562544 
2785.000000	99.563465 
2784.000000	99.564171 
2783.000000	99.564771 
2782.000000	99.565359 
2781.000000	99.565960 
2780.000000	99.566530 
2779.000000	99.566994 
2778.000000	99.567297 
2777.000000	99.567489 
2776.000000	99.567729 
2775.000000	99.568137 
2774.000000	99.568691 
2773.000000	99.569333 
2772.000000	99.570097 
2771.000000	99.571051 
2770.000000	99.572122 
2769.000000	99.573097 
2768.000000	99.573819 
2767.000000	99.574320 
2766.000000	99.574739 
2765.000000	99.575182 
2764.000000	99.575655 
2763.000000	99.576092 
2762.000000	99.576440 
2761.000000	99.576746 
2760.000000	99.577156 
2759.000000	99.577773 
2758.000000	99.578546 
2757.000000	99.579355 
2756.000000	99.580180 
2755.000000	99.581072 
2754.000000	99.581980 
2753.000000	99.582724 
2752.000000	99.583171 
2751.000000	99.583394 
2750.000000	99.583611 
2749.000000	99.584008 
2748.000000	99.584635 
2747.000000	99.585400 
2746.000000	99.586190 
2745.000000	99.586995 
2744.000000	99.587897 
2743.000000	99.588929 
2742.000000	99.589951 
2741.000000	99.590777 
2740.000000	99.591395 
2739.000000	99.591955 
2738.000000	99.592557 
2737.000000	99.593132 
2736.000000	99.593562 
2735.000000	99.593819 
2734.000000	99.594008 
2733.000000	99.594364 
2732.000000	99.595168 
2731.000000	99.596516 
2730.000000	99.598071 
2729.000000	99.599222 
2728.000000	99.599670 
2727.000000	99.599785 
2726.000000	99.600303 
2725.000000	99.601578 
2724.000000	99.603282 
2723.000000	99.604832 
2722.000000	99.605894 
2721.000000	99.606406 
2720.000000	99.606386 
2719.000000	99.606000 
2718.000000	99.605631 
2717.000000	99.605593 
2716.000000	99.605760 
2715.000000	99.605714 
2714.000000	99.605295 
2713.000000	99.604853 
2712.000000	99.604919 
2711.000000	99.605784 
2710.000000	99.607360 
2709.000000	99.609216 
2708.000000	99.610754 
2707.000000	99.611673 
2706.000000	99.612325 
2705.000000	99.613302 
2704.000000	99.614529 
2703.000000	99.615200 
2702.000000	99.614877 
2701.000000	99.614137 
2700.000000	99.613676 
2699.000000	99.613214 
2698.000000	99.612009 
2697.000000	99.610151 
2696.000000	99.608482 
2695.000000	99.607299 
2694.000000	99.606104 
2693.000000	99.604865 
2692.000000	99.604564 
2691.000000	99.605966 
2690.000000	99.608538 
2689.000000	99.611197 
2688.000000	99.613602 
2687.000000	99.615918 
2686.000000	99.617679 
2685.000000	99.617871 
2684.000000	99.616087 
2683.000000	99.612979 
2682.000000	99.609513 
2681.000000	99.606333 
2680.000000	99.603987 
2679.000000	99.603051 
2678.000000	99.603581 
2677.000000	99.604722 
2676.000000	99.605319 
2675.000000	99.604884 
2674.000000	99.603784 
2673.000000	99.602631 
2672.000000	99.601753 
2671.000000	99.601273 
2670.000000	99.601287 
2669.000000	99.601593 
2668.000000	99.601345 
2667.000000	99.599366 
2666.000000	99.595066 
2665.000000	99.589122 
2664.000000	99.583140 
2663.000000	99.578563 
2662.000000	99.575819 
2661.000000	99.574312 
2660.000000	99.573020 
2659.000000	99.571268 
2658.000000	99.569101 
2657.000000	99.566962 
2656.000000	99.565098 
2655.000000	99.563509 
2654.000000	99.562339 
2653.000000	99.561795 
2652.000000	99.561528 
2651.000000	99.560694 
2650.000000	99.559076 
2649.000000	99.557543 
2648.000000	99.556809 
2647.000000	99.556277 
2646.000000	99.554977 
2645.000000	99.553258 
2644.000000	99.552418 
2643.000000	99.552669 
2642.000000	99.552543 
2641.000000	99.550678 
2640.000000	99.547458 
2639.000000	99.544464 
2638.000000	99.542850 
2637.000000	99.542563 
2636.000000	99.542651 
2635.000000	99.542132 
2634.000000	99.541009 
2633.000000	99.540473 
2632.000000	99.541646 
2631.000000	99.544233 
2630.000000	99.546882 
2629.000000	99.548757 
2628.000000	99.549932 
2627.000000	99.550303 
2626.000000	99.549296 
2625.000000	99.547050 
2624.000000	99.544941 
2623.000000	99.544185 
2622.000000	99.544482 
2621.000000	99.544745 
2620.000000	99.544617 
2619.000000	99.544566 
2618.000000	99.544876 
2617.000000	99.545390 
2616.000000	99.546074 
2615.000000	99.547058 
2614.000000	99.548118 
2613.000000	99.548707 
2612.000000	99.548583 
2611.000000	99.548024 
2610.000000	99.547456 
2609.000000	99.547141 
2608.000000	99.547224 
2607.000000	99.547755 
2606.000000	99.548563 
2605.000000	99.549286 
2604.000000	99.549651 
2603.000000	99.549671 
2602.000000	99.549601 
2601.000000	99.549759 
2600.000000	99.550280 
2599.000000	99.550994 
2598.000000	99.551574 
2597.000000	99.551905 
2596.000000	99.552187 
2595.000000	99.552643 
2594.000000	99.553261 
2593.000000	99.553874 
2592.000000	99.554367 
2591.000000	99.554748 
2590.000000	99.555034 
2589.000000	99.555177 
2588.000000	99.555156 
2587.000000	99.555084 
2586.000000	99.555150 
2585.000000	99.555448 
2584.000000	99.555952 
2583.000000	99.556603 
2582.000000	99.557373 
2581.000000	99.558300 
2580.000000	99.559419 
2579.000000	99.560564 
2578.000000	99.561319 
2577.000000	99.561386 
2576.000000	99.561025 
2575.000000	99.560910 
2574.000000	99.561370 
2573.000000	99.562091 
2572.000000	99.562617 
2571.000000	99.562867 
2570.000000	99.562990 
2569.000000	99.562993 
2568.000000	99.562766 
2567.000000	99.562288 
2566.000000	99.561630 
2565.000000	99.560985 
2564.000000	99.560827 
2563.000000	99.561689 
2562.000000	99.563468 
2561.000000	99.565194 
2560.000000	99.565944 
2559.000000	99.565760 
2558.000000	99.565347 
2557.000000	99.565153 
2556.000000	99.565198 
2555.000000	99.565564 
2554.000000	99.566502 
2553.000000	99.568093 
2552.000000	99.570109 
2551.000000	99.572196 
2550.000000	99.574033 
2549.000000	99.575363 
2548.000000	99.575981 
2547.000000	99.575665 
2546.000000	99.574197 
2545.000000	99.571741 
2544.000000	99.569126 
2543.000000	99.567310 
2542.000000	99.566440 
2541.000000	99.565803 
2540.000000	99.564783 
2539.000000	99.563560 
2538.000000	99.562755 
2537.000000	99.562750 
2536.000000	99.563496 
2535.000000	99.564570 
2534.000000	99.565227 
2533.000000	99.564781 
2532.000000	99.563248 
2531.000000	99.561451 
2530.000000	99.560373 
2529.000000	99.560616 
2528.000000	99.562431 
2527.000000	99.565767 
2526.000000	99.570098 
2525.000000	99.574592 
2524.000000	99.578741 
2523.000000	99.582448 
2522.000000	99.585196 
2521.000000	99.585662 
2520.000000	99.582781 
2519.000000	99.577148 
2518.000000	99.571063 
2517.000000	99.566936 
2516.000000	99.565650 
2515.000000	99.566348 
2514.000000	99.567307 
2513.000000	99.567082 
2512.000000	99.565266 
2511.000000	99.562567 
2510.000000	99.560234 
2509.000000	99.559147 
2508.000000	99.559193 
2507.000000	99.559374 
2506.000000	99.558626 
2505.000000	99.556748 
2504.000000	99.554635 
2503.000000	99.553583 
2502.000000	99.554277 
2501.000000	99.556335 
2500.000000	99.558720 
2499.000000	99.560595 
2498.000000	99.561843 
2497.000000	99.562808 
2496.000000	99.563653 
2495.000000	99.564189 
2494.000000	99.564378 
2493.000000	99.564732 
2492.000000	99.565918 
2491.000000	99.567975 
2490.000000	99.570126 
2489.000000	99.571400 
2488.000000	99.571377 
2487.000000	99.570483 
2486.000000	99.569757 
2485.000000	99.570068 
2484.000000	99.571260 
2483.000000	99.572243 
2482.000000	99.572251 
2481.000000	99.571784 
2480.000000	99.571918 
2479.000000	99.572831 
2478.000000	99.573521 
2477.000000	99.573018 
2476.000000	99.571400 
2475.000000	99.569542 
2474.000000	99.568299 
2473.000000	99.568025 
2472.000000	99.568547 
2471.000000	99.569387 
2470.000000	99.570223 
2469.000000	99.571226 
2468.000000	99.572635 
2467.000000	99.573973 
2466.000000	99.574255 
2465.000000	99.573167 
2464.000000	99.571533 
2463.000000	99.570423 
2462.000000	99.570106 
2461.000000	99.570200 
2460.000000	99.570347 
2459.000000	99.570365 
2458.000000	99.570108 
2457.000000	99.569608 
2456.000000	99.569103 
2455.000000	99.568612 
2454.000000	99.567843 
2453.000000	99.566980 
2452.000000	99.567023 
2451.000000	99.568607 
2450.000000	99.570785 
2449.000000	99.571762 
2448.000000	99.570895 
2447.000000	99.569152 
2446.000000	99.567719 
2445.000000	99.566825 
2444.000000	99.566172 
2443.000000	99.565638 
2442.000000	99.565180 
2441.000000	99.564684 
2440.000000	99.564335 
2439.000000	99.564619 
2438.000000	99.565655 
2437.000000	99.567000 
2436.000000	99.568311 
2435.000000	99.569741 
2434.000000	99.571398 
2433.000000	99.572908 
2432.000000	99.573894 
2431.000000	99.574446 
2430.000000	99.574853 
2429.000000	99.575254 
2428.000000	99.575788 
2427.000000	99.576742 
2426.000000	99.578239 
2425.000000	99.579930 
2424.000000	99.581224 
2423.000000	99.581854 
2422.000000	99.582087 
2421.000000	99.582412 
2420.000000	99.583153 
2419.000000	99.584355 
2418.000000	99.585900 
2417.000000	99.587554 
2416.000000	99.588969 
2415.000000	99.589816 
2414.000000	99.590004 
2413.000000	99.589740 
2412.000000	99.589377 
2411.000000	99.589209 
2410.000000	99.589489 
2409.000000	99.590426 
2408.000000	99.591897 
2407.000000	99.593347 
2406.000000	99.594382 
2405.000000	99.595352 
2404.000000	99.596837 
2403.000000	99.598523 
2402.000000	99.599261 
2401.000000	99.598521 
2400.000000	99.597301 
2399.000000	99.597232 
2398.000000	99.599091 
2397.000000	99.602502 
2396.000000	99.606371 
2395.000000	99.609220 
2394.000000	99.609779 
2393.000000	99.608135 
2392.000000	99.606156 
2391.000000	99.605791 
2390.000000	99.606934 
2389.000000	99.607809 
2388.000000	99.607381 
2387.000000	99.606235 
2386.000000	99.605147 
2385.000000	99.604031 
2384.000000	99.602802 
2383.000000	99.602283 
2382.000000	99.603583 
2381.000000	99.606965 
2380.000000	99.611706 
2379.000000	99.616752 
2378.000000	99.621263 
2377.000000	99.624737 
2376.000000	99.627051 
2375.000000	99.628553 
2374.000000	99.630055 
2373.000000	99.632180 
2372.000000	99.634316 
2371.000000	99.634612 
2370.000000	99.631845 
2369.000000	99.627184 
2368.000000	99.623201 
2367.000000	99.621279 
2366.000000	99.621096 
2365.000000	99.621844 
2364.000000	99.622487 
2363.000000	99.621231 
2362.000000	99.616900 
2361.000000	99.611074 
2360.000000	99.606492 
2359.000000	99.604228 
2358.000000	99.604340 
2357.000000	99.607327 
2356.000000	99.613484 
2355.000000	99.620602 
2354.000000	99.626765 
2353.000000	99.630071 
2352.000000	99.628364 
2351.000000	99.620926 
2350.000000	99.609422 
2349.000000	99.597702 
2348.000000	99.589411 
2347.000000	99.587046 
2346.000000	99.589222 
2345.000000	99.589945 
2344.000000	99.585610 
2343.000000	99.577907 
2342.000000	99.571630 
2341.000000	99.567999 
2340.000000	99.565507 
2339.000000	99.563351 
2338.000000	99.562505 
2337.000000	99.563612 
2336.000000	99.564015 
2335.000000	99.561644 
2334.000000	99.557426 
2333.000000	99.554641 
2332.000000	99.552927 
2331.000000	99.551152 
2330.000000	99.547674 
2329.000000	99.542974 
2328.000000	99.534114 
2327.000000	99.519090 
2326.000000	99.498308 
2325.000000	99.476972 
2324.000000	99.461770 
2323.000000	99.456857 
2322.000000	99.461478 
2321.000000	99.470433 
2320.000000	99.477906 
2319.000000	99.482353 
2318.000000	99.484857 
2317.000000	99.488077 
2316.000000	99.492534 
2315.000000	99.498426 
2314.000000	99.503124 
2313.000000	99.504787 
2312.000000	99.502363 
2311.000000	99.498628 
2310.000000	99.495384 
2309.000000	99.492817 
2308.000000	99.489399 
2307.000000	99.486470 
2306.000000	99.486047 
2305.000000	99.488388 
2304.000000	99.490346 
2303.000000	99.489899 
2302.000000	99.487134 
2301.000000	99.483602 
2300.000000	99.479560 
2299.000000	99.475994 
2298.000000	99.474291 
2297.000000	99.475541 
2296.000000	99.477679 
2295.000000	99.477848 
2294.000000	99.474868 
2293.000000	99.470486 
2292.000000	99.466582 
2291.000000	99.463471 
2290.000000	99.460087 
2289.000000	99.455413 
2288.000000	99.449473 
2287.000000	99.443759 
2286.000000	99.441051 
2285.000000	99.443362 
2284.000000	99.449845 
2283.000000	99.456718 
2282.000000	99.460642 
2281.000000	99.461444 
2280.000000	99.461385 
2279.000000	99.462265 
2278.000000	99.464246 
2277.000000	99.466742 
2276.000000	99.469176 
2275.000000	99.471071 
2274.000000	99.472256 
2273.000000	99.473432 
2272.000000	99.475610 
2271.000000	99.478678 
2270.000000	99.481031 
2269.000000	99.481372 
2268.000000	99.480366 
2267.000000	99.479972 
2266.000000	99.481267 
2265.000000	99.483577 
2264.000000	99.485653 
2263.000000	99.486989 
2262.000000	99.487706 
2261.000000	99.487743 
2260.000000	99.486932 
2259.000000	99.485832 
2258.000000	99.485849 
2257.000000	99.488007 
2256.000000	99.491910 
2255.000000	99.495834 
2254.000000	99.498090 
2253.000000	99.498379 
2252.000000	99.497602 
2251.000000	99.496981 
2250.000000	99.497104 
2249.000000	99.497790 
2248.000000	99.498575 
2247.000000	99.499168 
2246.000000	99.499586 
2245.000000	99.499965 
2244.000000	99.500344 
2243.000000	99.500672 
2242.000000	99.500941 
2241.000000	99.501194 
2240.000000	99.501463 
2239.000000	99.501735 
2238.000000	99.501977 
2237.000000	99.502170 
2236.000000	99.502311 
2235.000000	99.502398 
2234.000000	99.502431 
2233.000000	99.502417 
2232.000000	99.502361 
2231.000000	99.502267 
2230.000000	99.502138 
2229.000000	99.501978 
2228.000000	99.501786 
2227.000000	99.501561 
2226.000000	99.501306 
2225.000000	99.501023 
2224.000000	99.500724 
2223.000000	99.500421 
2222.000000	99.500132 
2221.000000	99.499872 
2220.000000	99.499651 
2219.000000	99.499467 
2218.000000	99.499309 
2217.000000	99.499170 
2216.000000	99.499036 
2215.000000	99.498892 
2214.000000	99.498743 
2213.000000	99.498600 
2212.000000	99.498478 
2211.000000	99.498417 
2210.000000	99.498446 
2209.000000	99.498464 
2208.000000	99.498347 
2207.000000	99.498215 
2206.000000	99.498231 
2205.000000	99.498260 
2204.000000	99.498012 
2203.000000	99.497241 
2202.000000	99.495857 
2201.000000	99.494437 
2200.000000	99.494471 
2199.000000	99.496788 
2198.000000	99.499807 
2197.000000	99.500629 
2196.000000	99.498185 
2195.000000	99.494661 
2194.000000	99.493043 
2193.000000	99.494017 
2192.000000	99.496162 
2191.000000	99.498065 
2190.000000	99.499058 
2189.000000	99.498698 
2188.000000	99.496990 
2187.000000	99.495040 
2186.000000	99.494708 
2185.000000	99.497473 
2184.000000	99.503771 
2183.000000	99.512800 
2182.000000	99.522361 
2181.000000	99.529415 
2180.000000	99.532083 
2179.000000	99.531600 
2178.000000	99.531802 
2177.000000	99.535847 
2176.000000	99.542989 
2175.000000	99.548956 
2174.000000	99.549870 
2173.000000	99.545288 
2172.000000	99.537241 
2171.000000	99.527776 
2170.000000	99.519026 
2169.000000	99.514427 
2168.000000	99.516847 
2167.000000	99.524944 
2166.000000	99.533204 
2165.000000	99.536610 
2164.000000	99.534417 
2163.000000	99.529806 
2162.000000	99.528671 
2161.000000	99.538648 
2160.000000	99.564746 
2159.000000	99.602460 
2158.000000	99.637390 
2157.000000	99.657408 
2156.000000	99.662268 
2155.000000	99.659431 
2154.000000	99.655184 
2153.000000	99.651252 
2152.000000	99.646493 
2151.000000	99.638910 
2150.000000	99.628277 
2149.000000	99.618876 
2148.000000	99.617002 
2147.000000	99.623571 
2146.000000	99.632169 
2145.000000	99.637065 
2144.000000	99.640053 
2143.000000	99.645487 
2142.000000	99.651687 
2141.000000	99.652788 
2140.000000	99.647831 
2139.000000	99.642482 
2138.000000	99.641435 
2137.000000	99.643601 
2136.000000	99.645704 
2135.000000	99.646402 
2134.000000	99.645242 
2133.000000	99.641184 
2132.000000	99.634489 
2131.000000	99.627933 
2130.000000	99.624154 
2129.000000	99.622795 
2128.000000	99.621392 
2127.000000	99.618370 
2126.000000	99.614425 
2125.000000	99.611471 
2124.000000	99.610398 
2123.000000	99.609560 
2122.000000	99.605911 
2121.000000	99.598365 
2120.000000	99.589279 
2119.000000	99.581456 
2118.000000	99.574676 
2117.000000	99.567008 
2116.000000	99.558942 
2115.000000	99.553681 
2114.000000	99.552709 
2113.000000	99.553071 
2112.000000	99.550846 
2111.000000	99.545494 
2110.000000	99.539986 
2109.000000	99.538009 
2108.000000	99.541053 
2107.000000	99.546893 
2106.000000	99.550695 
2105.000000	99.549159 
2104.000000	99.543833 
2103.000000	99.539260 
2102.000000	99.538170 
2101.000000	99.539751 
2100.000000	99.542049 
2099.000000	99.543996 
2098.000000	99.544919 
2097.000000	99.544296 
2096.000000	99.543207 
2095.000000	99.544347 
2094.000000	99.548996 
2093.000000	99.554667 
2092.000000	99.557003 
2091.000000	99.553943 
2090.000000	99.547340 
2089.000000	99.541092 
2088.000000	99.537552 
2087.000000	99.535964 
2086.000000	99.534408 
2085.000000	99.532629 
2084.000000	99.532215 
2083.000000	99.533965 
2082.000000	99.536183 
2081.000000	99.536372 
2080.000000	99.533986 
2079.000000	99.530549 
2078.000000	99.527557 
2077.000000	99.525197 
2076.000000	99.522955 
2075.000000	99.520605 
2074.000000	99.518577 
2073.000000	99.517957 
2072.000000	99.519837 
2071.000000	99.523933 
2070.000000	99.528201 
2069.000000	99.530779 
2068.000000	99.531999 
2067.000000	99.533441 
2066.000000	99.535350 
2065.000000	99.536345 
2064.000000	99.535548 
2063.000000	99.533469 
2062.000000	99.530692 
2061.000000	99.527074 
2060.000000	99.522619 
2059.000000	99.518122 
2058.000000	99.514552 
2057.000000	99.512685 
2056.000000	99.513375 
2055.000000	99.516802 
2054.000000	99.520883 
2053.000000	99.521942 
2052.000000	99.518091 
2051.000000	99.511138 
2050.000000	99.504793 
2049.000000	99.501633 
2048.000000	99.502356 
2047.000000	99.506724 
2046.000000	99.513787 
2045.000000	99.521423 
2044.000000	99.527179 
2043.000000	99.529901 
2042.000000	99.529996 
2041.000000	99.528514 
2040.000000	99.526198 
2039.000000	99.522866 
2038.000000	99.517807 
2037.000000	99.511713 
2036.000000	99.507837 
2035.000000	99.509411 
2034.000000	99.515725 
2033.000000	99.522253 
2032.000000	99.525714 
2031.000000	99.527212 
2030.000000	99.529100 
2029.000000	99.531006 
2028.000000	99.530908 
2027.000000	99.528953 
2026.000000	99.528107 
2025.000000	99.531189 
2024.000000	99.538507 
2023.000000	99.548058 
2022.000000	99.556897 
2021.000000	99.562416 
2020.000000	99.563143 
2019.000000	99.558800 
2018.000000	99.550269 
2017.000000	99.539883 
2016.000000	99.530682 
2015.000000	99.524004 
2014.000000	99.518404 
2013.000000	99.512121 
2012.000000	99.506179 
2011.000000	99.503726 
2010.000000	99.506647 
2009.000000	99.514182 
2008.000000	99.524245 
2007.000000	99.534153 
2006.000000	99.540226 
2005.000000	99.539609 
2004.000000	99.533505 
2003.000000	99.526760 
2002.000000	99.523291 
2001.000000	99.523181 
2000.000000	99.524579 
1999.000000	99.526605 
1998.000000	99.529333 
1997.000000	99.532327 
1996.000000	99.534642 
1995.000000	99.535519 
1994.000000	99.534159 
1993.000000	99.529718 
1992.000000	99.522595 
1991.000000	99.515014 
1990.000000	99.509431 
1989.000000	99.507083 
1988.000000	99.507991 
1987.000000	99.511012 
1986.000000	99.513497 
1985.000000	99.512449 
1984.000000	99.506994 
1983.000000	99.499056 
1982.000000	99.491627 
1981.000000	99.487489 
1980.000000	99.489295 
1979.000000	99.498335 
1978.000000	99.511844 
1977.000000	99.523666 
1976.000000	99.530086 
1975.000000	99.532894 
1974.000000	99.535403 
1973.000000	99.538085 
1972.000000	99.539445 
1971.000000	99.538946 
1970.000000	99.537302 
1969.000000	99.535463 
1968.000000	99.534719 
1967.000000	99.536187 
1966.000000	99.538966 
1965.000000	99.540838 
1964.000000	99.542179 
1963.000000	99.546764 
1962.000000	99.556741 
1961.000000	99.568585 
1960.000000	99.576561 
1959.000000	99.578986 
1958.000000	99.578480 
1957.000000	99.577337 
1956.000000	99.575261 
1955.000000	99.571557 
1954.000000	99.567166 
1953.000000	99.563988 
1952.000000	99.563157 
1951.000000	99.564123 
1950.000000	99.564829 
1949.000000	99.563098 
1948.000000	99.558702 
1947.000000	99.553880 
1946.000000	99.551145 
1945.000000	99.550661 
1944.000000	99.550335 
1943.000000	99.548312 
1942.000000	99.545020 
1941.000000	99.542718 
1940.000000	99.543251 
1939.000000	99.546525 
1938.000000	99.550664 
1937.000000	99.553384 
1936.000000	99.553649 
1935.000000	99.551994 
1934.000000	99.549483 
1933.000000	99.546968 
1932.000000	99.545116 
1931.000000	99.544227 
1930.000000	99.543656 
1929.000000	99.542036 
1928.000000	99.538714 
1927.000000	99.534681 
1926.000000	99.531621 
1925.000000	99.530102 
1924.000000	99.529052 
1923.000000	99.527039 
1922.000000	99.523796 
1921.000000	99.520291 
1920.000000	99.517605 
1919.000000	99.516046 
1918.000000	99.515254 
1917.000000	99.514720 
1916.000000	99.514027 
1915.000000	99.512821 
1914.000000	99.510850 
1913.000000	99.508173 
1912.000000	99.505325 
1911.000000	99.503053 
1910.000000	99.501641 
1909.000000	99.500634 
1908.000000	99.499257 
1907.000000	99.497241 
1906.000000	99.494924 
1905.000000	99.492697 
1904.000000	99.490567 
1903.000000	99.488356 
1902.000000	99.486093 
1901.000000	99.484058 
1900.000000	99.482516 
1899.000000	99.481494 
1898.000000	99.480810 
1897.000000	99.480254 
1896.000000	99.479694 
1895.000000	99.478989 
1894.000000	99.477861 
1893.000000	99.476150 
1892.000000	99.474207 
1891.000000	99.472672 
1890.000000	99.471697 
1889.000000	99.470581 
1888.000000	99.468642 
1887.000000	99.466311 
1886.000000	99.464824 
1885.000000	99.464957 
1884.000000	99.466418 
1883.000000	99.468448 
1882.000000	99.470584 
1881.000000	99.472618 
1880.000000	99.474159 
1879.000000	99.474729 
1878.000000	99.474289 
1877.000000	99.473256 
1876.000000	99.471916 
1875.000000	99.470207 
1874.000000	99.468271 
1873.000000	99.466758 
1872.000000	99.466131 
1871.000000	99.466039 
1870.000000	99.465948 
1869.000000	99.466392 
1868.000000	99.468520 
1867.000000	99.472069 
1866.000000	99.475297 
1865.000000	99.476898 
1864.000000	99.476789 
1863.000000	99.475343 
1862.000000	99.472900 
1861.000000	99.470413 
1860.000000	99.469646 
1859.000000	99.471827 
1858.000000	99.476425 
1857.000000	99.481546 
1856.000000	99.485530 
1855.000000	99.487864 
1854.000000	99.488774 
1853.000000	99.488849 
1852.000000	99.488963 
1851.000000	99.489719 
1850.000000	99.490853 
1849.000000	99.491630 
1848.000000	99.491760 
1847.000000	99.491618 
1846.000000	99.491722 
1845.000000	99.492329 
1844.000000	99.493383 
1843.000000	99.494496 
1842.000000	99.495173 
1841.000000	99.495254 
1840.000000	99.494841 
1839.000000	99.493893 
1838.000000	99.492371 
1837.000000	99.490939 
1836.000000	99.490864 
1835.000000	99.492492 
1834.000000	99.494278 
1833.000000	99.494340 
1832.000000	99.492669 
1831.000000	99.491016 
1830.000000	99.490878 
1829.000000	99.492138 
1828.000000	99.493772 
1827.000000	99.494973 
1826.000000	99.494922 
1825.000000	99.493205 
1824.000000	99.490991 
1823.000000	99.489819 
1822.000000	99.489524 
1821.000000	99.489414 
1820.000000	99.490816 
1819.000000	99.495931 
1818.000000	99.503561 
1817.000000	99.508631 
1816.000000	99.507804 
1815.000000	99.503014 
1814.000000	99.497882 
1813.000000	99.493672 
1812.000000	99.490404 
1811.000000	99.489059 
1810.000000	99.489968 
1809.000000	99.490849 
1808.000000	99.489595 
1807.000000	99.487219 
1806.000000	99.485757 
1805.000000	99.485004 
1804.000000	99.483218 
1803.000000	99.479963 
1802.000000	99.476566 
1801.000000	99.474427 
1800.000000	99.474128 
1799.000000	99.475665 
1798.000000	99.478269 
1797.000000	99.480566 
1796.000000	99.482440 
1795.000000	99.485890 
1794.000000	99.492520 
1793.000000	99.500191 
1792.000000	99.504542 
1791.000000	99.504843 
1790.000000	99.504450 
1789.000000	99.506353 
1788.000000	99.511246 
1787.000000	99.518031 
1786.000000	99.524635 
1785.000000	99.529287 
1784.000000	99.532445 
1783.000000	99.536773 
1782.000000	99.544354 
1781.000000	99.554669 
1780.000000	99.565456 
1779.000000	99.575089 
1778.000000	99.583660 
1777.000000	99.591733 
1776.000000	99.599534 
1775.000000	99.607413 
1774.000000	99.615685 
1773.000000	99.623633 
1772.000000	99.630262 
1771.000000	99.636579 
1770.000000	99.645059 
1769.000000	99.657486 
1768.000000	99.673847 
1767.000000	99.692317 
1766.000000	99.710722 
1765.000000	99.728117 
1764.000000	99.744696 
1763.000000	99.761009 
1762.000000	99.777533 
1761.000000	99.794389 
1760.000000	99.811575 
1759.000000	99.829500 
1758.000000	99.847742 
1757.000000	99.863827 
1756.000000	99.875629 
1755.000000	99.884932 
1754.000000	99.895675 
1753.000000	99.908552 
1752.000000	99.919077 
1751.000000	99.922377 
1750.000000	99.919946 
1749.000000	99.916950 
1748.000000	99.914552 
1747.000000	99.910570 
1746.000000	99.904787 
1745.000000	99.899253 
1744.000000	99.894013 
1743.000000	99.885714 
1742.000000	99.871268 
1741.000000	99.851174 
1740.000000	99.829185 
1739.000000	99.809568 
1738.000000	99.793585 
1737.000000	99.779179 
1736.000000	99.763630 
1735.000000	99.744495 
1734.000000	99.721436 
1733.000000	99.699033 
1732.000000	99.681649 
1731.000000	99.669193 
1730.000000	99.659088 
1729.000000	99.649077 
1728.000000	99.639434 
1727.000000	99.632838 
1726.000000	99.631170 
1725.000000	99.632619 
1724.000000	99.632538 
1723.000000	99.627978 
1722.000000	99.620564 
1721.000000	99.614163 
1720.000000	99.611050 
1719.000000	99.609795 
1718.000000	99.605792 
1717.000000	99.596509 
1716.000000	99.586861 
1715.000000	99.583353 
1714.000000	99.585456 
1713.000000	99.587666 
1712.000000	99.587236 
1711.000000	99.586520 
1710.000000	99.588140 
1709.000000	99.590821 
1708.000000	99.591503 
1707.000000	99.589985 
1706.000000	99.588834 
1705.000000	99.589071 
1704.000000	99.588869 
1703.000000	99.587121 
1702.000000	99.584589 
1701.000000	99.581197 
1700.000000	99.576247 
1699.000000	99.572595 
1698.000000	99.572291 
1697.000000	99.573341 
1696.000000	99.572449 
1695.000000	99.568140 
1694.000000	99.562363 
1693.000000	99.557862 
1692.000000	99.555994 
1691.000000	99.557017 
1690.000000	99.559798 
1689.000000	99.562261 
1688.000000	99.563635 
1687.000000	99.565291 
1686.000000	99.568765 
1685.000000	99.572624 
1684.000000	99.574002 
1683.000000	99.573551 
1682.000000	99.572597 
1681.000000	99.571579 
1680.000000	99.570543 
1679.000000	99.569884 
1678.000000	99.570303 
1677.000000	99.572001 
1676.000000	99.573994 
1675.000000	99.574816 
1674.000000	99.574526 
1673.000000	99.574461 
1672.000000	99.575042 
1671.000000	99.575487 
1670.000000	99.575088 
1669.000000	99.574597 
1668.000000	99.575215 
1667.000000	99.576653 
1666.000000	99.577780 
1665.000000	99.578089 
1664.000000	99.578264 
1663.000000	99.579437 
1662.000000	99.581435 
1661.000000	99.582670 
1660.000000	99.582400 
1659.000000	99.581508 
1658.000000	99.581366 
1657.000000	99.582499 
1656.000000	99.584379 
1655.000000	99.586187 
1654.000000	99.587117 
1653.000000	99.587361 
1652.000000	99.587944 
1651.000000	99.588855 
1650.000000	99.589746 
1649.000000	99.589457 
1648.000000	99.587585 
1647.000000	99.584898 
1646.000000	99.582937 
1645.000000	99.582691 
1644.000000	99.584702 
1643.000000	99.588650 
1642.000000	99.592986 
1641.000000	99.596211 
1640.000000	99.598113 
1639.000000	99.599360 
1638.000000	99.600549 
1637.000000	99.602019 
1636.000000	99.604013 
1635.000000	99.605942 
1634.000000	99.606766 
1633.000000	99.607219 
1632.000000	99.608926 
1631.000000	99.612383 
1630.000000	99.616343 
1629.000000	99.619021 
1628.000000	99.620236 
1627.000000	99.621204 
1626.000000	99.622465 
1625.000000	99.623754 
1624.000000	99.625161 
1623.000000	99.627158 
1622.000000	99.629664 
1621.000000	99.632329 
1620.000000	99.635237 
1619.000000	99.638396 
1618.000000	99.641613 
1617.000000	99.645676 
1616.000000	99.652714 
1615.000000	99.662448 
1614.000000	99.671472 
1613.000000	99.677315 
1612.000000	99.680127 
1611.000000	99.681487 
1610.000000	99.682932 
1609.000000	99.685875 
1608.000000	99.691219 
1607.000000	99.697686 
1606.000000	99.702339 
1605.000000	99.704325 
1604.000000	99.706261 
1603.000000	99.710754 
1602.000000	99.717134 
1601.000000	99.723015 
1600.000000	99.727757 
1599.000000	99.732367 
1598.000000	99.737162 
1597.000000	99.741504 
1596.000000	99.745219 
1595.000000	99.748565 
1594.000000	99.751098 
1593.000000	99.752452 
1592.000000	99.753844 
1591.000000	99.756949 
1590.000000	99.761488 
1589.000000	99.765647 
1588.000000	99.768704 
1587.000000	99.771493 
1586.000000	99.774387 
1585.000000	99.776625 
1584.000000	99.777853 
1583.000000	99.778623 
1582.000000	99.779428 
1581.000000	99.780303 
1580.000000	99.780971 
1579.000000	99.780824 
1578.000000	99.779441 
1577.000000	99.777684 
1576.000000	99.777674 
1575.000000	99.780018 
1574.000000	99.783003 
1573.000000	99.785561 
1572.000000	99.787616 
1571.000000	99.788689 
1570.000000	99.787657 
1569.000000	99.785714 
1568.000000	99.785846 
1567.000000	99.788675 
1566.000000	99.792409 
1565.000000	99.795032 
1564.000000	99.795804 
1563.000000	99.795002 
1562.000000	99.793497 
1561.000000	99.792918 
1560.000000	99.792483 
1559.000000	99.787574 
1558.000000	99.779105 
1557.000000	99.771843 
1556.000000	99.769181 
1555.000000	99.770013 
1554.000000	99.770512 
1553.000000	99.768679 
1552.000000	99.765562 
1551.000000	99.761915 
1550.000000	99.757042 
1549.000000	99.751717 
1548.000000	99.749079 
1547.000000	99.750488 
1546.000000	99.751892 
1545.000000	99.746861 
1544.000000	99.733975 
1543.000000	99.718204 
1542.000000	99.703928 
1541.000000	99.690439 
1540.000000	99.676444 
1539.000000	99.663754 
1538.000000	99.653045 
1537.000000	99.644273 
1536.000000	99.637009 
1535.000000	99.630057 
1534.000000	99.620916 
1533.000000	99.608063 
1532.000000	99.593844 
1531.000000	99.581572 
1530.000000	99.572026 
1529.000000	99.563819 
1528.000000	99.555641 
1527.000000	99.547023 
1526.000000	99.537087 
1525.000000	99.525001 
1524.000000	99.511858 
1523.000000	99.499495 
1522.000000	99.487804 
1521.000000	99.475370 
1520.000000	99.462664 
1519.000000	99.451355 
1518.000000	99.440805 
1517.000000	99.428644 
1516.000000	99.414401 
1515.000000	99.399952 
1514.000000	99.386394 
1513.000000	99.372771 
1512.000000	99.358187 
1511.000000	99.343900 
1510.000000	99.331699 
1509.000000	99.321086 
1508.000000	99.309140 
1507.000000	99.293832 
1506.000000	99.276699 
1505.000000	99.260169 
1504.000000	99.246915 
1503.000000	99.236830 
1502.000000	99.227447 
1501.000000	99.216637 
1500.000000	99.203967 
1499.000000	99.190285 
1498.000000	99.175698 
1497.000000	99.159018 
1496.000000	99.140709 
1495.000000	99.124214 
1494.000000	99.111801 
1493.000000	99.102462 
1492.000000	99.093858 
1491.000000	99.083857 
1490.000000	99.071165 
1489.000000	99.055918 
1488.000000	99.039653 
1487.000000	99.024421 
1486.000000	99.010992 
1485.000000	98.998741 
1484.000000	98.987046 
1483.000000	98.975220 
1482.000000	98.962170 
1481.000000	98.947818 
1480.000000	98.934153 
1479.000000	98.923102 
1478.000000	98.913813 
1477.000000	98.903639 
1476.000000	98.891845 
1475.000000	98.880471 
1474.000000	98.870609 
1473.000000	98.861110 
1472.000000	98.851882 
1471.000000	98.844870 
1470.000000	98.840686 
1469.000000	98.837675 
1468.000000	98.833569 
1467.000000	98.826703 
1466.000000	98.816274 
1465.000000	98.803366 
1464.000000	98.791775 
1463.000000	98.784597 
1462.000000	98.781188 
1461.000000	98.778780 
1460.000000	98.775191 
1459.000000	98.769106 
1458.000000	98.758067 
1457.000000	98.739335 
1456.000000	98.716062 
1455.000000	98.696187 
1454.000000	98.683185 
1453.000000	98.674834 
1452.000000	98.668059 
1451.000000	98.661956 
1450.000000	98.657608 
1449.000000	98.655566 
1448.000000	98.654328 
1447.000000	98.651982 
1446.000000	98.648403 
1445.000000	98.644787 
1444.000000	98.641608 
1443.000000	98.637709 
1442.000000	98.632268 
1441.000000	98.627090 
1440.000000	98.625574 
1439.000000	98.629052 
1438.000000	98.634688 
1437.000000	98.636966 
1436.000000	98.633752 
1435.000000	98.629380 
1434.000000	98.628111 
1433.000000	98.629957 
1432.000000	98.632942 
1431.000000	98.635299 
1430.000000	98.636141 
1429.000000	98.635399 
1428.000000	98.633645 
1427.000000	98.631829 
1426.000000	98.630207 
1425.000000	98.628210 
1424.000000	98.625745 
1423.000000	98.623460 
1422.000000	98.621444 
1421.000000	98.618192 
1420.000000	98.611051 
1419.000000	98.599011 
1418.000000	98.585240 
1417.000000	98.573012 
1416.000000	98.562952 
1415.000000	98.554673 
1414.000000	98.547248 
1413.000000	98.539588 
1412.000000	98.531693 
1411.000000	98.524790 
1410.000000	98.519957 
1409.000000	98.517741 
1408.000000	98.519411 
1407.000000	98.527001 
1406.000000	98.541239 
1405.000000	98.560881 
1404.000000	98.584246 
1403.000000	98.610257 
1402.000000	98.638263 
1401.000000	98.667365 
1400.000000	98.695526 
1399.000000	98.718432 
1398.000000	98.729933 
1397.000000	98.725361 
1396.000000	98.707190 
1395.000000	98.690494 
1394.000000	98.696444 
1393.000000	98.732896 
1392.000000	98.788145 
1391.000000	98.843830 
1390.000000	98.888436 
1389.000000	98.920448 
1388.000000	98.943230 
1387.000000	98.959493 
1386.000000	98.971141 
1385.000000	98.981805 
1384.000000	98.995578 
1383.000000	99.013569 
1382.000000	99.033638 
1381.000000	99.053716 
1380.000000	99.074021 
1379.000000	99.095603 
1378.000000	99.118499 
1377.000000	99.142475 
1376.000000	99.168153 
1375.000000	99.195819 
1374.000000	99.223739 
1373.000000	99.249521 
1372.000000	99.273162 
1371.000000	99.296947 
1370.000000	99.322220 
1369.000000	99.347730 
1368.000000	99.371551 
1367.000000	99.393776 
1366.000000	99.416370 
1365.000000	99.440314 
1364.000000	99.463584 
1363.000000	99.482584 
1362.000000	99.495746 
1361.000000	99.504949 
1360.000000	99.513354 
1359.000000	99.523201 
1358.000000	99.535566 
1357.000000	99.550611 
1356.000000	99.567374 
1355.000000	99.584038 
1354.000000	99.599143 
1353.000000	99.612413 
1352.000000	99.624259 
1351.000000	99.635255 
1350.000000	99.646401 
1349.000000	99.658421 
1348.000000	99.670407 
1347.000000	99.680658 
1346.000000	99.688879 
1345.000000	99.696250 
1344.000000	99.703554 
1343.000000	99.710349 
1342.000000	99.716017 
1341.000000	99.720666 
1340.000000	99.725004 
1339.000000	99.730073 
1338.000000	99.737036 
1337.000000	99.746230 
1336.000000	99.756201 
1335.000000	99.764696 
1334.000000	99.771003 
1333.000000	99.776472 
1332.000000	99.782427 
1331.000000	99.788723 
1330.000000	99.794847 
1329.000000	99.801130 
1328.000000	99.807854 
1327.000000	99.814064 
1326.000000	99.818572 
1325.000000	99.821732 
1324.000000	99.825200 
1323.000000	99.829816 
1322.000000	99.834602 
1321.000000	99.838073 
1320.000000	99.840062 
1319.000000	99.841882 
1318.000000	99.844759 
1317.000000	99.848697 
1316.000000	99.853311 
1315.000000	99.859094 
1314.000000	99.866680 
1313.000000	99.874837 
1312.000000	99.880664 
1311.000000	99.882835 
1310.000000	99.883667 
1309.000000	99.886725 
1308.000000	99.892781 
1307.000000	99.899188 
1306.000000	99.902962 
1305.000000	99.903286 
1304.000000	99.901298 
1303.000000	99.898974 
1302.000000	99.898409 
1301.000000	99.900675 
1300.000000	99.904717 
1299.000000	99.908156 
1298.000000	99.909619 
1297.000000	99.909649 
1296.000000	99.909399 
1295.000000	99.909576 
1294.000000	99.910775 
1293.000000	99.913329 
1292.000000	99.916114 
1291.000000	99.916768 
1290.000000	99.914166 
1289.000000	99.909902 
1288.000000	99.906372 
1287.000000	99.904086 
1286.000000	99.902111 
1285.000000	99.900502 
1284.000000	99.900709 
1283.000000	99.903545 
1282.000000	99.907793 
1281.000000	99.911302 
1280.000000	99.912964 
1279.000000	99.913145 
1278.000000	99.912673 
1277.000000	99.912198 
1276.000000	99.912211 
1275.000000	99.912786 
1274.000000	99.913114 
1273.000000	99.911905 
1272.000000	99.908735 
1271.000000	99.904816 
1270.000000	99.901962 
1269.000000	99.900742 
1268.000000	99.899850 
1267.000000	99.897191 
1266.000000	99.891423 
1265.000000	99.882704 
1264.000000	99.872379 
1263.000000	99.862080 
1262.000000	99.853024 
1261.000000	99.846066 
1260.000000	99.841967 
1259.000000	99.840689 
1258.000000	99.840429 
1257.000000	99.838592 
1256.000000	99.834329 
1255.000000	99.829141 
1254.000000	99.824272 
1253.000000	99.818894 
1252.000000	99.812419 
1251.000000	99.807491 
1250.000000	99.808325 
1249.000000	99.816398 
1248.000000	99.829761 
1247.000000	99.845790 
1246.000000	99.861279 
1245.000000	99.869877 
1244.000000	99.864609 
1243.000000	99.846916 
1242.000000	99.830549 
1241.000000	99.830879 
1240.000000	99.849481 
1239.000000	99.872319 
1238.000000	99.883811 
1237.000000	99.879893 
1236.000000	99.866702 
1235.000000	99.850788 
1234.000000	99.833964 
1233.000000	99.816035 
1232.000000	99.798308 
1231.000000	99.782863 
1230.000000	99.770167 
1229.000000	99.758917 
1228.000000	99.747625 
1227.000000	99.735304 
1226.000000	99.721067 
1225.000000	99.704223 
1224.000000	99.684909 
1223.000000	99.663732 
1222.000000	99.640403 
1221.000000	99.613291 
1220.000000	99.580786 
1219.000000	99.542743 
1218.000000	99.500395 
1217.000000	99.455446 
1216.000000	99.409527 
1215.000000	99.363514 
1214.000000	99.316476 
1213.000000	99.266125 
1212.000000	99.211414 
1211.000000	99.154136 
1210.000000	99.096907 
1209.000000	99.040311 
1208.000000	98.983347 
1207.000000	98.925770 
1206.000000	98.868121 
1205.000000	98.809838 
1204.000000	98.749474 
1203.000000	98.687301 
1202.000000	98.626280 
1201.000000	98.569572 
1200.000000	98.517538 
1199.000000	98.467484 
1198.000000	98.416000 
1197.000000	98.361551 
1196.000000	98.305047 
1195.000000	98.248276 
1194.000000	98.192179 
1193.000000	98.136678 
1192.000000	98.081400 
1191.000000	98.025690 
1190.000000	97.968586 
1189.000000	97.909997 
1188.000000	97.851205 
1187.000000	97.792554 
1186.000000	97.731447 
1185.000000	97.665128 
1184.000000	97.595200 
1183.000000	97.526494 
1182.000000	97.460886 
1181.000000	97.395002 
1180.000000	97.325041 
1179.000000	97.251104 
1178.000000	97.175336 
1177.000000	97.098211 
1176.000000	97.018378 
1175.000000	96.934270 
1174.000000	96.844473 
1173.000000	96.748544 
1172.000000	96.649002 
1171.000000	96.550674 
1170.000000	96.456559 
1169.000000	96.365767 
1168.000000	96.276336 
1167.000000	96.188333 
1166.000000	96.104348 
1165.000000	96.030263 
1164.000000	95.976108 
1163.000000	95.951738 
1162.000000	95.958780 
1161.000000	95.988318 
1160.000000	96.026956 
1159.000000	96.062668 
1158.000000	96.085289 
1157.000000	96.086804 
1156.000000	96.064304 
1155.000000	96.020561 
1154.000000	95.960197 
1153.000000	95.887247 
1152.000000	95.807032 
1151.000000	95.726516 
1150.000000	95.649982 
1149.000000	95.576586 
1148.000000	95.503877 
1147.000000	95.430898 
1146.000000	95.356496 
1145.000000	95.278498 
1144.000000	95.197296 
1143.000000	95.117359 
1142.000000	95.042490 
1141.000000	94.971746 
1140.000000	94.901796 
1139.000000	94.830432 
1138.000000	94.756097 
1137.000000	94.677284 
1136.000000	94.594764 
1135.000000	94.511735 
1134.000000	94.429783 
1133.000000	94.347213 
1132.000000	94.262831 
1131.000000	94.178152 
1130.000000	94.094268 
1129.000000	94.009734 
1128.000000	93.923101 
1127.000000	93.834297 
1126.000000	93.742401 
1125.000000	93.645979 
1124.000000	93.547028 
1123.000000	93.450454 
1122.000000	93.357890 
1121.000000	93.265898 
1120.000000	93.171619 
1119.000000	93.075740 
1118.000000	92.978685 
1117.000000	92.879209 
1116.000000	92.778625 
1115.000000	92.681185 
1114.000000	92.588212 
1113.000000	92.496836 
1112.000000	92.405937 
1111.000000	92.317404 
1110.000000	92.230364 
1109.000000	92.141007 
1108.000000	92.049411 
1107.000000	91.960210 
1106.000000	91.874790 
1105.000000	91.788979 
1104.000000	91.700326 
1103.000000	91.611714 
1102.000000	91.525737 
1101.000000	91.441512 
1100.000000	91.358938 
1099.000000	91.280302 
1098.000000	91.205436 
1097.000000	91.130613 
1096.000000	91.053974 
1095.000000	90.976741 
1094.000000	90.897436 
1093.000000	90.810864 
1092.000000	90.715618 
1091.000000	90.617856 
1090.000000	90.525127 
1089.000000	90.440349 
1088.000000	90.362908 
1087.000000	90.290416 
1086.000000	90.217961 
1085.000000	90.141102 
1084.000000	90.061438 
1083.000000	89.984560 
1082.000000	89.911986 
1081.000000	89.840676 
1080.000000	89.770566 
1079.000000	89.705741 
1078.000000	89.647719 
1077.000000	89.595016 
1076.000000	89.549634 
1075.000000	89.515027 
1074.000000	89.486452 
1073.000000	89.452644 
1072.000000	89.407819 
1071.000000	89.351133 
1070.000000	89.273411 
1069.000000	89.159482 
1068.000000	89.010933 
1067.000000	88.856380 
1066.000000	88.729004 
1065.000000	88.638419 
1064.000000	88.570967 
1063.000000	88.507333 
1062.000000	88.431231 
1061.000000	88.330465 
1060.000000	88.203582 
1059.000000	88.065467 
1058.000000	87.937780 
1057.000000	87.831803 
1056.000000	87.742798 
1055.000000	87.657555 
1054.000000	87.564483 
1053.000000	87.461164 
1052.000000	87.356276 
1051.000000	87.261083 
1050.000000	87.177133 
1049.000000	87.097006 
1048.000000	87.016751 
1047.000000	86.939211 
1046.000000	86.865077 
1045.000000	86.790589 
1044.000000	86.715555 
1043.000000	86.644420 
1042.000000	86.576795 
1041.000000	86.505260 
1040.000000	86.426545 
1039.000000	86.348576 
1038.000000	86.282936 
1037.000000	86.235166 
1036.000000	86.203777 
1035.000000	86.183004 
1034.000000	86.165377 
1033.000000	86.146176 
1032.000000	86.124249 
1031.000000	86.094681 
1030.000000	86.047548 
1029.000000	85.984244 
1028.000000	85.929402 
1027.000000	85.911351 
1026.000000	85.930721 
1025.000000	85.960540 
1024.000000	85.977524 
1023.000000	85.980110 
1022.000000	85.975377 
1021.000000	85.965040 
1020.000000	85.949597 
1019.000000	85.933012 
1018.000000	85.916763 
1017.000000	85.898605 
1016.000000	85.881088 
1015.000000	85.871561 
1014.000000	85.870339 
1013.000000	85.868661 
1012.000000	85.861469 
1011.000000	85.852660 
1010.000000	85.845632 
1009.000000	85.839305 
1008.000000	85.836180 
1007.000000	85.843430 
1006.000000	85.862343 
1005.000000	85.886176 
1004.000000	85.911326 
1003.000000	85.941193 
1002.000000	85.976898 
1001.000000	86.014489 
1000.000000	86.053847 
999.000000	 86.099927 
998.000000	 86.152227 
997.000000	 86.203169 
996.000000	 86.250085 
995.000000	 86.299122 
994.000000	 86.354276 
993.000000	 86.412209 
992.000000	 86.470692 
991.000000	 86.532365 
990.000000	 86.597085 
989.000000	 86.660232 
988.000000	 86.722039 
987.000000	 86.789520 
986.000000	 86.865935 
985.000000	 86.947003 
984.000000	 87.029759 
983.000000	 87.116145 
982.000000	 87.206107 
981.000000	 87.296049 
980.000000	 87.386413 
979.000000	 87.482594 
978.000000	 87.585929 
977.000000	 87.692096 
976.000000	 87.800224 
975.000000	 87.914969 
974.000000	 88.037802 
973.000000	 88.164814 
972.000000	 88.294712 
971.000000	 88.430262 
970.000000	 88.570203 
969.000000	 88.708385 
968.000000	 88.842708 
967.000000	 88.976724 
966.000000	 89.111326 
965.000000	 89.243568 
964.000000	 89.374621 
963.000000	 89.509323 
962.000000	 89.646121 
961.000000	 89.777096 
960.000000	 89.900489 
959.000000	 90.023886 
958.000000	 90.151826 
957.000000	 90.279072 
956.000000	 90.400268 
955.000000	 90.518320 
954.000000	 90.638613 
953.000000	 90.760967 
952.000000	 90.881202 
951.000000	 90.995825 
950.000000	 91.102883 
949.000000	 91.203126 
948.000000	 91.301557 
947.000000	 91.402417 
946.000000	 91.501837 
945.000000	 91.591727 
944.000000	 91.671572 
943.000000	 91.749631 
942.000000	 91.831251 
941.000000	 91.912941 
940.000000	 91.990175 
939.000000	 92.064276 
938.000000	 92.139068 
937.000000	 92.216337 
936.000000	 92.296690 
935.000000	 92.379728 
934.000000	 92.462044 
933.000000	 92.540424 
932.000000	 92.617609 
931.000000	 92.699009 
930.000000	 92.783217 
929.000000	 92.862763 
928.000000	 92.935475 
927.000000	 93.007767 
926.000000	 93.084355 
925.000000	 93.161460 
924.000000	 93.233359 
923.000000	 93.299661 
922.000000	 93.362676 
921.000000	 93.422429 
920.000000	 93.477810 
919.000000	 93.529146 
918.000000	 93.577043 
917.000000	 93.621735 
916.000000	 93.665401 
915.000000	 93.712366 
914.000000	 93.765691 
913.000000	 93.825602 
912.000000	 93.890935 
911.000000	 93.959360 
910.000000	 94.027750 
909.000000	 94.096605 
908.000000	 94.172527 
907.000000	 94.261125 
906.000000	 94.358868 
905.000000	 94.457827 
904.000000	 94.557538 
903.000000	 94.665725 
902.000000	 94.787313 
901.000000	 94.918458 
900.000000	 95.051413 
899.000000	 95.180063 
898.000000	 95.301007 
897.000000	 95.414375 
896.000000	 95.523370 
895.000000	 95.629259 
894.000000	 95.728820 
893.000000	 95.821109 
892.000000	 95.912989 
891.000000	 96.010910 
890.000000	 96.109368 
889.000000	 96.195017 
888.000000	 96.260499 
887.000000	 96.307072 
886.000000	 96.336462 
885.000000	 96.349615 
884.000000	 96.352896 
883.000000	 96.355046 
882.000000	 96.355916 
881.000000	 96.348000 
880.000000	 96.332081 
879.000000	 96.321777 
878.000000	 96.328696 
877.000000	 96.352720 
876.000000	 96.391570 
875.000000	 96.449786 
874.000000	 96.531756 
873.000000	 96.634510 
872.000000	 96.754203 
871.000000	 96.892604 
870.000000	 97.050183 
869.000000	 97.217875 
868.000000	 97.381926 
867.000000	 97.534521 
866.000000	 97.676297 
865.000000	 97.810777 
864.000000	 97.939030 
863.000000	 98.058551 
862.000000	 98.166707 
861.000000	 98.266445 
860.000000	 98.366450 
859.000000	 98.471444 
858.000000	 98.574103 
857.000000	 98.663121 
856.000000	 98.739108 
855.000000	 98.815378 
854.000000	 98.901163 
853.000000	 98.990563 
852.000000	 99.070908 
851.000000	 99.135796 
850.000000	 99.186902 
849.000000	 99.229635 
848.000000	 99.271831 
847.000000	 99.321264 
846.000000	 99.377855 
845.000000	 99.430935 
844.000000	 99.469387 
843.000000	 99.493169 
842.000000	 99.511742 
841.000000	 99.533038 
840.000000	 99.557104 
839.000000	 99.578525 
838.000000	 99.591647 
837.000000	 99.594600 
836.000000	 99.590712 
835.000000	 99.585404 
834.000000	 99.580915 
833.000000	 99.576121 
832.000000	 99.571934 
831.000000	 99.572611 
830.000000	 99.579367 
829.000000	 99.587124 
828.000000	 99.591605 
827.000000	 99.596255 
826.000000	 99.607587 
825.000000	 99.625917 
824.000000	 99.644698 
823.000000	 99.656508 
822.000000	 99.656219 
821.000000	 99.641952 
820.000000	 99.617529 
819.000000	 99.591280 
818.000000	 99.567845 
817.000000	 99.542137 
816.000000	 99.503845 
815.000000	 99.445996 
814.000000	 99.366299 
813.000000	 99.261456 
812.000000	 99.123472 
811.000000	 98.942118 
810.000000	 98.710258 
809.000000	 98.428128 
808.000000	 98.103869 
807.000000	 97.748439 
806.000000	 97.369077 
805.000000	 96.970964 
804.000000	 96.566257 
803.000000	 96.175461 
802.000000	 95.816698 
801.000000	 95.500182 
800.000000	 95.236345 
799.000000	 95.039717 
798.000000	 94.918140 
797.000000	 94.865541 
796.000000	 94.870198 
795.000000	 94.921808 
794.000000	 95.006003 
793.000000	 95.101705 
792.000000	 95.190901 
791.000000	 95.264841 
790.000000	 95.316857 
789.000000	 95.337249 
788.000000	 95.320667 
787.000000	 95.271109 
786.000000	 95.192951 
785.000000	 95.082912 
784.000000	 94.937920 
783.000000	 94.766863 
782.000000	 94.589162 
781.000000	 94.426396 
780.000000	 94.299550 
779.000000	 94.225979 
778.000000	 94.210402 
777.000000	 94.243820 
776.000000	 94.316887 
775.000000	 94.427775 
774.000000	 94.571398 
773.000000	 94.729622 
772.000000	 94.881845 
771.000000	 95.021291 
770.000000	 95.153652 
769.000000	 95.283498 
768.000000	 95.409635 
767.000000	 95.530835 
766.000000	 95.647277 
765.000000	 95.755780 
764.000000	 95.850285 
763.000000	 95.929510 
762.000000	 96.000818 
761.000000	 96.074869 
760.000000	 96.157922 
759.000000	 96.248741 
758.000000	 96.340749 
757.000000	 96.427627 
756.000000	 96.508764 
755.000000	 96.589318 
754.000000	 96.673990 
753.000000	 96.761176 
752.000000	 96.843935 
751.000000	 96.915849 
750.000000	 96.975904 
749.000000	 97.029530 
748.000000	 97.085298 
747.000000	 97.148587 
746.000000	 97.217741 
745.000000	 97.287822 
744.000000	 97.357667 
743.000000	 97.430404 
742.000000	 97.506991 
741.000000	 97.583424 
740.000000	 97.656547 
739.000000	 97.729566 
738.000000	 97.808615 
737.000000	 97.894448 
736.000000	 97.979231 
735.000000	 98.051865 
734.000000	 98.106377 
733.000000	 98.145785 
732.000000	 98.178321 
731.000000	 98.209742 
730.000000	 98.239821 
729.000000	 98.266554 
728.000000	 98.293735 
727.000000	 98.330286 
726.000000	 98.379174 
725.000000	 98.432180 
724.000000	 98.478902 
723.000000	 98.517930 
722.000000	 98.556019 
721.000000	 98.597909 
720.000000	 98.639866 
719.000000	 98.672589 
718.000000	 98.688553 
717.000000	 98.687789 
716.000000	 98.678535 
715.000000	 98.672745 
714.000000	 98.679894 
713.000000	 98.704093 
712.000000	 98.745844 
711.000000	 98.802427 
710.000000	 98.866066 
709.000000	 98.925618 
708.000000	 98.972255 
707.000000	 99.003617 
706.000000	 99.019006 
705.000000	 99.014677 
704.000000	 98.987652 
703.000000	 98.938764 
702.000000	 98.868174 
701.000000	 98.768884 
700.000000	 98.628002 
699.000000	 98.439895 
698.000000	 98.217889 
697.000000	 97.995960 
696.000000	 97.818737 
695.000000	 97.720491 
694.000000	 97.710460 
693.000000	 97.774479 
692.000000	 97.888084 
691.000000	 98.031080 
690.000000	 98.189122 
689.000000	 98.347615 
688.000000	 98.490049 
687.000000	 98.603835 
686.000000	 98.689115 
685.000000	 98.755846 
684.000000	 98.811003 
683.000000	 98.855132 
682.000000	 98.890450 
681.000000	 98.925714 
680.000000	 98.968665 
679.000000	 99.018540 
678.000000	 99.070248 
677.000000	 99.118842 
676.000000	 99.164121 
675.000000	 99.210946 
674.000000	 99.262506 
673.000000	 99.318005 
672.000000	 99.381815 
671.000000	 99.467705 
670.000000	 99.588324 
669.000000	 99.724331 
668.000000	 99.791340 
667.000000	 99.744572 
666.000000	 99.672532 
665.000000	 99.639189 
664.000000	 99.649583 
663.000000	 99.694077 
662.000000	 99.753268 
661.000000	 99.802165 
660.000000	 99.830270 
659.000000	 99.845973 
658.000000	 99.858250 
657.000000	 99.861237 
656.000000	 99.850828 
655.000000	 99.841239 
654.000000	 99.847105 
653.000000	 99.865199 
652.000000	 99.886692 
651.000000	 99.906950 
650.000000	 99.917552 

