4000.000000	100.162214 
3999.000000	100.161721 
3998.000000	100.161281 
3997.000000	100.160926 
3996.000000	100.160639 
3995.000000	100.160362 
3994.000000	100.160057 
3993.000000	100.159736 
3992.000000	100.159429 
3991.000000	100.159162 
3990.000000	100.158944 
3989.000000	100.158770 
3988.000000	100.158604 
3987.000000	100.158375 
3986.000000	100.158002 
3985.000000	100.157449 
3984.000000	100.156784 
3983.000000	100.156147 
3982.000000	100.155643 
3981.000000	100.155274 
3980.000000	100.154975 
3979.000000	100.154689 
3978.000000	100.154395 
3977.000000	100.154081 
3976.000000	100.153728 
3975.000000	100.153336 
3974.000000	100.152924 
3973.000000	100.152506 
3972.000000	100.152078 
3971.000000	100.151635 
3970.000000	100.151185 
3969.000000	100.150742 
3968.000000	100.150327 
3967.000000	100.149966 
3966.000000	100.149666 
3965.000000	100.149395 
3964.000000	100.149108 
3963.000000	100.148775 
3962.000000	100.148398 
3961.000000	100.148002 
3960.000000	100.147610 
3959.000000	100.147237 
3958.000000	100.146881 
3957.000000	100.146538 
3956.000000	100.146196 
3955.000000	100.145851 
3954.000000	100.145501 
3953.000000	100.145150 
3952.000000	100.144802 
3951.000000	100.144461 
3950.000000	100.144131 
3949.000000	100.143818 
3948.000000	100.143526 
3947.000000	100.143248 
3946.000000	100.142965 
3945.000000	100.142653 
3944.000000	100.142308 
3943.000000	100.141962 
3942.000000	100.141667 
3941.000000	100.141442 
3940.000000	100.141240 
3939.000000	100.140995 
3938.000000	100.140694 
3937.000000	100.140379 
3936.000000	100.140093 
3935.000000	100.139842 
3934.000000	100.139603 
3933.000000	100.139353 
3932.000000	100.139105 
3931.000000	100.138926 
3930.000000	100.138864 
3929.000000	100.138815 
3928.000000	100.138541 
3927.000000	100.137886 
3926.000000	100.136961 
3925.000000	100.136113 
3924.000000	100.135605 
3923.000000	100.135440 
3922.000000	100.135426 
3921.000000	100.135309 
3920.000000	100.134880 
3919.000000	100.134072 
3918.000000	100.133066 
3917.000000	100.132205 
3916.000000	100.131706 
3915.000000	100.131529 
3914.000000	100.131559 
3913.000000	100.131758 
3912.000000	100.132109 
3911.000000	100.132487 
3910.000000	100.132690 
3909.000000	100.132511 
3908.000000	100.131831 
3907.000000	100.130719 
3906.000000	100.129424 
3905.000000	100.128257 
3904.000000	100.127318 
3903.000000	100.126516 
3902.000000	100.125828 
3901.000000	100.125355 
3900.000000	100.125102 
3899.000000	100.124861 
3898.000000	100.124407 
3897.000000	100.123771 
3896.000000	100.123197 
3895.000000	100.122840 
3894.000000	100.122633 
3893.000000	100.122393 
3892.000000	100.122040 
3891.000000	100.121593 
3890.000000	100.121021 
3889.000000	100.120281 
3888.000000	100.119473 
3887.000000	100.118863 
3886.000000	100.118597 
3885.000000	100.118489 
3884.000000	100.118294 
3883.000000	100.118042 
3882.000000	100.117867 
3881.000000	100.117686 
3880.000000	100.117252 
3879.000000	100.116545 
3878.000000	100.115835 
3877.000000	100.115382 
3876.000000	100.115219 
3875.000000	100.115198 
3874.000000	100.115057 
3873.000000	100.114560 
3872.000000	100.113717 
3871.000000	100.112877 
3870.000000	100.112391 
3869.000000	100.112160 
3868.000000	100.111892 
3867.000000	100.111625 
3866.000000	100.111669 
3865.000000	100.112055 
3864.000000	100.112302 
3863.000000	100.111986 
3862.000000	100.111207 
3861.000000	100.110200 
3860.000000	100.109025 
3859.000000	100.107752 
3858.000000	100.106649 
3857.000000	100.105952 
3856.000000	100.105680 
3855.000000	100.105931 
3854.000000	100.106813 
3853.000000	100.107642 
3852.000000	100.107729 
3851.000000	100.107294 
3850.000000	100.106889 
3849.000000	100.106686 
3848.000000	100.106508 
3847.000000	100.106186 
3846.000000	100.105872 
3845.000000	100.105795 
3844.000000	100.105936 
3843.000000	100.106078 
3842.000000	100.106048 
3841.000000	100.105754 
3840.000000	100.105250 
3839.000000	100.104671 
3838.000000	100.104212 
3837.000000	100.104118 
3836.000000	100.104400 
3835.000000	100.104695 
3834.000000	100.104585 
3833.000000	100.103997 
3832.000000	100.103244 
3831.000000	100.102620 
3830.000000	100.102138 
3829.000000	100.101636 
3828.000000	100.101015 
3827.000000	100.100377 
3826.000000	100.099928 
3825.000000	100.099668 
3824.000000	100.099465 
3823.000000	100.099295 
3822.000000	100.099285 
3821.000000	100.099328 
3820.000000	100.099085 
3819.000000	100.098561 
3818.000000	100.097992 
3817.000000	100.097519 
3816.000000	100.096896 
3815.000000	100.095734 
3814.000000	100.094171 
3813.000000	100.092797 
3812.000000	100.091961 
3811.000000	100.091503 
3810.000000	100.091110 
3809.000000	100.090800 
3808.000000	100.090869 
3807.000000	100.091298 
3806.000000	100.091585 
3805.000000	100.091327 
3804.000000	100.090580 
3803.000000	100.089653 
3802.000000	100.088842 
3801.000000	100.088130 
3800.000000	100.087419 
3799.000000	100.086854 
3798.000000	100.086560 
3797.000000	100.086387 
3796.000000	100.086009 
3795.000000	100.085281 
3794.000000	100.084402 
3793.000000	100.083676 
3792.000000	100.083170 
3791.000000	100.082732 
3790.000000	100.082260 
3789.000000	100.081830 
3788.000000	100.081495 
3787.000000	100.081168 
3786.000000	100.080745 
3785.000000	100.080263 
3784.000000	100.079862 
3783.000000	100.079608 
3782.000000	100.079468 
3781.000000	100.079373 
3780.000000	100.079258 
3779.000000	100.079048 
3778.000000	100.078711 
3777.000000	100.078311 
3776.000000	100.077954 
3775.000000	100.077699 
3774.000000	100.077473 
3773.000000	100.076992 
3772.000000	100.075960 
3771.000000	100.074506 
3770.000000	100.073250 
3769.000000	100.072840 
3768.000000	100.073639 
3767.000000	100.075587 
3766.000000	100.077935 
3765.000000	100.079409 
3764.000000	100.078983 
3763.000000	100.076840 
3762.000000	100.074583 
3761.000000	100.073736 
3760.000000	100.073942 
3759.000000	100.073252 
3758.000000	100.071027 
3757.000000	100.068567 
3756.000000	100.066874 
3755.000000	100.066083 
3754.000000	100.066547 
3753.000000	100.068699 
3752.000000	100.071062 
3751.000000	100.071095 
3750.000000	100.069789 
3749.000000	100.070805 
3748.000000	100.074225 
3747.000000	100.076150 
3746.000000	100.074004 
3745.000000	100.070149 
3744.000000	100.067316 
3743.000000	100.066064 
3742.000000	100.067610 
3741.000000	100.072561 
3740.000000	100.078456 
3739.000000	100.080645 
3738.000000	100.076938 
3737.000000	100.071231 
3736.000000	100.069564 
3735.000000	100.073591 
3734.000000	100.079824 
3733.000000	100.084285 
3732.000000	100.084950 
3731.000000	100.080975 
3730.000000	100.072592 
3729.000000	100.061627 
3728.000000	100.051015 
3727.000000	100.043502 
3726.000000	100.039948 
3725.000000	100.039407 
3724.000000	100.040418 
3723.000000	100.041348 
3722.000000	100.040739 
3721.000000	100.038050 
3720.000000	100.033965 
3719.000000	100.028874 
3718.000000	100.022466 
3717.000000	100.014424 
3716.000000	100.004879 
3715.000000	99.994402  
3714.000000	99.983224  
3713.000000	99.970926  
3712.000000	99.957539  
3711.000000	99.944655  
3710.000000	99.934566  
3709.000000	99.928019  
3708.000000	99.923231  
3707.000000	99.916991  
3706.000000	99.906511  
3705.000000	99.890958  
3704.000000	99.871803  
3703.000000	99.851412  
3702.000000	99.831176  
3701.000000	99.810855  
3700.000000	99.789686  
3699.000000	99.767685  
3698.000000	99.745720  
3697.000000	99.724620  
3696.000000	99.704340  
3695.000000	99.684707  
3694.000000	99.667050  
3693.000000	99.653796  
3692.000000	99.646230  
3691.000000	99.643016  
3690.000000	99.640505  
3689.000000	99.634398  
3688.000000	99.622589  
3687.000000	99.606940  
3686.000000	99.591683  
3685.000000	99.580739  
3684.000000	99.576008  
3683.000000	99.576490  
3682.000000	99.578570  
3681.000000	99.577661  
3680.000000	99.569301  
3679.000000	99.550600  
3678.000000	99.522751  
3677.000000	99.493579  
3676.000000	99.473599  
3675.000000	99.465441  
3674.000000	99.463859  
3673.000000	99.464666  
3672.000000	99.467240  
3671.000000	99.470388  
3670.000000	99.470025  
3669.000000	99.463142  
3668.000000	99.452246  
3667.000000	99.441187  
3666.000000	99.430087  
3665.000000	99.417276  
3664.000000	99.403025  
3663.000000	99.389918  
3662.000000	99.380576  
3661.000000	99.375971  
3660.000000	99.375454  
3659.000000	99.378222  
3658.000000	99.383743  
3657.000000	99.391424  
3656.000000	99.399730  
3655.000000	99.406802  
3654.000000	99.412177  
3653.000000	99.416646  
3652.000000	99.421311  
3651.000000	99.426527  
3650.000000	99.431203  
3649.000000	99.434232  
3648.000000	99.436371  
3647.000000	99.438876  
3646.000000	99.441862  
3645.000000	99.444910  
3644.000000	99.447780  
3643.000000	99.450264  
3642.000000	99.452275  
3641.000000	99.454129  
3640.000000	99.456396  
3639.000000	99.459459  
3638.000000	99.462904  
3637.000000	99.465850  
3636.000000	99.467783  
3635.000000	99.468963  
3634.000000	99.469619  
3633.000000	99.469087  
3632.000000	99.466362  
3631.000000	99.461346  
3630.000000	99.455676  
3629.000000	99.451577  
3628.000000	99.450436  
3627.000000	99.452913  
3626.000000	99.458503  
3625.000000	99.465269  
3624.000000	99.471683  
3623.000000	99.478159  
3622.000000	99.486349  
3621.000000	99.496591  
3620.000000	99.506058  
3619.000000	99.511096  
3618.000000	99.512027  
3617.000000	99.512970  
3616.000000	99.517131  
3615.000000	99.524304  
3614.000000	99.531873  
3613.000000	99.537189  
3612.000000	99.539678  
3611.000000	99.541066  
3610.000000	99.543629  
3609.000000	99.548926  
3608.000000	99.557283  
3607.000000	99.567865  
3606.000000	99.579242  
3605.000000	99.589688  
3604.000000	99.597836  
3603.000000	99.603575  
3602.000000	99.608315  
3601.000000	99.614009  
3600.000000	99.621172  
3599.000000	99.628494  
3598.000000	99.634185  
3597.000000	99.637495  
3596.000000	99.639107  
3595.000000	99.640903  
3594.000000	99.644364  
3593.000000	99.648991  
3592.000000	99.652886  
3591.000000	99.654987  
3590.000000	99.656295  
3589.000000	99.658990  
3588.000000	99.663679  
3587.000000	99.668196  
3586.000000	99.669991  
3585.000000	99.668569  
3584.000000	99.665336  
3583.000000	99.662235  
3582.000000	99.660790  
3581.000000	99.661525  
3580.000000	99.663537  
3579.000000	99.664905  
3578.000000	99.663947  
3577.000000	99.660369  
3576.000000	99.655285  
3575.000000	99.650361  
3574.000000	99.646855  
3573.000000	99.645068  
3572.000000	99.644553  
3571.000000	99.644768  
3570.000000	99.645650  
3569.000000	99.647584  
3568.000000	99.650400  
3567.000000	99.652806  
3566.000000	99.653698  
3565.000000	99.653586  
3564.000000	99.653960  
3563.000000	99.655576  
3562.000000	99.657626  
3561.000000	99.658380  
3560.000000	99.656846  
3559.000000	99.653850  
3558.000000	99.651452  
3557.000000	99.651053  
3556.000000	99.651999  
3555.000000	99.652136  
3554.000000	99.649893  
3553.000000	99.645728  
3552.000000	99.641522  
3551.000000	99.638839  
3550.000000	99.637964  
3549.000000	99.638442  
3548.000000	99.639801  
3547.000000	99.641672  
3546.000000	99.643593  
3545.000000	99.644987  
3544.000000	99.645445  
3543.000000	99.645046  
3542.000000	99.644349  
3541.000000	99.643974  
3540.000000	99.644180  
3539.000000	99.644816  
3538.000000	99.645593  
3537.000000	99.646314  
3536.000000	99.646848  
3535.000000	99.647062  
3534.000000	99.646877  
3533.000000	99.646367  
3532.000000	99.645748  
3531.000000	99.645299  
3530.000000	99.645275  
3529.000000	99.645815  
3528.000000	99.646822  
3527.000000	99.647933  
3526.000000	99.648730  
3525.000000	99.649054  
3524.000000	99.649100  
3523.000000	99.649214  
3522.000000	99.649543  
3521.000000	99.649879  
3520.000000	99.649892  
3519.000000	99.649513  
3518.000000	99.649071  
3517.000000	99.649021  
3516.000000	99.649541  
3515.000000	99.650426  
3514.000000	99.651278  
3513.000000	99.651787  
3512.000000	99.651856  
3511.000000	99.651575  
3510.000000	99.651147  
3509.000000	99.650758  
3508.000000	99.650486  
3507.000000	99.650328  
3506.000000	99.650322  
3505.000000	99.650565  
3504.000000	99.651075  
3503.000000	99.651742  
3502.000000	99.652459  
3501.000000	99.653208  
3500.000000	99.653868  
3499.000000	99.654053  
3498.000000	99.653340  
3497.000000	99.651718  
3496.000000	99.649801  
3495.000000	99.648474  
3494.000000	99.648257  
3493.000000	99.649053  
3492.000000	99.650325  
3491.000000	99.651477  
3490.000000	99.652121  
3489.000000	99.652114  
3488.000000	99.651524  
3487.000000	99.650606  
3486.000000	99.649615  
3485.000000	99.648558  
3484.000000	99.647244  
3483.000000	99.645687  
3482.000000	99.644328  
3481.000000	99.643639  
3480.000000	99.643526  
3479.000000	99.643339  
3478.000000	99.642518  
3477.000000	99.641077  
3476.000000	99.639450  
3475.000000	99.638075  
3474.000000	99.637197  
3473.000000	99.636908  
3472.000000	99.637149  
3471.000000	99.637675  
3470.000000	99.638126  
3469.000000	99.638132  
3468.000000	99.637383  
3467.000000	99.635679  
3466.000000	99.633049  
3465.000000	99.629818  
3464.000000	99.626537  
3463.000000	99.623811  
3462.000000	99.622094  
3461.000000	99.621481  
3460.000000	99.621604  
3459.000000	99.621812  
3458.000000	99.621591  
3457.000000	99.620822  
3456.000000	99.619614  
3455.000000	99.618089  
3454.000000	99.616351  
3453.000000	99.614549  
3452.000000	99.612841  
3451.000000	99.611374  
3450.000000	99.610374  
3449.000000	99.610088  
3448.000000	99.610465  
3447.000000	99.610974  
3446.000000	99.610946  
3445.000000	99.610103  
3444.000000	99.608680  
3443.000000	99.607188  
3442.000000	99.606110  
3441.000000	99.605568  
3440.000000	99.605085  
3439.000000	99.603863  
3438.000000	99.601518  
3437.000000	99.598508  
3436.000000	99.595703  
3435.000000	99.593583  
3434.000000	99.592026  
3433.000000	99.590723  
3432.000000	99.589500  
3431.000000	99.588269  
3430.000000	99.586994  
3429.000000	99.585770  
3428.000000	99.584771  
3427.000000	99.584031  
3426.000000	99.583399  
3425.000000	99.582697  
3424.000000	99.581830  
3423.000000	99.580755  
3422.000000	99.579419  
3421.000000	99.577764  
3420.000000	99.575777  
3419.000000	99.573650  
3418.000000	99.571896  
3417.000000	99.571081  
3416.000000	99.571272  
3415.000000	99.571769  
3414.000000	99.571587  
3413.000000	99.570350  
3412.000000	99.568515  
3411.000000	99.566885  
3410.000000	99.565950  
3409.000000	99.565698  
3408.000000	99.565771  
3407.000000	99.565693  
3406.000000	99.565141  
3405.000000	99.564201  
3404.000000	99.563331  
3403.000000	99.562950  
3402.000000	99.563030  
3401.000000	99.563168  
3400.000000	99.563028  
3399.000000	99.562659  
3398.000000	99.562361  
3397.000000	99.562311  
3396.000000	99.562360  
3395.000000	99.562234  
3394.000000	99.561893  
3393.000000	99.561645  
3392.000000	99.561811  
3391.000000	99.562316  
3390.000000	99.562693  
3389.000000	99.562523  
3388.000000	99.561808  
3387.000000	99.560952  
3386.000000	99.560449  
3385.000000	99.560510  
3384.000000	99.560937  
3383.000000	99.561295  
3382.000000	99.561306  
3381.000000	99.561112  
3380.000000	99.561128  
3379.000000	99.561620  
3378.000000	99.562502  
3377.000000	99.563504  
3376.000000	99.564408  
3375.000000	99.565086  
3374.000000	99.565462  
3373.000000	99.565603  
3372.000000	99.565762  
3371.000000	99.566165  
3370.000000	99.566718  
3369.000000	99.567079  
3368.000000	99.567031  
3367.000000	99.566696  
3366.000000	99.566376  
3365.000000	99.566247  
3364.000000	99.566285  
3363.000000	99.566426  
3362.000000	99.566693  
3361.000000	99.567168  
3360.000000	99.567863  
3359.000000	99.568676  
3358.000000	99.569439  
3357.000000	99.569999  
3356.000000	99.570289  
3355.000000	99.570353  
3354.000000	99.570349  
3353.000000	99.570432  
3352.000000	99.570632  
3351.000000	99.570864  
3350.000000	99.571055  
3349.000000	99.571219  
3348.000000	99.571412  
3347.000000	99.571664  
3346.000000	99.571957  
3345.000000	99.572245  
3344.000000	99.572503  
3343.000000	99.572731  
3342.000000	99.572938  
3341.000000	99.573136  
3340.000000	99.573329  
3339.000000	99.573520  
3338.000000	99.573702  
3337.000000	99.573856  
3336.000000	99.573976  
3335.000000	99.574077  
3334.000000	99.574196  
3333.000000	99.574343  
3332.000000	99.574478  
3331.000000	99.574551  
3330.000000	99.574566  
3329.000000	99.574597  
3328.000000	99.574728  
3327.000000	99.574963  
3326.000000	99.575201  
3325.000000	99.575320  
3324.000000	99.575279  
3323.000000	99.575135  
3322.000000	99.574990  
3321.000000	99.574939  
3320.000000	99.575057  
3319.000000	99.575380  
3318.000000	99.575848  
3317.000000	99.576270  
3316.000000	99.576392  
3315.000000	99.576092  
3314.000000	99.575569  
3313.000000	99.575273  
3312.000000	99.575523  
3311.000000	99.576250  
3310.000000	99.577103  
3309.000000	99.577828  
3308.000000	99.578445  
3307.000000	99.579007  
3306.000000	99.579339  
3305.000000	99.579137  
3304.000000	99.578270  
3303.000000	99.576888  
3302.000000	99.575328  
3301.000000	99.574003  
3300.000000	99.573294  
3299.000000	99.573357  
3298.000000	99.573972  
3297.000000	99.574676  
3296.000000	99.575198  
3295.000000	99.575688  
3294.000000	99.576424  
3293.000000	99.577365  
3292.000000	99.578148  
3291.000000	99.578533  
3290.000000	99.578716  
3289.000000	99.579068  
3288.000000	99.579646  
3287.000000	99.580097  
3286.000000	99.580034  
3285.000000	99.579379  
3284.000000	99.578372  
3283.000000	99.577387  
3282.000000	99.576778  
3281.000000	99.576738  
3280.000000	99.577213  
3279.000000	99.577975  
3278.000000	99.578762  
3277.000000	99.579307  
3276.000000	99.579312  
3275.000000	99.578638  
3274.000000	99.577605  
3273.000000	99.576931  
3272.000000	99.577112  
3271.000000	99.577994  
3270.000000	99.578980  
3269.000000	99.579600  
3268.000000	99.579766  
3267.000000	99.579553  
3266.000000	99.579027  
3265.000000	99.578314  
3264.000000	99.577610  
3263.000000	99.577010  
3262.000000	99.576438  
3261.000000	99.575828  
3260.000000	99.575312  
3259.000000	99.575115  
3258.000000	99.575244  
3257.000000	99.575405  
3256.000000	99.575249  
3255.000000	99.574728  
3254.000000	99.574153  
3253.000000	99.573872  
3252.000000	99.573852  
3251.000000	99.573653  
3250.000000	99.572928  
3249.000000	99.571909  
3248.000000	99.571295  
3247.000000	99.571624  
3246.000000	99.572823  
3245.000000	99.574315  
3244.000000	99.575526  
3243.000000	99.576258  
3242.000000	99.576570  
3241.000000	99.576419  
3240.000000	99.575608  
3239.000000	99.574209  
3238.000000	99.572842  
3237.000000	99.572248  
3236.000000	99.572492  
3235.000000	99.572858  
3234.000000	99.572704  
3233.000000	99.572226  
3232.000000	99.572107  
3231.000000	99.572523  
3230.000000	99.572778  
3229.000000	99.571965  
3228.000000	99.569865  
3227.000000	99.567237  
3226.000000	99.565305  
3225.000000	99.564776  
3224.000000	99.565279  
3223.000000	99.565821  
3222.000000	99.565929  
3221.000000	99.566119  
3220.000000	99.567041  
3219.000000	99.568504  
3218.000000	99.569676  
3217.000000	99.570107  
3216.000000	99.570164  
3215.000000	99.570510  
3214.000000	99.571513  
3213.000000	99.573177  
3212.000000	99.575277  
3211.000000	99.577371  
3210.000000	99.578877  
3209.000000	99.579344  
3208.000000	99.578652  
3207.000000	99.577043  
3206.000000	99.575121  
3205.000000	99.573732  
3204.000000	99.573584  
3203.000000	99.574879  
3202.000000	99.577377  
3201.000000	99.580660  
3200.000000	99.584163  
3199.000000	99.587069  
3198.000000	99.588607  
3197.000000	99.588651  
3196.000000	99.587906  
3195.000000	99.587390  
3194.000000	99.587675  
3193.000000	99.588676  
3192.000000	99.589917  
3191.000000	99.590839  
3190.000000	99.591113  
3189.000000	99.590875  
3188.000000	99.590663  
3187.000000	99.590951  
3186.000000	99.591791  
3185.000000	99.592931  
3184.000000	99.594154  
3183.000000	99.595341  
3182.000000	99.596315  
3181.000000	99.596899  
3180.000000	99.597162  
3179.000000	99.597457  
3178.000000	99.598112  
3177.000000	99.599110  
3176.000000	99.600131  
3175.000000	99.600912  
3174.000000	99.601549  
3173.000000	99.602440  
3172.000000	99.603921  
3171.000000	99.605922  
3170.000000	99.607935  
3169.000000	99.609357  
3168.000000	99.609842  
3167.000000	99.609402  
3166.000000	99.608357  
3165.000000	99.607239  
3164.000000	99.606597  
3163.000000	99.606740  
3162.000000	99.607581  
3161.000000	99.608670  
3160.000000	99.609442  
3159.000000	99.609570  
3158.000000	99.609206  
3157.000000	99.608858  
3156.000000	99.608960  
3155.000000	99.609546  
3154.000000	99.610343  
3153.000000	99.611101  
3152.000000	99.611697  
3151.000000	99.612035  
3150.000000	99.612089  
3149.000000	99.612046  
3148.000000	99.612202  
3147.000000	99.612730  
3146.000000	99.613665  
3145.000000	99.615041  
3144.000000	99.616782  
3143.000000	99.618493  
3142.000000	99.619653  
3141.000000	99.620090  
3140.000000	99.620081  
3139.000000	99.620017  
3138.000000	99.620141  
3137.000000	99.620593  
3136.000000	99.621428  
3135.000000	99.622482  
3134.000000	99.623379  
3133.000000	99.623855  
3132.000000	99.623927  
3131.000000	99.623787  
3130.000000	99.623728  
3129.000000	99.624177  
3128.000000	99.625478  
3127.000000	99.627529  
3126.000000	99.629747  
3125.000000	99.631538  
3124.000000	99.632733  
3123.000000	99.633488  
3122.000000	99.633993  
3121.000000	99.634389  
3120.000000	99.634843  
3119.000000	99.635471  
3118.000000	99.636201  
3117.000000	99.636841  
3116.000000	99.637287  
3115.000000	99.637610  
3114.000000	99.638007  
3113.000000	99.638704  
3112.000000	99.639787  
3111.000000	99.641038  
3110.000000	99.642029  
3109.000000	99.642472  
3108.000000	99.642431  
3107.000000	99.642192  
3106.000000	99.642024  
3105.000000	99.642159  
3104.000000	99.642809  
3103.000000	99.643972  
3102.000000	99.645254  
3101.000000	99.646069  
3100.000000	99.646029  
3099.000000	99.645053  
3098.000000	99.643359  
3097.000000	99.641652  
3096.000000	99.641131  
3095.000000	99.642676  
3094.000000	99.645866  
3093.000000	99.649159  
3092.000000	99.651107  
3091.000000	99.651050  
3090.000000	99.649054  
3089.000000	99.646048  
3088.000000	99.643831  
3087.000000	99.643906  
3086.000000	99.646089  
3085.000000	99.648886  
3084.000000	99.651294  
3083.000000	99.653404  
3082.000000	99.655215  
3081.000000	99.655968  
3080.000000	99.655243  
3079.000000	99.653964  
3078.000000	99.653606  
3077.000000	99.654690  
3076.000000	99.656363  
3075.000000	99.657180  
3074.000000	99.656104  
3073.000000	99.653230  
3072.000000	99.649876  
3071.000000	99.647673  
3070.000000	99.647264  
3069.000000	99.648007  
3068.000000	99.648939  
3067.000000	99.649629  
3066.000000	99.649943  
3065.000000	99.649531  
3064.000000	99.648107  
3063.000000	99.646114  
3062.000000	99.644623  
3061.000000	99.644318  
3060.000000	99.644722  
3059.000000	99.644662  
3058.000000	99.643622  
3057.000000	99.642408  
3056.000000	99.642105  
3055.000000	99.642329  
3054.000000	99.641103  
3053.000000	99.636930  
3052.000000	99.630648  
3051.000000	99.624572  
3050.000000	99.619817  
3049.000000	99.615190  
3048.000000	99.609070  
3047.000000	99.601715  
3046.000000	99.594912  
3045.000000	99.589483  
3044.000000	99.583891  
3043.000000	99.575772  
3042.000000	99.564451  
3041.000000	99.551441  
3040.000000	99.538467  
3039.000000	99.525628  
3038.000000	99.512005  
3037.000000	99.497511  
3036.000000	99.483025  
3035.000000	99.468648  
3034.000000	99.452877  
3033.000000	99.433789  
3032.000000	99.410862  
3031.000000	99.385496  
3030.000000	99.359527  
3029.000000	99.333872  
3028.000000	99.309012  
3027.000000	99.285430  
3026.000000	99.262716  
3025.000000	99.238908  
3024.000000	99.211628  
3023.000000	99.180033  
3022.000000	99.145498  
3021.000000	99.110615  
3020.000000	99.077521  
3019.000000	99.046528  
3018.000000	99.015638  
3017.000000	98.981529  
3016.000000	98.941894  
3015.000000	98.897396  
3014.000000	98.851321  
3013.000000	98.807133  
3012.000000	98.766141  
3011.000000	98.727098  
3010.000000	98.687534  
3009.000000	98.645573  
3008.000000	98.601164  
3007.000000	98.556118  
3006.000000	98.512815  
3005.000000	98.472346  
3004.000000	98.433479  
3003.000000	98.393469  
3002.000000	98.350306  
3001.000000	98.304687  
3000.000000	98.259883  
2999.000000	98.219405  
2998.000000	98.184791  
2997.000000	98.155875  
2996.000000	98.132138  
2995.000000	98.111187  
2994.000000	98.084784  
2993.000000	98.039791  
2992.000000	97.968661  
2991.000000	97.881013  
2990.000000	97.801579  
2989.000000	97.752965  
2988.000000	97.740674  
2987.000000	97.754308  
2986.000000	97.779487  
2985.000000	97.806353  
2984.000000	97.829033  
2983.000000	97.843396  
2982.000000	97.848438  
2981.000000	97.847195  
2980.000000	97.843567  
2979.000000	97.839065  
2978.000000	97.833725  
2977.000000	97.828306  
2976.000000	97.823589  
2975.000000	97.818813  
2974.000000	97.813192  
2973.000000	97.808656  
2972.000000	97.809199  
2971.000000	97.817522  
2970.000000	97.833762  
2969.000000	97.857255  
2968.000000	97.887651  
2967.000000	97.923706  
2966.000000	97.962299  
2965.000000	97.999674  
2964.000000	98.033389  
2963.000000	98.062833  
2962.000000	98.088509  
2961.000000	98.111274  
2960.000000	98.132019  
2959.000000	98.151886  
2958.000000	98.172723  
2957.000000	98.196608  
2956.000000	98.223970  
2955.000000	98.252395  
2954.000000	98.278397  
2953.000000	98.300807  
2952.000000	98.321799  
2951.000000	98.344238  
2950.000000	98.368373  
2949.000000	98.391215  
2948.000000	98.408678  
2947.000000	98.418263  
2946.000000	98.420932  
2945.000000	98.421076  
2944.000000	98.423739  
2943.000000	98.431429  
2942.000000	98.443511  
2941.000000	98.457878  
2940.000000	98.472427  
2939.000000	98.485215  
2938.000000	98.494387  
2937.000000	98.499075  
2936.000000	98.500452  
2935.000000	98.501241  
2934.000000	98.503657  
2933.000000	98.507630  
2932.000000	98.510917  
2931.000000	98.511053  
2930.000000	98.507420  
2929.000000	98.501633  
2928.000000	98.496008  
2927.000000	98.491689  
2926.000000	98.488064  
2925.000000	98.483578  
2924.000000	98.477096  
2923.000000	98.469040  
2922.000000	98.461383  
2921.000000	98.455954  
2920.000000	98.452366  
2919.000000	98.448075  
2918.000000	98.440666  
2917.000000	98.429309  
2916.000000	98.413602  
2915.000000	98.392413  
2914.000000	98.365698  
2913.000000	98.337276  
2912.000000	98.313770  
2911.000000	98.299518  
2910.000000	98.293059  
2909.000000	98.289211  
2908.000000	98.283982  
2907.000000	98.276211  
2906.000000	98.264473  
2905.000000	98.244566  
2904.000000	98.213058  
2903.000000	98.174826  
2902.000000	98.145319  
2901.000000	98.141469  
2900.000000	98.168692  
2899.000000	98.216004  
2898.000000	98.263795  
2897.000000	98.297613  
2896.000000	98.315098  
2895.000000	98.322303  
2894.000000	98.326715  
2893.000000	98.333346  
2892.000000	98.344103  
2891.000000	98.358047  
2890.000000	98.372270  
2889.000000	98.383786  
2888.000000	98.391304  
2887.000000	98.395645  
2886.000000	98.399187  
2885.000000	98.405185  
2884.000000	98.416843  
2883.000000	98.435908  
2882.000000	98.461706  
2881.000000	98.491664  
2880.000000	98.523006  
2879.000000	98.554259  
2878.000000	98.585243  
2877.000000	98.615685  
2876.000000	98.644091  
2875.000000	98.668501  
2874.000000	98.688517  
2873.000000	98.705922  
2872.000000	98.722777  
2871.000000	98.739425  
2870.000000	98.755254  
2869.000000	98.771013  
2868.000000	98.789166  
2867.000000	98.811669  
2866.000000	98.838221  
2865.000000	98.867090  
2864.000000	98.897074  
2863.000000	98.928186  
2862.000000	98.960735  
2861.000000	98.994232  
2860.000000	99.027440  
2859.000000	99.059567  
2858.000000	99.091264  
2857.000000	99.123870  
2856.000000	99.157086  
2855.000000	99.187845  
2854.000000	99.212772  
2853.000000	99.231631  
2852.000000	99.247128  
2851.000000	99.261727  
2850.000000	99.275879  
2849.000000	99.289057  
2848.000000	99.301160  
2847.000000	99.312557  
2846.000000	99.323669  
2845.000000	99.334759  
2844.000000	99.345559  
2843.000000	99.355204  
2842.000000	99.363293  
2841.000000	99.370738  
2840.000000	99.378521  
2839.000000	99.385839  
2838.000000	99.390941  
2837.000000	99.394076  
2836.000000	99.398170  
2835.000000	99.405812  
2834.000000	99.416457  
2833.000000	99.427215  
2832.000000	99.435681  
2831.000000	99.441556  
2830.000000	99.446348  
2829.000000	99.452003  
2828.000000	99.459175  
2827.000000	99.466425  
2826.000000	99.471693  
2825.000000	99.474717  
2824.000000	99.477127  
2823.000000	99.480080  
2822.000000	99.483044  
2821.000000	99.485358  
2820.000000	99.487664  
2819.000000	99.490866  
2818.000000	99.494759  
2817.000000	99.498686  
2816.000000	99.502685  
2815.000000	99.506879  
2814.000000	99.510415  
2813.000000	99.512260  
2812.000000	99.512762  
2811.000000	99.513370  
2810.000000	99.515017  
2809.000000	99.517676  
2808.000000	99.521284  
2807.000000	99.526016  
2806.000000	99.531340  
2805.000000	99.535585  
2804.000000	99.537093  
2803.000000	99.535768  
2802.000000	99.533423  
2801.000000	99.532467  
2800.000000	99.533985  
2799.000000	99.536999  
2798.000000	99.539758  
2797.000000	99.541651  
2796.000000	99.543516  
2795.000000	99.546150  
2794.000000	99.549116  
2793.000000	99.551262  
2792.000000	99.551928  
2791.000000	99.551399  
2790.000000	99.550554  
2789.000000	99.550361  
2788.000000	99.551367  
2787.000000	99.553338  
2786.000000	99.555563  
2785.000000	99.557629  
2784.000000	99.559688  
2783.000000	99.561916  
2782.000000	99.564058  
2781.000000	99.565654  
2780.000000	99.566475  
2779.000000	99.566663  
2778.000000	99.566689  
2777.000000	99.567145  
2776.000000	99.568290  
2775.000000	99.569693  
2774.000000	99.570622  
2773.000000	99.570894  
2772.000000	99.571129  
2771.000000	99.572068  
2770.000000	99.573830  
2769.000000	99.575933  
2768.000000	99.577777  
2767.000000	99.579063  
2766.000000	99.579861  
2765.000000	99.580439  
2764.000000	99.581051  
2763.000000	99.581780  
2762.000000	99.582577  
2761.000000	99.583452  
2760.000000	99.584530  
2759.000000	99.585866  
2758.000000	99.587274  
2757.000000	99.588467  
2756.000000	99.589339  
2755.000000	99.589981  
2754.000000	99.590475  
2753.000000	99.590845  
2752.000000	99.591181  
2751.000000	99.591708  
2750.000000	99.592675  
2749.000000	99.594200  
2748.000000	99.596164  
2747.000000	99.598194  
2746.000000	99.599869  
2745.000000	99.601068  
2744.000000	99.602020  
2743.000000	99.602971  
2742.000000	99.603934  
2741.000000	99.604881  
2740.000000	99.605968  
2739.000000	99.607334  
2738.000000	99.608798  
2737.000000	99.610036  
2736.000000	99.610983  
2735.000000	99.611834  
2734.000000	99.612710  
2733.000000	99.613613  
2732.000000	99.614680  
2731.000000	99.616169  
2730.000000	99.618068  
2729.000000	99.619961  
2728.000000	99.621429  
2727.000000	99.622477  
2726.000000	99.623474  
2725.000000	99.624759  
2724.000000	99.626367  
2723.000000	99.628045  
2722.000000	99.629388  
2721.000000	99.630061  
2720.000000	99.630057  
2719.000000	99.629781  
2718.000000	99.629792  
2717.000000	99.630291  
2716.000000	99.630888  
2715.000000	99.630989  
2714.000000	99.630431  
2713.000000	99.629679  
2712.000000	99.629426  
2711.000000	99.630072  
2710.000000	99.631547  
2709.000000	99.633382  
2708.000000	99.634957  
2707.000000	99.635940  
2706.000000	99.636567  
2705.000000	99.637328  
2704.000000	99.638276  
2703.000000	99.638917  
2702.000000	99.638949  
2701.000000	99.638754  
2700.000000	99.638869  
2699.000000	99.639260  
2698.000000	99.639532  
2697.000000	99.639604  
2696.000000	99.639661  
2695.000000	99.639570  
2694.000000	99.638948  
2693.000000	99.637891  
2692.000000	99.637083  
2691.000000	99.636990  
2690.000000	99.637398  
2689.000000	99.637983  
2688.000000	99.638897  
2687.000000	99.640400  
2686.000000	99.642146  
2685.000000	99.643253  
2684.000000	99.643058  
2683.000000	99.641557  
2682.000000	99.639297  
2681.000000	99.637072  
2680.000000	99.635628  
2679.000000	99.635360  
2678.000000	99.636120  
2677.000000	99.637319  
2676.000000	99.638264  
2675.000000	99.638529  
2674.000000	99.638099  
2673.000000	99.637337  
2672.000000	99.636714  
2671.000000	99.636449  
2670.000000	99.636403  
2669.000000	99.636268  
2668.000000	99.635719  
2667.000000	99.634402  
2666.000000	99.632088  
2665.000000	99.629079  
2664.000000	99.626289  
2663.000000	99.624591  
2662.000000	99.624048  
2661.000000	99.623909  
2660.000000	99.623378  
2659.000000	99.622342  
2658.000000	99.621273  
2657.000000	99.620555  
2656.000000	99.620107  
2655.000000	99.619721  
2654.000000	99.619564  
2653.000000	99.619979  
2652.000000	99.620760  
2651.000000	99.621023  
2650.000000	99.620108  
2649.000000	99.618297  
2648.000000	99.616334  
2647.000000	99.614489  
2646.000000	99.612658  
2645.000000	99.611192  
2644.000000	99.610826  
2643.000000	99.611566  
2642.000000	99.612236  
2641.000000	99.611516  
2640.000000	99.609190  
2639.000000	99.606167  
2638.000000	99.603651  
2637.000000	99.602393  
2636.000000	99.602379  
2635.000000	99.602897  
2634.000000	99.603230  
2633.000000	99.603509  
2632.000000	99.604502  
2631.000000	99.606490  
2630.000000	99.608777  
2629.000000	99.610394  
2628.000000	99.610907  
2627.000000	99.610369  
2626.000000	99.609028  
2625.000000	99.607416  
2624.000000	99.606229  
2623.000000	99.605678  
2622.000000	99.605290  
2621.000000	99.604707  
2620.000000	99.604340  
2619.000000	99.604755  
2618.000000	99.605790  
2617.000000	99.606765  
2616.000000	99.607345  
2615.000000	99.607727  
2614.000000	99.608089  
2613.000000	99.608323  
2612.000000	99.608272  
2611.000000	99.607927  
2610.000000	99.607400  
2609.000000	99.606933  
2608.000000	99.606866  
2607.000000	99.607346  
2606.000000	99.608111  
2605.000000	99.608685  
2604.000000	99.608830  
2603.000000	99.608679  
2602.000000	99.608537  
2601.000000	99.608619  
2600.000000	99.608902  
2599.000000	99.609192  
2598.000000	99.609372  
2597.000000	99.609556  
2596.000000	99.609904  
2595.000000	99.610382  
2594.000000	99.610837  
2593.000000	99.611202  
2592.000000	99.611519  
2591.000000	99.611824  
2590.000000	99.612096  
2589.000000	99.612302  
2588.000000	99.612458  
2587.000000	99.612656  
2586.000000	99.612983  
2585.000000	99.613438  
2584.000000	99.613946  
2583.000000	99.614435  
2582.000000	99.614901  
2581.000000	99.615391  
2580.000000	99.615947  
2579.000000	99.616539  
2578.000000	99.617078  
2577.000000	99.617502  
2576.000000	99.617843  
2575.000000	99.618203  
2574.000000	99.618637  
2573.000000	99.619114  
2572.000000	99.619566  
2571.000000	99.619961  
2570.000000	99.620324  
2569.000000	99.620722  
2568.000000	99.621195  
2567.000000	99.621669  
2566.000000	99.621990  
2565.000000	99.622097  
2564.000000	99.622174  
2563.000000	99.622499  
2562.000000	99.623127  
2561.000000	99.623788  
2560.000000	99.624212  
2559.000000	99.624415  
2558.000000	99.624572  
2557.000000	99.624779  
2556.000000	99.625114  
2555.000000	99.625667  
2554.000000	99.626336  
2553.000000	99.626852  
2552.000000	99.627172  
2551.000000	99.627579  
2550.000000	99.628235  
2549.000000	99.628907  
2548.000000	99.629336  
2547.000000	99.629597  
2546.000000	99.629821  
2545.000000	99.629856  
2544.000000	99.629494  
2543.000000	99.628824  
2542.000000	99.628113  
2541.000000	99.627478  
2540.000000	99.626918  
2539.000000	99.626550  
2538.000000	99.626565  
2537.000000	99.626978  
2536.000000	99.627513  
2535.000000	99.627742  
2534.000000	99.627329  
2533.000000	99.626243  
2532.000000	99.624770  
2531.000000	99.623315  
2530.000000	99.622193  
2529.000000	99.621681  
2528.000000	99.622057  
2527.000000	99.623302  
2526.000000	99.624844  
2525.000000	99.625959  
2524.000000	99.626566  
2523.000000	99.627247  
2522.000000	99.628320  
2521.000000	99.629151  
2520.000000	99.628772  
2519.000000	99.627023  
2518.000000	99.624778  
2517.000000	99.623185  
2516.000000	99.622691  
2515.000000	99.622906  
2514.000000	99.623075  
2513.000000	99.622640  
2512.000000	99.621546  
2511.000000	99.620206  
2510.000000	99.619244  
2509.000000	99.619055  
2508.000000	99.619521  
2507.000000	99.620108  
2506.000000	99.620311  
2505.000000	99.620042  
2504.000000	99.619565  
2503.000000	99.619204  
2502.000000	99.619168  
2501.000000	99.619516  
2500.000000	99.620147  
2499.000000	99.620798  
2498.000000	99.621191  
2497.000000	99.621225  
2496.000000	99.620966  
2495.000000	99.620540  
2494.000000	99.620150  
2493.000000	99.620072  
2492.000000	99.620461  
2491.000000	99.621145  
2490.000000	99.621754  
2489.000000	99.622087  
2488.000000	99.622180  
2487.000000	99.622093  
2486.000000	99.621822  
2485.000000	99.621424  
2484.000000	99.621045  
2483.000000	99.620785  
2482.000000	99.620641  
2481.000000	99.620593  
2480.000000	99.620646  
2479.000000	99.620756  
2478.000000	99.620809  
2477.000000	99.620714  
2476.000000	99.620481  
2475.000000	99.620173  
2474.000000	99.619848  
2473.000000	99.619578  
2472.000000	99.619420  
2471.000000	99.619325  
2470.000000	99.619197  
2469.000000	99.619094  
2468.000000	99.619199  
2467.000000	99.619542  
2466.000000	99.619904  
2465.000000	99.620093  
2464.000000	99.620113  
2463.000000	99.619936  
2462.000000	99.619396  
2461.000000	99.618533  
2460.000000	99.617826  
2459.000000	99.617749  
2458.000000	99.618212  
2457.000000	99.618614  
2456.000000	99.618444  
2455.000000	99.617635  
2454.000000	99.616505  
2453.000000	99.615632  
2452.000000	99.615557  
2451.000000	99.616293  
2450.000000	99.617065  
2449.000000	99.616989  
2448.000000	99.616046  
2447.000000	99.615015  
2446.000000	99.614379  
2445.000000	99.613730  
2444.000000	99.612478  
2443.000000	99.610728  
2442.000000	99.609196  
2441.000000	99.608491  
2440.000000	99.608729  
2439.000000	99.609602  
2438.000000	99.610572  
2437.000000	99.611175  
2436.000000	99.611303  
2435.000000	99.611147  
2434.000000	99.610910  
2433.000000	99.610730  
2432.000000	99.610823  
2431.000000	99.611372  
2430.000000	99.612205  
2429.000000	99.612904  
2428.000000	99.613322  
2427.000000	99.613689  
2426.000000	99.614196  
2425.000000	99.614733  
2424.000000	99.615133  
2423.000000	99.615445  
2422.000000	99.615785  
2421.000000	99.616055  
2420.000000	99.616079  
2419.000000	99.616048  
2418.000000	99.616559  
2417.000000	99.617964  
2416.000000	99.619731  
2415.000000	99.620794  
2414.000000	99.620685  
2413.000000	99.620025  
2412.000000	99.619706  
2411.000000	99.619836  
2410.000000	99.619972  
2409.000000	99.620005  
2408.000000	99.620147  
2407.000000	99.620260  
2406.000000	99.620029  
2405.000000	99.619742  
2404.000000	99.620015  
2403.000000	99.620638  
2402.000000	99.620639  
2401.000000	99.619744  
2400.000000	99.618982  
2399.000000	99.619457  
2398.000000	99.621204  
2397.000000	99.623515  
2396.000000	99.625645  
2395.000000	99.626718  
2394.000000	99.625828  
2393.000000	99.623286  
2392.000000	99.620987  
2391.000000	99.620591  
2390.000000	99.621689  
2389.000000	99.622336  
2388.000000	99.621240  
2387.000000	99.618554  
2386.000000	99.615112  
2385.000000	99.611694  
2384.000000	99.609022  
2383.000000	99.607672  
2382.000000	99.607768  
2381.000000	99.609086  
2380.000000	99.611356  
2379.000000	99.614207  
2378.000000	99.617007  
2377.000000	99.619099  
2376.000000	99.620076  
2375.000000	99.619699  
2374.000000	99.618018  
2373.000000	99.615629  
2372.000000	99.613366  
2371.000000	99.611498  
2370.000000	99.609679  
2369.000000	99.607799  
2368.000000	99.606210  
2367.000000	99.605093  
2366.000000	99.604283  
2365.000000	99.603592  
2364.000000	99.602684  
2363.000000	99.600749  
2362.000000	99.597214  
2361.000000	99.593136  
2360.000000	99.589959  
2359.000000	99.587799  
2358.000000	99.586043  
2357.000000	99.584984  
2356.000000	99.585387  
2355.000000	99.586993  
2354.000000	99.590136  
2353.000000	99.593935  
2352.000000	99.595032  
2351.000000	99.591051  
2350.000000	99.582705  
2349.000000	99.573501  
2348.000000	99.566539  
2347.000000	99.564218  
2346.000000	99.566102  
2345.000000	99.567539  
2344.000000	99.564850  
2343.000000	99.558761  
2342.000000	99.553626  
2341.000000	99.551362  
2340.000000	99.550874  
2339.000000	99.550549  
2338.000000	99.550648  
2337.000000	99.551696  
2336.000000	99.551469  
2335.000000	99.547139  
2334.000000	99.540263  
2333.000000	99.535072  
2332.000000	99.532793  
2331.000000	99.531888  
2330.000000	99.530588  
2329.000000	99.528787  
2328.000000	99.523669  
2327.000000	99.513038  
2326.000000	99.498183  
2325.000000	99.483197  
2324.000000	99.472881  
2323.000000	99.468993  
2322.000000	99.471846  
2321.000000	99.478400  
2320.000000	99.484982  
2319.000000	99.489576  
2318.000000	99.492765  
2317.000000	99.496585  
2316.000000	99.502137  
2315.000000	99.509522  
2314.000000	99.516771  
2313.000000	99.521428  
2312.000000	99.521900  
2311.000000	99.519504  
2310.000000	99.516651  
2309.000000	99.514365  
2308.000000	99.512441  
2307.000000	99.511538  
2306.000000	99.513303  
2305.000000	99.517514  
2304.000000	99.521903  
2303.000000	99.524473  
2302.000000	99.525268  
2301.000000	99.525035  
2300.000000	99.524137  
2299.000000	99.523612  
2298.000000	99.525271  
2297.000000	99.530142  
2296.000000	99.536266  
2295.000000	99.540238  
2294.000000	99.540224  
2293.000000	99.537290  
2292.000000	99.533763  
2291.000000	99.531134  
2290.000000	99.529662  
2289.000000	99.528823  
2288.000000	99.528220  
2287.000000	99.528209  
2286.000000	99.530136  
2285.000000	99.534890  
2284.000000	99.541443  
2283.000000	99.547218  
2282.000000	99.550609  
2281.000000	99.552125  
2280.000000	99.553147  
2279.000000	99.554441  
2278.000000	99.556241  
2277.000000	99.558824  
2276.000000	99.562176  
2275.000000	99.565534  
2274.000000	99.567999  
2273.000000	99.569702  
2272.000000	99.571696  
2271.000000	99.574556  
2270.000000	99.577606  
2269.000000	99.579942  
2268.000000	99.581739  
2267.000000	99.583923  
2266.000000	99.586801  
2265.000000	99.589661  
2264.000000	99.591767  
2263.000000	99.593236  
2262.000000	99.594703  
2261.000000	99.596377  
2260.000000	99.597926  
2259.000000	99.599203  
2258.000000	99.600636  
2257.000000	99.602723  
2256.000000	99.605426  
2255.000000	99.608171  
2254.000000	99.610420  
2253.000000	99.612155  
2252.000000	99.613723  
2251.000000	99.615477  
2250.000000	99.617513  
2249.000000	99.619720  
2248.000000	99.621914  
2247.000000	99.623974  
2246.000000	99.625902  
2245.000000	99.627773  
2244.000000	99.629625  
2243.000000	99.631435  
2242.000000	99.633183  
2241.000000	99.634904  
2240.000000	99.636646  
2239.000000	99.638432  
2238.000000	99.640242  
2237.000000	99.642052  
2236.000000	99.643848  
2235.000000	99.645626  
2234.000000	99.647388  
2233.000000	99.649139  
2232.000000	99.650885  
2231.000000	99.652625  
2230.000000	99.654357  
2229.000000	99.656079  
2228.000000	99.657791  
2227.000000	99.659492  
2226.000000	99.661181  
2225.000000	99.662859  
2224.000000	99.664534  
2223.000000	99.666222  
2222.000000	99.667939  
2221.000000	99.669696  
2220.000000	99.671497  
2219.000000	99.673333  
2218.000000	99.675190  
2217.000000	99.677062  
2216.000000	99.678951  
2215.000000	99.680865  
2214.000000	99.682806  
2213.000000	99.684771  
2212.000000	99.686746  
2211.000000	99.688715  
2210.000000	99.690662  
2209.000000	99.692580  
2208.000000	99.694472  
2207.000000	99.696343  
2206.000000	99.698197  
2205.000000	99.700040  
2204.000000	99.701885  
2203.000000	99.703755  
2202.000000	99.705651  
2201.000000	99.707589  
2200.000000	99.709755  
2199.000000	99.712614  
2198.000000	99.716332  
2197.000000	99.719708  
2196.000000	99.720966  
2195.000000	99.719979  
2194.000000	99.718447  
2193.000000	99.717929  
2192.000000	99.719075  
2191.000000	99.722367  
2190.000000	99.728032  
2189.000000	99.735079  
2188.000000	99.741410  
2187.000000	99.745166  
2186.000000	99.746091  
2185.000000	99.746023  
2184.000000	99.747815  
2183.000000	99.752837  
2182.000000	99.759287  
2181.000000	99.763601  
2180.000000	99.764057  
2179.000000	99.762736  
2178.000000	99.763837  
2177.000000	99.770079  
2176.000000	99.780318  
2175.000000	99.790256  
2174.000000	99.795578  
2173.000000	99.794537  
2172.000000	99.787904  
2171.000000	99.777860  
2170.000000	99.767998  
2169.000000	99.762807  
2168.000000	99.764460  
2167.000000	99.770167  
2166.000000	99.774898  
2165.000000	99.777110  
2164.000000	99.779650  
2163.000000	99.785313  
2162.000000	99.795255  
2161.000000	99.812087  
2160.000000	99.839037  
2159.000000	99.872288  
2158.000000	99.898746  
2157.000000	99.907857  
2156.000000	99.901762  
2155.000000	99.890715  
2154.000000	99.881917  
2153.000000	99.875339  
2152.000000	99.867171  
2151.000000	99.853817  
2150.000000	99.834913  
2149.000000	99.815606  
2148.000000	99.804015  
2147.000000	99.803796  
2146.000000	99.810750  
2145.000000	99.818213  
2144.000000	99.823673  
2143.000000	99.827510  
2142.000000	99.827898  
2141.000000	99.821731  
2140.000000	99.810159  
2139.000000	99.799195  
2138.000000	99.793779  
2137.000000	99.793454  
2136.000000	99.794176  
2135.000000	99.792300  
2134.000000	99.786358  
2133.000000	99.777114  
2132.000000	99.767127  
2131.000000	99.759297  
2130.000000	99.754826  
2129.000000	99.752423  
2128.000000	99.749536  
2127.000000	99.744502  
2126.000000	99.738113  
2125.000000	99.733229  
2124.000000	99.732028  
2123.000000	99.733306  
2122.000000	99.733313  
2121.000000	99.729718  
2120.000000	99.723582  
2119.000000	99.716771  
2118.000000	99.709109  
2117.000000	99.699783  
2116.000000	99.690407  
2115.000000	99.684501  
2114.000000	99.683664  
2113.000000	99.685556  
2112.000000	99.686369  
2111.000000	99.684158  
2110.000000	99.679846  
2109.000000	99.676152  
2108.000000	99.675435  
2107.000000	99.677692  
2106.000000	99.680394  
2105.000000	99.680841  
2104.000000	99.678883  
2103.000000	99.676896  
2102.000000	99.677225  
2101.000000	99.680156  
2100.000000	99.684087  
2099.000000	99.686989  
2098.000000	99.687760  
2097.000000	99.686969  
2096.000000	99.686714  
2095.000000	99.689222  
2094.000000	99.694849  
2093.000000	99.701194  
2092.000000	99.704550  
2091.000000	99.702944  
2090.000000	99.698005  
2089.000000	99.693673  
2088.000000	99.692319  
2087.000000	99.692755  
2086.000000	99.692728  
2085.000000	99.692487  
2084.000000	99.694523  
2083.000000	99.700077  
2082.000000	99.707433  
2081.000000	99.713698  
2080.000000	99.717227  
2079.000000	99.717790  
2078.000000	99.715802  
2077.000000	99.712559  
2076.000000	99.710097  
2075.000000	99.709746  
2074.000000	99.711349  
2073.000000	99.714313  
2072.000000	99.718674  
2071.000000	99.724378  
2070.000000	99.730277  
2069.000000	99.734894  
2068.000000	99.737914  
2067.000000	99.740145  
2066.000000	99.742301  
2065.000000	99.744514  
2064.000000	99.746709  
2063.000000	99.748636  
2062.000000	99.749747  
2061.000000	99.749819  
2060.000000	99.749528  
2059.000000	99.749818  
2058.000000	99.751008  
2057.000000	99.753275  
2056.000000	99.757372  
2055.000000	99.763482  
2054.000000	99.769831  
2053.000000	99.773856  
2052.000000	99.774742  
2051.000000	99.773794  
2050.000000	99.772919  
2049.000000	99.773994  
2048.000000	99.778861  
2047.000000	99.788070  
2046.000000	99.799823  
2045.000000	99.811182  
2044.000000	99.820211  
2043.000000	99.826211  
2042.000000	99.828810  
2041.000000	99.828396  
2040.000000	99.826587  
2039.000000	99.824484  
2038.000000	99.821467  
2037.000000	99.817640  
2036.000000	99.816188  
2035.000000	99.820619  
2034.000000	99.830099  
2033.000000	99.839722  
2032.000000	99.845795  
2031.000000	99.848683  
2030.000000	99.850146  
2029.000000	99.850480  
2028.000000	99.849236  
2027.000000	99.847079  
2026.000000	99.845858  
2025.000000	99.847410  
2024.000000	99.852590  
2023.000000	99.860841  
2022.000000	99.870219  
2021.000000	99.877993  
2020.000000	99.881421  
2019.000000	99.878666  
2018.000000	99.870430  
2017.000000	99.860777  
2016.000000	99.854199  
2015.000000	99.850912  
2014.000000	99.847122  
2013.000000	99.840388  
2012.000000	99.832853  
2011.000000	99.828442  
2010.000000	99.828776  
2009.000000	99.833053  
2008.000000	99.839638  
2007.000000	99.845731  
2006.000000	99.847178  
2005.000000	99.841521  
2004.000000	99.830959  
2003.000000	99.820737  
2002.000000	99.814691  
2001.000000	99.813500  
2000.000000	99.816040  
1999.000000	99.820535  
1998.000000	99.824767  
1997.000000	99.826871  
1996.000000	99.826539  
1995.000000	99.824773  
1994.000000	99.822585  
1993.000000	99.820454  
1992.000000	99.818383  
1991.000000	99.815593  
1990.000000	99.811059  
1989.000000	99.805378  
1988.000000	99.801064  
1987.000000	99.799782  
1986.000000	99.800228  
1985.000000	99.800008  
1984.000000	99.798669  
1983.000000	99.797324  
1982.000000	99.796564  
1981.000000	99.797072  
1980.000000	99.801148  
1979.000000	99.810528  
1978.000000	99.822322  
1977.000000	99.830092  
1976.000000	99.830655  
1975.000000	99.826987  
1974.000000	99.823786  
1973.000000	99.822250  
1972.000000	99.820296  
1971.000000	99.816001  
1970.000000	99.809614  
1969.000000	99.803195  
1968.000000	99.798765  
1967.000000	99.796079  
1966.000000	99.792680  
1965.000000	99.787483  
1964.000000	99.783598  
1963.000000	99.785629  
1962.000000	99.794063  
1961.000000	99.803558  
1960.000000	99.807697  
1959.000000	99.804374  
1958.000000	99.796008  
1957.000000	99.786213  
1956.000000	99.777057  
1955.000000	99.769009  
1954.000000	99.762254  
1953.000000	99.757144  
1952.000000	99.753551  
1951.000000	99.750406  
1950.000000	99.746345  
1949.000000	99.740883  
1948.000000	99.734596  
1947.000000	99.728243  
1946.000000	99.722140  
1945.000000	99.716163  
1944.000000	99.709839  
1943.000000	99.702696  
1942.000000	99.695306  
1941.000000	99.689681  
1940.000000	99.687626  
1939.000000	99.688900  
1938.000000	99.691378  
1937.000000	99.692668  
1936.000000	99.691386  
1935.000000	99.687182  
1934.000000	99.680517  
1933.000000	99.672907  
1932.000000	99.666369  
1931.000000	99.661807  
1930.000000	99.658363  
1929.000000	99.654566  
1928.000000	99.649829  
1927.000000	99.644773  
1926.000000	99.640267  
1925.000000	99.636380  
1924.000000	99.632244  
1923.000000	99.626933  
1922.000000	99.620607  
1921.000000	99.614612  
1920.000000	99.610159  
1919.000000	99.607206  
1918.000000	99.604795  
1917.000000	99.602084  
1916.000000	99.598806  
1915.000000	99.594840  
1914.000000	99.589996  
1913.000000	99.584483  
1912.000000	99.579212  
1911.000000	99.575074  
1910.000000	99.572077  
1909.000000	99.569384  
1908.000000	99.566235  
1907.000000	99.562593  
1906.000000	99.558743  
1905.000000	99.554743  
1904.000000	99.550479  
1903.000000	99.545912  
1902.000000	99.541286  
1901.000000	99.537080  
1900.000000	99.533505  
1899.000000	99.530198  
1898.000000	99.526823  
1897.000000	99.523813  
1896.000000	99.521823  
1895.000000	99.520305  
1894.000000	99.517790  
1893.000000	99.513971  
1892.000000	99.510147  
1891.000000	99.507158  
1890.000000	99.504214  
1889.000000	99.500370  
1888.000000	99.495993  
1887.000000	99.491868  
1886.000000	99.488203  
1885.000000	99.485384  
1884.000000	99.484309  
1883.000000	99.485220  
1882.000000	99.487331  
1881.000000	99.489998  
1880.000000	99.492769  
1879.000000	99.494402  
1878.000000	99.493622  
1877.000000	99.490935  
1876.000000	99.488157  
1875.000000	99.485721  
1874.000000	99.482330  
1873.000000	99.477726  
1872.000000	99.473415  
1871.000000	99.470233  
1870.000000	99.467768  
1869.000000	99.466931  
1868.000000	99.469887  
1867.000000	99.476114  
1866.000000	99.482008  
1865.000000	99.484979  
1864.000000	99.485116  
1863.000000	99.482834  
1862.000000	99.477966  
1861.000000	99.472358  
1860.000000	99.470267  
1859.000000	99.473884  
1858.000000	99.480767  
1857.000000	99.487265  
1856.000000	99.492772  
1855.000000	99.498449  
1854.000000	99.503844  
1853.000000	99.507797  
1852.000000	99.510771  
1851.000000	99.513802  
1850.000000	99.516236  
1849.000000	99.516404  
1848.000000	99.514402  
1847.000000	99.512275  
1846.000000	99.511975  
1845.000000	99.514169  
1844.000000	99.518043  
1843.000000	99.521791  
1842.000000	99.524099  
1841.000000	99.524678  
1840.000000	99.523491  
1839.000000	99.520504  
1838.000000	99.516270  
1837.000000	99.512991  
1836.000000	99.513422  
1835.000000	99.517400  
1834.000000	99.521278  
1833.000000	99.521964  
1832.000000	99.519836  
1831.000000	99.517638  
1830.000000	99.517286  
1829.000000	99.518054  
1828.000000	99.518521  
1827.000000	99.517625  
1826.000000	99.514092  
1825.000000	99.508294  
1824.000000	99.503360  
1823.000000	99.501700  
1822.000000	99.502029  
1821.000000	99.502216  
1820.000000	99.503056  
1819.000000	99.506579  
1818.000000	99.511456  
1817.000000	99.513864  
1816.000000	99.513071  
1815.000000	99.511778  
1814.000000	99.511663  
1813.000000	99.511950  
1812.000000	99.512102  
1811.000000	99.512514  
1810.000000	99.511867  
1809.000000	99.508615  
1808.000000	99.504831  
1807.000000	99.504061  
1806.000000	99.506252  
1805.000000	99.507680  
1804.000000	99.505509  
1803.000000	99.500351  
1802.000000	99.495838  
1801.000000	99.496578  
1800.000000	99.504505  
1799.000000	99.516185  
1798.000000	99.524945  
1797.000000	99.527889  
1796.000000	99.529123  
1795.000000	99.534579  
1794.000000	99.545552  
1793.000000	99.557598  
1792.000000	99.565698  
1791.000000	99.569604  
1790.000000	99.572256  
1789.000000	99.576261  
1788.000000	99.582812  
1787.000000	99.591031  
1786.000000	99.598271  
1785.000000	99.603767  
1784.000000	99.610822  
1783.000000	99.622122  
1782.000000	99.636358  
1781.000000	99.650610  
1780.000000	99.663710  
1779.000000	99.676570  
1778.000000	99.689269  
1777.000000	99.701127  
1776.000000	99.712819  
1775.000000	99.726361  
1774.000000	99.743183  
1773.000000	99.762439  
1772.000000	99.780984  
1771.000000	99.797385  
1770.000000	99.813351  
1769.000000	99.829971  
1768.000000	99.848490  
1767.000000	99.871309  
1766.000000	99.898472  
1765.000000	99.926446  
1764.000000	99.951585  
1763.000000	99.973517  
1762.000000	99.994519  
1761.000000	100.016388 
1760.000000	100.039987 
1759.000000	100.065266 
1758.000000	100.089577 
1757.000000	100.109403 
1756.000000	100.124551 
1755.000000	100.140105 
1754.000000	100.159197 
1753.000000	100.176626 
1752.000000	100.183332 
1751.000000	100.178040 
1750.000000	100.170258 
1749.000000	100.167260 
1748.000000	100.166204 
1747.000000	100.161528 
1746.000000	100.152451 
1745.000000	100.139920 
1744.000000	100.123555 
1743.000000	100.103817 
1742.000000	100.081560 
1741.000000	100.055118 
1740.000000	100.022775 
1739.000000	99.988549  
1738.000000	99.959929  
1737.000000	99.937149  
1736.000000	99.911978  
1735.000000	99.876626  
1734.000000	99.833865  
1733.000000	99.797566  
1732.000000	99.775967  
1731.000000	99.763459  
1730.000000	99.751417  
1729.000000	99.737637  
1728.000000	99.724666  
1727.000000	99.715711  
1726.000000	99.711219  
1725.000000	99.708318  
1724.000000	99.703344  
1723.000000	99.695470  
1722.000000	99.686201  
1721.000000	99.677314  
1720.000000	99.669349  
1719.000000	99.662483  
1718.000000	99.655656  
1717.000000	99.646497  
1716.000000	99.637740  
1715.000000	99.633870  
1714.000000	99.632921  
1713.000000	99.631538  
1712.000000	99.630197  
1711.000000	99.630281  
1710.000000	99.631017  
1709.000000	99.631044  
1708.000000	99.630255  
1707.000000	99.629234  
1706.000000	99.627697  
1705.000000	99.624911  
1704.000000	99.623010  
1703.000000	99.623079  
1702.000000	99.622578  
1701.000000	99.618416  
1700.000000	99.611611  
1699.000000	99.608556  
1698.000000	99.610689  
1697.000000	99.611628  
1696.000000	99.606597  
1695.000000	99.597200  
1694.000000	99.588970  
1693.000000	99.584830  
1692.000000	99.582966  
1691.000000	99.582017  
1690.000000	99.581160  
1689.000000	99.580111  
1688.000000	99.579724  
1687.000000	99.581366  
1686.000000	99.585649  
1685.000000	99.591526  
1684.000000	99.595447  
1683.000000	99.595009  
1682.000000	99.594022  
1681.000000	99.594740  
1680.000000	99.595343  
1679.000000	99.596627  
1678.000000	99.599915  
1677.000000	99.604800  
1676.000000	99.608335  
1675.000000	99.608445  
1674.000000	99.607196  
1673.000000	99.607831  
1672.000000	99.610328  
1671.000000	99.613394  
1670.000000	99.616237  
1669.000000	99.618319  
1668.000000	99.619660  
1667.000000	99.621094  
1666.000000	99.622963  
1665.000000	99.624672  
1664.000000	99.626077  
1663.000000	99.627532  
1662.000000	99.628902  
1661.000000	99.629933  
1660.000000	99.630379  
1659.000000	99.630676  
1658.000000	99.631781  
1657.000000	99.634046  
1656.000000	99.636325  
1655.000000	99.637889  
1654.000000	99.641097  
1653.000000	99.645818  
1652.000000	99.648058  
1651.000000	99.649179  
1650.000000	99.650921  
1649.000000	99.651948  
1648.000000	99.652838  
1647.000000	99.654215  
1646.000000	99.655858  
1645.000000	99.657251  
1644.000000	99.659113  
1643.000000	99.661533  
1642.000000	99.663877  
1641.000000	99.665673  
1640.000000	99.667042  
1639.000000	99.668477  
1638.000000	99.670229  
1637.000000	99.672778  
1636.000000	99.676655  
1635.000000	99.680465  
1634.000000	99.682729  
1633.000000	99.684087  
1632.000000	99.685423  
1631.000000	99.687084  
1630.000000	99.689152  
1629.000000	99.691572  
1628.000000	99.694170  
1627.000000	99.696471  
1626.000000	99.698289  
1625.000000	99.700077  
1624.000000	99.702432  
1623.000000	99.704963  
1622.000000	99.706721  
1621.000000	99.708318  
1620.000000	99.710550  
1619.000000	99.712871  
1618.000000	99.714820  
1617.000000	99.717432  
1616.000000	99.721728  
1615.000000	99.727197  
1614.000000	99.732570  
1613.000000	99.736359  
1612.000000	99.738203  
1611.000000	99.738752  
1610.000000	99.739327  
1609.000000	99.741820  
1608.000000	99.747116  
1607.000000	99.753577  
1606.000000	99.758632  
1605.000000	99.761719  
1604.000000	99.764220  
1603.000000	99.767877  
1602.000000	99.773321  
1601.000000	99.779942  
1600.000000	99.786706  
1599.000000	99.792822  
1598.000000	99.798070  
1597.000000	99.802744  
1596.000000	99.807343  
1595.000000	99.811858  
1594.000000	99.815702  
1593.000000	99.819034  
1592.000000	99.823185  
1591.000000	99.829006  
1590.000000	99.835546  
1589.000000	99.841294  
1588.000000	99.846099  
1587.000000	99.851009  
1586.000000	99.856402  
1585.000000	99.861528  
1584.000000	99.864920  
1583.000000	99.865780  
1582.000000	99.865903  
1581.000000	99.867974  
1580.000000	99.871896  
1579.000000	99.874706  
1578.000000	99.874781  
1577.000000	99.874580  
1576.000000	99.876481  
1575.000000	99.878736  
1574.000000	99.881264  
1573.000000	99.885393  
1572.000000	99.890242  
1571.000000	99.895218  
1570.000000	99.899521  
1569.000000	99.902364  
1568.000000	99.903582  
1567.000000	99.904402  
1566.000000	99.905422  
1565.000000	99.906538  
1564.000000	99.906883  
1563.000000	99.905903  
1562.000000	99.904133  
1561.000000	99.902598  
1560.000000	99.903037  
1559.000000	99.904975  
1558.000000	99.900311  
1557.000000	99.892400  
1556.000000	99.890696  
1555.000000	99.890121  
1554.000000	99.888889  
1553.000000	99.886554  
1552.000000	99.883653  
1551.000000	99.878828  
1550.000000	99.872795  
1549.000000	99.869138  
1548.000000	99.870615  
1547.000000	99.874738  
1546.000000	99.875743  
1545.000000	99.870563  
1544.000000	99.862463  
1543.000000	99.856796  
1542.000000	99.853819  
1541.000000	99.849421  
1540.000000	99.839796  
1539.000000	99.823049  
1538.000000	99.805245  
1537.000000	99.793200  
1536.000000	99.784596  
1535.000000	99.775641  
1534.000000	99.764550  
1533.000000	99.751161  
1532.000000	99.736824  
1531.000000	99.724230  
1530.000000	99.713475  
1529.000000	99.703108  
1528.000000	99.692799  
1527.000000	99.682553  
1526.000000	99.671915  
1525.000000	99.661208  
1524.000000	99.651693  
1523.000000	99.643727  
1522.000000	99.634986  
1521.000000	99.622111  
1520.000000	99.607278  
1519.000000	99.595568  
1518.000000	99.586186  
1517.000000	99.574796  
1516.000000	99.560245  
1515.000000	99.545366  
1514.000000	99.531865  
1513.000000	99.517130  
1512.000000	99.499579  
1511.000000	99.481803  
1510.000000	99.466407  
1509.000000	99.452160  
1508.000000	99.438169  
1507.000000	99.428015  
1506.000000	99.417233  
1505.000000	99.401352  
1504.000000	99.387517  
1503.000000	99.377878  
1502.000000	99.368991  
1501.000000	99.357774  
1500.000000	99.344246  
1499.000000	99.330809  
1498.000000	99.317485  
1497.000000	99.299931  
1496.000000	99.276773  
1495.000000	99.254372  
1494.000000	99.237965  
1493.000000	99.225889  
1492.000000	99.214088  
1491.000000	99.200708  
1490.000000	99.186451  
1489.000000	99.172493  
1488.000000	99.159578  
1487.000000	99.147402  
1486.000000	99.133828  
1485.000000	99.118596  
1484.000000	99.103546  
1483.000000	99.089246  
1482.000000	99.074633  
1481.000000	99.059654  
1480.000000	99.046625  
1479.000000	99.036336  
1478.000000	99.025759  
1477.000000	99.012057  
1476.000000	98.997951  
1475.000000	98.988075  
1474.000000	98.982593  
1473.000000	98.978166  
1472.000000	98.973025  
1471.000000	98.969141  
1470.000000	98.967782  
1469.000000	98.967015  
1468.000000	98.964524  
1467.000000	98.959481  
1466.000000	98.952087  
1465.000000	98.943953  
1464.000000	98.937696  
1463.000000	98.935398  
1462.000000	98.936239  
1461.000000	98.937484  
1460.000000	98.937486  
1459.000000	98.935566  
1458.000000	98.928946  
1457.000000	98.910893  
1456.000000	98.882782  
1455.000000	98.858776  
1454.000000	98.846173  
1453.000000	98.840033  
1452.000000	98.835280  
1451.000000	98.831424  
1450.000000	98.831023  
1449.000000	98.834969  
1448.000000	98.842054  
1447.000000	98.850169  
1446.000000	98.857750  
1445.000000	98.863865  
1444.000000	98.867334  
1443.000000	98.867890  
1442.000000	98.866453  
1441.000000	98.865077  
1440.000000	98.866235  
1439.000000	98.871387  
1438.000000	98.879152  
1437.000000	98.885418  
1436.000000	98.888415  
1435.000000	98.892138  
1434.000000	98.899982  
1433.000000	98.910324  
1432.000000	98.920683  
1431.000000	98.930272  
1430.000000	98.938566  
1429.000000	98.943742  
1428.000000	98.945166  
1427.000000	98.944762  
1426.000000	98.944457  
1425.000000	98.944153  
1424.000000	98.942599  
1423.000000	98.939740  
1422.000000	98.935379  
1421.000000	98.927128  
1420.000000	98.912019  
1419.000000	98.891632  
1418.000000	98.871444  
1417.000000	98.853342  
1416.000000	98.836037  
1415.000000	98.819341  
1414.000000	98.803542  
1413.000000	98.787618  
1412.000000	98.771587  
1411.000000	98.758723  
1410.000000	98.752252  
1409.000000	98.751689  
1408.000000	98.755464  
1407.000000	98.764121  
1406.000000	98.779401  
1405.000000	98.802382  
1404.000000	98.832767  
1403.000000	98.869148  
1402.000000	98.908979  
1401.000000	98.949329  
1400.000000	98.987377  
1399.000000	99.018355  
1398.000000	99.033536  
1397.000000	99.024184  
1396.000000	98.992163  
1395.000000	98.959961  
1394.000000	98.959909  
1393.000000	99.003618  
1392.000000	99.073680  
1391.000000	99.143504  
1390.000000	99.196665  
1389.000000	99.230174  
1388.000000	99.248258  
1387.000000	99.256991  
1386.000000	99.262499  
1385.000000	99.269775  
1384.000000	99.281071  
1383.000000	99.295992  
1382.000000	99.313087  
1381.000000	99.331514  
1380.000000	99.351516  
1379.000000	99.373578  
1378.000000	99.397746  
1377.000000	99.423686  
1376.000000	99.451088  
1375.000000	99.479742  
1374.000000	99.509371  
1373.000000	99.539436  
1372.000000	99.569496  
1371.000000	99.599481  
1370.000000	99.629227  
1369.000000	99.658143  
1368.000000	99.685531  
1367.000000	99.711487  
1366.000000	99.736834  
1365.000000	99.761736  
1364.000000	99.784929  
1363.000000	99.805067  
1362.000000	99.822372  
1361.000000	99.838113  
1360.000000	99.853012  
1359.000000	99.867318  
1358.000000	99.881998  
1357.000000	99.898505  
1356.000000	99.917118  
1355.000000	99.936482  
1354.000000	99.955006  
1353.000000	99.972010  
1352.000000	99.987248  
1351.000000	100.000064 
1350.000000	100.010743 
1349.000000	100.020854 
1348.000000	100.030274 
1347.000000	100.037821 
1346.000000	100.043732 
1345.000000	100.049155 
1344.000000	100.054217 
1343.000000	100.058543 
1342.000000	100.062549 
1341.000000	100.066512 
1340.000000	100.069281 
1339.000000	100.070165 
1338.000000	100.071470 
1337.000000	100.076374 
1336.000000	100.084631 
1335.000000	100.092853 
1334.000000	100.098715 
1333.000000	100.102828 
1332.000000	100.106567 
1331.000000	100.110319 
1330.000000	100.114380 
1329.000000	100.119527 
1328.000000	100.125609 
1327.000000	100.130844 
1326.000000	100.133663 
1325.000000	100.134589 
1324.000000	100.135647 
1323.000000	100.138281 
1322.000000	100.142054 
1321.000000	100.145205 
1320.000000	100.146639 
1319.000000	100.147390 
1318.000000	100.149437 
1317.000000	100.152976 
1316.000000	100.156129 
1315.000000	100.157652 
1314.000000	100.158379 
1313.000000	100.159206 
1312.000000	100.159292 
1311.000000	100.157915 
1310.000000	100.156767 
1309.000000	100.158363 
1308.000000	100.162791 
1307.000000	100.167607 
1306.000000	100.170539 
1305.000000	100.170912 
1304.000000	100.169044 
1303.000000	100.166147 
1302.000000	100.164438 
1301.000000	100.165368 
1300.000000	100.167687 
1299.000000	100.168778 
1298.000000	100.167745 
1297.000000	100.165857 
1296.000000	100.164384 
1295.000000	100.163750 
1294.000000	100.164547 
1293.000000	100.167238 
1292.000000	100.170471 
1291.000000	100.171554 
1290.000000	100.169315 
1289.000000	100.165199 
1288.000000	100.161011 
1287.000000	100.156969 
1286.000000	100.152942 
1285.000000	100.150054 
1284.000000	100.149667 
1283.000000	100.151592 
1282.000000	100.153976 
1281.000000	100.154984 
1280.000000	100.154450 
1279.000000	100.153420 
1278.000000	100.152411 
1277.000000	100.150973 
1276.000000	100.148645 
1275.000000	100.145405 
1274.000000	100.140915 
1273.000000	100.134106 
1272.000000	100.124323 
1271.000000	100.112559 
1270.000000	100.100613 
1269.000000	100.089001 
1268.000000	100.076464 
1267.000000	100.061484 
1266.000000	100.043552 
1265.000000	100.023130 
1264.000000	100.001410 
1263.000000	99.980232  
1262.000000	99.961326  
1261.000000	99.945449  
1260.000000	99.932515  
1259.000000	99.921843  
1258.000000	99.911600  
1257.000000	99.899201  
1256.000000	99.883684  
1255.000000	99.866771  
1254.000000	99.849991  
1253.000000	99.832174  
1252.000000	99.812541  
1251.000000	99.795342  
1250.000000	99.787778  
1249.000000	99.793019  
1248.000000	99.808123  
1247.000000	99.827745  
1246.000000	99.844857  
1245.000000	99.848002  
1244.000000	99.826599  
1243.000000	99.785772  
1242.000000	99.751082  
1241.000000	99.748545  
1240.000000	99.778399  
1239.000000	99.814019  
1238.000000	99.827970  
1237.000000	99.814172  
1236.000000	99.783820  
1235.000000	99.747894  
1234.000000	99.709735  
1233.000000	99.670659  
1232.000000	99.634303  
1231.000000	99.603224  
1230.000000	99.575558  
1229.000000	99.547588  
1228.000000	99.517401  
1227.000000	99.484233  
1226.000000	99.446423  
1225.000000	99.402392  
1224.000000	99.352631  
1223.000000	99.298559  
1222.000000	99.239814  
1221.000000	99.174393  
1220.000000	99.101137  
1219.000000	99.020310  
1218.000000	98.932004  
1217.000000	98.836048  
1216.000000	98.733654  
1215.000000	98.626911  
1214.000000	98.516032  
1213.000000	98.399297  
1212.000000	98.276574  
1211.000000	98.150484  
1210.000000	98.022882  
1209.000000	97.892832  
1208.000000	97.759776  
1207.000000	97.626093  
1206.000000	97.494223  
1205.000000	97.363386  
1204.000000	97.231520  
1203.000000	97.098917  
1202.000000	96.968141  
1201.000000	96.841585  
1200.000000	96.720025  
1199.000000	96.601872  
1198.000000	96.483272  
1197.000000	96.361075  
1196.000000	96.236187  
1195.000000	96.111885  
1194.000000	95.988920  
1193.000000	95.865010  
1192.000000	95.738977  
1191.000000	95.611806  
1190.000000	95.483512  
1189.000000	95.352914  
1188.000000	95.220858  
1187.000000	95.089252  
1186.000000	94.956335  
1185.000000	94.817744  
1184.000000	94.673317  
1183.000000	94.527753  
1182.000000	94.382933  
1181.000000	94.234639  
1180.000000	94.078924  
1179.000000	93.916743  
1178.000000	93.749865  
1177.000000	93.577001  
1176.000000	93.396697  
1175.000000	93.209834  
1174.000000	93.016894  
1173.000000	92.817103  
1172.000000	92.612469  
1171.000000	92.408011  
1170.000000	92.205720  
1169.000000	92.003106  
1168.000000	91.800087  
1167.000000	91.603029  
1166.000000	91.421337  
1165.000000	91.266499  
1164.000000	91.155528  
1163.000000	91.106309  
1162.000000	91.123723  
1161.000000	91.193223  
1160.000000	91.288178  
1159.000000	91.378525  
1158.000000	91.434883  
1157.000000	91.435908  
1156.000000	91.377346  
1155.000000	91.270332  
1154.000000	91.129195  
1153.000000	90.964517  
1152.000000	90.786984  
1151.000000	90.608627  
1150.000000	90.435648  
1149.000000	90.266137  
1148.000000	90.097959  
1147.000000	89.932646  
1146.000000	89.769546  
1145.000000	89.604270  
1144.000000	89.436609  
1143.000000	89.272877  
1142.000000	89.116887  
1141.000000	88.965273  
1140.000000	88.814354  
1139.000000	88.664039  
1138.000000	88.512308  
1137.000000	88.354156  
1136.000000	88.189507  
1135.000000	88.024419  
1134.000000	87.861183  
1133.000000	87.695074  
1132.000000	87.523915  
1131.000000	87.352314  
1130.000000	87.183062  
1129.000000	87.012801  
1128.000000	86.839531  
1127.000000	86.665780  
1126.000000	86.491227  
1125.000000	86.311330  
1124.000000	86.126542  
1123.000000	85.943556  
1122.000000	85.764249  
1121.000000	85.583127  
1120.000000	85.398603  
1119.000000	85.215821  
1118.000000	85.035110  
1117.000000	84.849897  
1116.000000	84.659981  
1115.000000	84.474369  
1114.000000	84.296490  
1113.000000	84.119353  
1112.000000	83.940015  
1111.000000	83.764756  
1110.000000	83.595860  
1109.000000	83.427922  
1108.000000	83.260317  
1107.000000	83.099952  
1106.000000	82.947791  
1105.000000	82.795855  
1104.000000	82.641668  
1103.000000	82.492193  
1102.000000	82.349702  
1101.000000	82.208066  
1100.000000	82.066778  
1099.000000	81.934017  
1098.000000	81.811190  
1097.000000	81.688893  
1096.000000	81.562609  
1095.000000	81.437792  
1094.000000	81.314462  
1093.000000	81.181991  
1092.000000	81.035928  
1091.000000	80.886886  
1090.000000	80.746734  
1089.000000	80.618061  
1088.000000	80.501225  
1087.000000	80.397885  
1086.000000	80.302715  
1085.000000	80.205110  
1084.000000	80.103760  
1083.000000	80.007103  
1082.000000	79.917246  
1081.000000	79.828073  
1080.000000	79.741537  
1079.000000	79.669515  
1078.000000	79.615703  
1077.000000	79.571451  
1076.000000	79.532553  
1075.000000	79.502847  
1074.000000	79.477654  
1073.000000	79.441164  
1072.000000	79.382552  
1071.000000	79.294910  
1070.000000	79.156575  
1069.000000	78.940348  
1068.000000	78.653543  
1067.000000	78.350764  
1066.000000	78.090315  
1065.000000	77.887155  
1064.000000	77.718303  
1063.000000	77.554331  
1062.000000	77.371565  
1061.000000	77.153145  
1060.000000	76.901064  
1059.000000	76.642850  
1058.000000	76.412135  
1057.000000	76.223392  
1056.000000	76.068846  
1055.000000	75.929886  
1054.000000	75.786878  
1053.000000	75.630457  
1052.000000	75.470653  
1051.000000	75.325066  
1050.000000	75.194358  
1049.000000	75.062665  
1048.000000	74.923105  
1047.000000	74.784261  
1046.000000	74.649983  
1045.000000	74.513067  
1044.000000	74.371886  
1043.000000	74.234275  
1042.000000	74.100110  
1041.000000	73.957194  
1040.000000	73.801398  
1039.000000	73.647341  
1038.000000	73.513518  
1037.000000	73.408512  
1036.000000	73.333437  
1035.000000	73.283650  
1034.000000	73.245908  
1033.000000	73.206595  
1032.000000	73.162097  
1031.000000	73.109843  
1030.000000	73.038430  
1029.000000	72.947834  
1028.000000	72.872161  
1027.000000	72.853747  
1026.000000	72.892980  
1025.000000	72.947197  
1024.000000	72.981016  
1023.000000	72.993180  
1022.000000	72.992708  
1021.000000	72.979098  
1020.000000	72.954592  
1019.000000	72.930674  
1018.000000	72.911417  
1017.000000	72.889364  
1016.000000	72.864656  
1015.000000	72.848895  
1014.000000	72.844592  
1013.000000	72.840729  
1012.000000	72.833722  
1011.000000	72.832735  
1010.000000	72.839836  
1009.000000	72.845831  
1008.000000	72.850715  
1007.000000	72.867486  
1006.000000	72.900463  
1005.000000	72.939657  
1004.000000	72.980756  
1003.000000	73.030197  
1002.000000	73.086545  
1001.000000	73.138617  
1000.000000	73.187127  
999.000000	 73.246692  
998.000000	 73.320695  
997.000000	 73.395075  
996.000000	 73.462693  
995.000000	 73.533124  
994.000000	 73.612351  
993.000000	 73.693766  
992.000000	 73.775917  
991.000000	 73.868734  
990.000000	 73.974871  
989.000000	 74.084082  
988.000000	 74.193082  
987.000000	 74.312662  
986.000000	 74.448820  
985.000000	 74.595168  
984.000000	 74.749169  
983.000000	 74.917403  
982.000000	 75.100292  
981.000000	 75.289766  
980.000000	 75.486538  
979.000000	 75.701772  
978.000000	 75.936840  
977.000000	 76.179882  
976.000000	 76.427001  
975.000000	 76.688110  
974.000000	 76.966875  
973.000000	 77.253749  
972.000000	 77.544218  
971.000000	 77.845467  
970.000000	 78.158709  
969.000000	 78.472371  
968.000000	 78.779323  
967.000000	 79.085176  
966.000000	 79.394002  
965.000000	 79.701215  
964.000000	 80.005331  
963.000000	 80.311156  
962.000000	 80.616425  
961.000000	 80.910628  
960.000000	 81.192091  
959.000000	 81.471130  
958.000000	 81.751174  
957.000000	 82.021783  
956.000000	 82.276664  
955.000000	 82.524521  
954.000000	 82.775015  
953.000000	 83.025516  
952.000000	 83.267900  
951.000000	 83.497902  
950.000000	 83.713375  
949.000000	 83.914046  
948.000000	 84.106905  
947.000000	 84.301386  
946.000000	 84.495654  
945.000000	 84.678228  
944.000000	 84.845741  
943.000000	 85.007717  
942.000000	 85.171252  
941.000000	 85.332813  
940.000000	 85.489067  
939.000000	 85.644216  
938.000000	 85.802010  
937.000000	 85.960480  
936.000000	 86.118539  
935.000000	 86.278503  
934.000000	 86.439419  
933.000000	 86.597470  
932.000000	 86.754736  
931.000000	 86.917479  
930.000000	 87.084213  
929.000000	 87.246379  
928.000000	 87.402707  
927.000000	 87.561558  
926.000000	 87.726245  
925.000000	 87.888931  
924.000000	 88.042374  
923.000000	 88.187556  
922.000000	 88.326536  
921.000000	 88.457546  
920.000000	 88.580867  
919.000000	 88.701039  
918.000000	 88.819972  
917.000000	 88.935427  
916.000000	 89.048684  
915.000000	 89.166390  
914.000000	 89.292796  
913.000000	 89.426744  
912.000000	 89.567081  
911.000000	 89.714454  
910.000000	 89.868270  
909.000000	 90.029079  
908.000000	 90.202323  
907.000000	 90.391526  
906.000000	 90.589944  
905.000000	 90.788270  
904.000000	 90.988670  
903.000000	 91.201220  
902.000000	 91.428246  
901.000000	 91.662049  
900.000000	 91.896458  
899.000000	 92.130421  
898.000000	 92.361272  
897.000000	 92.584204  
896.000000	 92.797227  
895.000000	 92.998638  
894.000000	 93.183308  
893.000000	 93.351232  
892.000000	 93.515458  
891.000000	 93.689216  
890.000000	 93.867061  
889.000000	 94.030850  
888.000000	 94.171845  
887.000000	 94.294268  
886.000000	 94.400251  
885.000000	 94.486664  
884.000000	 94.557069  
883.000000	 94.621243  
882.000000	 94.680637  
881.000000	 94.730343  
880.000000	 94.779553  
879.000000	 94.853208  
878.000000	 94.965555  
877.000000	 95.106240  
876.000000	 95.259981  
875.000000	 95.426280  
874.000000	 95.611412  
873.000000	 95.813991  
872.000000	 96.028401  
871.000000	 96.252808  
870.000000	 96.484839  
869.000000	 96.716183  
868.000000	 96.938229  
867.000000	 97.148514  
866.000000	 97.348356  
865.000000	 97.539023  
864.000000	 97.721970  
863.000000	 97.897411  
862.000000	 98.061813  
861.000000	 98.212853  
860.000000	 98.356845  
859.000000	 98.503664  
858.000000	 98.653454  
857.000000	 98.796615  
856.000000	 98.928470  
855.000000	 99.055134  
854.000000	 99.182219  
853.000000	 99.305898  
852.000000	 99.418766  
851.000000	 99.517514  
850.000000	 99.602074  
849.000000	 99.674642  
848.000000	 99.742833  
847.000000	 99.816181  
846.000000	 99.894607  
845.000000	 99.965997  
844.000000	 100.019174 
843.000000	 100.054325 
842.000000	 100.078126 
841.000000	 100.094644 
840.000000	 100.104594 
839.000000	 100.107935 
838.000000	 100.103239 
837.000000	 100.088875 
836.000000	 100.067700 
835.000000	 100.046401 
834.000000	 100.028665 
833.000000	 100.014784 
832.000000	 100.009355 
831.000000	 100.020756 
830.000000	 100.048355 
829.000000	 100.078223 
828.000000	 100.098243 
827.000000	 100.111516 
826.000000	 100.128506 
825.000000	 100.151894 
824.000000	 100.176262 
823.000000	 100.196618 
822.000000	 100.209021 
821.000000	 100.207683 
820.000000	 100.188709 
819.000000	 100.152794 
818.000000	 100.098988 
817.000000	 100.019499 
816.000000	 99.904920  
815.000000	 99.750860  
814.000000	 99.553890  
813.000000	 99.302108  
812.000000	 98.973738  
811.000000	 98.544917  
810.000000	 97.998524  
809.000000	 97.330485  
808.000000	 96.552688  
807.000000	 95.687808  
806.000000	 94.757805  
805.000000	 93.781838  
804.000000	 92.788809  
803.000000	 91.822797  
802.000000	 90.928705  
801.000000	 90.141412  
800.000000	 89.493661  
799.000000	 89.017646  
798.000000	 88.726564  
797.000000	 88.605932  
796.000000	 88.629239  
795.000000	 88.767691  
794.000000	 88.981538  
793.000000	 89.222651  
792.000000	 89.455834  
791.000000	 89.664928  
790.000000	 89.833999  
789.000000	 89.938005  
788.000000	 89.957404  
787.000000	 89.887212  
786.000000	 89.725449  
785.000000	 89.467628  
784.000000	 89.122519  
783.000000	 88.722570  
782.000000	 88.310467  
781.000000	 87.925718  
780.000000	 87.609483  
779.000000	 87.404560  
778.000000	 87.336666  
777.000000	 87.405475  
776.000000	 87.599365  
775.000000	 87.903275  
774.000000	 88.286269  
773.000000	 88.700918  
772.000000	 89.107920  
771.000000	 89.491844  
770.000000	 89.848561  
769.000000	 90.171830  
768.000000	 90.459878  
767.000000	 90.721714  
766.000000	 90.965896  
765.000000	 91.190746  
764.000000	 91.393448  
763.000000	 91.581096  
762.000000	 91.765446  
761.000000	 91.953586  
760.000000	 92.149928  
759.000000	 92.359775  
758.000000	 92.583502  
757.000000	 92.812508  
756.000000	 93.036553  
755.000000	 93.251044  
754.000000	 93.454421  
753.000000	 93.644145  
752.000000	 93.818524  
751.000000	 93.977297  
750.000000	 94.118490  
749.000000	 94.241493  
748.000000	 94.355253  
747.000000	 94.475477  
746.000000	 94.610085  
745.000000	 94.754308  
744.000000	 94.903591  
743.000000	 95.063192  
742.000000	 95.239270  
741.000000	 95.427171  
740.000000	 95.615545  
739.000000	 95.797895  
738.000000	 95.974194  
737.000000	 96.143583  
736.000000	 96.300090  
735.000000	 96.435458  
734.000000	 96.544576  
733.000000	 96.628790  
732.000000	 96.694636  
731.000000	 96.748612  
730.000000	 96.793166  
729.000000	 96.828130  
728.000000	 96.858161  
727.000000	 96.894804  
726.000000	 96.947066  
725.000000	 97.015826  
724.000000	 97.099307  
723.000000	 97.198583  
722.000000	 97.314914  
721.000000	 97.444955  
720.000000	 97.580873  
719.000000	 97.712760  
718.000000	 97.831154  
717.000000	 97.932557  
716.000000	 98.023125  
715.000000	 98.113742  
714.000000	 98.210585  
713.000000	 98.312037  
712.000000	 98.414582  
711.000000	 98.516222  
710.000000	 98.613796  
709.000000	 98.701898  
708.000000	 98.775141  
707.000000	 98.830079  
706.000000	 98.859824  
705.000000	 98.853316  
704.000000	 98.803509  
703.000000	 98.706346  
702.000000	 98.549695  
701.000000	 98.308443  
700.000000	 97.955296  
699.000000	 97.485305  
698.000000	 96.933774  
697.000000	 96.379815  
696.000000	 95.929686  
695.000000	 95.672502  
694.000000	 95.640684  
693.000000	 95.804501  
692.000000	 96.098214  
691.000000	 96.457373  
690.000000	 96.836057  
689.000000	 97.203872  
688.000000	 97.537381  
687.000000	 97.817077  
686.000000	 98.037837  
685.000000	 98.213205  
684.000000	 98.361499  
683.000000	 98.492891  
682.000000	 98.609732  
681.000000	 98.714043  
680.000000	 98.809385  
679.000000	 98.901038  
678.000000	 98.996284  
677.000000	 99.093389  
676.000000	 99.183519  
675.000000	 99.263379  
674.000000	 99.339411  
673.000000	 99.423492  
672.000000	 99.533224  
671.000000	 99.692800  
670.000000	 99.925145  
669.000000	 100.208823 
668.000000	 100.389434 
667.000000	 100.348472 
666.000000	 100.218046 
665.000000	 100.123750 
664.000000	 100.087618 
663.000000	 100.104311 
662.000000	 100.150639 
661.000000	 100.195131 
660.000000	 100.225174 
659.000000	 100.248993 
658.000000	 100.264165 
657.000000	 100.246553 
656.000000	 100.193559 
655.000000	 100.142071 
654.000000	 100.117805 
653.000000	 100.106731 
652.000000	 100.096473 
651.000000	 100.096286 
650.000000	 100.104058 

