4000.000000	97.647488 
3999.000000	97.645674 
3998.000000	97.642827 
3997.000000	97.639841 
3996.000000	97.637352 
3995.000000	97.635663 
3994.000000	97.635152 
3993.000000	97.635914 
3992.000000	97.637215 
3991.000000	97.638077 
3990.000000	97.638196 
3989.000000	97.637969 
3988.000000	97.637818 
3987.000000	97.637863 
3986.000000	97.638194 
3985.000000	97.638903 
3984.000000	97.639610 
3983.000000	97.639611 
3982.000000	97.638785 
3981.000000	97.637944 
3980.000000	97.637804 
3979.000000	97.637965 
3978.000000	97.637569 
3977.000000	97.636678 
3976.000000	97.636126 
3975.000000	97.636088 
3974.000000	97.635648 
3973.000000	97.634079 
3972.000000	97.631770 
3971.000000	97.629677 
3970.000000	97.628537 
3969.000000	97.628568 
3968.000000	97.629533 
3967.000000	97.630744 
3966.000000	97.631389 
3965.000000	97.631005 
3964.000000	97.629603 
3963.000000	97.627588 
3962.000000	97.625630 
3961.000000	97.624484 
3960.000000	97.624306 
3959.000000	97.624330 
3958.000000	97.623954 
3957.000000	97.623392 
3956.000000	97.623004 
3955.000000	97.622292 
3954.000000	97.620364 
3953.000000	97.617101 
3952.000000	97.613424 
3951.000000	97.610665 
3950.000000	97.609482 
3949.000000	97.609390 
3948.000000	97.609250 
3947.000000	97.608517 
3946.000000	97.607520 
3945.000000	97.606630 
3944.000000	97.605872 
3943.000000	97.605490 
3942.000000	97.606177 
3941.000000	97.608391 
3940.000000	97.611250 
3939.000000	97.612607 
3938.000000	97.611507 
3937.000000	97.609017 
3936.000000	97.606601 
3935.000000	97.604249 
3934.000000	97.601486 
3933.000000	97.599456 
3932.000000	97.599633 
3931.000000	97.601311 
3930.000000	97.602111 
3929.000000	97.601111 
3928.000000	97.600014 
3927.000000	97.599997 
3926.000000	97.599808 
3925.000000	97.598315 
3924.000000	97.596789 
3923.000000	97.596555 
3922.000000	97.596326 
3921.000000	97.594591 
3920.000000	97.592684 
3919.000000	97.592792 
3918.000000	97.594616 
3917.000000	97.596189 
3916.000000	97.596914 
3915.000000	97.597569 
3914.000000	97.598135 
3913.000000	97.597752 
3912.000000	97.596555 
3911.000000	97.595042 
3910.000000	97.593632 
3909.000000	97.592309 
3908.000000	97.591145 
3907.000000	97.590246 
3906.000000	97.589579 
3905.000000	97.589068 
3904.000000	97.588643 
3903.000000	97.588227 
3902.000000	97.587884 
3901.000000	97.587609 
3900.000000	97.587369 
3899.000000	97.587137 
3898.000000	97.586895 
3897.000000	97.586638 
3896.000000	97.586363 
3895.000000	97.586050 
3894.000000	97.585674 
3893.000000	97.585235 
3892.000000	97.584743 
3891.000000	97.584213 
3890.000000	97.583672 
3889.000000	97.583151 
3888.000000	97.582655 
3887.000000	97.582169 
3886.000000	97.581691 
3885.000000	97.581233 
3884.000000	97.580811 
3883.000000	97.580415 
3882.000000	97.580021 
3881.000000	97.579622 
3880.000000	97.579235 
3879.000000	97.578874 
3878.000000	97.578525 
3877.000000	97.578158 
3876.000000	97.577752 
3875.000000	97.577321 
3874.000000	97.576902 
3873.000000	97.576529 
3872.000000	97.576204 
3871.000000	97.575908 
3870.000000	97.575649 
3869.000000	97.575461 
3868.000000	97.575370 
3867.000000	97.575347 
3866.000000	97.575341 
3865.000000	97.575344 
3864.000000	97.575371 
3863.000000	97.575407 
3862.000000	97.575405 
3861.000000	97.575341 
3860.000000	97.575231 
3859.000000	97.575097 
3858.000000	97.574948 
3857.000000	97.574797 
3856.000000	97.574681 
3855.000000	97.574644 
3854.000000	97.574691 
3853.000000	97.574812 
3852.000000	97.575053 
3851.000000	97.575476 
3850.000000	97.576064 
3849.000000	97.576750 
3848.000000	97.577474 
3847.000000	97.578200 
3846.000000	97.578912 
3845.000000	97.579611 
3844.000000	97.580295 
3843.000000	97.580960 
3842.000000	97.581608 
3841.000000	97.582256 
3840.000000	97.582926 
3839.000000	97.583619 
3838.000000	97.584325 
3837.000000	97.585042 
3836.000000	97.585788 
3835.000000	97.586590 
3834.000000	97.587452 
3833.000000	97.588360 
3832.000000	97.589295 
3831.000000	97.590245 
3830.000000	97.591204 
3829.000000	97.592168 
3828.000000	97.593131 
3827.000000	97.594074 
3826.000000	97.594985 
3825.000000	97.595877 
3824.000000	97.596770 
3823.000000	97.597668 
3822.000000	97.598555 
3821.000000	97.599430 
3820.000000	97.600337 
3819.000000	97.601320 
3818.000000	97.602358 
3817.000000	97.603392 
3816.000000	97.604406 
3815.000000	97.605428 
3814.000000	97.606477 
3813.000000	97.607520 
3812.000000	97.608511 
3811.000000	97.609445 
3810.000000	97.610339 
3809.000000	97.611171 
3808.000000	97.611900 
3807.000000	97.612525 
3806.000000	97.613107 
3805.000000	97.613713 
3804.000000	97.614359 
3803.000000	97.615019 
3802.000000	97.615678 
3801.000000	97.616357 
3800.000000	97.617085 
3799.000000	97.617855 
3798.000000	97.618615 
3797.000000	97.619328 
3796.000000	97.619993 
3795.000000	97.620610 
3794.000000	97.621159 
3793.000000	97.621613 
3792.000000	97.621954 
3791.000000	97.622176 
3790.000000	97.622285 
3789.000000	97.622291 
3788.000000	97.622210 
3787.000000	97.622052 
3786.000000	97.621814 
3785.000000	97.621497 
3784.000000	97.621125 
3783.000000	97.620714 
3782.000000	97.620251 
3781.000000	97.619713 
3780.000000	97.619099 
3779.000000	97.618424 
3778.000000	97.617688 
3777.000000	97.616872 
3776.000000	97.615965 
3775.000000	97.614992 
3774.000000	97.613980 
3773.000000	97.612933 
3772.000000	97.611831 
3771.000000	97.610671 
3770.000000	97.609473 
3769.000000	97.608263 
3768.000000	97.607045 
3767.000000	97.605807 
3766.000000	97.604545 
3765.000000	97.603280 
3764.000000	97.602022 
3763.000000	97.600755 
3762.000000	97.599443 
3761.000000	97.598078 
3760.000000	97.596679 
3759.000000	97.595257 
3758.000000	97.593799 
3757.000000	97.592289 
3756.000000	97.590746 
3755.000000	97.589204 
3754.000000	97.587695 
3753.000000	97.586243 
3752.000000	97.584870 
3751.000000	97.583574 
3750.000000	97.582329 
3749.000000	97.581099 
3748.000000	97.579959 
3747.000000	97.579007 
3746.000000	97.578191 
3745.000000	97.577314 
3744.000000	97.576199 
3743.000000	97.575176 
3742.000000	97.574717 
3741.000000	97.574228 
3740.000000	97.572892 
3739.000000	97.571119 
3738.000000	97.569860 
3737.000000	97.569052 
3736.000000	97.568018 
3735.000000	97.567334 
3734.000000	97.567798 
3733.000000	97.568035 
3732.000000	97.566248 
3731.000000	97.563711 
3730.000000	97.563244 
3729.000000	97.564455 
3728.000000	97.564176 
3727.000000	97.561636 
3726.000000	97.559720 
3725.000000	97.560761 
3724.000000	97.562558 
3723.000000	97.561863 
3722.000000	97.559025 
3721.000000	97.556314 
3720.000000	97.554606 
3719.000000	97.552132 
3718.000000	97.547362 
3717.000000	97.541729 
3716.000000	97.537698 
3715.000000	97.534910 
3714.000000	97.531573 
3713.000000	97.529123 
3712.000000	97.529450 
3711.000000	97.529659 
3710.000000	97.526418 
3709.000000	97.519574 
3708.000000	97.510209 
3707.000000	97.499760 
3706.000000	97.489959 
3705.000000	97.481613 
3704.000000	97.474107 
3703.000000	97.466513 
3702.000000	97.457869 
3701.000000	97.447996 
3700.000000	97.438982 
3699.000000	97.432042 
3698.000000	97.425095 
3697.000000	97.416990 
3696.000000	97.409548 
3695.000000	97.403834 
3694.000000	97.397793 
3693.000000	97.389450 
3692.000000	97.379895 
3691.000000	97.371204 
3690.000000	97.363288 
3689.000000	97.354312 
3688.000000	97.344605 
3687.000000	97.336732 
3686.000000	97.330817 
3685.000000	97.324428 
3684.000000	97.316496 
3683.000000	97.307929 
3682.000000	97.299373 
3681.000000	97.290398 
3680.000000	97.280760 
3679.000000	97.271155 
3678.000000	97.262100 
3677.000000	97.253328 
3676.000000	97.244343 
3675.000000	97.235167 
3674.000000	97.226420 
3673.000000	97.218176 
3672.000000	97.209878 
3671.000000	97.201167 
3670.000000	97.192256 
3669.000000	97.183528 
3668.000000	97.175284 
3667.000000	97.167384 
3666.000000	97.159377 
3665.000000	97.151232 
3664.000000	97.143313 
3663.000000	97.135582 
3662.000000	97.127331 
3661.000000	97.117993 
3660.000000	97.108101 
3659.000000	97.099063 
3658.000000	97.091180 
3657.000000	97.082543 
3656.000000	97.070728 
3655.000000	97.058118 
3654.000000	97.048154 
3653.000000	97.036694 
3652.000000	97.019202 
3651.000000	97.002701 
3650.000000	96.996639 
3649.000000	96.996630 
3648.000000	96.991955 
3647.000000	96.983915 
3646.000000	96.981537 
3645.000000	96.986406 
3644.000000	96.992210 
3643.000000	96.993601 
3642.000000	96.991834 
3641.000000	96.990199 
3640.000000	96.987902 
3639.000000	96.981017 
3638.000000	96.969680 
3637.000000	96.959677 
3636.000000	96.952022 
3635.000000	96.939216 
3634.000000	96.916725 
3633.000000	96.892391 
3632.000000	96.875878 
3631.000000	96.867412 
3630.000000	96.864461 
3629.000000	96.859804 
3628.000000	96.850434 
3627.000000	96.851581 
3626.000000	96.862302 
3625.000000	96.862564 
3624.000000	96.849916 
3623.000000	96.835778 
3622.000000	96.824305 
3621.000000	96.811571 
3620.000000	96.797835 
3619.000000	96.788215 
3618.000000	96.787637 
3617.000000	96.799128 
3616.000000	96.818347 
3615.000000	96.836944 
3614.000000	96.852259 
3613.000000	96.867122 
3612.000000	96.883408 
3611.000000	96.898134 
3610.000000	96.906670 
3609.000000	96.909856 
3608.000000	96.913274 
3607.000000	96.919722 
3606.000000	96.926473 
3605.000000	96.929755 
3604.000000	96.931063 
3603.000000	96.935947 
3602.000000	96.945113 
3601.000000	96.952550 
3600.000000	96.954010 
3599.000000	96.950818 
3598.000000	96.946062 
3597.000000	96.944260 
3596.000000	96.948522 
3595.000000	96.957023 
3594.000000	96.963632 
3593.000000	96.964137 
3592.000000	96.958626 
3591.000000	96.949119 
3590.000000	96.938817 
3589.000000	96.933346 
3588.000000	96.936835 
3587.000000	96.947221 
3586.000000	96.960066 
3585.000000	96.971797 
3584.000000	96.979756 
3583.000000	96.984535 
3582.000000	96.988888 
3581.000000	96.993638 
3580.000000	96.996787 
3579.000000	96.996763 
3578.000000	96.994139 
3577.000000	96.991176 
3576.000000	96.989642 
3575.000000	96.989072 
3574.000000	96.987567 
3573.000000	96.983438 
3572.000000	96.976422 
3571.000000	96.967590 
3570.000000	96.958874 
3569.000000	96.953042 
3568.000000	96.953151 
3567.000000	96.959548 
3566.000000	96.968966 
3565.000000	96.977406 
3564.000000	96.981923 
3563.000000	96.982130 
3562.000000	96.980618 
3561.000000	96.980335 
3560.000000	96.981858 
3559.000000	96.983626 
3558.000000	96.984013 
3557.000000	96.982721 
3556.000000	96.980949 
3555.000000	96.980023 
3554.000000	96.980134 
3553.000000	96.980338 
3552.000000	96.979636 
3551.000000	96.977700 
3550.000000	96.974497 
3549.000000	96.970333 
3548.000000	96.966943 
3547.000000	96.966628 
3546.000000	96.969494 
3545.000000	96.973196 
3544.000000	96.975782 
3543.000000	96.977270 
3542.000000	96.978370 
3541.000000	96.979155 
3540.000000	96.979421 
3539.000000	96.979128 
3538.000000	96.978437 
3537.000000	96.977702 
3536.000000	96.977336 
3535.000000	96.977432 
3534.000000	96.977393 
3533.000000	96.976629 
3532.000000	96.975488 
3531.000000	96.975042 
3530.000000	96.975524 
3529.000000	96.975703 
3528.000000	96.974367 
3527.000000	96.971962 
3526.000000	96.970119 
3525.000000	96.970060 
3524.000000	96.972054 
3523.000000	96.975646 
3522.000000	96.979777 
3521.000000	96.982995 
3520.000000	96.984517 
3519.000000	96.984784 
3518.000000	96.984693 
3517.000000	96.984478 
3516.000000	96.983521 
3515.000000	96.981493 
3514.000000	96.979211 
3513.000000	96.977932 
3512.000000	96.977930 
3511.000000	96.978398 
3510.000000	96.978452 
3509.000000	96.977958 
3508.000000	96.977390 
3507.000000	96.977005 
3506.000000	96.976346 
3505.000000	96.974994 
3504.000000	96.973450 
3503.000000	96.972753 
3502.000000	96.973350 
3501.000000	96.974690 
3500.000000	96.975844 
3499.000000	96.976377 
3498.000000	96.976482 
3497.000000	96.976422 
3496.000000	96.976071 
3495.000000	96.975138 
3494.000000	96.973829 
3493.000000	96.972913 
3492.000000	96.972828 
3491.000000	96.973073 
3490.000000	96.972763 
3489.000000	96.971594 
3488.000000	96.969929 
3487.000000	96.968085 
3486.000000	96.966014 
3485.000000	96.963853 
3484.000000	96.962200 
3483.000000	96.961503 
3482.000000	96.961456 
3481.000000	96.961390 
3480.000000	96.961102 
3479.000000	96.960779 
3478.000000	96.960344 
3477.000000	96.959440 
3476.000000	96.957987 
3475.000000	96.956241 
3474.000000	96.954460 
3473.000000	96.952752 
3472.000000	96.951133 
3471.000000	96.949610 
3470.000000	96.948221 
3469.000000	96.947005 
3468.000000	96.945986 
3467.000000	96.945167 
3466.000000	96.944501 
3465.000000	96.943841 
3464.000000	96.942940 
3463.000000	96.941606 
3462.000000	96.939886 
3461.000000	96.938057 
3460.000000	96.936433 
3459.000000	96.935093 
3458.000000	96.933879 
3457.000000	96.932592 
3456.000000	96.931165 
3455.000000	96.929689 
3454.000000	96.928270 
3453.000000	96.926930 
3452.000000	96.925643 
3451.000000	96.924386 
3450.000000	96.923140 
3449.000000	96.921869 
3448.000000	96.920558 
3447.000000	96.919229 
3446.000000	96.917918 
3445.000000	96.916646 
3444.000000	96.915420 
3443.000000	96.914238 
3442.000000	96.913086 
3441.000000	96.911932 
3440.000000	96.910747 
3439.000000	96.909524 
3438.000000	96.908280 
3437.000000	96.907046 
3436.000000	96.905859 
3435.000000	96.904738 
3434.000000	96.903684 
3433.000000	96.902670 
3432.000000	96.901658 
3431.000000	96.900626 
3430.000000	96.899580 
3429.000000	96.898542 
3428.000000	96.897517 
3427.000000	96.896480 
3426.000000	96.895423 
3425.000000	96.894396 
3424.000000	96.893469 
3423.000000	96.892651 
3422.000000	96.891858 
3421.000000	96.890999 
3420.000000	96.890080 
3419.000000	96.889205 
3418.000000	96.888453 
3417.000000	96.887793 
3416.000000	96.887145 
3415.000000	96.886460 
3414.000000	96.885698 
3413.000000	96.884800 
3412.000000	96.883779 
3411.000000	96.882788 
3410.000000	96.882001 
3409.000000	96.881490 
3408.000000	96.881198 
3407.000000	96.880976 
3406.000000	96.880636 
3405.000000	96.880060 
3404.000000	96.879288 
3403.000000	96.878467 
3402.000000	96.877686 
3401.000000	96.876960 
3400.000000	96.876355 
3399.000000	96.875998 
3398.000000	96.875903 
3397.000000	96.875887 
3396.000000	96.875742 
3395.000000	96.875431 
3394.000000	96.875089 
3393.000000	96.874868 
3392.000000	96.874821 
3391.000000	96.874887 
3390.000000	96.874980 
3389.000000	96.875110 
3388.000000	96.875387 
3387.000000	96.875874 
3386.000000	96.876451 
3385.000000	96.876853 
3384.000000	96.876882 
3383.000000	96.876579 
3382.000000	96.876274 
3381.000000	96.876370 
3380.000000	96.876985 
3379.000000	96.877834 
3378.000000	96.878520 
3377.000000	96.879031 
3376.000000	96.879708 
3375.000000	96.880701 
3374.000000	96.881667 
3373.000000	96.882133 
3372.000000	96.882046 
3371.000000	96.881878 
3370.000000	96.882188 
3369.000000	96.883133 
3368.000000	96.884476 
3367.000000	96.885868 
3366.000000	96.887108 
3365.000000	96.888134 
3364.000000	96.888925 
3363.000000	96.889488 
3362.000000	96.889912 
3361.000000	96.890392 
3360.000000	96.891151 
3359.000000	96.892293 
3358.000000	96.893713 
3357.000000	96.895173 
3356.000000	96.896460 
3355.000000	96.897484 
3354.000000	96.898309 
3353.000000	96.899143 
3352.000000	96.900268 
3351.000000	96.901862 
3350.000000	96.903839 
3349.000000	96.905851 
3348.000000	96.907506 
3347.000000	96.908683 
3346.000000	96.909584 
3345.000000	96.910492 
3344.000000	96.911417 
3343.000000	96.912079 
3342.000000	96.912315 
3341.000000	96.912415 
3340.000000	96.912861 
3339.000000	96.913755 
3338.000000	96.914806 
3337.000000	96.915755 
3336.000000	96.916662 
3335.000000	96.917701 
3334.000000	96.918850 
3333.000000	96.919907 
3332.000000	96.920752 
3331.000000	96.921464 
3330.000000	96.922175 
3329.000000	96.922936 
3328.000000	96.923737 
3327.000000	96.924606 
3326.000000	96.925593 
3325.000000	96.926684 
3324.000000	96.927754 
3323.000000	96.928647 
3322.000000	96.929321 
3321.000000	96.929874 
3320.000000	96.930456 
3319.000000	96.931140 
3318.000000	96.931909 
3317.000000	96.932729 
3316.000000	96.933586 
3315.000000	96.934457 
3314.000000	96.935291 
3313.000000	96.936037 
3312.000000	96.936696 
3311.000000	96.937316 
3310.000000	96.937955 
3309.000000	96.938645 
3308.000000	96.939377 
3307.000000	96.940100 
3306.000000	96.940756 
3305.000000	96.941343 
3304.000000	96.941944 
3303.000000	96.942669 
3302.000000	96.943583 
3301.000000	96.944658 
3300.000000	96.945756 
3299.000000	96.946690 
3298.000000	96.947331 
3297.000000	96.947720 
3296.000000	96.948108 
3295.000000	96.948753 
3294.000000	96.949722 
3293.000000	96.950906 
3292.000000	96.952196 
3291.000000	96.953572 
3290.000000	96.954998 
3289.000000	96.956362 
3288.000000	96.957560 
3287.000000	96.958578 
3286.000000	96.959436 
3285.000000	96.960113 
3284.000000	96.960585 
3283.000000	96.960921 
3282.000000	96.961331 
3281.000000	96.962048 
3280.000000	96.963109 
3279.000000	96.964286 
3278.000000	96.965315 
3277.000000	96.966210 
3276.000000	96.967183 
3275.000000	96.968294 
3274.000000	96.969366 
3273.000000	96.970331 
3272.000000	96.971426 
3271.000000	96.972916 
3270.000000	96.974743 
3269.000000	96.976527 
3268.000000	96.977918 
3267.000000	96.978863 
3266.000000	96.979598 
3265.000000	96.980510 
3264.000000	96.981859 
3263.000000	96.983563 
3262.000000	96.985238 
3261.000000	96.986547 
3260.000000	96.987438 
3259.000000	96.988065 
3258.000000	96.988604 
3257.000000	96.989240 
3256.000000	96.990203 
3255.000000	96.991599 
3254.000000	96.993228 
3253.000000	96.994776 
3252.000000	96.996144 
3251.000000	96.997463 
3250.000000	96.998787 
3249.000000	96.999969 
3248.000000	97.000890 
3247.000000	97.001683 
3246.000000	97.002642 
3245.000000	97.003943 
3244.000000	97.005525 
3243.000000	97.007155 
3242.000000	97.008573 
3241.000000	97.009632 
3240.000000	97.010360 
3239.000000	97.010971 
3238.000000	97.011789 
3237.000000	97.013061 
3236.000000	97.014784 
3235.000000	97.016655 
3234.000000	97.018225 
3233.000000	97.019249 
3232.000000	97.019917 
3231.000000	97.020707 
3230.000000	97.021956 
3229.000000	97.023610 
3228.000000	97.025420 
3227.000000	97.027321 
3226.000000	97.029490 
3225.000000	97.031965 
3224.000000	97.034380 
3223.000000	97.036300 
3222.000000	97.037765 
3221.000000	97.039299 
3220.000000	97.041262 
3219.000000	97.043391 
3218.000000	97.045196 
3217.000000	97.046527 
3216.000000	97.047573 
3215.000000	97.048590 
3214.000000	97.049873 
3213.000000	97.051702 
3212.000000	97.053988 
3211.000000	97.056116 
3210.000000	97.057485 
3209.000000	97.058159 
3208.000000	97.058699 
3207.000000	97.059403 
3206.000000	97.060069 
3205.000000	97.060597 
3204.000000	97.061465 
3203.000000	97.063317 
3202.000000	97.066233 
3201.000000	97.069533 
3200.000000	97.072338 
3199.000000	97.074342 
3198.000000	97.075982 
3197.000000	97.077844 
3196.000000	97.079949 
3195.000000	97.081812 
3194.000000	97.083214 
3193.000000	97.084618 
3192.000000	97.086601 
3191.000000	97.089095 
3190.000000	97.091423 
3189.000000	97.093063 
3188.000000	97.094111 
3187.000000	97.095097 
3186.000000	97.096566 
3185.000000	97.098737 
3184.000000	97.101403 
3183.000000	97.104106 
3182.000000	97.106577 
3181.000000	97.108877 
3180.000000	97.111114 
3179.000000	97.113229 
3178.000000	97.115146 
3177.000000	97.116969 
3176.000000	97.118885 
3175.000000	97.120960 
3174.000000	97.123144 
3173.000000	97.125372 
3172.000000	97.127541 
3171.000000	97.129496 
3170.000000	97.131190 
3169.000000	97.132789 
3168.000000	97.134505 
3167.000000	97.136381 
3166.000000	97.138318 
3165.000000	97.140232 
3164.000000	97.142107 
3163.000000	97.143955 
3162.000000	97.145793 
3161.000000	97.147636 
3160.000000	97.149489 
3159.000000	97.151344 
3158.000000	97.153193 
3157.000000	97.155034 
3156.000000	97.156868 
3155.000000	97.158696 
3154.000000	97.160519 
3153.000000	97.162340 
3152.000000	97.164163 
3151.000000	97.165989 
3150.000000	97.167812 
3149.000000	97.169630 
3148.000000	97.171443 
3147.000000	97.173258 
3146.000000	97.175082 
3145.000000	97.176915 
3144.000000	97.178751 
3143.000000	97.180575 
3142.000000	97.182378 
3141.000000	97.184159 
3140.000000	97.185916 
3139.000000	97.187657 
3138.000000	97.189404 
3137.000000	97.191181 
3136.000000	97.192981 
3135.000000	97.194763 
3134.000000	97.196482 
3133.000000	97.198137 
3132.000000	97.199776 
3131.000000	97.201435 
3130.000000	97.203102 
3129.000000	97.204787 
3128.000000	97.206598 
3127.000000	97.208648 
3126.000000	97.210919 
3125.000000	97.213221 
3124.000000	97.215318 
3123.000000	97.217052 
3122.000000	97.218377 
3121.000000	97.219439 
3120.000000	97.220556 
3119.000000	97.221969 
3118.000000	97.223640 
3117.000000	97.225407 
3116.000000	97.227284 
3115.000000	97.229453 
3114.000000	97.231924 
3113.000000	97.234398 
3112.000000	97.236559 
3111.000000	97.238459 
3110.000000	97.240473 
3109.000000	97.242872 
3108.000000	97.245528 
3107.000000	97.248105 
3106.000000	97.250386 
3105.000000	97.252290 
3104.000000	97.253675 
3103.000000	97.254311 
3102.000000	97.254195 
3101.000000	97.253802 
3100.000000	97.253813 
3099.000000	97.254600 
3098.000000	97.256207 
3097.000000	97.258681 
3096.000000	97.261989 
3095.000000	97.265521 
3094.000000	97.268221 
3093.000000	97.269501 
3092.000000	97.269812 
3091.000000	97.270045 
3090.000000	97.270611 
3089.000000	97.271364 
3088.000000	97.272083 
3087.000000	97.272785 
3086.000000	97.273723 
3085.000000	97.275196 
3084.000000	97.277128 
3083.000000	97.278809 
3082.000000	97.279484 
3081.000000	97.279411 
3080.000000	97.279836 
3079.000000	97.281494 
3078.000000	97.283801 
3077.000000	97.286012 
3076.000000	97.288310 
3075.000000	97.290909 
3074.000000	97.292933 
3073.000000	97.293478 
3072.000000	97.293169 
3071.000000	97.293216 
3070.000000	97.293454 
3069.000000	97.292937 
3068.000000	97.292166 
3067.000000	97.292877 
3066.000000	97.295449 
3065.000000	97.298196 
3064.000000	97.299574 
3063.000000	97.299518 
3062.000000	97.298381 
3061.000000	97.296207 
3060.000000	97.293615 
3059.000000	97.292120 
3058.000000	97.292937 
3057.000000	97.296086 
3056.000000	97.300467 
3055.000000	97.303901 
3054.000000	97.303642 
3053.000000	97.298738 
3052.000000	97.292305 
3051.000000	97.289565 
3050.000000	97.292600 
3049.000000	97.298183 
3048.000000	97.301325 
3047.000000	97.299758 
3046.000000	97.294400 
3045.000000	97.287390 
3044.000000	97.281200 
3043.000000	97.278498 
3042.000000	97.280825 
3041.000000	97.286634 
3040.000000	97.291505 
3039.000000	97.291259 
3038.000000	97.285014 
3037.000000	97.275451 
3036.000000	97.266141 
3035.000000	97.258483 
3034.000000	97.251557 
3033.000000	97.244555 
3032.000000	97.238232 
3031.000000	97.233640 
3030.000000	97.230451 
3029.000000	97.227240 
3028.000000	97.222549 
3027.000000	97.214998 
3026.000000	97.203555 
3025.000000	97.189085 
3024.000000	97.174902 
3023.000000	97.163979 
3022.000000	97.155859 
3021.000000	97.147992 
3020.000000	97.139650 
3019.000000	97.132321 
3018.000000	97.126106 
3017.000000	97.118239 
3016.000000	97.106318 
3015.000000	97.091375 
3014.000000	97.076750 
3013.000000	97.065013 
3012.000000	97.056449 
3011.000000	97.049245 
3010.000000	97.040467 
3009.000000	97.028021 
3008.000000	97.012447 
3007.000000	96.996132 
3006.000000	96.980559 
3005.000000	96.965406 
3004.000000	96.950476 
3003.000000	96.936794 
3002.000000	96.925017 
3001.000000	96.914245 
3000.000000	96.903365 
2999.000000	96.892357 
2998.000000	96.881544 
2997.000000	96.870675 
2996.000000	96.859501 
2995.000000	96.848056 
2994.000000	96.835278 
2993.000000	96.818581 
2992.000000	96.796507 
2991.000000	96.771608 
2990.000000	96.749609 
2989.000000	96.735603 
2988.000000	96.731265 
2987.000000	96.734828 
2986.000000	96.742733 
2985.000000	96.751704 
2984.000000	96.760010 
2983.000000	96.767124 
2982.000000	96.772502 
2981.000000	96.775295 
2980.000000	96.775212 
2979.000000	96.772739 
2978.000000	96.768342 
2977.000000	96.762452 
2976.000000	96.756563 
2975.000000	96.753141 
2974.000000	96.753648 
2973.000000	96.757460 
2972.000000	96.763269 
2971.000000	96.770678 
2970.000000	96.779701 
2969.000000	96.789729 
2968.000000	96.799963 
2967.000000	96.810211 
2966.000000	96.820458 
2965.000000	96.830283 
2964.000000	96.839543 
2963.000000	96.848969 
2962.000000	96.859145 
2961.000000	96.869512 
2960.000000	96.879389 
2959.000000	96.889446 
2958.000000	96.900902 
2957.000000	96.913359 
2956.000000	96.924477 
2955.000000	96.931999 
2954.000000	96.935764 
2953.000000	96.937967 
2952.000000	96.941854 
2951.000000	96.949494 
2950.000000	96.959808 
2949.000000	96.969039 
2948.000000	96.973982 
2947.000000	96.974671 
2946.000000	96.973623 
2945.000000	96.973098 
2944.000000	96.973883 
2943.000000	96.976079 
2942.000000	96.979373 
2941.000000	96.982432 
2940.000000	96.983598 
2939.000000	96.982949 
2938.000000	96.982749 
2937.000000	96.985105 
2936.000000	96.989681 
2935.000000	96.994157 
2934.000000	96.996362 
2933.000000	96.995444 
2932.000000	96.991733 
2931.000000	96.986580 
2930.000000	96.982272 
2929.000000	96.981129 
2928.000000	96.983857 
2927.000000	96.988675 
2926.000000	96.992428 
2925.000000	96.993113 
2924.000000	96.991539 
2923.000000	96.990334 
2922.000000	96.991138 
2921.000000	96.993080 
2920.000000	96.994369 
2919.000000	96.994798 
2918.000000	96.995568 
2917.000000	96.996483 
2916.000000	96.994712 
2915.000000	96.987653 
2914.000000	96.976756 
2913.000000	96.967176 
2912.000000	96.962945 
2911.000000	96.963260 
2910.000000	96.964045 
2909.000000	96.962646 
2908.000000	96.960004 
2907.000000	96.958199 
2906.000000	96.957079 
2905.000000	96.954056 
2904.000000	96.947123 
2903.000000	96.937842 
2902.000000	96.931145 
2901.000000	96.931903 
2900.000000	96.941224 
2899.000000	96.955734 
2898.000000	96.970319 
2897.000000	96.981750 
2896.000000	96.989519 
2895.000000	96.994118 
2894.000000	96.996354 
2893.000000	96.998353 
2892.000000	97.003005 
2891.000000	97.010852 
2890.000000	97.018773 
2889.000000	97.023557 
2888.000000	97.025940 
2887.000000	97.028975 
2886.000000	97.033079 
2885.000000	97.035635 
2884.000000	97.036108 
2883.000000	97.038452 
2882.000000	97.046321 
2881.000000	97.058088 
2880.000000	97.069132 
2879.000000	97.078109 
2878.000000	97.087863 
2877.000000	97.100156 
2876.000000	97.112477 
2875.000000	97.121226 
2874.000000	97.125995 
2873.000000	97.129155 
2872.000000	97.132567 
2871.000000	97.136392 
2870.000000	97.140569 
2869.000000	97.145721 
2868.000000	97.152416 
2867.000000	97.160529 
2866.000000	97.169429 
2865.000000	97.178179 
2864.000000	97.185852 
2863.000000	97.192703 
2862.000000	97.200884 
2861.000000	97.212716 
2860.000000	97.227852 
2859.000000	97.243139 
2858.000000	97.255970 
2857.000000	97.266898 
2856.000000	97.278086 
2855.000000	97.289877 
2854.000000	97.300187 
2853.000000	97.307131 
2852.000000	97.311043 
2851.000000	97.313822 
2850.000000	97.317194 
2849.000000	97.321937 
2848.000000	97.328068 
2847.000000	97.334980 
2846.000000	97.341639 
2845.000000	97.347250 
2844.000000	97.351812 
2843.000000	97.355897 
2842.000000	97.359996 
2841.000000	97.364122 
2840.000000	97.367820 
2839.000000	97.370478 
2838.000000	97.371924 
2837.000000	97.372898 
2836.000000	97.374762 
2835.000000	97.378492 
2834.000000	97.384066 
2833.000000	97.390828 
2832.000000	97.397913 
2831.000000	97.404108 
2830.000000	97.407944 
2829.000000	97.408776 
2828.000000	97.407837 
2827.000000	97.407673 
2826.000000	97.410205 
2825.000000	97.415413 
2824.000000	97.421685 
2823.000000	97.427035 
2822.000000	97.430113 
2821.000000	97.430669 
2820.000000	97.429482 
2819.000000	97.427811 
2818.000000	97.426763 
2817.000000	97.427083 
2816.000000	97.429145 
2815.000000	97.432658 
2814.000000	97.436380 
2813.000000	97.438654 
2812.000000	97.438620 
2811.000000	97.436903 
2810.000000	97.435157 
2809.000000	97.434944 
2808.000000	97.436878 
2807.000000	97.440535 
2806.000000	97.444855 
2805.000000	97.448739 
2804.000000	97.451539 
2803.000000	97.453150 
2802.000000	97.453878 
2801.000000	97.454322 
2800.000000	97.455131 
2799.000000	97.456562 
2798.000000	97.458231 
2797.000000	97.459480 
2796.000000	97.460074 
2795.000000	97.460423 
2794.000000	97.461136 
2793.000000	97.462428 
2792.000000	97.464033 
2791.000000	97.465542 
2790.000000	97.466728 
2789.000000	97.467609 
2788.000000	97.468350 
2787.000000	97.469158 
2786.000000	97.470179 
2785.000000	97.471426 
2784.000000	97.472784 
2783.000000	97.474101 
2782.000000	97.475289 
2781.000000	97.476369 
2780.000000	97.477400 
2779.000000	97.478434 
2778.000000	97.479491 
2777.000000	97.480568 
2776.000000	97.481639 
2775.000000	97.482675 
2774.000000	97.483670 
2773.000000	97.484648 
2772.000000	97.485625 
2771.000000	97.486596 
2770.000000	97.487573 
2769.000000	97.488617 
2768.000000	97.489778 
2767.000000	97.491003 
2766.000000	97.492156 
2765.000000	97.493159 
2764.000000	97.494067 
2763.000000	97.494972 
2762.000000	97.495867 
2761.000000	97.496681 
2760.000000	97.497419 
2759.000000	97.498210 
2758.000000	97.499177 
2757.000000	97.500272 
2756.000000	97.501277 
2755.000000	97.502028 
2754.000000	97.502624 
2753.000000	97.503347 
2752.000000	97.504346 
2751.000000	97.505492 
2750.000000	97.506621 
2749.000000	97.507788 
2748.000000	97.509061 
2747.000000	97.510137 
2746.000000	97.510559 
2745.000000	97.510279 
2744.000000	97.509806 
2743.000000	97.509741 
2742.000000	97.510235 
2741.000000	97.511070 
2740.000000	97.512009 
2739.000000	97.512949 
2738.000000	97.513796 
2737.000000	97.514457 
2736.000000	97.514976 
2735.000000	97.515518 
2734.000000	97.516198 
2733.000000	97.517006 
2732.000000	97.517889 
2731.000000	97.518798 
2730.000000	97.519685 
2729.000000	97.520501 
2728.000000	97.521214 
2727.000000	97.521796 
2726.000000	97.522228 
2725.000000	97.522556 
2724.000000	97.522902 
2723.000000	97.523363 
2722.000000	97.523923 
2721.000000	97.524511 
2720.000000	97.525091 
2719.000000	97.525679 
2718.000000	97.526277 
2717.000000	97.526856 
2716.000000	97.527396 
2715.000000	97.527902 
2714.000000	97.528407 
2713.000000	97.528933 
2712.000000	97.529474 
2711.000000	97.530002 
2710.000000	97.530496 
2709.000000	97.530962 
2708.000000	97.531429 
2707.000000	97.531925 
2706.000000	97.532460 
2705.000000	97.533027 
2704.000000	97.533614 
2703.000000	97.534179 
2702.000000	97.534650 
2701.000000	97.535012 
2700.000000	97.535404 
2699.000000	97.536036 
2698.000000	97.536944 
2697.000000	97.537818 
2696.000000	97.538244 
2695.000000	97.538110 
2694.000000	97.537771 
2693.000000	97.537717 
2692.000000	97.538067 
2691.000000	97.538509 
2690.000000	97.538688 
2689.000000	97.538576 
2688.000000	97.538373 
2687.000000	97.538186 
2686.000000	97.538018 
2685.000000	97.538018 
2684.000000	97.538444 
2683.000000	97.539262 
2682.000000	97.540001 
2681.000000	97.540241 
2680.000000	97.540126 
2679.000000	97.540208 
2678.000000	97.540847 
2677.000000	97.541953 
2676.000000	97.543138 
2675.000000	97.543870 
2674.000000	97.543672 
2673.000000	97.542597 
2672.000000	97.541441 
2671.000000	97.540968 
2670.000000	97.541030 
2669.000000	97.540942 
2668.000000	97.540581 
2667.000000	97.540448 
2666.000000	97.540559 
2665.000000	97.540053 
2664.000000	97.538338 
2663.000000	97.536047 
2662.000000	97.534377 
2661.000000	97.533663 
2660.000000	97.533178 
2659.000000	97.532180 
2658.000000	97.530736 
2657.000000	97.529500 
2656.000000	97.528983 
2655.000000	97.529078 
2654.000000	97.529094 
2653.000000	97.528291 
2652.000000	97.526632 
2651.000000	97.524956 
2650.000000	97.524255 
2649.000000	97.524739 
2648.000000	97.525732 
2647.000000	97.526310 
2646.000000	97.525885 
2645.000000	97.524321 
2644.000000	97.521914 
2643.000000	97.519386 
2642.000000	97.517551 
2641.000000	97.516746 
2640.000000	97.516683 
2639.000000	97.516916 
2638.000000	97.517290 
2637.000000	97.517788 
2636.000000	97.518257 
2635.000000	97.518587 
2634.000000	97.518964 
2633.000000	97.519569 
2632.000000	97.520101 
2631.000000	97.519972 
2630.000000	97.519063 
2629.000000	97.517972 
2628.000000	97.517382 
2627.000000	97.517371 
2626.000000	97.517581 
2625.000000	97.517862 
2624.000000	97.518403 
2623.000000	97.519296 
2622.000000	97.520240 
2621.000000	97.520763 
2620.000000	97.520595 
2619.000000	97.519752 
2618.000000	97.518502 
2617.000000	97.517351 
2616.000000	97.516812 
2615.000000	97.517027 
2614.000000	97.517680 
2613.000000	97.518303 
2612.000000	97.518727 
2611.000000	97.519105 
2610.000000	97.519585 
2609.000000	97.520110 
2608.000000	97.520491 
2607.000000	97.520592 
2606.000000	97.520455 
2605.000000	97.520271 
2604.000000	97.520218 
2603.000000	97.520316 
2602.000000	97.520491 
2601.000000	97.520750 
2600.000000	97.521160 
2599.000000	97.521637 
2598.000000	97.521917 
2597.000000	97.521835 
2596.000000	97.521503 
2595.000000	97.521184 
2594.000000	97.520972 
2593.000000	97.520841 
2592.000000	97.521008 
2591.000000	97.521786 
2590.000000	97.522933 
2589.000000	97.523607 
2588.000000	97.523403 
2587.000000	97.522989 
2586.000000	97.523292 
2585.000000	97.524384 
2584.000000	97.525652 
2583.000000	97.526697 
2582.000000	97.527517 
2581.000000	97.528010 
2580.000000	97.527947 
2579.000000	97.527439 
2578.000000	97.527018 
2577.000000	97.527136 
2576.000000	97.527741 
2575.000000	97.528327 
2574.000000	97.528339 
2573.000000	97.527689 
2572.000000	97.526918 
2571.000000	97.526584 
2570.000000	97.526517 
2569.000000	97.526129 
2568.000000	97.525429 
2567.000000	97.525087 
2566.000000	97.525334 
2565.000000	97.525580 
2564.000000	97.525438 
2563.000000	97.525395 
2562.000000	97.526032 
2561.000000	97.527365 
2560.000000	97.529482 
2559.000000	97.532958 
2558.000000	97.537749 
2557.000000	97.542265 
2556.000000	97.544732 
2555.000000	97.545096 
2554.000000	97.544686 
2553.000000	97.544201 
2552.000000	97.543203 
2551.000000	97.541817 
2550.000000	97.541357 
2549.000000	97.542446 
2548.000000	97.543615 
2547.000000	97.542958 
2546.000000	97.540671 
2545.000000	97.538910 
2544.000000	97.539000 
2543.000000	97.539907 
2542.000000	97.539883 
2541.000000	97.538793 
2540.000000	97.537989 
2539.000000	97.538271 
2538.000000	97.539014 
2537.000000	97.539415 
2536.000000	97.539762 
2535.000000	97.540860 
2534.000000	97.542716 
2533.000000	97.544460 
2532.000000	97.545442 
2531.000000	97.545849 
2530.000000	97.546161 
2529.000000	97.546451 
2528.000000	97.546476 
2527.000000	97.546214 
2526.000000	97.546028 
2525.000000	97.546282 
2524.000000	97.546970 
2523.000000	97.547780 
2522.000000	97.548408 
2521.000000	97.548803 
2520.000000	97.549103 
2519.000000	97.549426 
2518.000000	97.549746 
2517.000000	97.549948 
2516.000000	97.549949 
2515.000000	97.549781 
2514.000000	97.549617 
2513.000000	97.549695 
2512.000000	97.550129 
2511.000000	97.550838 
2510.000000	97.551630 
2509.000000	97.552357 
2508.000000	97.552964 
2507.000000	97.553424 
2506.000000	97.553742 
2505.000000	97.554030 
2504.000000	97.554474 
2503.000000	97.555129 
2502.000000	97.555793 
2501.000000	97.556209 
2500.000000	97.556367 
2499.000000	97.556497 
2498.000000	97.556768 
2497.000000	97.557110 
2496.000000	97.557409 
2495.000000	97.557727 
2494.000000	97.558163 
2493.000000	97.558610 
2492.000000	97.558818 
2491.000000	97.558761 
2490.000000	97.558770 
2489.000000	97.559149 
2488.000000	97.559725 
2487.000000	97.559994 
2486.000000	97.559719 
2485.000000	97.559226 
2484.000000	97.559089 
2483.000000	97.559584 
2482.000000	97.560466 
2481.000000	97.561221 
2480.000000	97.561593 
2479.000000	97.561875 
2478.000000	97.562660 
2477.000000	97.564175 
2476.000000	97.565829 
2475.000000	97.566573 
2474.000000	97.565785 
2473.000000	97.563791 
2472.000000	97.561522 
2471.000000	97.559609 
2470.000000	97.558092 
2469.000000	97.556948 
2468.000000	97.556426 
2467.000000	97.556572 
2466.000000	97.556771 
2465.000000	97.556284 
2464.000000	97.555244 
2463.000000	97.554708 
2462.000000	97.555599 
2461.000000	97.557923 
2460.000000	97.560976 
2459.000000	97.563882 
2458.000000	97.565696 
2457.000000	97.565449 
2456.000000	97.562712 
2455.000000	97.558254 
2454.000000	97.553829 
2453.000000	97.550834 
2452.000000	97.549311 
2451.000000	97.548477 
2450.000000	97.548070 
2449.000000	97.548682 
2448.000000	97.550573 
2447.000000	97.552772 
2446.000000	97.553853 
2445.000000	97.553432 
2444.000000	97.552367 
2443.000000	97.551642 
2442.000000	97.551573 
2441.000000	97.552003 
2440.000000	97.552716 
2439.000000	97.553729 
2438.000000	97.555629 
2437.000000	97.559303 
2436.000000	97.564711 
2435.000000	97.570068 
2434.000000	97.573174 
2433.000000	97.573567 
2432.000000	97.572734 
2431.000000	97.572322 
2430.000000	97.572898 
2429.000000	97.574414 
2428.000000	97.576658 
2427.000000	97.578823 
2426.000000	97.579589 
2425.000000	97.578262 
2424.000000	97.575645 
2423.000000	97.573187 
2422.000000	97.571512 
2421.000000	97.570944 
2420.000000	97.572397 
2419.000000	97.576175 
2418.000000	97.580826 
2417.000000	97.584592 
2416.000000	97.587260 
2415.000000	97.589363 
2414.000000	97.590712 
2413.000000	97.591224 
2412.000000	97.591975 
2411.000000	97.593719 
2410.000000	97.595343 
2409.000000	97.595583 
2408.000000	97.595410 
2407.000000	97.596739 
2406.000000	97.599274 
2405.000000	97.600576 
2404.000000	97.599227 
2403.000000	97.596333 
2402.000000	97.593915 
2401.000000	97.593237 
2400.000000	97.594681 
2399.000000	97.597836 
2398.000000	97.601563 
2397.000000	97.604977 
2396.000000	97.608185 
2395.000000	97.611157 
2394.000000	97.612569 
2393.000000	97.611479 
2392.000000	97.609656 
2391.000000	97.610383 
2390.000000	97.614775 
2389.000000	97.620936 
2388.000000	97.626841 
2387.000000	97.632535 
2386.000000	97.639017 
2385.000000	97.646245 
2384.000000	97.652944 
2383.000000	97.657123 
2382.000000	97.656201 
2381.000000	97.648180 
2380.000000	97.633681 
2379.000000	97.616117 
2378.000000	97.599013 
2377.000000	97.584126 
2376.000000	97.573129 
2375.000000	97.569090 
2374.000000	97.573731 
2373.000000	97.584102 
2372.000000	97.594446 
2371.000000	97.601711 
2370.000000	97.606663 
2369.000000	97.609711 
2368.000000	97.609205 
2367.000000	97.604510 
2366.000000	97.597942 
2365.000000	97.592576 
2364.000000	97.589678 
2363.000000	97.588876 
2362.000000	97.589660 
2361.000000	97.591615 
2360.000000	97.594071 
2359.000000	97.596440 
2358.000000	97.597741 
2357.000000	97.597231 
2356.000000	97.595258 
2355.000000	97.592886 
2354.000000	97.590526 
2353.000000	97.588876 
2352.000000	97.589163 
2351.000000	97.591213 
2350.000000	97.593373 
2349.000000	97.594345 
2348.000000	97.594350 
2347.000000	97.594224 
2346.000000	97.594646 
2345.000000	97.595696 
2344.000000	97.597057 
2343.000000	97.598382 
2342.000000	97.599539 
2341.000000	97.600603 
2340.000000	97.601698 
2339.000000	97.602924 
2338.000000	97.604239 
2337.000000	97.605476 
2336.000000	97.606705 
2335.000000	97.608250 
2334.000000	97.610131 
2333.000000	97.611767 
2332.000000	97.613124 
2331.000000	97.614856 
2330.000000	97.617454 
2329.000000	97.620318 
2328.000000	97.623136 
2327.000000	97.625845 
2326.000000	97.627949 
2325.000000	97.628736 
2324.000000	97.629394 
2323.000000	97.631777 
2322.000000	97.635062 
2321.000000	97.635643 
2320.000000	97.632869 
2319.000000	97.629999 
2318.000000	97.630149 
2317.000000	97.631141 
2316.000000	97.630063 
2315.000000	97.627037 
2314.000000	97.626097 
2313.000000	97.629323 
2312.000000	97.636923 
2311.000000	97.647001 
2310.000000	97.656984 
2309.000000	97.663418 
2308.000000	97.666139 
2307.000000	97.667907 
2306.000000	97.670919 
2305.000000	97.673860 
2304.000000	97.675733 
2303.000000	97.677017 
2302.000000	97.679203 
2301.000000	97.681324 
2300.000000	97.681370 
2299.000000	97.676802 
2298.000000	97.666787 
2297.000000	97.650604 
2296.000000	97.630611 
2295.000000	97.611455 
2294.000000	97.597171 
2293.000000	97.587057 
2292.000000	97.578510 
2291.000000	97.570860 
2290.000000	97.565518 
2289.000000	97.563005 
2288.000000	97.561766 
2287.000000	97.559837 
2286.000000	97.555898 
2285.000000	97.550000 
2284.000000	97.543420 
2283.000000	97.538017 
2282.000000	97.534195 
2281.000000	97.530742 
2280.000000	97.526473 
2279.000000	97.521474 
2278.000000	97.516270 
2277.000000	97.511359 
2276.000000	97.508042 
2275.000000	97.507613 
2274.000000	97.509672 
2273.000000	97.512826 
2272.000000	97.516992 
2271.000000	97.522282 
2270.000000	97.526387 
2269.000000	97.526303 
2268.000000	97.522943 
2267.000000	97.520376 
2266.000000	97.520258 
2265.000000	97.520182 
2264.000000	97.517927 
2263.000000	97.514048 
2262.000000	97.509662 
2261.000000	97.504892 
2260.000000	97.500154 
2259.000000	97.496474 
2258.000000	97.493834 
2257.000000	97.491410 
2256.000000	97.489609 
2255.000000	97.489832 
2254.000000	97.491881 
2253.000000	97.493160 
2252.000000	97.491510 
2251.000000	97.487317 
2250.000000	97.482278 
2249.000000	97.477558 
2248.000000	97.473693 
2247.000000	97.471130 
2246.000000	97.469802 
2245.000000	97.468821 
2244.000000	97.467282 
2243.000000	97.465151 
2242.000000	97.462921 
2241.000000	97.460929 
2240.000000	97.459180 
2239.000000	97.457524 
2238.000000	97.455800 
2237.000000	97.453945 
2236.000000	97.452015 
2235.000000	97.450058 
2234.000000	97.448079 
2233.000000	97.446082 
2232.000000	97.444063 
2231.000000	97.442019 
2230.000000	97.439945 
2229.000000	97.437841 
2228.000000	97.435713 
2227.000000	97.433576 
2226.000000	97.431434 
2225.000000	97.429286 
2224.000000	97.427128 
2223.000000	97.424974 
2222.000000	97.422850 
2221.000000	97.420769 
2220.000000	97.418724 
2219.000000	97.416694 
2218.000000	97.414669 
2217.000000	97.412649 
2216.000000	97.410650 
2215.000000	97.408685 
2214.000000	97.406757 
2213.000000	97.404861 
2212.000000	97.402996 
2211.000000	97.401176 
2210.000000	97.399414 
2209.000000	97.397700 
2208.000000	97.396010 
2207.000000	97.394315 
2206.000000	97.392599 
2205.000000	97.390847 
2204.000000	97.389040 
2203.000000	97.387210 
2202.000000	97.385735 
2201.000000	97.384906 
2200.000000	97.384175 
2199.000000	97.382397 
2198.000000	97.378929 
2197.000000	97.374318 
2196.000000	97.369999 
2195.000000	97.367227 
2194.000000	97.366143 
2193.000000	97.365859 
2192.000000	97.365530 
2191.000000	97.364882 
2190.000000	97.363678 
2189.000000	97.361812 
2188.000000	97.360265 
2187.000000	97.360247 
2186.000000	97.360482 
2185.000000	97.357543 
2184.000000	97.351055 
2183.000000	97.346607 
2182.000000	97.349983 
2181.000000	97.359450 
2180.000000	97.366488 
2179.000000	97.365323 
2178.000000	97.358539 
2177.000000	97.353177 
2176.000000	97.353306 
2175.000000	97.357485 
2174.000000	97.361792 
2173.000000	97.363985 
2172.000000	97.365214 
2171.000000	97.367742 
2170.000000	97.370673 
2169.000000	97.369240 
2168.000000	97.360185 
2167.000000	97.346844 
2166.000000	97.336171 
2165.000000	97.330700 
2164.000000	97.326425 
2163.000000	97.319417 
2162.000000	97.312432 
2161.000000	97.313463 
2160.000000	97.328687 
2159.000000	97.356732 
2158.000000	97.387917 
2157.000000	97.410892 
2156.000000	97.421772 
2155.000000	97.425083 
2154.000000	97.427303 
2153.000000	97.431577 
2152.000000	97.437566 
2151.000000	97.443013 
2150.000000	97.444793 
2149.000000	97.441848 
2148.000000	97.438537 
2147.000000	97.441598 
2146.000000	97.451962 
2145.000000	97.463132 
2144.000000	97.470077 
2143.000000	97.475793 
2142.000000	97.485494 
2141.000000	97.498093 
2140.000000	97.508172 
2139.000000	97.514368 
2138.000000	97.520845 
2137.000000	97.530811 
2136.000000	97.542154 
2135.000000	97.549520 
2134.000000	97.548712 
2133.000000	97.540540 
2132.000000	97.531933 
2131.000000	97.530869 
2130.000000	97.538566 
2129.000000	97.548318 
2128.000000	97.553191 
2127.000000	97.552719 
2126.000000	97.550703 
2125.000000	97.549503 
2124.000000	97.548931 
2123.000000	97.548333 
2122.000000	97.546788 
2121.000000	97.542688 
2120.000000	97.535652 
2119.000000	97.527801 
2118.000000	97.521459 
2117.000000	97.516902 
2116.000000	97.513590 
2115.000000	97.511595 
2114.000000	97.510071 
2113.000000	97.506621 
2112.000000	97.500840 
2111.000000	97.496305 
2110.000000	97.496323 
2109.000000	97.499708 
2108.000000	97.503198 
2107.000000	97.505953 
2106.000000	97.508936 
2105.000000	97.512031 
2104.000000	97.514749 
2103.000000	97.517688 
2102.000000	97.520226 
2101.000000	97.518913 
2100.000000	97.511894 
2099.000000	97.503483 
2098.000000	97.500756 
2097.000000	97.505699 
2096.000000	97.513784 
2095.000000	97.519313 
2094.000000	97.520277 
2093.000000	97.517772 
2092.000000	97.513612 
2091.000000	97.509548 
2090.000000	97.506995 
2089.000000	97.506242 
2088.000000	97.506247 
2087.000000	97.505536 
2086.000000	97.503166 
2085.000000	97.499116 
2084.000000	97.494411 
2083.000000	97.490460 
2082.000000	97.487696 
2081.000000	97.485377 
2080.000000	97.483377 
2079.000000	97.483061 
2078.000000	97.485017 
2077.000000	97.486973 
2076.000000	97.486185 
2075.000000	97.483131 
2074.000000	97.480303 
2073.000000	97.477973 
2072.000000	97.473818 
2071.000000	97.466826 
2070.000000	97.458945 
2069.000000	97.452404 
2068.000000	97.447881 
2067.000000	97.445326 
2066.000000	97.444294 
2065.000000	97.443035 
2064.000000	97.439553 
2063.000000	97.434246 
2062.000000	97.429791 
2061.000000	97.428063 
2060.000000	97.428770 
2059.000000	97.430905 
2058.000000	97.433278 
2057.000000	97.433756 
2056.000000	97.430062 
2055.000000	97.421984 
2054.000000	97.411955 
2053.000000	97.402930 
2052.000000	97.396225 
2051.000000	97.391367 
2050.000000	97.387079 
2049.000000	97.382409 
2048.000000	97.377792 
2047.000000	97.374850 
2046.000000	97.374429 
2045.000000	97.375278 
2044.000000	97.375460 
2043.000000	97.374448 
2042.000000	97.372944 
2041.000000	97.371501 
2040.000000	97.370511 
2039.000000	97.370865 
2038.000000	97.373038 
2037.000000	97.375657 
2036.000000	97.376447 
2035.000000	97.374729 
2034.000000	97.372006 
2033.000000	97.370368 
2032.000000	97.370878 
2031.000000	97.373049 
2030.000000	97.374880 
2029.000000	97.374072 
2028.000000	97.370109 
2027.000000	97.364918 
2026.000000	97.360834 
2025.000000	97.358679 
2024.000000	97.358602 
2023.000000	97.361390 
2022.000000	97.367424 
2021.000000	97.374541 
2020.000000	97.378821 
2019.000000	97.378167 
2018.000000	97.373668 
2017.000000	97.368249 
2016.000000	97.364319 
2015.000000	97.362771 
2014.000000	97.362797 
2013.000000	97.362163 
2012.000000	97.359494 
2011.000000	97.356734 
2010.000000	97.357288 
2009.000000	97.361506 
2008.000000	97.366198 
2007.000000	97.369436 
2006.000000	97.372914 
2005.000000	97.378154 
2004.000000	97.383312 
2003.000000	97.385898 
2002.000000	97.386637 
2001.000000	97.387753 
2000.000000	97.389034 
1999.000000	97.387478 
1998.000000	97.380751 
1997.000000	97.370321 
1996.000000	97.360954 
1995.000000	97.357097 
1994.000000	97.359325 
1993.000000	97.363680 
1992.000000	97.364851 
1991.000000	97.361572 
1990.000000	97.357850 
1989.000000	97.358240 
1988.000000	97.362850 
1987.000000	97.367188 
1986.000000	97.366329 
1985.000000	97.359182 
1984.000000	97.349113 
1983.000000	97.340692 
1982.000000	97.336023 
1981.000000	97.334277 
1980.000000	97.334889 
1979.000000	97.338913 
1978.000000	97.346141 
1977.000000	97.353267 
1976.000000	97.356779 
1975.000000	97.357236 
1974.000000	97.358340 
1973.000000	97.362834 
1972.000000	97.370442 
1971.000000	97.378811 
1970.000000	97.385051 
1969.000000	97.387129 
1968.000000	97.385158 
1967.000000	97.381592 
1966.000000	97.379571 
1965.000000	97.380863 
1964.000000	97.385635 
1963.000000	97.393303 
1962.000000	97.402608 
1961.000000	97.411253 
1960.000000	97.416690 
1959.000000	97.417779 
1958.000000	97.415760 
1957.000000	97.413754 
1956.000000	97.414508 
1955.000000	97.418170 
1954.000000	97.422289 
1953.000000	97.424367 
1952.000000	97.424008 
1951.000000	97.422815 
1950.000000	97.422841 
1949.000000	97.425284 
1948.000000	97.430360 
1947.000000	97.437004 
1946.000000	97.442749 
1945.000000	97.445454 
1944.000000	97.445308 
1943.000000	97.444531 
1942.000000	97.444917 
1941.000000	97.446268 
1940.000000	97.447620 
1939.000000	97.448578 
1938.000000	97.449400 
1937.000000	97.450657 
1936.000000	97.452875 
1935.000000	97.455922 
1934.000000	97.458778 
1933.000000	97.460679 
1932.000000	97.462218 
1931.000000	97.464746 
1930.000000	97.468504 
1929.000000	97.471867 
1928.000000	97.473799 
1927.000000	97.475040 
1926.000000	97.476668 
1925.000000	97.478173 
1924.000000	97.478305 
1923.000000	97.477568 
1922.000000	97.477374 
1921.000000	97.477889 
1920.000000	97.478355 
1919.000000	97.478771 
1918.000000	97.479467 
1917.000000	97.479623 
1916.000000	97.478615 
1915.000000	97.477620 
1914.000000	97.478073 
1913.000000	97.479797 
1912.000000	97.481146 
1911.000000	97.481329 
1910.000000	97.480977 
1909.000000	97.480802 
1908.000000	97.481512 
1907.000000	97.483275 
1906.000000	97.485127 
1905.000000	97.485114 
1904.000000	97.482321 
1903.000000	97.478881 
1902.000000	97.477364 
1901.000000	97.477517 
1900.000000	97.477642 
1899.000000	97.477186 
1898.000000	97.476795 
1897.000000	97.476512 
1896.000000	97.475532 
1895.000000	97.473990 
1894.000000	97.472745 
1893.000000	97.471896 
1892.000000	97.471026 
1891.000000	97.470541 
1890.000000	97.471146 
1889.000000	97.472298 
1888.000000	97.472983 
1887.000000	97.473418 
1886.000000	97.474234 
1885.000000	97.475015 
1884.000000	97.474755 
1883.000000	97.473516 
1882.000000	97.472438 
1881.000000	97.472267 
1880.000000	97.472890 
1879.000000	97.473701 
1878.000000	97.474150 
1877.000000	97.474323 
1876.000000	97.474825 
1875.000000	97.476288 
1874.000000	97.478749 
1873.000000	97.481305 
1872.000000	97.482982 
1871.000000	97.483668 
1870.000000	97.483776 
1869.000000	97.483443 
1868.000000	97.483002 
1867.000000	97.483595 
1866.000000	97.485507 
1865.000000	97.487273 
1864.000000	97.487585 
1863.000000	97.487168 
1862.000000	97.487814 
1861.000000	97.489916 
1860.000000	97.492363 
1859.000000	97.494599 
1858.000000	97.497044 
1857.000000	97.499653 
1856.000000	97.501866 
1855.000000	97.503791 
1854.000000	97.505946 
1853.000000	97.507821 
1852.000000	97.509069 
1851.000000	97.510397 
1850.000000	97.512399 
1849.000000	97.514905 
1848.000000	97.517388 
1847.000000	97.519984 
1846.000000	97.522958 
1845.000000	97.525851 
1844.000000	97.527734 
1843.000000	97.529015 
1842.000000	97.530938 
1841.000000	97.533063 
1840.000000	97.534714 
1839.000000	97.536325 
1838.000000	97.538481 
1837.000000	97.540471 
1836.000000	97.541252 
1835.000000	97.541507 
1834.000000	97.542601 
1833.000000	97.544421 
1832.000000	97.545850 
1831.000000	97.546231 
1830.000000	97.546018 
1829.000000	97.546379 
1828.000000	97.547797 
1827.000000	97.549760 
1826.000000	97.551749 
1825.000000	97.553648 
1824.000000	97.555013 
1823.000000	97.555678 
1822.000000	97.556043 
1821.000000	97.556413 
1820.000000	97.556790 
1819.000000	97.557217 
1818.000000	97.558322 
1817.000000	97.560045 
1816.000000	97.561058 
1815.000000	97.560917 
1814.000000	97.560549 
1813.000000	97.560911 
1812.000000	97.561427 
1811.000000	97.561064 
1810.000000	97.560281 
1809.000000	97.559879 
1808.000000	97.559788 
1807.000000	97.559754 
1806.000000	97.559844 
1805.000000	97.559999 
1804.000000	97.559969 
1803.000000	97.559983 
1802.000000	97.560351 
1801.000000	97.560915 
1800.000000	97.561063 
1799.000000	97.560589 
1798.000000	97.560078 
1797.000000	97.559899 
1796.000000	97.559906 
1795.000000	97.559957 
1794.000000	97.560155 
1793.000000	97.560569 
1792.000000	97.560902 
1791.000000	97.561088 
1790.000000	97.561491 
1789.000000	97.562028 
1788.000000	97.562430 
1787.000000	97.562754 
1786.000000	97.563236 
1785.000000	97.563822 
1784.000000	97.564287 
1783.000000	97.564668 
1782.000000	97.565057 
1781.000000	97.565537 
1780.000000	97.566118 
1779.000000	97.566746 
1778.000000	97.567396 
1777.000000	97.568053 
1776.000000	97.568715 
1775.000000	97.569377 
1774.000000	97.570032 
1773.000000	97.570687 
1772.000000	97.571360 
1771.000000	97.572072 
1770.000000	97.572835 
1769.000000	97.573642 
1768.000000	97.574471 
1767.000000	97.575298 
1766.000000	97.576104 
1765.000000	97.576887 
1764.000000	97.577655 
1763.000000	97.578414 
1762.000000	97.579170 
1761.000000	97.579921 
1760.000000	97.580662 
1759.000000	97.581386 
1758.000000	97.582090 
1757.000000	97.582773 
1756.000000	97.583435 
1755.000000	97.584068 
1754.000000	97.584658 
1753.000000	97.585200 
1752.000000	97.585705 
1751.000000	97.586184 
1750.000000	97.586638 
1749.000000	97.587059 
1748.000000	97.587434 
1747.000000	97.587756 
1746.000000	97.588017 
1745.000000	97.588228 
1744.000000	97.588447 
1743.000000	97.588716 
1742.000000	97.588967 
1741.000000	97.589054 
1740.000000	97.588897 
1739.000000	97.588669 
1738.000000	97.588715 
1737.000000	97.588945 
1736.000000	97.588878 
1735.000000	97.588553 
1734.000000	97.587953 
1733.000000	97.586724 
1732.000000	97.585758 
1731.000000	97.585413 
1730.000000	97.585479 
1729.000000	97.585517 
1728.000000	97.585021 
1727.000000	97.583797 
1726.000000	97.581964 
1725.000000	97.580250 
1724.000000	97.578803 
1723.000000	97.577381 
1722.000000	97.576392 
1721.000000	97.575629 
1720.000000	97.574062 
1719.000000	97.571310 
1718.000000	97.568600 
1717.000000	97.566387 
1716.000000	97.563670 
1715.000000	97.560637 
1714.000000	97.558247 
1713.000000	97.556207 
1712.000000	97.553412 
1711.000000	97.550063 
1710.000000	97.547145 
1709.000000	97.544685 
1708.000000	97.541844 
1707.000000	97.538199 
1706.000000	97.534451 
1705.000000	97.531174 
1704.000000	97.528121 
1703.000000	97.524840 
1702.000000	97.521321 
1701.000000	97.517934 
1700.000000	97.513846 
1699.000000	97.509162 
1698.000000	97.505250 
1697.000000	97.501562 
1696.000000	97.497484 
1695.000000	97.493175 
1694.000000	97.489110 
1693.000000	97.485089 
1692.000000	97.480887 
1691.000000	97.476602 
1690.000000	97.472300 
1689.000000	97.467978 
1688.000000	97.463630 
1687.000000	97.459256 
1686.000000	97.454866 
1685.000000	97.450470 
1684.000000	97.446068 
1683.000000	97.441669 
1682.000000	97.437280 
1681.000000	97.432898 
1680.000000	97.428525 
1679.000000	97.424164 
1678.000000	97.419813 
1677.000000	97.415461 
1676.000000	97.411104 
1675.000000	97.406739 
1674.000000	97.402366 
1673.000000	97.397998 
1672.000000	97.393646 
1671.000000	97.389319 
1670.000000	97.385031 
1669.000000	97.380776 
1668.000000	97.376572 
1667.000000	97.372463 
1666.000000	97.368442 
1665.000000	97.364450 
1664.000000	97.360456 
1663.000000	97.356529 
1662.000000	97.352670 
1661.000000	97.348783 
1660.000000	97.344941 
1659.000000	97.341198 
1658.000000	97.337466 
1657.000000	97.333747 
1656.000000	97.330185 
1655.000000	97.326867 
1654.000000	97.324010 
1653.000000	97.319956 
1652.000000	97.313460 
1651.000000	97.308865 
1650.000000	97.306287 
1649.000000	97.303547 
1648.000000	97.300778 
1647.000000	97.298846 
1646.000000	97.296895 
1645.000000	97.294656 
1644.000000	97.292573 
1643.000000	97.290960 
1642.000000	97.289541 
1641.000000	97.287789 
1640.000000	97.286162 
1639.000000	97.284889 
1638.000000	97.283863 
1637.000000	97.283023 
1636.000000	97.282229 
1635.000000	97.279691 
1634.000000	97.277063 
1633.000000	97.276712 
1632.000000	97.276363 
1631.000000	97.275992 
1630.000000	97.276294 
1629.000000	97.276392 
1628.000000	97.275644 
1627.000000	97.276044 
1626.000000	97.278075 
1625.000000	97.279649 
1624.000000	97.280064 
1623.000000	97.280924 
1622.000000	97.283047 
1621.000000	97.285898 
1620.000000	97.289305 
1619.000000	97.292749 
1618.000000	97.295921 
1617.000000	97.295734 
1616.000000	97.292148 
1615.000000	97.293059 
1614.000000	97.299692 
1613.000000	97.304871 
1612.000000	97.306190 
1611.000000	97.307570 
1610.000000	97.310654 
1609.000000	97.314372 
1608.000000	97.320741 
1607.000000	97.331611 
1606.000000	97.342063 
1605.000000	97.347486 
1604.000000	97.350881 
1603.000000	97.355537 
1602.000000	97.360686 
1601.000000	97.364771 
1600.000000	97.368938 
1599.000000	97.373997 
1598.000000	97.378203 
1597.000000	97.380665 
1596.000000	97.383118 
1595.000000	97.387389 
1594.000000	97.392773 
1593.000000	97.397617 
1592.000000	97.401924 
1591.000000	97.406546 
1590.000000	97.411266 
1589.000000	97.415462 
1588.000000	97.419471 
1587.000000	97.423963 
1586.000000	97.428663 
1585.000000	97.432725 
1584.000000	97.436623 
1583.000000	97.440927 
1582.000000	97.444937 
1581.000000	97.448313 
1580.000000	97.451868 
1579.000000	97.456006 
1578.000000	97.460138 
1577.000000	97.463839 
1576.000000	97.467068 
1575.000000	97.470420 
1574.000000	97.474289 
1573.000000	97.478149 
1572.000000	97.481678 
1571.000000	97.485065 
1570.000000	97.488181 
1569.000000	97.490692 
1568.000000	97.493140 
1567.000000	97.495772 
1566.000000	97.498182 
1565.000000	97.500272 
1564.000000	97.502387 
1563.000000	97.504650 
1562.000000	97.506747 
1561.000000	97.508537 
1560.000000	97.510637 
1559.000000	97.513083 
1558.000000	97.514891 
1557.000000	97.516441 
1556.000000	97.518083 
1555.000000	97.519771 
1554.000000	97.521341 
1553.000000	97.522699 
1552.000000	97.523884 
1551.000000	97.524893 
1550.000000	97.525834 
1549.000000	97.526663 
1548.000000	97.527267 
1547.000000	97.527698 
1546.000000	97.528031 
1545.000000	97.528341 
1544.000000	97.528609 
1543.000000	97.528762 
1542.000000	97.528773 
1541.000000	97.528641 
1540.000000	97.528374 
1539.000000	97.528006 
1538.000000	97.527564 
1537.000000	97.527054 
1536.000000	97.526475 
1535.000000	97.525840 
1534.000000	97.525166 
1533.000000	97.524458 
1532.000000	97.523714 
1531.000000	97.522937 
1530.000000	97.522136 
1529.000000	97.521322 
1528.000000	97.520501 
1527.000000	97.519682 
1526.000000	97.518867 
1525.000000	97.518046 
1524.000000	97.517185 
1523.000000	97.516260 
1522.000000	97.515320 
1521.000000	97.514418 
1520.000000	97.513487 
1519.000000	97.512408 
1518.000000	97.511116 
1517.000000	97.509833 
1516.000000	97.508825 
1515.000000	97.508067 
1514.000000	97.507320 
1513.000000	97.506459 
1512.000000	97.505381 
1511.000000	97.503949 
1510.000000	97.502276 
1509.000000	97.500740 
1508.000000	97.500061 
1507.000000	97.500487 
1506.000000	97.500383 
1505.000000	97.498831 
1504.000000	97.496918 
1503.000000	97.494828 
1502.000000	97.492352 
1501.000000	97.490009 
1500.000000	97.488172 
1499.000000	97.486410 
1498.000000	97.484797 
1497.000000	97.484582 
1496.000000	97.485385 
1495.000000	97.486515 
1494.000000	97.488316 
1493.000000	97.490339 
1492.000000	97.491726 
1491.000000	97.492781 
1490.000000	97.494647 
1489.000000	97.496564 
1488.000000	97.495757 
1487.000000	97.492426 
1486.000000	97.489589 
1485.000000	97.487141 
1484.000000	97.484267 
1483.000000	97.481530 
1482.000000	97.480247 
1481.000000	97.480531 
1480.000000	97.480227 
1479.000000	97.478286 
1478.000000	97.475978 
1477.000000	97.474930 
1476.000000	97.474354 
1475.000000	97.473427 
1474.000000	97.472787 
1473.000000	97.473615 
1472.000000	97.475113 
1471.000000	97.475343 
1470.000000	97.474370 
1469.000000	97.472496 
1468.000000	97.469721 
1467.000000	97.466929 
1466.000000	97.465471 
1465.000000	97.465624 
1464.000000	97.466214 
1463.000000	97.465253 
1462.000000	97.462464 
1461.000000	97.458745 
1460.000000	97.455154 
1459.000000	97.452500 
1458.000000	97.451792 
1457.000000	97.452886 
1456.000000	97.453204 
1455.000000	97.451687 
1454.000000	97.448562 
1453.000000	97.445041 
1452.000000	97.442720 
1451.000000	97.441923 
1450.000000	97.442302 
1449.000000	97.443858 
1448.000000	97.446029 
1447.000000	97.447594 
1446.000000	97.447052 
1445.000000	97.444985 
1444.000000	97.443528 
1443.000000	97.442168 
1442.000000	97.440043 
1441.000000	97.437788 
1440.000000	97.436223 
1439.000000	97.433730 
1438.000000	97.431195 
1437.000000	97.433080 
1436.000000	97.438006 
1435.000000	97.438867 
1434.000000	97.434107 
1433.000000	97.428166 
1432.000000	97.425170 
1431.000000	97.425102 
1430.000000	97.425646 
1429.000000	97.426423 
1428.000000	97.426062 
1427.000000	97.423324 
1426.000000	97.418046 
1425.000000	97.414947 
1424.000000	97.418859 
1423.000000	97.423437 
1422.000000	97.420526 
1421.000000	97.411779 
1420.000000	97.406750 
1419.000000	97.406595 
1418.000000	97.403698 
1417.000000	97.397790 
1416.000000	97.391983 
1415.000000	97.385493 
1414.000000	97.375875 
1413.000000	97.364602 
1412.000000	97.355984 
1411.000000	97.350173 
1410.000000	97.344680 
1409.000000	97.339491 
1408.000000	97.335262 
1407.000000	97.333308 
1406.000000	97.334726 
1405.000000	97.341426 
1404.000000	97.353784 
1403.000000	97.365070 
1402.000000	97.369904 
1401.000000	97.371556 
1400.000000	97.378104 
1399.000000	97.390483 
1398.000000	97.399841 
1397.000000	97.399231 
1396.000000	97.391304 
1395.000000	97.385337 
1394.000000	97.387040 
1393.000000	97.396645 
1392.000000	97.411304 
1391.000000	97.425378 
1390.000000	97.434448 
1389.000000	97.438287 
1388.000000	97.439467 
1387.000000	97.439730 
1386.000000	97.438737 
1385.000000	97.437275 
1384.000000	97.438265 
1383.000000	97.442254 
1382.000000	97.446919 
1381.000000	97.449955 
1380.000000	97.452282 
1379.000000	97.457005 
1378.000000	97.464555 
1377.000000	97.472137 
1376.000000	97.477914 
1375.000000	97.483671 
1374.000000	97.491581 
1373.000000	97.501470 
1372.000000	97.511421 
1371.000000	97.520518 
1370.000000	97.528724 
1369.000000	97.536494 
1368.000000	97.544542 
1367.000000	97.551263 
1366.000000	97.554692 
1365.000000	97.555892 
1364.000000	97.559243 
1363.000000	97.568011 
1362.000000	97.580137 
1361.000000	97.590618 
1360.000000	97.597690 
1359.000000	97.603019 
1358.000000	97.607521 
1357.000000	97.610689 
1356.000000	97.613065 
1355.000000	97.615905 
1354.000000	97.619662 
1353.000000	97.623901 
1352.000000	97.627631 
1351.000000	97.631530 
1350.000000	97.635847 
1349.000000	97.639467 
1348.000000	97.642351 
1347.000000	97.644957 
1346.000000	97.647661 
1345.000000	97.649470 
1344.000000	97.648782 
1343.000000	97.644743 
1342.000000	97.638927 
1341.000000	97.635163 
1340.000000	97.636780 
1339.000000	97.642764 
1338.000000	97.648664 
1337.000000	97.651778 
1336.000000	97.652419 
1335.000000	97.651035 
1334.000000	97.647736 
1333.000000	97.644151 
1332.000000	97.642851 
1331.000000	97.644280 
1330.000000	97.646197 
1329.000000	97.647016 
1328.000000	97.647604 
1327.000000	97.649227 
1326.000000	97.650957 
1325.000000	97.650937 
1324.000000	97.648628 
1323.000000	97.644040 
1322.000000	97.637651 
1321.000000	97.631562 
1320.000000	97.628922 
1319.000000	97.630785 
1318.000000	97.635071 
1317.000000	97.639016 
1316.000000	97.641113 
1315.000000	97.640688 
1314.000000	97.638287 
1313.000000	97.636864 
1312.000000	97.639501 
1311.000000	97.645092 
1310.000000	97.648906 
1309.000000	97.648403 
1308.000000	97.645875 
1307.000000	97.644974 
1306.000000	97.646277 
1305.000000	97.648230 
1304.000000	97.650189 
1303.000000	97.651767 
1302.000000	97.651619 
1301.000000	97.648917 
1300.000000	97.645271 
1299.000000	97.643240 
1298.000000	97.643689 
1297.000000	97.645418 
1296.000000	97.646779 
1295.000000	97.646866 
1294.000000	97.645964 
1293.000000	97.645502 
1292.000000	97.646440 
1291.000000	97.647719 
1290.000000	97.647719 
1289.000000	97.647040 
1288.000000	97.647672 
1287.000000	97.649331 
1286.000000	97.649260 
1285.000000	97.646564 
1284.000000	97.644038 
1283.000000	97.644251 
1282.000000	97.645882 
1281.000000	97.645676 
1280.000000	97.642899 
1279.000000	97.639967 
1278.000000	97.639524 
1277.000000	97.642320 
1276.000000	97.646944 
1275.000000	97.650651 
1274.000000	97.651324 
1273.000000	97.649606 
1272.000000	97.648025 
1271.000000	97.647504 
1270.000000	97.646163 
1269.000000	97.642379 
1268.000000	97.637279 
1267.000000	97.632898 
1266.000000	97.629782 
1265.000000	97.627888 
1264.000000	97.627859 
1263.000000	97.629671 
1262.000000	97.631269 
1261.000000	97.630409 
1260.000000	97.627560 
1259.000000	97.625193 
1258.000000	97.624290 
1257.000000	97.622794 
1256.000000	97.617539 
1255.000000	97.607773 
1254.000000	97.596755 
1253.000000	97.588933 
1252.000000	97.584792 
1251.000000	97.580063 
1250.000000	97.571654 
1249.000000	97.562780 
1248.000000	97.559310 
1247.000000	97.561661 
1246.000000	97.563698 
1245.000000	97.559783 
1244.000000	97.549834 
1243.000000	97.537915 
1242.000000	97.529226 
1241.000000	97.528147 
1240.000000	97.534802 
1239.000000	97.542251 
1238.000000	97.540842 
1237.000000	97.527198 
1236.000000	97.506444 
1235.000000	97.485230 
1234.000000	97.465847 
1233.000000	97.447911 
1232.000000	97.431368 
1231.000000	97.415221 
1230.000000	97.396819 
1229.000000	97.375199 
1228.000000	97.352405 
1227.000000	97.329191 
1226.000000	97.302186 
1225.000000	97.268075 
1224.000000	97.228255 
1223.000000	97.186476 
1222.000000	97.143556 
1221.000000	97.097257 
1220.000000	97.046221 
1219.000000	96.991348 
1218.000000	96.933943 
1217.000000	96.874449 
1216.000000	96.812275 
1215.000000	96.745682 
1214.000000	96.673348 
1213.000000	96.597524 
1212.000000	96.523417 
1211.000000	96.453103 
1210.000000	96.382008 
1209.000000	96.304254 
1208.000000	96.220002 
1207.000000	96.134752 
1206.000000	96.052490 
1205.000000	95.972160 
1204.000000	95.890163 
1203.000000	95.803899 
1202.000000	95.713722 
1201.000000	95.623406 
1200.000000	95.537671 
1199.000000	95.457356 
1198.000000	95.378275 
1197.000000	95.296608 
1196.000000	95.213395 
1195.000000	95.131595 
1194.000000	95.050899 
1193.000000	94.968244 
1192.000000	94.881672 
1191.000000	94.790895 
1190.000000	94.695851 
1189.000000	94.597508 
1188.000000	94.498330 
1187.000000	94.399218 
1186.000000	94.297880 
1185.000000	94.192772 
1184.000000	94.086026 
1183.000000	93.979415 
1182.000000	93.870498 
1181.000000	93.756625 
1180.000000	93.639657 
1179.000000	93.521929 
1178.000000	93.400451 
1177.000000	93.270797 
1176.000000	93.134486 
1175.000000	92.996687 
1174.000000	92.858475 
1173.000000	92.717664 
1172.000000	92.575728 
1171.000000	92.436866 
1170.000000	92.301021 
1169.000000	92.164985 
1168.000000	92.030472 
1167.000000	91.904761 
1166.000000	91.794257 
1165.000000	91.704752 
1164.000000	91.646931 
1163.000000	91.631976 
1162.000000	91.659019 
1161.000000	91.712523 
1160.000000	91.772414 
1159.000000	91.821167 
1158.000000	91.843143 
1157.000000	91.827190 
1156.000000	91.772956 
1155.000000	91.689489 
1154.000000	91.586522 
1153.000000	91.471134 
1152.000000	91.351376 
1151.000000	91.235101 
1150.000000	91.123546 
1149.000000	91.012664 
1148.000000	90.901907 
1147.000000	90.795030 
1146.000000	90.691662 
1145.000000	90.585927 
1144.000000	90.475368 
1143.000000	90.364144 
1142.000000	90.255456 
1141.000000	90.147569 
1140.000000	90.039229 
1139.000000	89.932215 
1138.000000	89.826562 
1137.000000	89.719625 
1136.000000	89.611450 
1135.000000	89.504706 
1134.000000	89.398140 
1133.000000	89.286970 
1132.000000	89.170989 
1131.000000	89.055276 
1130.000000	88.941695 
1129.000000	88.826893 
1128.000000	88.709886 
1127.000000	88.593934 
1126.000000	88.479247 
1125.000000	88.361433 
1124.000000	88.239092 
1123.000000	88.115840 
1122.000000	87.993346 
1121.000000	87.869798 
1120.000000	87.746485 
1119.000000	87.627741 
1118.000000	87.512922 
1117.000000	87.396805 
1116.000000	87.279215 
1115.000000	87.165821 
1114.000000	87.058353 
1113.000000	86.952939 
1112.000000	86.848830 
1111.000000	86.748747 
1110.000000	86.650215 
1109.000000	86.547192 
1108.000000	86.440295 
1107.000000	86.335522 
1106.000000	86.233208 
1105.000000	86.128638 
1104.000000	86.023224 
1103.000000	85.923193 
1102.000000	85.827259 
1101.000000	85.727835 
1100.000000	85.625185 
1099.000000	85.528182 
1098.000000	85.440143 
1097.000000	85.355698 
1096.000000	85.271893 
1095.000000	85.189935 
1094.000000	85.105680 
1093.000000	85.012231 
1092.000000	84.913737 
1091.000000	84.823733 
1090.000000	84.747791 
1089.000000	84.679582 
1088.000000	84.614270 
1087.000000	84.552572 
1086.000000	84.491468 
1085.000000	84.425533 
1084.000000	84.358932 
1083.000000	84.301997 
1082.000000	84.254325 
1081.000000	84.205133 
1080.000000	84.151542 
1079.000000	84.101862 
1078.000000	84.059080 
1077.000000	84.015646 
1076.000000	83.966538 
1075.000000	83.912879 
1074.000000	83.850976 
1073.000000	83.772369 
1072.000000	83.675800 
1071.000000	83.563820 
1070.000000	83.426675 
1069.000000	83.247474 
1068.000000	83.027988 
1067.000000	82.794659 
1066.000000	82.573503 
1065.000000	82.370984 
1064.000000	82.182283 
1063.000000	82.000792 
1062.000000	81.813457 
1061.000000	81.604308 
1060.000000	81.372616 
1059.000000	81.136705 
1058.000000	80.913579 
1057.000000	80.704906 
1056.000000	80.505842 
1055.000000	80.313457 
1054.000000	80.121866 
1053.000000	79.923120 
1052.000000	79.719075 
1051.000000	79.520191 
1050.000000	79.328085 
1049.000000	79.132973 
1048.000000	78.930828 
1047.000000	78.727179 
1046.000000	78.523150 
1045.000000	78.314447 
1044.000000	78.104237 
1043.000000	77.900723 
1042.000000	77.701723 
1041.000000	77.497853 
1040.000000	77.291675 
1039.000000	77.097364 
1038.000000	76.920941 
1037.000000	76.757556 
1036.000000	76.607832 
1035.000000	76.478451 
1034.000000	76.366214 
1033.000000	76.259977 
1032.000000	76.158430 
1031.000000	76.067647 
1030.000000	75.983209 
1029.000000	75.896271 
1028.000000	75.816208 
1027.000000	75.763577 
1026.000000	75.738960 
1025.000000	75.720679 
1024.000000	75.695009 
1023.000000	75.666449 
1022.000000	75.636694 
1021.000000	75.597955 
1020.000000	75.551042 
1019.000000	75.507546 
1018.000000	75.469565 
1017.000000	75.427857 
1016.000000	75.383015 
1015.000000	75.347199 
1014.000000	75.321839 
1013.000000	75.295142 
1012.000000	75.264821 
1011.000000	75.241863 
1010.000000	75.228686 
1009.000000	75.215543 
1008.000000	75.202296 
1007.000000	75.202216 
1006.000000	75.220098 
1005.000000	75.247376 
1004.000000	75.281990 
1003.000000	75.331577 
1002.000000	75.393285 
1001.000000	75.452452 
1000.000000	75.506418 
999.000000	 75.569057 
998.000000	 75.646869 
997.000000	 75.730607 
996.000000	 75.814797 
995.000000	 75.905825 
994.000000	 76.006121 
993.000000	 76.109327 
992.000000	 76.214911 
991.000000	 76.329002 
990.000000	 76.448050 
989.000000	 76.560965 
988.000000	 76.670245 
987.000000	 76.791434 
986.000000	 76.929218 
985.000000	 77.074067 
984.000000	 77.224487 
983.000000	 77.391083 
982.000000	 77.574739 
981.000000	 77.761917 
980.000000	 77.946753 
979.000000	 78.138330 
978.000000	 78.340903 
977.000000	 78.546382 
976.000000	 78.751821 
975.000000	 78.965824 
974.000000	 79.191723 
973.000000	 79.421470 
972.000000	 79.651386 
971.000000	 79.887749 
970.000000	 80.132044 
969.000000	 80.376200 
968.000000	 80.616467 
967.000000	 80.857283 
966.000000	 81.098605 
965.000000	 81.334660 
964.000000	 81.567592 
963.000000	 81.806589 
962.000000	 82.050671 
961.000000	 82.287779 
960.000000	 82.513622 
959.000000	 82.736019 
958.000000	 82.957996 
957.000000	 83.172136 
956.000000	 83.375274 
955.000000	 83.574004 
954.000000	 83.771779 
953.000000	 83.963838 
952.000000	 84.148063 
951.000000	 84.327926 
950.000000	 84.502558 
949.000000	 84.666979 
948.000000	 84.823701 
947.000000	 84.980513 
946.000000	 85.135136 
945.000000	 85.276170 
944.000000	 85.401328 
943.000000	 85.521137 
942.000000	 85.642448 
941.000000	 85.761875 
940.000000	 85.878083 
939.000000	 85.996242 
938.000000	 86.116870 
937.000000	 86.233710 
936.000000	 86.346405 
935.000000	 86.462587 
934.000000	 86.584027 
933.000000	 86.703174 
932.000000	 86.816770 
931.000000	 86.930616 
930.000000	 87.047356 
929.000000	 87.161197 
928.000000	 87.268607 
927.000000	 87.373510 
926.000000	 87.478372 
925.000000	 87.579610 
924.000000	 87.674268 
923.000000	 87.762197 
922.000000	 87.840841 
921.000000	 87.907946 
920.000000	 87.969998 
919.000000	 88.037360 
918.000000	 88.109954 
917.000000	 88.178232 
916.000000	 88.239247 
915.000000	 88.301423 
914.000000	 88.372662 
913.000000	 88.454298 
912.000000	 88.547429 
911.000000	 88.654666 
910.000000	 88.774875 
909.000000	 88.906062 
908.000000	 89.052805 
907.000000	 89.220505 
906.000000	 89.403726 
905.000000	 89.590981 
904.000000	 89.779075 
903.000000	 89.971412 
902.000000	 90.165491 
901.000000	 90.355385 
900.000000	 90.544220 
899.000000	 90.740508 
898.000000	 90.942867 
897.000000	 91.140518 
896.000000	 91.327166 
895.000000	 91.502606 
894.000000	 91.664245 
893.000000	 91.810801 
892.000000	 91.952213 
891.000000	 92.101876 
890.000000	 92.259382 
889.000000	 92.413164 
888.000000	 92.558204 
887.000000	 92.698322 
886.000000	 92.833947 
885.000000	 92.961850 
884.000000	 93.084699 
883.000000	 93.206239 
882.000000	 93.319976 
881.000000	 93.419616 
880.000000	 93.518747 
879.000000	 93.640642 
878.000000	 93.786657 
877.000000	 93.933803 
876.000000	 94.066098 
875.000000	 94.189031 
874.000000	 94.310568 
873.000000	 94.428592 
872.000000	 94.543367 
871.000000	 94.663678 
870.000000	 94.792209 
869.000000	 94.919463 
868.000000	 95.039020 
867.000000	 95.155908 
866.000000	 95.274588 
865.000000	 95.391319 
864.000000	 95.504335 
863.000000	 95.619981 
862.000000	 95.742067 
861.000000	 95.864590 
860.000000	 95.980811 
859.000000	 96.091386 
858.000000	 96.199155 
857.000000	 96.303783 
856.000000	 96.405299 
855.000000	 96.505163 
854.000000	 96.600305 
853.000000	 96.683439 
852.000000	 96.752564 
851.000000	 96.814201 
850.000000	 96.875845 
849.000000	 96.941241 
848.000000	 97.012364 
847.000000	 97.087491 
846.000000	 97.157495 
845.000000	 97.213224 
844.000000	 97.256859 
843.000000	 97.297424 
842.000000	 97.335785 
841.000000	 97.363943 
840.000000	 97.378509 
839.000000	 97.383803 
838.000000	 97.381499 
837.000000	 97.369376 
836.000000	 97.352629 
835.000000	 97.344551 
834.000000	 97.350996 
833.000000	 97.363396 
832.000000	 97.371582 
831.000000	 97.375359 
830.000000	 97.380272 
829.000000	 97.391005 
828.000000	 97.413143 
827.000000	 97.452219 
826.000000	 97.505009 
825.000000	 97.558974 
824.000000	 97.604573 
823.000000	 97.641133 
822.000000	 97.669514 
821.000000	 97.688399 
820.000000	 97.698742 
819.000000	 97.701983 
818.000000	 97.692241 
817.000000	 97.658220 
816.000000	 97.593910 
815.000000	 97.501131 
814.000000	 97.381534 
813.000000	 97.232076 
812.000000	 97.047006 
811.000000	 96.816085 
810.000000	 96.521374 
809.000000	 96.145721 
808.000000	 95.687673 
807.000000	 95.162748 
806.000000	 94.590720 
805.000000	 93.990119 
804.000000	 93.385006 
803.000000	 92.804644 
802.000000	 92.272317 
801.000000	 91.804557 
800.000000	 91.422008 
799.000000	 91.145769 
798.000000	 90.979056 
797.000000	 90.906076 
796.000000	 90.910374 
795.000000	 90.978871 
794.000000	 91.088497 
793.000000	 91.208836 
792.000000	 91.321906 
791.000000	 91.423806 
790.000000	 91.506189 
789.000000	 91.552810 
788.000000	 91.555189 
787.000000	 91.514723 
786.000000	 91.427655 
785.000000	 91.284585 
784.000000	 91.087966 
783.000000	 90.856137 
782.000000	 90.609737 
781.000000	 90.370132 
780.000000	 90.169897 
779.000000	 90.042797 
778.000000	 89.998059 
777.000000	 90.021993 
776.000000	 90.106606 
775.000000	 90.255453 
774.000000	 90.458401 
773.000000	 90.684341 
772.000000	 90.906928 
771.000000	 91.119510 
770.000000	 91.320380 
769.000000	 91.503037 
768.000000	 91.666283 
767.000000	 91.814924 
766.000000	 91.944890 
765.000000	 92.046264 
764.000000	 92.126719 
763.000000	 92.212864 
762.000000	 92.320585 
761.000000	 92.440772 
760.000000	 92.560545 
759.000000	 92.680287 
758.000000	 92.802278 
757.000000	 92.921286 
756.000000	 93.036942 
755.000000	 93.159613 
754.000000	 93.292716 
753.000000	 93.421485 
752.000000	 93.528526 
751.000000	 93.611039 
750.000000	 93.678387 
749.000000	 93.743774 
748.000000	 93.821421 
747.000000	 93.918308 
746.000000	 94.023617 
745.000000	 94.119299 
744.000000	 94.204978 
743.000000	 94.298778 
742.000000	 94.410914 
741.000000	 94.532615 
740.000000	 94.654635 
739.000000	 94.779030 
738.000000	 94.906491 
737.000000	 95.027690 
736.000000	 95.134699 
735.000000	 95.228324 
734.000000	 95.310016 
733.000000	 95.379712 
732.000000	 95.443637 
731.000000	 95.509028 
730.000000	 95.569137 
729.000000	 95.610652 
728.000000	 95.635150 
727.000000	 95.658304 
726.000000	 95.690796 
725.000000	 95.733336 
724.000000	 95.789408 
723.000000	 95.865754 
722.000000	 95.957115 
721.000000	 96.046376 
720.000000	 96.124544 
719.000000	 96.197949 
718.000000	 96.272209 
717.000000	 96.344173 
716.000000	 96.414014 
715.000000	 96.486995 
714.000000	 96.558460 
713.000000	 96.615404 
712.000000	 96.657296 
711.000000	 96.698067 
710.000000	 96.742131 
709.000000	 96.782021 
708.000000	 96.813190 
707.000000	 96.837587 
706.000000	 96.852238 
705.000000	 96.845749 
704.000000	 96.811380 
703.000000	 96.752809 
702.000000	 96.666207 
701.000000	 96.530581 
700.000000	 96.328628 
699.000000	 96.064306 
698.000000	 95.761584 
697.000000	 95.458725 
696.000000	 95.204912 
695.000000	 95.049087 
694.000000	 95.012302 
693.000000	 95.078034 
692.000000	 95.214182 
691.000000	 95.389305 
690.000000	 95.574565 
689.000000	 95.746986 
688.000000	 95.898537 
687.000000	 96.034368 
686.000000	 96.152811 
685.000000	 96.244617 
684.000000	 96.315917 
683.000000	 96.387168 
682.000000	 96.467768 
681.000000	 96.548976 
680.000000	 96.625653 
679.000000	 96.702547 
678.000000	 96.778989 
677.000000	 96.851463 
676.000000	 96.921866 
675.000000	 96.994538 
674.000000	 97.062734 
673.000000	 97.101892 
672.000000	 97.093215 
671.000000	 97.025460 
670.000000	 96.896941 
669.000000	 96.723867 
668.000000	 96.649191 
667.000000	 96.817635 
666.000000	 97.088772 
665.000000	 97.279812 
664.000000	 97.387371 
663.000000	 97.450355 
662.000000	 97.498351 
661.000000	 97.543728 
660.000000	 97.587999 
659.000000	 97.630668 
658.000000	 97.667628 
657.000000	 97.694914 
656.000000	 97.705460 
655.000000	 97.694354 
654.000000	 97.665949 
653.000000	 97.630727 
652.000000	 97.601559 
651.000000	 97.594759 
650.000000	 97.619540 

