4000.000000	98.554136 
3999.000000	98.553788 
3998.000000	98.552999 
3997.000000	98.552074 
3996.000000	98.551402 
3995.000000	98.551243 
3994.000000	98.551650 
3993.000000	98.552365 
3992.000000	98.552987 
3991.000000	98.553272 
3990.000000	98.553296 
3989.000000	98.553279 
3988.000000	98.553271 
3987.000000	98.553127 
3986.000000	98.552837 
3985.000000	98.552644 
3984.000000	98.552735 
3983.000000	98.553008 
3982.000000	98.553308 
3981.000000	98.553652 
3980.000000	98.554040 
3979.000000	98.554236 
3978.000000	98.554040 
3977.000000	98.553667 
3976.000000	98.553532 
3975.000000	98.553635 
3974.000000	98.553529 
3973.000000	98.552945 
3972.000000	98.552047 
3971.000000	98.551168 
3970.000000	98.550508 
3969.000000	98.550148 
3968.000000	98.550110 
3967.000000	98.550345 
3966.000000	98.550706 
3965.000000	98.550963 
3964.000000	98.550892 
3963.000000	98.550409 
3962.000000	98.549680 
3961.000000	98.549075 
3960.000000	98.548802 
3959.000000	98.548764 
3958.000000	98.548763 
3957.000000	98.548746 
3956.000000	98.548711 
3955.000000	98.548581 
3954.000000	98.548279 
3953.000000	98.547840 
3952.000000	98.547380 
3951.000000	98.546977 
3950.000000	98.546635 
3949.000000	98.546341 
3948.000000	98.546112 
3947.000000	98.545978 
3946.000000	98.545918 
3945.000000	98.545836 
3944.000000	98.545665 
3943.000000	98.545447 
3942.000000	98.545264 
3941.000000	98.545131 
3940.000000	98.545004 
3939.000000	98.544853 
3938.000000	98.544688 
3937.000000	98.544530 
3936.000000	98.544383 
3935.000000	98.544243 
3934.000000	98.544112 
3933.000000	98.543989 
3932.000000	98.543880 
3931.000000	98.543793 
3930.000000	98.543735 
3929.000000	98.543701 
3928.000000	98.543677 
3927.000000	98.543646 
3926.000000	98.543598 
3925.000000	98.543538 
3924.000000	98.543471 
3923.000000	98.543397 
3922.000000	98.543308 
3921.000000	98.543206 
3920.000000	98.543105 
3919.000000	98.543017 
3918.000000	98.542938 
3917.000000	98.542849 
3916.000000	98.542740 
3915.000000	98.542616 
3914.000000	98.542493 
3913.000000	98.542376 
3912.000000	98.542257 
3911.000000	98.542127 
3910.000000	98.541992 
3909.000000	98.541863 
3908.000000	98.541740 
3907.000000	98.541608 
3906.000000	98.541456 
3905.000000	98.541289 
3904.000000	98.541125 
3903.000000	98.540980 
3902.000000	98.540858 
3901.000000	98.540752 
3900.000000	98.540652 
3899.000000	98.540554 
3898.000000	98.540466 
3897.000000	98.540385 
3896.000000	98.540301 
3895.000000	98.540210 
3894.000000	98.540122 
3893.000000	98.540047 
3892.000000	98.539979 
3891.000000	98.539909 
3890.000000	98.539838 
3889.000000	98.539767 
3888.000000	98.539695 
3887.000000	98.539607 
3886.000000	98.539504 
3885.000000	98.539405 
3884.000000	98.539320 
3883.000000	98.539239 
3882.000000	98.539146 
3881.000000	98.539043 
3880.000000	98.538957 
3879.000000	98.538911 
3878.000000	98.538899 
3877.000000	98.538895 
3876.000000	98.538882 
3875.000000	98.538864 
3874.000000	98.538860 
3873.000000	98.538883 
3872.000000	98.538918 
3871.000000	98.538939 
3870.000000	98.538947 
3869.000000	98.538975 
3868.000000	98.539039 
3867.000000	98.539120 
3866.000000	98.539192 
3865.000000	98.539262 
3864.000000	98.539351 
3863.000000	98.539455 
3862.000000	98.539549 
3861.000000	98.539625 
3860.000000	98.539695 
3859.000000	98.539771 
3858.000000	98.539849 
3857.000000	98.539924 
3856.000000	98.539996 
3855.000000	98.540060 
3854.000000	98.540118 
3853.000000	98.540182 
3852.000000	98.540251 
3851.000000	98.540314 
3850.000000	98.540361 
3849.000000	98.540391 
3848.000000	98.540412 
3847.000000	98.540430 
3846.000000	98.540447 
3845.000000	98.540463 
3844.000000	98.540475 
3843.000000	98.540483 
3842.000000	98.540496 
3841.000000	98.540530 
3840.000000	98.540591 
3839.000000	98.540673 
3838.000000	98.540757 
3837.000000	98.540831 
3836.000000	98.540891 
3835.000000	98.540946 
3834.000000	98.541005 
3833.000000	98.541071 
3832.000000	98.541147 
3831.000000	98.541231 
3830.000000	98.541326 
3829.000000	98.541436 
3828.000000	98.541560 
3827.000000	98.541686 
3826.000000	98.541801 
3825.000000	98.541908 
3824.000000	98.542016 
3823.000000	98.542119 
3822.000000	98.542205 
3821.000000	98.542286 
3820.000000	98.542396 
3819.000000	98.542547 
3818.000000	98.542712 
3817.000000	98.542858 
3816.000000	98.542983 
3815.000000	98.543116 
3814.000000	98.543264 
3813.000000	98.543405 
3812.000000	98.543526 
3811.000000	98.543638 
3810.000000	98.543765 
3809.000000	98.543912 
3808.000000	98.544063 
3807.000000	98.544207 
3806.000000	98.544360 
3805.000000	98.544539 
3804.000000	98.544743 
3803.000000	98.544954 
3802.000000	98.545166 
3801.000000	98.545398 
3800.000000	98.545658 
3799.000000	98.545914 
3798.000000	98.546135 
3797.000000	98.546316 
3796.000000	98.546481 
3795.000000	98.546638 
3794.000000	98.546773 
3793.000000	98.546873 
3792.000000	98.546942 
3791.000000	98.546985 
3790.000000	98.547000 
3789.000000	98.546988 
3788.000000	98.546953 
3787.000000	98.546899 
3786.000000	98.546829 
3785.000000	98.546756 
3784.000000	98.546698 
3783.000000	98.546652 
3782.000000	98.546599 
3781.000000	98.546525 
3780.000000	98.546439 
3779.000000	98.546354 
3778.000000	98.546260 
3777.000000	98.546129 
3776.000000	98.545953 
3775.000000	98.545750 
3774.000000	98.545541 
3773.000000	98.545331 
3772.000000	98.545112 
3771.000000	98.544890 
3770.000000	98.544687 
3769.000000	98.544514 
3768.000000	98.544357 
3767.000000	98.544194 
3766.000000	98.544024 
3765.000000	98.543864 
3764.000000	98.543726 
3763.000000	98.543598 
3762.000000	98.543452 
3761.000000	98.543275 
3760.000000	98.543072 
3759.000000	98.542846 
3758.000000	98.542586 
3757.000000	98.542293 
3756.000000	98.541992 
3755.000000	98.541707 
3754.000000	98.541450 
3753.000000	98.541228 
3752.000000	98.541062 
3751.000000	98.540963 
3750.000000	98.540911 
3749.000000	98.540873 
3748.000000	98.540839 
3747.000000	98.540801 
3746.000000	98.540731 
3745.000000	98.540598 
3744.000000	98.540390 
3743.000000	98.540281 
3742.000000	98.540258 
3741.000000	98.539741 
3740.000000	98.538319 
3739.000000	98.536921 
3738.000000	98.536669 
3737.000000	98.536661 
3736.000000	98.535163 
3735.000000	98.533030 
3734.000000	98.532340 
3733.000000	98.532250 
3732.000000	98.530970 
3731.000000	98.529561 
3730.000000	98.530274 
3729.000000	98.532548 
3728.000000	98.532849 
3727.000000	98.529698 
3726.000000	98.526803 
3725.000000	98.527008 
3724.000000	98.527390 
3723.000000	98.524344 
3722.000000	98.518969 
3721.000000	98.514176 
3720.000000	98.510158 
3719.000000	98.505590 
3718.000000	98.499741 
3717.000000	98.494649 
3716.000000	98.492888 
3715.000000	98.493133 
3714.000000	98.491976 
3713.000000	98.490003 
3712.000000	98.492044 
3711.000000	98.497966 
3710.000000	98.500020 
3709.000000	98.492929 
3708.000000	98.477934 
3707.000000	98.459951 
3706.000000	98.443929 
3705.000000	98.431883 
3704.000000	98.422420 
3703.000000	98.413185 
3702.000000	98.403320 
3701.000000	98.393459 
3700.000000	98.384617 
3699.000000	98.376874 
3698.000000	98.368310 
3697.000000	98.358101 
3696.000000	98.349612 
3695.000000	98.345170 
3694.000000	98.341611 
3693.000000	98.334831 
3692.000000	98.325139 
3691.000000	98.315405 
3690.000000	98.306316 
3689.000000	98.297865 
3688.000000	98.291770 
3687.000000	98.289229 
3686.000000	98.288007 
3685.000000	98.284236 
3684.000000	98.277589 
3683.000000	98.272221 
3682.000000	98.270298 
3681.000000	98.267768 
3680.000000	98.260979 
3679.000000	98.252628 
3678.000000	98.246676 
3677.000000	98.239811 
3676.000000	98.228825 
3675.000000	98.219640 
3674.000000	98.217008 
3673.000000	98.217968 
3672.000000	98.215880 
3671.000000	98.208107 
3670.000000	98.200893 
3669.000000	98.199684 
3668.000000	98.200662 
3667.000000	98.198397 
3666.000000	98.192951 
3665.000000	98.187433 
3664.000000	98.183934 
3663.000000	98.182000 
3662.000000	98.179621 
3661.000000	98.175903 
3660.000000	98.172407 
3659.000000	98.170771 
3658.000000	98.170338 
3657.000000	98.168492 
3656.000000	98.165344 
3655.000000	98.163908 
3654.000000	98.165641 
3653.000000	98.168322 
3652.000000	98.167917 
3651.000000	98.164451 
3650.000000	98.163895 
3649.000000	98.168420 
3648.000000	98.172509 
3647.000000	98.173385 
3646.000000	98.174207 
3645.000000	98.177414 
3644.000000	98.181669 
3643.000000	98.184965 
3642.000000	98.187430 
3641.000000	98.190599 
3640.000000	98.193914 
3639.000000	98.195076 
3638.000000	98.194510 
3637.000000	98.195314 
3636.000000	98.198036 
3635.000000	98.198429 
3634.000000	98.194532 
3633.000000	98.191118 
3632.000000	98.193314 
3631.000000	98.197428 
3630.000000	98.195015 
3629.000000	98.189156 
3628.000000	98.189240 
3627.000000	98.193149 
3626.000000	98.193176 
3625.000000	98.187813 
3624.000000	98.181970 
3623.000000	98.180743 
3622.000000	98.182584 
3621.000000	98.181022 
3620.000000	98.174644 
3619.000000	98.170070 
3618.000000	98.172235 
3617.000000	98.180160 
3616.000000	98.190734 
3615.000000	98.200484 
3614.000000	98.208110 
3613.000000	98.215841 
3612.000000	98.225613 
3611.000000	98.235143 
3610.000000	98.240320 
3609.000000	98.240433 
3608.000000	98.239038 
3607.000000	98.238815 
3606.000000	98.238567 
3605.000000	98.237470 
3604.000000	98.237607 
3603.000000	98.241370 
3602.000000	98.247816 
3601.000000	98.252953 
3600.000000	98.254888 
3599.000000	98.254642 
3598.000000	98.254047 
3597.000000	98.254737 
3596.000000	98.257696 
3595.000000	98.261232 
3594.000000	98.262917 
3593.000000	98.262058 
3592.000000	98.260346 
3591.000000	98.259655 
3590.000000	98.259074 
3589.000000	98.256302 
3588.000000	98.252467 
3587.000000	98.251563 
3586.000000	98.254348 
3585.000000	98.258223 
3584.000000	98.261477 
3583.000000	98.264535 
3582.000000	98.268211 
3581.000000	98.271798 
3580.000000	98.273795 
3579.000000	98.273428 
3578.000000	98.271359 
3577.000000	98.269039 
3576.000000	98.267582 
3575.000000	98.266961 
3574.000000	98.266404 
3573.000000	98.265520 
3572.000000	98.264544 
3571.000000	98.264003 
3570.000000	98.263454 
3569.000000	98.261518 
3568.000000	98.258467 
3567.000000	98.256878 
3566.000000	98.257769 
3565.000000	98.259347 
3564.000000	98.259792 
3563.000000	98.258952 
3562.000000	98.257728 
3561.000000	98.256867 
3560.000000	98.256364 
3559.000000	98.255918 
3558.000000	98.255439 
3557.000000	98.255175 
3556.000000	98.255381 
3555.000000	98.255934 
3554.000000	98.256257 
3553.000000	98.255932 
3552.000000	98.255165 
3551.000000	98.254419 
3550.000000	98.253857 
3549.000000	98.253312 
3548.000000	98.252670 
3547.000000	98.251985 
3546.000000	98.251238 
3545.000000	98.250345 
3544.000000	98.249417 
3543.000000	98.248694 
3542.000000	98.248226 
3541.000000	98.247882 
3540.000000	98.247527 
3539.000000	98.247100 
3538.000000	98.246591 
3537.000000	98.246035 
3536.000000	98.245481 
3535.000000	98.244947 
3534.000000	98.244428 
3533.000000	98.243918 
3532.000000	98.243427 
3531.000000	98.242964 
3530.000000	98.242522 
3529.000000	98.242077 
3528.000000	98.241612 
3527.000000	98.241130 
3526.000000	98.240651 
3525.000000	98.240195 
3524.000000	98.239769 
3523.000000	98.239376 
3522.000000	98.239002 
3521.000000	98.238624 
3520.000000	98.238229 
3519.000000	98.237815 
3518.000000	98.237387 
3517.000000	98.236947 
3516.000000	98.236497 
3515.000000	98.236039 
3514.000000	98.235580 
3513.000000	98.235126 
3512.000000	98.234681 
3511.000000	98.234239 
3510.000000	98.233796 
3509.000000	98.233351 
3508.000000	98.232908 
3507.000000	98.232472 
3506.000000	98.232041 
3505.000000	98.231612 
3504.000000	98.231182 
3503.000000	98.230751 
3502.000000	98.230320 
3501.000000	98.229889 
3500.000000	98.229460 
3499.000000	98.229036 
3498.000000	98.228615 
3497.000000	98.228194 
3496.000000	98.227765 
3495.000000	98.227316 
3494.000000	98.226839 
3493.000000	98.226353 
3492.000000	98.225894 
3491.000000	98.225476 
3490.000000	98.225064 
3489.000000	98.224610 
3488.000000	98.224110 
3487.000000	98.223585 
3486.000000	98.223027 
3485.000000	98.222432 
3484.000000	98.221861 
3483.000000	98.221378 
3482.000000	98.220936 
3481.000000	98.220417 
3480.000000	98.219812 
3479.000000	98.219250 
3478.000000	98.218799 
3477.000000	98.218317 
3476.000000	98.217587 
3475.000000	98.216580 
3474.000000	98.215520 
3473.000000	98.214701 
3472.000000	98.214220 
3471.000000	98.213867 
3470.000000	98.213359 
3469.000000	98.212675 
3468.000000	98.212099 
3467.000000	98.211948 
3466.000000	98.212267 
3465.000000	98.212761 
3464.000000	98.212938 
3463.000000	98.212407 
3462.000000	98.211129 
3461.000000	98.209464 
3460.000000	98.207905 
3459.000000	98.206620 
3458.000000	98.205353 
3457.000000	98.203768 
3456.000000	98.201908 
3455.000000	98.200286 
3454.000000	98.199458 
3453.000000	98.199534 
3452.000000	98.200221 
3451.000000	98.201096 
3450.000000	98.201762 
3449.000000	98.201854 
3448.000000	98.201168 
3447.000000	98.199840 
3446.000000	98.198189 
3445.000000	98.196508 
3444.000000	98.195076 
3443.000000	98.194179 
3442.000000	98.193887 
3441.000000	98.193853 
3440.000000	98.193540 
3439.000000	98.192720 
3438.000000	98.191602 
3437.000000	98.190518 
3436.000000	98.189664 
3435.000000	98.189168 
3434.000000	98.189108 
3433.000000	98.189336 
3432.000000	98.189501 
3431.000000	98.189358 
3430.000000	98.188954 
3429.000000	98.188473 
3428.000000	98.187990 
3427.000000	98.187471 
3426.000000	98.186955 
3425.000000	98.186585 
3424.000000	98.186420 
3423.000000	98.186327 
3422.000000	98.186129 
3421.000000	98.185804 
3420.000000	98.185445 
3419.000000	98.185132 
3418.000000	98.184873 
3417.000000	98.184645 
3416.000000	98.184439 
3415.000000	98.184241 
3414.000000	98.184034 
3413.000000	98.183814 
3412.000000	98.183589 
3411.000000	98.183360 
3410.000000	98.183135 
3409.000000	98.182922 
3408.000000	98.182727 
3407.000000	98.182547 
3406.000000	98.182380 
3405.000000	98.182225 
3404.000000	98.182083 
3403.000000	98.181956 
3402.000000	98.181840 
3401.000000	98.181732 
3400.000000	98.181632 
3399.000000	98.181543 
3398.000000	98.181470 
3397.000000	98.181417 
3396.000000	98.181388 
3395.000000	98.181381 
3394.000000	98.181395 
3393.000000	98.181427 
3392.000000	98.181475 
3391.000000	98.181542 
3390.000000	98.181634 
3389.000000	98.181759 
3388.000000	98.181923 
3387.000000	98.182127 
3386.000000	98.182366 
3385.000000	98.182632 
3384.000000	98.182915 
3383.000000	98.183190 
3382.000000	98.183446 
3381.000000	98.183722 
3380.000000	98.184073 
3379.000000	98.184507 
3378.000000	98.184957 
3377.000000	98.185402 
3376.000000	98.185919 
3375.000000	98.186560 
3374.000000	98.187200 
3373.000000	98.187632 
3372.000000	98.187794 
3371.000000	98.187899 
3370.000000	98.188250 
3369.000000	98.188963 
3368.000000	98.189914 
3367.000000	98.190880 
3366.000000	98.191692 
3365.000000	98.192305 
3364.000000	98.192782 
3363.000000	98.193180 
3362.000000	98.193472 
3361.000000	98.193667 
3360.000000	98.193986 
3359.000000	98.194746 
3358.000000	98.196020 
3357.000000	98.197543 
3356.000000	98.198991 
3355.000000	98.200249 
3354.000000	98.201368 
3353.000000	98.202434 
3352.000000	98.203575 
3351.000000	98.204961 
3350.000000	98.206629 
3349.000000	98.208319 
3348.000000	98.209663 
3347.000000	98.210597 
3346.000000	98.211436 
3345.000000	98.212459 
3344.000000	98.213467 
3343.000000	98.213876 
3342.000000	98.213420 
3341.000000	98.212697 
3340.000000	98.212628 
3339.000000	98.213386 
3338.000000	98.214358 
3337.000000	98.214968 
3336.000000	98.215225 
3335.000000	98.215446 
3334.000000	98.215787 
3333.000000	98.216192 
3332.000000	98.216610 
3331.000000	98.217083 
3330.000000	98.217640 
3329.000000	98.218244 
3328.000000	98.218859 
3327.000000	98.219491 
3326.000000	98.220144 
3325.000000	98.220776 
3324.000000	98.221331 
3323.000000	98.221799 
3322.000000	98.222234 
3321.000000	98.222705 
3320.000000	98.223227 
3319.000000	98.223761 
3318.000000	98.224275 
3317.000000	98.224761 
3316.000000	98.225224 
3315.000000	98.225670 
3314.000000	98.226098 
3313.000000	98.226511 
3312.000000	98.226912 
3311.000000	98.227310 
3310.000000	98.227708 
3309.000000	98.228107 
3308.000000	98.228503 
3307.000000	98.228890 
3306.000000	98.229272 
3305.000000	98.229657 
3304.000000	98.230061 
3303.000000	98.230495 
3302.000000	98.230962 
3301.000000	98.231456 
3300.000000	98.231964 
3299.000000	98.232472 
3298.000000	98.232977 
3297.000000	98.233481 
3296.000000	98.233998 
3295.000000	98.234537 
3294.000000	98.235099 
3293.000000	98.235678 
3292.000000	98.236264 
3291.000000	98.236852 
3290.000000	98.237437 
3289.000000	98.238013 
3288.000000	98.238579 
3287.000000	98.239133 
3286.000000	98.239678 
3285.000000	98.240218 
3284.000000	98.240757 
3283.000000	98.241298 
3282.000000	98.241844 
3281.000000	98.242398 
3280.000000	98.242958 
3279.000000	98.243518 
3278.000000	98.244074 
3277.000000	98.244625 
3276.000000	98.245185 
3275.000000	98.245763 
3274.000000	98.246355 
3273.000000	98.246945 
3272.000000	98.247537 
3271.000000	98.248149 
3270.000000	98.248793 
3269.000000	98.249457 
3268.000000	98.250106 
3267.000000	98.250708 
3266.000000	98.251270 
3265.000000	98.251861 
3264.000000	98.252562 
3263.000000	98.253376 
3262.000000	98.254176 
3261.000000	98.254833 
3260.000000	98.255339 
3259.000000	98.255777 
3258.000000	98.256181 
3257.000000	98.256544 
3256.000000	98.256948 
3255.000000	98.257491 
3254.000000	98.258116 
3253.000000	98.258681 
3252.000000	98.259164 
3251.000000	98.259706 
3250.000000	98.260403 
3249.000000	98.261173 
3248.000000	98.261842 
3247.000000	98.262355 
3246.000000	98.262818 
3245.000000	98.263376 
3244.000000	98.264054 
3243.000000	98.264741 
3242.000000	98.265309 
3241.000000	98.265743 
3240.000000	98.266131 
3239.000000	98.266573 
3238.000000	98.267141 
3237.000000	98.267909 
3236.000000	98.268917 
3235.000000	98.270063 
3234.000000	98.271069 
3233.000000	98.271686 
3232.000000	98.271893 
3231.000000	98.271928 
3230.000000	98.272094 
3229.000000	98.272517 
3228.000000	98.273157 
3227.000000	98.273957 
3226.000000	98.274943 
3225.000000	98.276147 
3224.000000	98.277460 
3223.000000	98.278665 
3222.000000	98.279620 
3221.000000	98.280392 
3220.000000	98.281152 
3219.000000	98.281954 
3218.000000	98.282703 
3217.000000	98.283312 
3216.000000	98.283805 
3215.000000	98.284326 
3214.000000	98.285069 
3213.000000	98.286129 
3212.000000	98.287367 
3211.000000	98.288466 
3210.000000	98.289211 
3209.000000	98.289687 
3208.000000	98.290127 
3207.000000	98.290588 
3206.000000	98.290932 
3205.000000	98.291163 
3204.000000	98.291643 
3203.000000	98.292782 
3202.000000	98.294602 
3201.000000	98.296618 
3200.000000	98.298188 
3199.000000	98.299084 
3198.000000	98.299675 
3197.000000	98.300522 
3196.000000	98.301704 
3195.000000	98.302715 
3194.000000	98.303159 
3193.000000	98.303374 
3192.000000	98.304110 
3191.000000	98.305595 
3190.000000	98.307212 
3189.000000	98.308193 
3188.000000	98.308479 
3187.000000	98.308769 
3186.000000	98.309828 
3185.000000	98.311849 
3184.000000	98.314333 
3183.000000	98.316600 
3182.000000	98.318414 
3181.000000	98.319938 
3180.000000	98.321236 
3179.000000	98.322129 
3178.000000	98.322617 
3177.000000	98.323126 
3176.000000	98.324092 
3175.000000	98.325536 
3174.000000	98.327265 
3173.000000	98.329212 
3172.000000	98.331281 
3171.000000	98.333062 
3170.000000	98.334157 
3169.000000	98.334715 
3168.000000	98.335287 
3167.000000	98.336157 
3166.000000	98.337136 
3165.000000	98.337978 
3164.000000	98.338623 
3163.000000	98.339080 
3162.000000	98.339381 
3161.000000	98.339692 
3160.000000	98.340243 
3159.000000	98.341089 
3158.000000	98.342101 
3157.000000	98.343190 
3156.000000	98.344355 
3155.000000	98.345546 
3154.000000	98.346655 
3153.000000	98.347664 
3152.000000	98.348650 
3151.000000	98.349612 
3150.000000	98.350424 
3149.000000	98.351009 
3148.000000	98.351465 
3147.000000	98.351994 
3146.000000	98.352762 
3145.000000	98.353803 
3144.000000	98.355003 
3143.000000	98.356117 
3142.000000	98.356937 
3141.000000	98.357456 
3140.000000	98.357891 
3139.000000	98.358504 
3138.000000	98.359386 
3137.000000	98.360432 
3136.000000	98.361419 
3135.000000	98.362133 
3134.000000	98.362483 
3133.000000	98.362594 
3132.000000	98.362761 
3131.000000	98.363180 
3130.000000	98.363836 
3129.000000	98.364679 
3128.000000	98.365785 
3127.000000	98.367213 
3126.000000	98.368817 
3125.000000	98.370297 
3124.000000	98.371430 
3123.000000	98.372150 
3122.000000	98.372493 
3121.000000	98.372616 
3120.000000	98.372810 
3119.000000	98.373324 
3118.000000	98.374186 
3117.000000	98.375257 
3116.000000	98.376405 
3115.000000	98.377539 
3114.000000	98.378533 
3113.000000	98.379317 
3112.000000	98.380040 
3111.000000	98.380980 
3110.000000	98.382210 
3109.000000	98.383485 
3108.000000	98.384588 
3107.000000	98.385648 
3106.000000	98.386901 
3105.000000	98.388180 
3104.000000	98.388882 
3103.000000	98.388559 
3102.000000	98.387441 
3101.000000	98.386273 
3100.000000	98.385545 
3099.000000	98.385099 
3098.000000	98.384716 
3097.000000	98.384873 
3096.000000	98.386380 
3095.000000	98.389152 
3094.000000	98.392005 
3093.000000	98.393901 
3092.000000	98.394865 
3091.000000	98.395259 
3090.000000	98.394800 
3089.000000	98.393037 
3088.000000	98.390410 
3087.000000	98.388199 
3086.000000	98.387558 
3085.000000	98.388807 
3084.000000	98.391214 
3083.000000	98.393208 
3082.000000	98.393537 
3081.000000	98.392751 
3080.000000	98.392721 
3079.000000	98.394177 
3078.000000	98.395858 
3077.000000	98.396765 
3076.000000	98.397760 
3075.000000	98.399740 
3074.000000	98.401653 
3073.000000	98.402066 
3072.000000	98.401639 
3071.000000	98.401914 
3070.000000	98.402460 
3069.000000	98.401579 
3068.000000	98.399457 
3067.000000	98.398241 
3066.000000	98.398820 
3065.000000	98.399751 
3064.000000	98.399673 
3063.000000	98.398666 
3062.000000	98.396818 
3061.000000	98.393526 
3060.000000	98.388992 
3059.000000	98.384965 
3058.000000	98.383288 
3057.000000	98.384549 
3056.000000	98.387998 
3055.000000	98.391327 
3054.000000	98.390927 
3053.000000	98.384710 
3052.000000	98.375609 
3051.000000	98.370144 
3050.000000	98.371854 
3049.000000	98.377291 
3048.000000	98.379618 
3047.000000	98.375222 
3046.000000	98.365675 
3045.000000	98.354752 
3044.000000	98.345520 
3043.000000	98.339937 
3042.000000	98.338970 
3041.000000	98.341533 
3040.000000	98.343944 
3039.000000	98.342047 
3038.000000	98.334421 
3037.000000	98.323141 
3036.000000	98.311088 
3035.000000	98.299013 
3034.000000	98.286086 
3033.000000	98.272483 
3032.000000	98.259795 
3031.000000	98.248989 
3030.000000	98.239312 
3029.000000	98.229443 
3028.000000	98.218216 
3027.000000	98.203821 
3026.000000	98.184310 
3025.000000	98.160301 
3024.000000	98.135843 
3023.000000	98.114757 
3022.000000	98.096909 
3021.000000	98.079744 
3020.000000	98.062352 
3019.000000	98.045704 
3018.000000	98.029369 
3017.000000	98.010735 
3016.000000	97.988146 
3015.000000	97.962987 
3014.000000	97.938114 
3013.000000	97.915428 
3012.000000	97.895011 
3011.000000	97.875103 
3010.000000	97.852758 
3009.000000	97.826092 
3008.000000	97.796324 
3007.000000	97.766539 
3006.000000	97.738372 
3005.000000	97.711245 
3004.000000	97.684778 
3003.000000	97.659999 
3002.000000	97.637584 
3001.000000	97.616697 
3000.000000	97.596338 
2999.000000	97.576345 
2998.000000	97.556484 
2997.000000	97.536271 
2996.000000	97.516348 
2995.000000	97.497801 
2994.000000	97.478341 
2993.000000	97.451228 
2992.000000	97.411375 
2991.000000	97.362833 
2990.000000	97.318103 
2989.000000	97.289003 
2988.000000	97.279022 
2987.000000	97.283755 
2986.000000	97.296251 
2985.000000	97.311083 
2984.000000	97.324731 
2983.000000	97.334747 
2982.000000	97.339943 
2981.000000	97.340845 
2980.000000	97.338914 
2979.000000	97.334932 
2978.000000	97.328639 
2977.000000	97.320140 
2976.000000	97.311149 
2975.000000	97.304195 
2974.000000	97.300911 
2973.000000	97.301757 
2972.000000	97.306974 
2971.000000	97.316677 
2970.000000	97.329915 
2969.000000	97.344876 
2968.000000	97.360600 
2967.000000	97.377631 
2966.000000	97.396429 
2965.000000	97.415937 
2964.000000	97.434465 
2963.000000	97.451331 
2962.000000	97.466814 
2961.000000	97.481125 
2960.000000	97.494491 
2959.000000	97.507973 
2958.000000	97.522966 
2957.000000	97.539481 
2956.000000	97.555515 
2955.000000	97.568590 
2954.000000	97.578071 
2953.000000	97.586194 
2952.000000	97.596817 
2951.000000	97.612321 
2950.000000	97.630872 
2949.000000	97.647074 
2948.000000	97.656203 
2947.000000	97.657852 
2946.000000	97.655537 
2945.000000	97.653395 
2944.000000	97.653651 
2943.000000	97.656526 
2942.000000	97.660846 
2941.000000	97.664327 
2940.000000	97.664917 
2939.000000	97.663090 
2938.000000	97.661944 
2937.000000	97.663986 
2936.000000	97.668273 
2935.000000	97.671380 
2934.000000	97.670706 
2933.000000	97.666077 
2932.000000	97.658871 
2931.000000	97.650892 
2930.000000	97.644119 
2929.000000	97.640190 
2928.000000	97.639180 
2927.000000	97.639190 
2926.000000	97.637851 
2925.000000	97.634542 
2924.000000	97.631037 
2923.000000	97.629826 
2922.000000	97.631627 
2921.000000	97.634552 
2920.000000	97.636003 
2919.000000	97.635357 
2918.000000	97.634092 
2917.000000	97.632813 
2916.000000	97.629098 
2915.000000	97.619782 
2914.000000	97.605508 
2913.000000	97.591610 
2912.000000	97.583497 
2911.000000	97.581719 
2910.000000	97.582271 
2909.000000	97.581204 
2908.000000	97.577969 
2907.000000	97.574155 
2906.000000	97.569894 
2905.000000	97.562392 
2904.000000	97.548524 
2903.000000	97.529881 
2902.000000	97.514682 
2901.000000	97.512903 
2900.000000	97.528658 
2899.000000	97.556631 
2898.000000	97.586090 
2897.000000	97.608653 
2896.000000	97.622064 
2895.000000	97.628154 
2894.000000	97.630248 
2893.000000	97.632579 
2892.000000	97.639020 
2891.000000	97.649990 
2890.000000	97.661642 
2889.000000	97.669943 
2888.000000	97.675025 
2887.000000	97.679949 
2886.000000	97.685985 
2885.000000	97.691628 
2884.000000	97.696553 
2883.000000	97.703899 
2882.000000	97.716894 
2881.000000	97.734737 
2880.000000	97.753767 
2879.000000	97.771984 
2878.000000	97.790178 
2877.000000	97.808632 
2876.000000	97.825074 
2875.000000	97.837114 
2874.000000	97.845263 
2873.000000	97.852102 
2872.000000	97.859301 
2871.000000	97.866856 
2870.000000	97.874803 
2869.000000	97.883991 
2868.000000	97.894899 
2867.000000	97.907039 
2866.000000	97.919950 
2865.000000	97.933824 
2864.000000	97.948783 
2863.000000	97.964720 
2862.000000	97.982330 
2861.000000	98.002903 
2860.000000	98.026001 
2859.000000	98.048475 
2858.000000	98.067346 
2857.000000	98.083216 
2856.000000	98.099297 
2855.000000	98.117097 
2854.000000	98.134757 
2853.000000	98.149660 
2852.000000	98.161097 
2851.000000	98.170163 
2850.000000	98.178412 
2849.000000	98.187172 
2848.000000	98.197157 
2847.000000	98.207988 
2846.000000	98.218541 
2845.000000	98.228069 
2844.000000	98.236653 
2843.000000	98.244607 
2842.000000	98.252094 
2841.000000	98.259272 
2840.000000	98.266137 
2839.000000	98.272200 
2838.000000	98.277076 
2837.000000	98.281401 
2836.000000	98.286446 
2835.000000	98.292759 
2834.000000	98.299979 
2833.000000	98.307961 
2832.000000	98.316923 
2831.000000	98.326052 
2830.000000	98.333095 
2829.000000	98.336285 
2828.000000	98.336341 
2827.000000	98.336085 
2826.000000	98.338365 
2825.000000	98.344265 
2824.000000	98.352512 
2823.000000	98.360067 
2822.000000	98.364046 
2821.000000	98.363916 
2820.000000	98.361730 
2819.000000	98.359991 
2818.000000	98.359656 
2817.000000	98.360453 
2816.000000	98.362351 
2815.000000	98.365762 
2814.000000	98.370482 
2813.000000	98.375099 
2812.000000	98.377727 
2811.000000	98.377332 
2810.000000	98.374679 
2809.000000	98.372136 
2808.000000	98.372133 
2807.000000	98.375442 
2806.000000	98.380930 
2805.000000	98.386761 
2804.000000	98.391504 
2803.000000	98.394375 
2802.000000	98.395398 
2801.000000	98.395746 
2800.000000	98.397147 
2799.000000	98.400206 
2798.000000	98.403598 
2797.000000	98.405426 
2796.000000	98.405171 
2795.000000	98.403978 
2794.000000	98.403381 
2793.000000	98.404087 
2792.000000	98.405819 
2791.000000	98.407804 
2790.000000	98.409347 
2789.000000	98.410225 
2788.000000	98.410739 
2787.000000	98.411385 
2786.000000	98.412504 
2785.000000	98.414138 
2784.000000	98.416030 
2783.000000	98.417755 
2782.000000	98.419049 
2781.000000	98.420060 
2780.000000	98.421136 
2779.000000	98.422422 
2778.000000	98.423795 
2777.000000	98.425082 
2776.000000	98.426212 
2775.000000	98.427238 
2774.000000	98.428262 
2773.000000	98.429343 
2772.000000	98.430472 
2771.000000	98.431614 
2770.000000	98.432765 
2769.000000	98.433952 
2768.000000	98.435184 
2767.000000	98.436420 
2766.000000	98.437600 
2765.000000	98.438699 
2764.000000	98.439744 
2763.000000	98.440764 
2762.000000	98.441764 
2761.000000	98.442744 
2760.000000	98.443723 
2759.000000	98.444718 
2758.000000	98.445722 
2757.000000	98.446710 
2756.000000	98.447658 
2755.000000	98.448576 
2754.000000	98.449491 
2753.000000	98.450434 
2752.000000	98.451413 
2751.000000	98.452411 
2750.000000	98.453397 
2749.000000	98.454363 
2748.000000	98.455320 
2747.000000	98.456251 
2746.000000	98.457119 
2745.000000	98.457929 
2744.000000	98.458724 
2743.000000	98.459549 
2742.000000	98.460412 
2741.000000	98.461286 
2740.000000	98.462151 
2739.000000	98.463006 
2738.000000	98.463854 
2737.000000	98.464696 
2736.000000	98.465547 
2735.000000	98.466425 
2734.000000	98.467329 
2733.000000	98.468240 
2732.000000	98.469141 
2731.000000	98.470026 
2730.000000	98.470895 
2729.000000	98.471749 
2728.000000	98.472582 
2727.000000	98.473385 
2726.000000	98.474158 
2725.000000	98.474909 
2724.000000	98.475653 
2723.000000	98.476398 
2722.000000	98.477143 
2721.000000	98.477885 
2720.000000	98.478623 
2719.000000	98.479359 
2718.000000	98.480098 
2717.000000	98.480840 
2716.000000	98.481584 
2715.000000	98.482326 
2714.000000	98.483064 
2713.000000	98.483794 
2712.000000	98.484512 
2711.000000	98.485211 
2710.000000	98.485888 
2709.000000	98.486548 
2708.000000	98.487198 
2707.000000	98.487840 
2706.000000	98.488472 
2705.000000	98.489088 
2704.000000	98.489682 
2703.000000	98.490252 
2702.000000	98.490796 
2701.000000	98.491321 
2700.000000	98.491839 
2699.000000	98.492360 
2698.000000	98.492879 
2697.000000	98.493358 
2696.000000	98.493758 
2695.000000	98.494072 
2694.000000	98.494336 
2693.000000	98.494587 
2692.000000	98.494832 
2691.000000	98.495050 
2690.000000	98.495218 
2689.000000	98.495329 
2688.000000	98.495406 
2687.000000	98.495471 
2686.000000	98.495534 
2685.000000	98.495599 
2684.000000	98.495675 
2683.000000	98.495760 
2682.000000	98.495821 
2681.000000	98.495821 
2680.000000	98.495760 
2679.000000	98.495683 
2678.000000	98.495640 
2677.000000	98.495651 
2676.000000	98.495672 
2675.000000	98.495597 
2674.000000	98.495337 
2673.000000	98.494911 
2672.000000	98.494462 
2671.000000	98.494110 
2670.000000	98.493855 
2669.000000	98.493614 
2668.000000	98.493337 
2667.000000	98.493026 
2666.000000	98.492665 
2665.000000	98.492204 
2664.000000	98.491641 
2663.000000	98.491066 
2662.000000	98.490582 
2661.000000	98.490210 
2660.000000	98.489879 
2659.000000	98.489503 
2658.000000	98.489052 
2657.000000	98.488563 
2656.000000	98.488094 
2655.000000	98.487647 
2654.000000	98.487160 
2653.000000	98.486563 
2652.000000	98.485872 
2651.000000	98.485218 
2650.000000	98.484749 
2649.000000	98.484494 
2648.000000	98.484351 
2647.000000	98.484183 
2646.000000	98.483880 
2645.000000	98.483370 
2644.000000	98.482645 
2643.000000	98.481840 
2642.000000	98.481184 
2641.000000	98.480819 
2640.000000	98.480686 
2639.000000	98.480588 
2638.000000	98.480395 
2637.000000	98.480120 
2636.000000	98.479840 
2635.000000	98.479616 
2634.000000	98.479480 
2633.000000	98.479430 
2632.000000	98.479370 
2631.000000	98.479141 
2630.000000	98.478678 
2629.000000	98.478125 
2628.000000	98.477721 
2627.000000	98.477578 
2626.000000	98.477615 
2625.000000	98.477713 
2624.000000	98.477814 
2623.000000	98.477892 
2622.000000	98.477885 
2621.000000	98.477702 
2620.000000	98.477259 
2619.000000	98.476518 
2618.000000	98.475606 
2617.000000	98.474859 
2616.000000	98.474592 
2615.000000	98.474783 
2614.000000	98.475046 
2613.000000	98.475003 
2612.000000	98.474643 
2611.000000	98.474267 
2610.000000	98.474184 
2609.000000	98.474483 
2608.000000	98.475018 
2607.000000	98.475509 
2606.000000	98.475761 
2605.000000	98.475815 
2604.000000	98.475821 
2603.000000	98.475836 
2602.000000	98.475834 
2601.000000	98.475887 
2600.000000	98.476114 
2599.000000	98.476430 
2598.000000	98.476550 
2597.000000	98.476351 
2596.000000	98.476009 
2595.000000	98.475760 
2594.000000	98.475638 
2593.000000	98.475600 
2592.000000	98.475766 
2591.000000	98.476262 
2590.000000	98.476884 
2589.000000	98.477202 
2588.000000	98.477075 
2587.000000	98.476802 
2586.000000	98.476748 
2585.000000	98.476999 
2584.000000	98.477484 
2583.000000	98.478109 
2582.000000	98.478676 
2581.000000	98.478954 
2580.000000	98.478958 
2579.000000	98.478991 
2578.000000	98.479298 
2577.000000	98.479844 
2576.000000	98.480441 
2575.000000	98.480879 
2574.000000	98.480932 
2573.000000	98.480493 
2572.000000	98.479769 
2571.000000	98.479136 
2570.000000	98.478770 
2569.000000	98.478636 
2568.000000	98.478784 
2567.000000	98.479316 
2566.000000	98.479997 
2565.000000	98.480335 
2564.000000	98.480182 
2563.000000	98.479888 
2562.000000	98.479736 
2561.000000	98.479648 
2560.000000	98.479690 
2559.000000	98.480338 
2558.000000	98.481841 
2557.000000	98.483645 
2556.000000	98.484893 
2555.000000	98.485378 
2554.000000	98.485509 
2553.000000	98.485510 
2552.000000	98.485192 
2551.000000	98.484662 
2550.000000	98.484568 
2549.000000	98.485194 
2548.000000	98.485757 
2547.000000	98.485249 
2546.000000	98.483734 
2545.000000	98.482368 
2544.000000	98.481976 
2543.000000	98.482181 
2542.000000	98.482136 
2541.000000	98.481720 
2540.000000	98.481546 
2539.000000	98.481940 
2538.000000	98.482466 
2537.000000	98.482558 
2536.000000	98.482248 
2535.000000	98.482010 
2534.000000	98.482068 
2533.000000	98.482163 
2532.000000	98.481998 
2531.000000	98.481633 
2530.000000	98.481330 
2529.000000	98.481191 
2528.000000	98.481081 
2527.000000	98.480888 
2526.000000	98.480716 
2525.000000	98.480766 
2524.000000	98.481104 
2523.000000	98.481592 
2522.000000	98.482014 
2521.000000	98.482253 
2520.000000	98.482346 
2519.000000	98.482388 
2518.000000	98.482423 
2517.000000	98.482411 
2516.000000	98.482279 
2515.000000	98.482034 
2514.000000	98.481815 
2513.000000	98.481811 
2512.000000	98.482093 
2511.000000	98.482569 
2510.000000	98.483096 
2509.000000	98.483588 
2508.000000	98.483999 
2507.000000	98.484291 
2506.000000	98.484498 
2505.000000	98.484755 
2504.000000	98.485186 
2503.000000	98.485765 
2502.000000	98.486324 
2501.000000	98.486714 
2500.000000	98.486942 
2499.000000	98.487129 
2498.000000	98.487405 
2497.000000	98.487784 
2496.000000	98.488208 
2495.000000	98.488644 
2494.000000	98.489092 
2493.000000	98.489521 
2492.000000	98.489877 
2491.000000	98.490183 
2490.000000	98.490560 
2489.000000	98.491066 
2488.000000	98.491553 
2487.000000	98.491803 
2486.000000	98.491791 
2485.000000	98.491728 
2484.000000	98.491837 
2483.000000	98.492141 
2482.000000	98.492473 
2481.000000	98.492639 
2480.000000	98.492566 
2479.000000	98.492354 
2478.000000	98.492226 
2477.000000	98.492348 
2476.000000	98.492638 
2475.000000	98.492794 
2474.000000	98.492584 
2473.000000	98.492039 
2472.000000	98.491335 
2471.000000	98.490608 
2470.000000	98.490061 
2469.000000	98.490073 
2468.000000	98.490859 
2467.000000	98.492035 
2466.000000	98.492786 
2465.000000	98.492682 
2464.000000	98.492133 
2463.000000	98.491974 
2462.000000	98.492678 
2461.000000	98.494066 
2460.000000	98.495574 
2459.000000	98.496658 
2458.000000	98.496975 
2457.000000	98.496446 
2456.000000	98.495199 
2455.000000	98.493519 
2454.000000	98.491872 
2453.000000	98.490697 
2452.000000	98.490093 
2451.000000	98.489813 
2450.000000	98.489761 
2449.000000	98.490232 
2448.000000	98.491386 
2447.000000	98.492711 
2446.000000	98.493416 
2445.000000	98.493305 
2444.000000	98.492883 
2443.000000	98.492697 
2442.000000	98.492884 
2441.000000	98.493315 
2440.000000	98.493819 
2439.000000	98.494280 
2438.000000	98.494850 
2437.000000	98.495997 
2436.000000	98.497975 
2435.000000	98.500240 
2434.000000	98.501759 
2433.000000	98.502059 
2432.000000	98.501626 
2431.000000	98.501388 
2430.000000	98.501927 
2429.000000	98.503306 
2428.000000	98.505263 
2427.000000	98.507225 
2426.000000	98.508358 
2425.000000	98.508054 
2424.000000	98.506712 
2423.000000	98.505283 
2422.000000	98.504154 
2421.000000	98.503696 
2420.000000	98.504837 
2419.000000	98.507688 
2418.000000	98.510757 
2417.000000	98.512790 
2416.000000	98.514357 
2415.000000	98.516420 
2414.000000	98.518731 
2413.000000	98.520817 
2412.000000	98.523004 
2411.000000	98.524999 
2410.000000	98.525045 
2409.000000	98.522418 
2408.000000	98.519505 
2407.000000	98.519337 
2406.000000	98.521730 
2405.000000	98.523670 
2404.000000	98.523076 
2403.000000	98.520604 
2402.000000	98.518206 
2401.000000	98.517596 
2400.000000	98.519772 
2399.000000	98.524376 
2398.000000	98.529578 
2397.000000	98.533779 
2396.000000	98.537100 
2395.000000	98.540145 
2394.000000	98.542060 
2393.000000	98.541648 
2392.000000	98.539931 
2391.000000	98.539752 
2390.000000	98.542817 
2389.000000	98.548493 
2388.000000	98.555530 
2387.000000	98.563425 
2386.000000	98.571752 
2385.000000	98.579297 
2384.000000	98.584550 
2383.000000	98.586207 
2382.000000	98.582776 
2381.000000	98.573123 
2380.000000	98.558007 
2379.000000	98.540288 
2378.000000	98.522946 
2377.000000	98.507920 
2376.000000	98.497632 
2375.000000	98.495595 
2374.000000	98.503115 
2373.000000	98.516201 
2372.000000	98.528145 
2371.000000	98.535747 
2370.000000	98.540442 
2369.000000	98.543564 
2368.000000	98.543886 
2367.000000	98.540377 
2366.000000	98.534574 
2365.000000	98.529125 
2364.000000	98.525690 
2363.000000	98.524777 
2362.000000	98.526441 
2361.000000	98.529997 
2360.000000	98.534122 
2359.000000	98.537813 
2358.000000	98.539916 
2357.000000	98.539712 
2356.000000	98.537727 
2355.000000	98.535208 
2354.000000	98.532224 
2353.000000	98.529592 
2352.000000	98.529745 
2351.000000	98.533314 
2350.000000	98.538027 
2349.000000	98.541059 
2348.000000	98.541803 
2347.000000	98.541309 
2346.000000	98.541108 
2345.000000	98.542161 
2344.000000	98.544147 
2343.000000	98.546029 
2342.000000	98.547012 
2341.000000	98.547227 
2340.000000	98.547334 
2339.000000	98.547850 
2338.000000	98.548665 
2337.000000	98.549345 
2336.000000	98.550100 
2335.000000	98.551447 
2334.000000	98.553179 
2333.000000	98.554327 
2332.000000	98.555144 
2331.000000	98.556642 
2330.000000	98.559273 
2329.000000	98.562043 
2328.000000	98.564947 
2327.000000	98.568457 
2326.000000	98.572087 
2325.000000	98.574305 
2324.000000	98.575084 
2323.000000	98.575776 
2322.000000	98.576493 
2321.000000	98.575638 
2320.000000	98.573562 
2319.000000	98.572179 
2318.000000	98.572496 
2317.000000	98.571746 
2316.000000	98.568300 
2315.000000	98.563128 
2314.000000	98.560018 
2313.000000	98.560424 
2312.000000	98.565081 
2311.000000	98.572884 
2310.000000	98.581720 
2309.000000	98.587659 
2308.000000	98.589859 
2307.000000	98.590544 
2306.000000	98.592198 
2305.000000	98.593908 
2304.000000	98.594775 
2303.000000	98.594969 
2302.000000	98.596391 
2301.000000	98.599296 
2300.000000	98.602654 
2299.000000	98.602853 
2298.000000	98.597443 
2297.000000	98.585392 
2296.000000	98.569768 
2295.000000	98.554843 
2294.000000	98.543307 
2293.000000	98.534131 
2292.000000	98.526026 
2291.000000	98.519403 
2290.000000	98.515332 
2289.000000	98.513477 
2288.000000	98.511866 
2287.000000	98.508525 
2286.000000	98.502589 
2285.000000	98.495539 
2284.000000	98.490098 
2283.000000	98.487671 
2282.000000	98.486137 
2281.000000	98.482046 
2280.000000	98.474118 
2279.000000	98.463764 
2278.000000	98.452834 
2277.000000	98.443181 
2276.000000	98.437871 
2275.000000	98.439230 
2274.000000	98.445551 
2273.000000	98.451876 
2272.000000	98.455202 
2271.000000	98.456257 
2270.000000	98.456350 
2269.000000	98.455564 
2268.000000	98.454687 
2267.000000	98.455310 
2266.000000	98.456997 
2265.000000	98.456959 
2264.000000	98.453676 
2263.000000	98.448606 
2262.000000	98.443609 
2261.000000	98.439031 
2260.000000	98.434897 
2259.000000	98.431900 
2258.000000	98.430149 
2257.000000	98.428836 
2256.000000	98.427882 
2255.000000	98.428333 
2254.000000	98.430288 
2253.000000	98.431634 
2252.000000	98.430126 
2251.000000	98.425599 
2250.000000	98.419500 
2249.000000	98.413353 
2248.000000	98.408403 
2247.000000	98.405583 
2246.000000	98.404758 
2245.000000	98.404363 
2244.000000	98.402703 
2243.000000	98.399614 
2242.000000	98.396236 
2241.000000	98.393671 
2240.000000	98.392159 
2239.000000	98.391324 
2238.000000	98.390550 
2237.000000	98.389302 
2236.000000	98.387485 
2235.000000	98.385391 
2234.000000	98.383307 
2233.000000	98.381276 
2232.000000	98.379231 
2231.000000	98.377150 
2230.000000	98.375023 
2229.000000	98.372781 
2228.000000	98.370384 
2227.000000	98.367914 
2226.000000	98.365502 
2225.000000	98.363176 
2224.000000	98.360864 
2223.000000	98.358516 
2222.000000	98.356174 
2221.000000	98.353881 
2220.000000	98.351611 
2219.000000	98.349330 
2218.000000	98.347037 
2217.000000	98.344745 
2216.000000	98.342459 
2215.000000	98.340185 
2214.000000	98.337923 
2213.000000	98.335670 
2212.000000	98.333437 
2211.000000	98.331246 
2210.000000	98.329117 
2209.000000	98.327049 
2208.000000	98.325020 
2207.000000	98.322999 
2206.000000	98.320960 
2205.000000	98.318880 
2204.000000	98.316738 
2203.000000	98.314741 
2202.000000	98.313334 
2201.000000	98.312420 
2200.000000	98.311186 
2199.000000	98.308646 
2198.000000	98.304431 
2197.000000	98.299422 
2196.000000	98.295238 
2195.000000	98.292624 
2194.000000	98.290861 
2193.000000	98.289320 
2192.000000	98.288666 
2191.000000	98.289141 
2190.000000	98.288700 
2189.000000	98.285132 
2188.000000	98.279727 
2187.000000	98.276022 
2186.000000	98.274432 
2185.000000	98.271396 
2184.000000	98.265587 
2183.000000	98.261826 
2182.000000	98.265410 
2181.000000	98.274432 
2180.000000	98.280828 
2179.000000	98.279273 
2178.000000	98.271896 
2177.000000	98.264665 
2176.000000	98.261322 
2175.000000	98.261292 
2174.000000	98.261901 
2173.000000	98.261641 
2172.000000	98.261897 
2171.000000	98.265405 
2170.000000	98.272333 
2169.000000	98.278304 
2168.000000	98.277706 
2167.000000	98.269002 
2166.000000	98.255785 
2165.000000	98.242707 
2164.000000	98.231299 
2163.000000	98.220660 
2162.000000	98.211840 
2161.000000	98.210036 
2160.000000	98.220749 
2159.000000	98.243304 
2158.000000	98.269031 
2157.000000	98.288172 
2156.000000	98.298134 
2155.000000	98.302667 
2154.000000	98.306196 
2153.000000	98.311454 
2152.000000	98.319740 
2151.000000	98.329565 
2150.000000	98.335921 
2149.000000	98.334960 
2148.000000	98.329734 
2147.000000	98.327752 
2146.000000	98.332298 
2145.000000	98.340050 
2144.000000	98.347948 
2143.000000	98.357603 
2142.000000	98.370280 
2141.000000	98.381772 
2140.000000	98.386632 
2139.000000	98.385732 
2138.000000	98.385981 
2137.000000	98.392758 
2136.000000	98.404692 
2135.000000	98.415461 
2134.000000	98.419356 
2133.000000	98.415902 
2132.000000	98.410510 
2131.000000	98.409660 
2130.000000	98.414617 
2129.000000	98.420905 
2128.000000	98.424163 
2127.000000	98.424909 
2126.000000	98.426606 
2125.000000	98.430852 
2124.000000	98.436062 
2123.000000	98.439788 
2122.000000	98.440582 
2121.000000	98.438201 
2120.000000	98.433406 
2119.000000	98.427540 
2118.000000	98.421878 
2117.000000	98.417463 
2116.000000	98.415098 
2115.000000	98.414469 
2114.000000	98.413444 
2113.000000	98.409868 
2112.000000	98.404695 
2111.000000	98.401764 
2110.000000	98.403635 
2109.000000	98.409063 
2108.000000	98.414995 
2107.000000	98.419452 
2106.000000	98.421640 
2105.000000	98.421329 
2104.000000	98.419632 
2103.000000	98.418846 
2102.000000	98.419662 
2101.000000	98.419653 
2100.000000	98.416358 
2099.000000	98.411023 
2098.000000	98.407763 
2097.000000	98.409041 
2096.000000	98.413465 
2095.000000	98.417577 
2094.000000	98.418887 
2093.000000	98.417261 
2092.000000	98.414174 
2091.000000	98.411434 
2090.000000	98.410112 
2089.000000	98.410029 
2088.000000	98.410018 
2087.000000	98.408757 
2086.000000	98.405634 
2085.000000	98.401121 
2084.000000	98.396511 
2083.000000	98.392938 
2082.000000	98.390505 
2081.000000	98.388591 
2080.000000	98.386945 
2079.000000	98.385986 
2078.000000	98.385766 
2077.000000	98.385199 
2076.000000	98.383065 
2075.000000	98.379519 
2074.000000	98.375782 
2073.000000	98.372445 
2072.000000	98.368864 
2071.000000	98.364387 
2070.000000	98.359401 
2069.000000	98.354995 
2068.000000	98.352037 
2067.000000	98.350637 
2066.000000	98.349949 
2065.000000	98.348389 
2064.000000	98.344816 
2063.000000	98.339636 
2062.000000	98.334491 
2061.000000	98.330780 
2060.000000	98.328763 
2059.000000	98.328058 
2058.000000	98.327925 
2057.000000	98.327115 
2056.000000	98.324298 
2055.000000	98.318986 
2054.000000	98.312118 
2053.000000	98.305357 
2052.000000	98.299842 
2051.000000	98.295558 
2050.000000	98.291749 
2049.000000	98.287871 
2048.000000	98.284144 
2047.000000	98.281104 
2046.000000	98.278749 
2045.000000	98.276474 
2044.000000	98.273826 
2043.000000	98.270934 
2042.000000	98.268165 
2041.000000	98.265731 
2040.000000	98.263780 
2039.000000	98.262500 
2038.000000	98.261739 
2037.000000	98.260769 
2036.000000	98.258927 
2035.000000	98.256362 
2034.000000	98.253900 
2033.000000	98.252299 
2032.000000	98.251699 
2031.000000	98.251507 
2030.000000	98.250606 
2029.000000	98.248167 
2028.000000	98.244533 
2027.000000	98.241143 
2026.000000	98.239056 
2025.000000	98.238104 
2024.000000	98.237782 
2023.000000	98.238329 
2022.000000	98.240211 
2021.000000	98.242838 
2020.000000	98.244517 
2019.000000	98.243936 
2018.000000	98.241123 
2017.000000	98.237453 
2016.000000	98.234815 
2015.000000	98.234230 
2014.000000	98.235009 
2013.000000	98.235024 
2012.000000	98.232858 
2011.000000	98.229845 
2010.000000	98.228962 
2009.000000	98.231394 
2008.000000	98.235238 
2007.000000	98.237913 
2006.000000	98.239076 
2005.000000	98.239965 
2004.000000	98.241195 
2003.000000	98.242577 
2002.000000	98.244446 
2001.000000	98.247107 
2000.000000	98.249252 
1999.000000	98.248379 
1998.000000	98.243257 
1997.000000	98.235618 
1996.000000	98.229075 
1995.000000	98.226265 
1994.000000	98.227306 
1993.000000	98.230191 
1992.000000	98.232282 
1991.000000	98.232329 
1990.000000	98.231361 
1989.000000	98.231495 
1988.000000	98.233536 
1987.000000	98.235695 
1986.000000	98.235112 
1985.000000	98.230879 
1984.000000	98.225076 
1983.000000	98.220457 
1982.000000	98.217869 
1981.000000	98.216600 
1980.000000	98.216918 
1979.000000	98.220111 
1978.000000	98.225567 
1977.000000	98.230080 
1976.000000	98.231394 
1975.000000	98.231140 
1974.000000	98.232857 
1973.000000	98.238308 
1972.000000	98.246348 
1971.000000	98.254315 
1970.000000	98.259632 
1969.000000	98.260832 
1968.000000	98.258326 
1967.000000	98.254509 
1966.000000	98.252489 
1965.000000	98.254015 
1964.000000	98.258971 
1963.000000	98.266285 
1962.000000	98.274794 
1961.000000	98.283134 
1960.000000	98.289433 
1959.000000	98.292167 
1958.000000	98.291769 
1957.000000	98.291013 
1956.000000	98.292745 
1955.000000	98.297170 
1954.000000	98.302044 
1953.000000	98.305505 
1952.000000	98.307629 
1951.000000	98.309309 
1950.000000	98.311102 
1949.000000	98.313601 
1948.000000	98.317850 
1947.000000	98.324065 
1946.000000	98.330459 
1945.000000	98.334632 
1944.000000	98.335951 
1943.000000	98.335780 
1942.000000	98.335856 
1941.000000	98.336876 
1940.000000	98.338754 
1939.000000	98.341161 
1938.000000	98.343707 
1937.000000	98.346464 
1936.000000	98.350022 
1935.000000	98.354411 
1934.000000	98.358419 
1933.000000	98.361103 
1932.000000	98.363378 
1931.000000	98.367034 
1930.000000	98.372279 
1929.000000	98.377082 
1928.000000	98.380258 
1927.000000	98.382849 
1926.000000	98.386100 
1925.000000	98.389216 
1924.000000	98.390643 
1923.000000	98.390794 
1922.000000	98.391181 
1921.000000	98.391994 
1920.000000	98.392636 
1919.000000	98.393168 
1918.000000	98.394040 
1917.000000	98.394701 
1916.000000	98.394622 
1915.000000	98.395088 
1914.000000	98.397425 
1913.000000	98.400912 
1912.000000	98.403514 
1911.000000	98.404439 
1910.000000	98.404580 
1909.000000	98.404845 
1908.000000	98.405712 
1907.000000	98.407071 
1906.000000	98.408235 
1905.000000	98.408183 
1904.000000	98.406754 
1903.000000	98.405579 
1902.000000	98.406191 
1901.000000	98.408080 
1900.000000	98.409751 
1899.000000	98.410571 
1898.000000	98.410978 
1897.000000	98.411356 
1896.000000	98.411560 
1895.000000	98.411599 
1894.000000	98.411699 
1893.000000	98.411784 
1892.000000	98.411652 
1891.000000	98.411513 
1890.000000	98.411863 
1889.000000	98.412816 
1888.000000	98.414060 
1887.000000	98.415396 
1886.000000	98.416700 
1885.000000	98.417607 
1884.000000	98.417834 
1883.000000	98.417611 
1882.000000	98.417560 
1881.000000	98.418050 
1880.000000	98.419016 
1879.000000	98.420121 
1878.000000	98.420988 
1877.000000	98.421562 
1876.000000	98.422187 
1875.000000	98.423359 
1874.000000	98.425307 
1873.000000	98.427686 
1872.000000	98.429883 
1871.000000	98.431580 
1870.000000	98.432721 
1869.000000	98.433300 
1868.000000	98.433572 
1867.000000	98.434281 
1866.000000	98.435820 
1865.000000	98.437356 
1864.000000	98.437799 
1863.000000	98.437501 
1862.000000	98.437948 
1861.000000	98.439630 
1860.000000	98.441661 
1859.000000	98.443605 
1858.000000	98.446055 
1857.000000	98.449073 
1856.000000	98.451904 
1855.000000	98.454232 
1854.000000	98.456526 
1853.000000	98.458530 
1852.000000	98.460235 
1851.000000	98.462605 
1850.000000	98.466027 
1849.000000	98.469534 
1848.000000	98.471969 
1847.000000	98.473672 
1846.000000	98.475367 
1845.000000	98.476778 
1844.000000	98.477836 
1843.000000	98.479328 
1842.000000	98.481711 
1841.000000	98.484407 
1840.000000	98.487160 
1839.000000	98.490426 
1838.000000	98.494338 
1837.000000	98.497075 
1836.000000	98.496903 
1835.000000	98.495473 
1834.000000	98.495890 
1833.000000	98.498254 
1832.000000	98.500300 
1831.000000	98.500116 
1830.000000	98.498515 
1829.000000	98.498019 
1828.000000	98.499265 
1827.000000	98.501401 
1826.000000	98.503309 
1825.000000	98.504663 
1824.000000	98.505593 
1823.000000	98.506434 
1822.000000	98.507979 
1821.000000	98.510047 
1820.000000	98.511298 
1819.000000	98.511035 
1818.000000	98.511305 
1817.000000	98.513697 
1816.000000	98.515804 
1815.000000	98.515575 
1814.000000	98.514298 
1813.000000	98.514617 
1812.000000	98.516007 
1811.000000	98.515445 
1810.000000	98.513072 
1809.000000	98.510888 
1808.000000	98.509055 
1807.000000	98.507565 
1806.000000	98.507726 
1805.000000	98.509781 
1804.000000	98.510867 
1803.000000	98.508924 
1802.000000	98.504514 
1801.000000	98.500421 
1800.000000	98.498136 
1799.000000	98.497241 
1798.000000	98.497869 
1797.000000	98.499168 
1796.000000	98.499099 
1795.000000	98.497581 
1794.000000	98.495932 
1793.000000	98.495179 
1792.000000	98.494605 
1791.000000	98.493473 
1790.000000	98.493737 
1789.000000	98.496752 
1788.000000	98.500724 
1787.000000	98.503202 
1786.000000	98.503909 
1785.000000	98.503959 
1784.000000	98.503660 
1783.000000	98.504027 
1782.000000	98.505021 
1781.000000	98.506442 
1780.000000	98.508639 
1779.000000	98.511493 
1778.000000	98.514767 
1777.000000	98.517433 
1776.000000	98.518873 
1775.000000	98.519171 
1774.000000	98.518452 
1773.000000	98.517901 
1772.000000	98.519141 
1771.000000	98.521112 
1770.000000	98.522275 
1769.000000	98.522826 
1768.000000	98.523380 
1767.000000	98.524298 
1766.000000	98.525446 
1765.000000	98.526691 
1764.000000	98.527852 
1763.000000	98.528723 
1762.000000	98.529325 
1761.000000	98.530065 
1760.000000	98.531053 
1759.000000	98.532117 
1758.000000	98.533065 
1757.000000	98.533897 
1756.000000	98.534919 
1755.000000	98.536109 
1754.000000	98.537161 
1753.000000	98.537886 
1752.000000	98.538414 
1751.000000	98.539090 
1750.000000	98.540094 
1749.000000	98.541298 
1748.000000	98.542434 
1747.000000	98.543406 
1746.000000	98.544058 
1745.000000	98.544434 
1744.000000	98.544825 
1743.000000	98.545263 
1742.000000	98.545526 
1741.000000	98.545711 
1740.000000	98.546102 
1739.000000	98.546831 
1738.000000	98.547663 
1737.000000	98.548565 
1736.000000	98.549077 
1735.000000	98.548165 
1734.000000	98.547185 
1733.000000	98.546904 
1732.000000	98.546751 
1731.000000	98.547777 
1730.000000	98.550251 
1729.000000	98.552514 
1728.000000	98.553510 
1727.000000	98.553796 
1726.000000	98.553832 
1725.000000	98.554275 
1724.000000	98.554909 
1723.000000	98.554992 
1722.000000	98.555145 
1721.000000	98.555765 
1720.000000	98.555724 
1719.000000	98.553163 
1718.000000	98.550366 
1717.000000	98.550687 
1716.000000	98.550701 
1715.000000	98.548380 
1714.000000	98.546663 
1713.000000	98.546597 
1712.000000	98.546160 
1711.000000	98.545056 
1710.000000	98.544739 
1709.000000	98.544853 
1708.000000	98.544012 
1707.000000	98.542138 
1706.000000	98.541026 
1705.000000	98.540768 
1704.000000	98.538494 
1703.000000	98.534124 
1702.000000	98.529019 
1701.000000	98.524792 
1700.000000	98.523702 
1699.000000	98.522766 
1698.000000	98.522027 
1697.000000	98.522424 
1696.000000	98.521937 
1695.000000	98.520313 
1694.000000	98.518375 
1693.000000	98.516750 
1692.000000	98.515100 
1691.000000	98.512904 
1690.000000	98.510407 
1689.000000	98.507777 
1688.000000	98.505393 
1687.000000	98.503369 
1686.000000	98.501355 
1685.000000	98.499252 
1684.000000	98.497461 
1683.000000	98.495541 
1682.000000	98.493215 
1681.000000	98.490775 
1680.000000	98.488470 
1679.000000	98.486342 
1678.000000	98.484250 
1677.000000	98.482063 
1676.000000	98.479832 
1675.000000	98.477746 
1674.000000	98.475658 
1673.000000	98.473481 
1672.000000	98.471355 
1671.000000	98.469361 
1670.000000	98.467458 
1669.000000	98.465484 
1668.000000	98.463424 
1667.000000	98.461448 
1666.000000	98.459578 
1665.000000	98.457774 
1664.000000	98.455988 
1663.000000	98.454428 
1662.000000	98.452886 
1661.000000	98.450647 
1660.000000	98.448065 
1659.000000	98.445961 
1658.000000	98.444257 
1657.000000	98.442467 
1656.000000	98.440902 
1655.000000	98.438805 
1654.000000	98.434595 
1653.000000	98.432280 
1652.000000	98.430796 
1651.000000	98.427112 
1650.000000	98.423970 
1649.000000	98.422592 
1648.000000	98.421442 
1647.000000	98.420650 
1646.000000	98.420817 
1645.000000	98.420328 
1644.000000	98.418366 
1643.000000	98.416633 
1642.000000	98.416035 
1641.000000	98.415528 
1640.000000	98.415104 
1639.000000	98.414786 
1638.000000	98.414547 
1637.000000	98.412924 
1636.000000	98.411564 
1635.000000	98.412313 
1634.000000	98.411888 
1633.000000	98.409460 
1632.000000	98.406076 
1631.000000	98.403302 
1630.000000	98.402275 
1629.000000	98.402489 
1628.000000	98.402675 
1627.000000	98.403225 
1626.000000	98.404119 
1625.000000	98.404882 
1624.000000	98.406472 
1623.000000	98.410625 
1622.000000	98.414568 
1621.000000	98.414057 
1620.000000	98.411525 
1619.000000	98.410787 
1618.000000	98.411559 
1617.000000	98.411520 
1616.000000	98.410985 
1615.000000	98.411700 
1614.000000	98.414028 
1613.000000	98.415910 
1612.000000	98.415731 
1611.000000	98.415855 
1610.000000	98.417889 
1609.000000	98.420913 
1608.000000	98.425433 
1607.000000	98.432927 
1606.000000	98.440074 
1605.000000	98.443006 
1604.000000	98.444585 
1603.000000	98.448364 
1602.000000	98.452992 
1601.000000	98.455893 
1600.000000	98.458346 
1599.000000	98.462259 
1598.000000	98.465913 
1597.000000	98.467476 
1596.000000	98.468478 
1595.000000	98.471471 
1594.000000	98.475980 
1593.000000	98.479725 
1592.000000	98.482635 
1591.000000	98.486336 
1590.000000	98.490639 
1589.000000	98.493975 
1588.000000	98.496904 
1587.000000	98.501110 
1586.000000	98.506002 
1585.000000	98.508354 
1584.000000	98.509065 
1583.000000	98.511874 
1582.000000	98.516115 
1581.000000	98.518466 
1580.000000	98.519771 
1579.000000	98.523255 
1578.000000	98.528171 
1577.000000	98.532053 
1576.000000	98.535886 
1575.000000	98.540022 
1574.000000	98.541987 
1573.000000	98.542786 
1572.000000	98.545110 
1571.000000	98.549061 
1570.000000	98.552356 
1569.000000	98.551222 
1568.000000	98.548034 
1567.000000	98.547209 
1566.000000	98.548002 
1565.000000	98.546951 
1564.000000	98.545448 
1563.000000	98.544994 
1562.000000	98.544802 
1561.000000	98.539506 
1560.000000	98.533221 
1559.000000	98.540369 
1558.000000	98.550447 
1557.000000	98.547937 
1556.000000	98.542126 
1555.000000	98.539994 
1554.000000	98.538892 
1553.000000	98.537086 
1552.000000	98.535777 
1551.000000	98.533550 
1550.000000	98.529077 
1549.000000	98.523676 
1548.000000	98.519800 
1547.000000	98.517944 
1546.000000	98.514493 
1545.000000	98.506397 
1544.000000	98.496527 
1543.000000	98.488833 
1542.000000	98.485000 
1541.000000	98.484140 
1540.000000	98.483093 
1539.000000	98.477985 
1538.000000	98.466371 
1537.000000	98.451983 
1536.000000	98.439323 
1535.000000	98.430522 
1534.000000	98.425305 
1533.000000	98.422192 
1532.000000	98.417530 
1531.000000	98.409813 
1530.000000	98.401488 
1529.000000	98.393239 
1528.000000	98.383497 
1527.000000	98.372772 
1526.000000	98.362881 
1525.000000	98.354528 
1524.000000	98.347667 
1523.000000	98.340965 
1522.000000	98.332631 
1521.000000	98.321959 
1520.000000	98.309049 
1519.000000	98.296147 
1518.000000	98.284152 
1517.000000	98.271838 
1516.000000	98.259380 
1515.000000	98.249264 
1514.000000	98.242523 
1513.000000	98.237720 
1512.000000	98.230889 
1511.000000	98.219315 
1510.000000	98.205010 
1509.000000	98.191071 
1508.000000	98.177346 
1507.000000	98.164703 
1506.000000	98.156625 
1505.000000	98.147776 
1504.000000	98.135989 
1503.000000	98.123197 
1502.000000	98.109479 
1501.000000	98.095215 
1500.000000	98.081947 
1499.000000	98.069598 
1498.000000	98.056363 
1497.000000	98.043632 
1496.000000	98.033201 
1495.000000	98.025896 
1494.000000	98.022962 
1493.000000	98.024301 
1492.000000	98.026099 
1491.000000	98.023278 
1490.000000	98.014657 
1489.000000	98.003226 
1488.000000	97.989906 
1487.000000	97.975058 
1486.000000	97.961762 
1485.000000	97.948384 
1484.000000	97.934035 
1483.000000	97.921141 
1482.000000	97.911362 
1481.000000	97.903848 
1480.000000	97.895423 
1479.000000	97.885275 
1478.000000	97.874774 
1477.000000	97.864923 
1476.000000	97.853401 
1475.000000	97.839555 
1474.000000	97.825111 
1473.000000	97.813367 
1472.000000	97.807140 
1471.000000	97.803942 
1470.000000	97.800903 
1469.000000	97.796876 
1468.000000	97.789636 
1467.000000	97.778961 
1466.000000	97.768063 
1465.000000	97.760357 
1464.000000	97.756857 
1463.000000	97.752717 
1462.000000	97.745530 
1461.000000	97.737508 
1460.000000	97.731330 
1459.000000	97.724035 
1458.000000	97.707273 
1457.000000	97.683035 
1456.000000	97.662649 
1455.000000	97.649574 
1454.000000	97.640620 
1453.000000	97.634218 
1452.000000	97.631628 
1451.000000	97.634799 
1450.000000	97.644087 
1449.000000	97.658311 
1448.000000	97.671622 
1447.000000	97.679310 
1446.000000	97.680396 
1445.000000	97.679105 
1444.000000	97.681123 
1443.000000	97.684564 
1442.000000	97.685533 
1441.000000	97.684079 
1440.000000	97.682987 
1439.000000	97.680216 
1438.000000	97.672273 
1437.000000	97.664160 
1436.000000	97.664698 
1435.000000	97.670734 
1434.000000	97.676246 
1433.000000	97.681520 
1432.000000	97.687309 
1431.000000	97.692014 
1430.000000	97.693778 
1429.000000	97.694459 
1428.000000	97.695320 
1427.000000	97.697080 
1426.000000	97.698903 
1425.000000	97.700407 
1424.000000	97.703700 
1423.000000	97.706162 
1422.000000	97.704192 
1421.000000	97.698555 
1420.000000	97.692345 
1419.000000	97.684531 
1418.000000	97.672527 
1417.000000	97.661368 
1416.000000	97.657372 
1415.000000	97.658506 
1414.000000	97.657592 
1413.000000	97.651535 
1412.000000	97.643735 
1411.000000	97.637211 
1410.000000	97.631946 
1409.000000	97.629128 
1408.000000	97.630140 
1407.000000	97.635620 
1406.000000	97.644917 
1405.000000	97.657948 
1404.000000	97.675975 
1403.000000	97.696277 
1402.000000	97.715248 
1401.000000	97.733561 
1400.000000	97.754012 
1399.000000	97.774571 
1398.000000	97.786738 
1397.000000	97.784257 
1396.000000	97.769664 
1395.000000	97.756149 
1394.000000	97.759010 
1393.000000	97.783153 
1392.000000	97.821293 
1391.000000	97.860314 
1390.000000	97.889811 
1389.000000	97.906612 
1388.000000	97.913287 
1387.000000	97.914933 
1386.000000	97.916528 
1385.000000	97.921659 
1384.000000	97.932178 
1383.000000	97.946494 
1382.000000	97.961445 
1381.000000	97.975454 
1380.000000	97.989023 
1379.000000	98.003764 
1378.000000	98.020850 
1377.000000	98.040281 
1376.000000	98.060640 
1375.000000	98.079961 
1374.000000	98.097179 
1373.000000	98.114280 
1372.000000	98.134086 
1371.000000	98.157140 
1370.000000	98.180702 
1369.000000	98.201655 
1368.000000	98.220415 
1367.000000	98.238618 
1366.000000	98.256623 
1365.000000	98.274098 
1364.000000	98.290205 
1363.000000	98.303359 
1362.000000	98.313172 
1361.000000	98.322506 
1360.000000	98.335538 
1359.000000	98.353671 
1358.000000	98.373837 
1357.000000	98.391686 
1356.000000	98.405660 
1355.000000	98.416967 
1354.000000	98.427168 
1353.000000	98.438116 
1352.000000	98.450328 
1351.000000	98.463925 
1350.000000	98.477688 
1349.000000	98.488837 
1348.000000	98.496427 
1347.000000	98.501867 
1346.000000	98.507596 
1345.000000	98.514904 
1344.000000	98.523310 
1343.000000	98.531263 
1342.000000	98.537092 
1341.000000	98.539509 
1340.000000	98.538418 
1339.000000	98.535678 
1338.000000	98.534240 
1337.000000	98.536180 
1336.000000	98.540761 
1335.000000	98.544781 
1334.000000	98.546052 
1333.000000	98.545943 
1332.000000	98.547108 
1331.000000	98.549925 
1330.000000	98.552381 
1329.000000	98.553515 
1328.000000	98.554449 
1327.000000	98.556371 
1326.000000	98.558331 
1325.000000	98.558581 
1324.000000	98.557169 
1323.000000	98.554796 
1322.000000	98.551756 
1321.000000	98.549020 
1320.000000	98.548400 
1319.000000	98.550218 
1318.000000	98.552794 
1317.000000	98.554893 
1316.000000	98.556325 
1315.000000	98.555889 
1314.000000	98.552038 
1313.000000	98.546826 
1312.000000	98.545363 
1311.000000	98.549472 
1310.000000	98.554681 
1309.000000	98.556002 
1308.000000	98.553611 
1307.000000	98.551597 
1306.000000	98.552523 
1305.000000	98.555812 
1304.000000	98.560142 
1303.000000	98.563800 
1302.000000	98.564441 
1301.000000	98.561077 
1300.000000	98.556015 
1299.000000	98.552707 
1298.000000	98.552221 
1297.000000	98.552980 
1296.000000	98.553287 
1295.000000	98.552799 
1294.000000	98.552128 
1293.000000	98.552479 
1292.000000	98.554708 
1291.000000	98.557683 
1290.000000	98.558792 
1289.000000	98.556889 
1288.000000	98.553350 
1287.000000	98.549504 
1286.000000	98.544728 
1285.000000	98.538569 
1284.000000	98.532827 
1283.000000	98.529208 
1282.000000	98.526214 
1281.000000	98.520644 
1280.000000	98.512047 
1279.000000	98.503528 
1278.000000	98.498117 
1277.000000	98.496026 
1276.000000	98.495219 
1275.000000	98.493391 
1274.000000	98.489300 
1273.000000	98.483369 
1272.000000	98.476986 
1271.000000	98.470511 
1270.000000	98.462382 
1269.000000	98.451017 
1268.000000	98.437154 
1267.000000	98.423022 
1266.000000	98.409855 
1265.000000	98.397709 
1264.000000	98.386905 
1263.000000	98.377777 
1262.000000	98.369284 
1261.000000	98.359533 
1260.000000	98.348367 
1259.000000	98.337838 
1258.000000	98.329284 
1257.000000	98.321162 
1256.000000	98.310602 
1255.000000	98.296835 
1254.000000	98.282282 
1253.000000	98.269686 
1252.000000	98.258690 
1251.000000	98.246680 
1250.000000	98.233544 
1249.000000	98.223983 
1248.000000	98.223049 
1247.000000	98.229268 
1246.000000	98.233936 
1245.000000	98.228194 
1244.000000	98.210303 
1243.000000	98.187268 
1242.000000	98.170860 
1241.000000	98.169938 
1240.000000	98.182702 
1239.000000	98.195973 
1238.000000	98.195444 
1237.000000	98.177829 
1236.000000	98.151152 
1235.000000	98.124198 
1234.000000	98.099342 
1233.000000	98.075672 
1232.000000	98.053567 
1231.000000	98.033100 
1230.000000	98.011930 
1229.000000	97.988479 
1228.000000	97.964519 
1227.000000	97.941469 
1226.000000	97.916468 
1225.000000	97.885393 
1224.000000	97.848044 
1223.000000	97.807277 
1222.000000	97.764478 
1221.000000	97.718844 
1220.000000	97.670125 
1219.000000	97.619123 
1218.000000	97.566021 
1217.000000	97.510433 
1216.000000	97.452135 
1215.000000	97.389949 
1214.000000	97.321769 
1213.000000	97.248303 
1212.000000	97.174709 
1211.000000	97.104882 
1210.000000	97.035528 
1209.000000	96.959970 
1208.000000	96.877180 
1207.000000	96.793079 
1206.000000	96.712994 
1205.000000	96.636388 
1204.000000	96.559575 
1203.000000	96.480324 
1202.000000	96.398988 
1201.000000	96.317381 
1200.000000	96.237176 
1199.000000	96.157988 
1198.000000	96.077500 
1197.000000	95.995005 
1196.000000	95.913375 
1195.000000	95.835357 
1194.000000	95.759336 
1193.000000	95.681271 
1192.000000	95.599581 
1191.000000	95.515376 
1190.000000	95.429265 
1189.000000	95.340996 
1188.000000	95.251134 
1187.000000	95.160052 
1186.000000	95.066372 
1185.000000	94.969233 
1184.000000	94.870482 
1183.000000	94.771532 
1182.000000	94.669913 
1181.000000	94.562607 
1180.000000	94.450960 
1179.000000	94.338098 
1178.000000	94.223035 
1177.000000	94.102056 
1176.000000	93.974732 
1175.000000	93.843980 
1174.000000	93.711377 
1173.000000	93.577342 
1172.000000	93.444682 
1171.000000	93.316062 
1170.000000	93.188704 
1169.000000	93.057892 
1168.000000	92.925947 
1167.000000	92.802279 
1166.000000	92.695398 
1165.000000	92.611486 
1164.000000	92.559875 
1163.000000	92.550755 
1162.000000	92.584168 
1161.000000	92.645904 
1160.000000	92.715162 
1159.000000	92.772177 
1158.000000	92.800494 
1157.000000	92.790244 
1156.000000	92.741840 
1155.000000	92.662858 
1154.000000	92.560984 
1153.000000	92.443198 
1152.000000	92.319607 
1151.000000	92.200672 
1150.000000	92.089335 
1149.000000	91.981537 
1148.000000	91.874891 
1147.000000	91.770725 
1146.000000	91.667686 
1145.000000	91.560874 
1144.000000	91.449116 
1143.000000	91.336871 
1142.000000	91.227282 
1141.000000	91.119128 
1140.000000	91.011764 
1139.000000	90.906944 
1138.000000	90.804437 
1137.000000	90.701622 
1136.000000	90.598302 
1135.000000	90.496244 
1134.000000	90.393745 
1133.000000	90.287052 
1132.000000	90.177394 
1131.000000	90.069829 
1130.000000	89.964812 
1129.000000	89.857952 
1128.000000	89.748412 
1127.000000	89.639925 
1126.000000	89.532827 
1125.000000	89.422987 
1124.000000	89.309800 
1123.000000	89.197650 
1122.000000	89.088196 
1121.000000	88.978685 
1120.000000	88.868742 
1119.000000	88.760932 
1118.000000	88.654003 
1117.000000	88.544141 
1116.000000	88.433371 
1115.000000	88.327934 
1114.000000	88.227885 
1113.000000	88.127600 
1112.000000	88.026645 
1111.000000	87.929632 
1110.000000	87.835564 
1109.000000	87.738514 
1108.000000	87.638170 
1107.000000	87.539480 
1106.000000	87.442605 
1105.000000	87.343664 
1104.000000	87.245068 
1103.000000	87.153952 
1102.000000	87.069896 
1101.000000	86.985864 
1100.000000	86.900929 
1099.000000	86.821266 
1098.000000	86.748667 
1097.000000	86.678688 
1096.000000	86.610318 
1095.000000	86.545362 
1094.000000	86.478286 
1093.000000	86.399406 
1092.000000	86.310055 
1091.000000	86.223318 
1090.000000	86.148243 
1089.000000	86.083525 
1088.000000	86.026206 
1087.000000	85.974565 
1086.000000	85.922673 
1085.000000	85.865061 
1084.000000	85.807491 
1083.000000	85.760735 
1082.000000	85.723715 
1081.000000	85.685989 
1080.000000	85.646774 
1079.000000	85.616824 
1078.000000	85.600098 
1077.000000	85.588114 
1076.000000	85.574485 
1075.000000	85.560545 
1074.000000	85.544396 
1073.000000	85.518430 
1072.000000	85.478879 
1071.000000	85.422578 
1070.000000	85.333239 
1069.000000	85.190088 
1068.000000	84.997383 
1067.000000	84.792200 
1066.000000	84.613914 
1065.000000	84.473987 
1064.000000	84.359841 
1063.000000	84.252482 
1062.000000	84.132424 
1061.000000	83.983956 
1060.000000	83.807825 
1059.000000	83.624985 
1058.000000	83.459936 
1057.000000	83.323182 
1056.000000	83.210778 
1055.000000	83.111415 
1054.000000	83.011326 
1053.000000	82.902694 
1052.000000	82.791834 
1051.000000	82.691242 
1050.000000	82.602353 
1049.000000	82.516284 
1048.000000	82.430253 
1047.000000	82.349180 
1046.000000	82.272309 
1045.000000	82.193160 
1044.000000	82.112321 
1043.000000	82.036564 
1042.000000	81.964987 
1041.000000	81.888906 
1040.000000	81.806886 
1039.000000	81.728665 
1038.000000	81.663637 
1037.000000	81.615747 
1036.000000	81.587797 
1035.000000	81.578543 
1034.000000	81.577159 
1033.000000	81.572239 
1032.000000	81.562999 
1031.000000	81.550332 
1030.000000	81.525341 
1029.000000	81.484531 
1028.000000	81.449768 
1027.000000	81.450819 
1026.000000	81.488752 
1025.000000	81.535476 
1024.000000	81.569138 
1023.000000	81.590569 
1022.000000	81.605132 
1021.000000	81.611008 
1020.000000	81.609612 
1019.000000	81.608719 
1018.000000	81.610145 
1017.000000	81.609326 
1016.000000	81.609172 
1015.000000	81.618666 
1014.000000	81.636407 
1013.000000	81.651905 
1012.000000	81.664473 
1011.000000	81.684231 
1010.000000	81.713212 
1009.000000	81.742517 
1008.000000	81.770039 
1007.000000	81.804417 
1006.000000	81.849503 
1005.000000	81.900774 
1004.000000	81.958042 
1003.000000	82.025015 
1002.000000	82.095162 
1001.000000	82.155569 
1000.000000	82.207488 
999.000000	 82.266438 
998.000000	 82.339347 
997.000000	 82.417675 
996.000000	 82.495314 
995.000000	 82.577096 
994.000000	 82.666190 
993.000000	 82.758371 
992.000000	 82.851974 
991.000000	 82.949532 
990.000000	 83.047728 
989.000000	 83.140088 
988.000000	 83.231072 
987.000000	 83.332782 
986.000000	 83.446714 
985.000000	 83.563923 
984.000000	 83.683701 
983.000000	 83.815455 
982.000000	 83.960646 
981.000000	 84.109038 
980.000000	 84.255284 
979.000000	 84.404239 
978.000000	 84.557255 
977.000000	 84.708900 
976.000000	 84.860330 
975.000000	 85.020700 
974.000000	 85.191500 
973.000000	 85.363337 
972.000000	 85.531797 
971.000000	 85.703244 
970.000000	 85.881414 
969.000000	 86.060862 
968.000000	 86.237153 
967.000000	 86.412154 
966.000000	 86.586603 
965.000000	 86.758346 
964.000000	 86.929638 
963.000000	 87.105296 
962.000000	 87.282311 
961.000000	 87.452160 
960.000000	 87.613953 
959.000000	 87.774180 
958.000000	 87.933310 
957.000000	 88.084614 
956.000000	 88.227228 
955.000000	 88.368824 
954.000000	 88.513853 
953.000000	 88.659413 
952.000000	 88.803097 
951.000000	 88.943951 
950.000000	 89.076059 
949.000000	 89.193361 
948.000000	 89.301490 
947.000000	 89.413177 
946.000000	 89.530504 
945.000000	 89.643181 
944.000000	 89.745641 
943.000000	 89.844040 
942.000000	 89.944544 
941.000000	 90.045971 
940.000000	 90.146912 
939.000000	 90.249659 
938.000000	 90.353809 
937.000000	 90.454799 
936.000000	 90.551385 
935.000000	 90.646981 
934.000000	 90.742696 
933.000000	 90.837048 
932.000000	 90.932518 
931.000000	 91.033636 
930.000000	 91.138217 
929.000000	 91.238946 
928.000000	 91.333932 
927.000000	 91.427621 
926.000000	 91.521586 
925.000000	 91.612223 
924.000000	 91.696887 
923.000000	 91.774971 
922.000000	 91.844714 
921.000000	 91.907048 
920.000000	 91.970210 
919.000000	 92.041326 
918.000000	 92.115319 
917.000000	 92.181050 
916.000000	 92.236828 
915.000000	 92.291448 
914.000000	 92.352137 
913.000000	 92.420520 
912.000000	 92.498150 
911.000000	 92.585988 
910.000000	 92.679679 
909.000000	 92.774701 
908.000000	 92.874528 
907.000000	 92.984962 
906.000000	 93.103353 
905.000000	 93.222801 
904.000000	 93.343432 
903.000000	 93.469081 
902.000000	 93.596274 
901.000000	 93.717891 
900.000000	 93.835306 
899.000000	 93.955951 
898.000000	 94.080834 
897.000000	 94.204386 
896.000000	 94.323656 
895.000000	 94.437286 
894.000000	 94.539602 
893.000000	 94.627965 
892.000000	 94.713002 
891.000000	 94.808645 
890.000000	 94.912543 
889.000000	 95.007427 
888.000000	 95.079938 
887.000000	 95.127831 
886.000000	 95.153628 
885.000000	 95.164578 
884.000000	 95.175268 
883.000000	 95.194774 
882.000000	 95.212918 
881.000000	 95.215726 
880.000000	 95.213848 
879.000000	 95.236988 
878.000000	 95.298057 
877.000000	 95.381407 
876.000000	 95.469540 
875.000000	 95.563195 
874.000000	 95.669201 
873.000000	 95.787277 
872.000000	 95.916920 
871.000000	 96.061031 
870.000000	 96.213969 
869.000000	 96.359177 
868.000000	 96.486232 
867.000000	 96.599631 
866.000000	 96.706086 
865.000000	 96.805004 
864.000000	 96.897431 
863.000000	 96.992804 
862.000000	 97.097932 
861.000000	 97.206681 
860.000000	 97.307864 
859.000000	 97.397884 
858.000000	 97.480713 
857.000000	 97.560690 
856.000000	 97.639356 
855.000000	 97.714899 
854.000000	 97.782081 
853.000000	 97.836836 
852.000000	 97.881846 
851.000000	 97.923752 
850.000000	 97.966637 
849.000000	 98.013494 
848.000000	 98.069676 
847.000000	 98.135357 
846.000000	 98.197791 
845.000000	 98.242888 
844.000000	 98.273383 
843.000000	 98.304313 
842.000000	 98.341330 
841.000000	 98.375291 
840.000000	 98.397902 
839.000000	 98.409574 
838.000000	 98.411238 
837.000000	 98.402487 
836.000000	 98.391253 
835.000000	 98.392222 
834.000000	 98.409360 
833.000000	 98.429907 
832.000000	 98.440965 
831.000000	 98.443009 
830.000000	 98.442973 
829.000000	 98.444310 
828.000000	 98.450207 
827.000000	 98.467152 
826.000000	 98.497015 
825.000000	 98.532134 
824.000000	 98.563959 
823.000000	 98.589496 
822.000000	 98.605887 
821.000000	 98.608144 
820.000000	 98.595971 
819.000000	 98.574028 
818.000000	 98.542128 
817.000000	 98.492138 
816.000000	 98.416674 
815.000000	 98.314509 
814.000000	 98.185467 
813.000000	 98.025583 
812.000000	 97.828227 
811.000000	 97.583468 
810.000000	 97.275549 
809.000000	 96.889384 
808.000000	 96.423570 
807.000000	 95.892844 
806.000000	 95.317712 
805.000000	 94.719029 
804.000000	 94.122914 
803.000000	 93.558737 
802.000000	 93.047289 
801.000000	 92.601226 
800.000000	 92.239554 
799.000000	 91.986745 
798.000000	 91.851408 
797.000000	 91.818179 
796.000000	 91.863819 
795.000000	 91.967505 
794.000000	 92.104198 
793.000000	 92.246285 
792.000000	 92.378169 
791.000000	 92.496812 
790.000000	 92.595143 
789.000000	 92.657143 
788.000000	 92.670394 
787.000000	 92.630716 
786.000000	 92.534021 
785.000000	 92.377378 
784.000000	 92.170381 
783.000000	 91.933781 
782.000000	 91.686985 
781.000000	 91.450261 
780.000000	 91.256695 
779.000000	 91.141603 
778.000000	 91.115731 
777.000000	 91.165012 
776.000000	 91.277927 
775.000000	 91.453478 
774.000000	 91.679634 
773.000000	 91.926441 
772.000000	 92.168956 
771.000000	 92.401102 
770.000000	 92.622339 
769.000000	 92.827381 
768.000000	 93.013981 
767.000000	 93.184885 
766.000000	 93.337170 
765.000000	 93.464854 
764.000000	 93.576330 
763.000000	 93.693389 
762.000000	 93.827254 
761.000000	 93.969161 
760.000000	 94.108126 
759.000000	 94.242720 
758.000000	 94.371945 
757.000000	 94.492227 
756.000000	 94.610356 
755.000000	 94.742940 
754.000000	 94.893081 
753.000000	 95.039628 
752.000000	 95.157665 
751.000000	 95.240903 
750.000000	 95.301260 
749.000000	 95.357479 
748.000000	 95.426769 
747.000000	 95.514904 
746.000000	 95.609480 
745.000000	 95.693809 
744.000000	 95.770101 
743.000000	 95.856729 
742.000000	 95.961229 
741.000000	 96.070896 
740.000000	 96.172480 
739.000000	 96.265440 
738.000000	 96.351787 
737.000000	 96.427820 
736.000000	 96.491915 
735.000000	 96.548326 
734.000000	 96.599755 
733.000000	 96.647239 
732.000000	 96.697220 
731.000000	 96.754239 
730.000000	 96.806828 
729.000000	 96.838404 
728.000000	 96.850549 
727.000000	 96.861936 
726.000000	 96.888324 
725.000000	 96.934364 
724.000000	 97.001636 
723.000000	 97.088573 
722.000000	 97.181104 
721.000000	 97.259186 
720.000000	 97.316977 
719.000000	 97.365176 
718.000000	 97.410833 
717.000000	 97.448910 
716.000000	 97.477758 
715.000000	 97.506069 
714.000000	 97.539964 
713.000000	 97.578755 
712.000000	 97.625796 
711.000000	 97.687566 
710.000000	 97.755901 
709.000000	 97.814987 
708.000000	 97.858814 
707.000000	 97.890066 
706.000000	 97.908124 
705.000000	 97.905588 
704.000000	 97.877077 
703.000000	 97.823177 
702.000000	 97.737842 
701.000000	 97.604082 
700.000000	 97.411377 
699.000000	 97.165884 
698.000000	 96.888692 
697.000000	 96.615098 
696.000000	 96.392708 
695.000000	 96.267729 
694.000000	 96.256837 
693.000000	 96.340331 
692.000000	 96.485729 
691.000000	 96.663132 
690.000000	 96.846104 
689.000000	 97.013069 
688.000000	 97.154303 
687.000000	 97.272669 
686.000000	 97.369696 
685.000000	 97.443986 
684.000000	 97.504016 
683.000000	 97.562704 
682.000000	 97.622393 
681.000000	 97.678114 
680.000000	 97.733626 
679.000000	 97.794529 
678.000000	 97.853394 
677.000000	 97.903464 
676.000000	 97.950271 
675.000000	 98.002694 
674.000000	 98.055988 
673.000000	 98.088677 
672.000000	 98.085811 
671.000000	 98.035554 
670.000000	 97.927716 
669.000000	 97.763619 
668.000000	 97.670824 
667.000000	 97.794247 
666.000000	 98.021507 
665.000000	 98.192628 
664.000000	 98.293693 
663.000000	 98.352600 
662.000000	 98.391645 
661.000000	 98.423469 
660.000000	 98.453324 
659.000000	 98.484405 
658.000000	 98.514333 
657.000000	 98.539124 
656.000000	 98.552727 
655.000000	 98.552535 
654.000000	 98.542897 
653.000000	 98.530141 
652.000000	 98.520761 
651.000000	 98.524448 
650.000000	 98.546868 

