4000.000000	97.619514 
3999.000000	97.618439 
3998.000000	97.614662 
3997.000000	97.609648 
3996.000000	97.605433 
3995.000000	97.603115 
3994.000000	97.602744 
3993.000000	97.603458 
3992.000000	97.604129 
3991.000000	97.604307 
3990.000000	97.604276 
3989.000000	97.604329 
3988.000000	97.604249 
3987.000000	97.603727 
3986.000000	97.603090 
3985.000000	97.603066 
3984.000000	97.603813 
3983.000000	97.604730 
3982.000000	97.605326 
3981.000000	97.605722 
3980.000000	97.606066 
3979.000000	97.605963 
3978.000000	97.605034 
3977.000000	97.603680 
3976.000000	97.602664 
3975.000000	97.602063 
3974.000000	97.601233 
3973.000000	97.599795 
3972.000000	97.598064 
3971.000000	97.596538 
3970.000000	97.595452 
3969.000000	97.594865 
3968.000000	97.594896 
3967.000000	97.595562 
3966.000000	97.596523 
3965.000000	97.597110 
3964.000000	97.596726 
3963.000000	97.595298 
3962.000000	97.593437 
3961.000000	97.592049 
3960.000000	97.591466 
3959.000000	97.591339 
3958.000000	97.591308 
3957.000000	97.591362 
3956.000000	97.591521 
3955.000000	97.591453 
3954.000000	97.590775 
3953.000000	97.589513 
3952.000000	97.588108 
3951.000000	97.587079 
3950.000000	97.586644 
3949.000000	97.586691 
3948.000000	97.586943 
3947.000000	97.587105 
3946.000000	97.586889 
3945.000000	97.586154 
3944.000000	97.585189 
3943.000000	97.584658 
3942.000000	97.585005 
3941.000000	97.586118 
3940.000000	97.587304 
3939.000000	97.587936 
3938.000000	97.588052 
3937.000000	97.587991 
3936.000000	97.587809 
3935.000000	97.587220 
3934.000000	97.586255 
3933.000000	97.585462 
3932.000000	97.585204 
3931.000000	97.585192 
3930.000000	97.584961 
3929.000000	97.584599 
3928.000000	97.584552 
3927.000000	97.584794 
3926.000000	97.584948 
3925.000000	97.585000 
3924.000000	97.585166 
3923.000000	97.585392 
3922.000000	97.585530 
3921.000000	97.585622 
3920.000000	97.585706 
3919.000000	97.585821 
3918.000000	97.585963 
3917.000000	97.586110 
3916.000000	97.586249 
3915.000000	97.586381 
3914.000000	97.586509 
3913.000000	97.586628 
3912.000000	97.586728 
3911.000000	97.586806 
3910.000000	97.586870 
3909.000000	97.586929 
3908.000000	97.586978 
3907.000000	97.587007 
3906.000000	97.587018 
3905.000000	97.587023 
3904.000000	97.587039 
3903.000000	97.587068 
3902.000000	97.587104 
3901.000000	97.587136 
3900.000000	97.587159 
3899.000000	97.587175 
3898.000000	97.587190 
3897.000000	97.587204 
3896.000000	97.587214 
3895.000000	97.587208 
3894.000000	97.587175 
3893.000000	97.587117 
3892.000000	97.587043 
3891.000000	97.586960 
3890.000000	97.586875 
3889.000000	97.586791 
3888.000000	97.586704 
3887.000000	97.586613 
3886.000000	97.586529 
3885.000000	97.586459 
3884.000000	97.586397 
3883.000000	97.586320 
3882.000000	97.586217 
3881.000000	97.586109 
3880.000000	97.586031 
3879.000000	97.586000 
3878.000000	97.585991 
3877.000000	97.585968 
3876.000000	97.585910 
3875.000000	97.585826 
3874.000000	97.585737 
3873.000000	97.585651 
3872.000000	97.585563 
3871.000000	97.585469 
3870.000000	97.585389 
3869.000000	97.585353 
3868.000000	97.585368 
3867.000000	97.585408 
3866.000000	97.585458 
3865.000000	97.585533 
3864.000000	97.585651 
3863.000000	97.585799 
3862.000000	97.585951 
3861.000000	97.586101 
3860.000000	97.586258 
3859.000000	97.586416 
3858.000000	97.586560 
3857.000000	97.586691 
3856.000000	97.586830 
3855.000000	97.587003 
3854.000000	97.587212 
3853.000000	97.587451 
3852.000000	97.587756 
3851.000000	97.588164 
3850.000000	97.588665 
3849.000000	97.589233 
3848.000000	97.589847 
3847.000000	97.590497 
3846.000000	97.591168 
3845.000000	97.591840 
3844.000000	97.592491 
3843.000000	97.593107 
3842.000000	97.593694 
3841.000000	97.594270 
3840.000000	97.594848 
3839.000000	97.595424 
3838.000000	97.595984 
3837.000000	97.596524 
3836.000000	97.597056 
3835.000000	97.597596 
3834.000000	97.598155 
3833.000000	97.598734 
3832.000000	97.599334 
3831.000000	97.599954 
3830.000000	97.600589 
3829.000000	97.601231 
3828.000000	97.601866 
3827.000000	97.602481 
3826.000000	97.603074 
3825.000000	97.603651 
3824.000000	97.604214 
3823.000000	97.604746 
3822.000000	97.605231 
3821.000000	97.605674 
3820.000000	97.606104 
3819.000000	97.606540 
3818.000000	97.606964 
3817.000000	97.607366 
3816.000000	97.607777 
3815.000000	97.608231 
3814.000000	97.608728 
3813.000000	97.609232 
3812.000000	97.609719 
3811.000000	97.610195 
3810.000000	97.610666 
3809.000000	97.611099 
3808.000000	97.611457 
3807.000000	97.611737 
3806.000000	97.611968 
3805.000000	97.612172 
3804.000000	97.612351 
3803.000000	97.612502 
3802.000000	97.612654 
3801.000000	97.612845 
3800.000000	97.613094 
3799.000000	97.613379 
3798.000000	97.613670 
3797.000000	97.613963 
3796.000000	97.614270 
3795.000000	97.614586 
3794.000000	97.614889 
3793.000000	97.615163 
3792.000000	97.615401 
3791.000000	97.615610 
3790.000000	97.615791 
3789.000000	97.615940 
3788.000000	97.616048 
3787.000000	97.616115 
3786.000000	97.616151 
3785.000000	97.616179 
3784.000000	97.616222 
3783.000000	97.616281 
3782.000000	97.616334 
3781.000000	97.616369 
3780.000000	97.616396 
3779.000000	97.616433 
3778.000000	97.616487 
3777.000000	97.616547 
3776.000000	97.616605 
3775.000000	97.616665 
3774.000000	97.616722 
3773.000000	97.616757 
3772.000000	97.616756 
3771.000000	97.616724 
3770.000000	97.616675 
3769.000000	97.616616 
3768.000000	97.616540 
3767.000000	97.616442 
3766.000000	97.616332 
3765.000000	97.616230 
3764.000000	97.616138 
3763.000000	97.616035 
3762.000000	97.615897 
3761.000000	97.615717 
3760.000000	97.615497 
3759.000000	97.615227 
3758.000000	97.614892 
3757.000000	97.614492 
3756.000000	97.614043 
3755.000000	97.613563 
3754.000000	97.613002 
3753.000000	97.612318 
3752.000000	97.611720 
3751.000000	97.611242 
3750.000000	97.610173 
3749.000000	97.608606 
3748.000000	97.607687 
3747.000000	97.607062 
3746.000000	97.605637 
3745.000000	97.603914 
3744.000000	97.603442 
3743.000000	97.606252 
3742.000000	97.610161 
3741.000000	97.609285 
3740.000000	97.603646 
3739.000000	97.599057 
3738.000000	97.599167 
3737.000000	97.601375 
3736.000000	97.602055 
3735.000000	97.601565 
3734.000000	97.600113 
3733.000000	97.594979 
3732.000000	97.587007 
3731.000000	97.582863 
3730.000000	97.585582 
3729.000000	97.589306 
3728.000000	97.587980 
3727.000000	97.583802 
3726.000000	97.582622 
3725.000000	97.584344 
3724.000000	97.582690 
3723.000000	97.575304 
3722.000000	97.566183 
3721.000000	97.559269 
3720.000000	97.553975 
3719.000000	97.547187 
3718.000000	97.539498 
3717.000000	97.534875 
3716.000000	97.534731 
3715.000000	97.535729 
3714.000000	97.535827 
3713.000000	97.537659 
3712.000000	97.540479 
3711.000000	97.537027 
3710.000000	97.524217 
3709.000000	97.505294 
3708.000000	97.484546 
3707.000000	97.465301 
3706.000000	97.449186 
3705.000000	97.435419 
3704.000000	97.421523 
3703.000000	97.405394 
3702.000000	97.386229 
3701.000000	97.366027 
3700.000000	97.349274 
3699.000000	97.336431 
3698.000000	97.324391 
3697.000000	97.314177 
3696.000000	97.310238 
3695.000000	97.312714 
3694.000000	97.315261 
3693.000000	97.312109 
3692.000000	97.302728 
3691.000000	97.288196 
3690.000000	97.268056 
3689.000000	97.244568 
3688.000000	97.228007 
3687.000000	97.226031 
3686.000000	97.231160 
3685.000000	97.230676 
3684.000000	97.223471 
3683.000000	97.217045 
3682.000000	97.213914 
3681.000000	97.207569 
3680.000000	97.193769 
3679.000000	97.177307 
3678.000000	97.161343 
3677.000000	97.141558 
3676.000000	97.111995 
3675.000000	97.079758 
3674.000000	97.061988 
3673.000000	97.053205 
3672.000000	97.033611 
3671.000000	97.003881 
3670.000000	96.977931 
3669.000000	96.961636 
3668.000000	96.950751 
3667.000000	96.937127 
3666.000000	96.918578 
3665.000000	96.900030 
3664.000000	96.884768 
3663.000000	96.870173 
3662.000000	96.852498 
3661.000000	96.831535 
3660.000000	96.810109 
3659.000000	96.789911 
3658.000000	96.769137 
3657.000000	96.745605 
3656.000000	96.720964 
3655.000000	96.702275 
3654.000000	96.688506 
3653.000000	96.668348 
3652.000000	96.640353 
3651.000000	96.617632 
3650.000000	96.603279 
3649.000000	96.580527 
3648.000000	96.543712 
3647.000000	96.510333 
3646.000000	96.493639 
3645.000000	96.488529 
3644.000000	96.483825 
3643.000000	96.475770 
3642.000000	96.468195 
3641.000000	96.462003 
3640.000000	96.451992 
3639.000000	96.434081 
3638.000000	96.412278 
3637.000000	96.393186 
3636.000000	96.375197 
3635.000000	96.351617 
3634.000000	96.322191 
3633.000000	96.294280 
3632.000000	96.271050 
3631.000000	96.251164 
3630.000000	96.236175 
3629.000000	96.222801 
3628.000000	96.207678 
3627.000000	96.196586 
3626.000000	96.182727 
3625.000000	96.159555 
3624.000000	96.137104 
3623.000000	96.123464 
3622.000000	96.113894 
3621.000000	96.102270 
3620.000000	96.092437 
3619.000000	96.092103 
3618.000000	96.105359 
3617.000000	96.129528 
3616.000000	96.155876 
3615.000000	96.179470 
3614.000000	96.203424 
3613.000000	96.231863 
3612.000000	96.263118 
3611.000000	96.289944 
3610.000000	96.306896 
3609.000000	96.315759 
3608.000000	96.320864 
3607.000000	96.324050 
3606.000000	96.325312 
3605.000000	96.326371 
3604.000000	96.332646 
3603.000000	96.347715 
3602.000000	96.366758 
3601.000000	96.380469 
3600.000000	96.384846 
3599.000000	96.382816 
3598.000000	96.380400 
3597.000000	96.384255 
3596.000000	96.396679 
3595.000000	96.413259 
3594.000000	96.425719 
3593.000000	96.429719 
3592.000000	96.426456 
3591.000000	96.419240 
3590.000000	96.411997 
3589.000000	96.409266 
3588.000000	96.412075 
3587.000000	96.417759 
3586.000000	96.424775 
3585.000000	96.432027 
3584.000000	96.438718 
3583.000000	96.446769 
3582.000000	96.457645 
3581.000000	96.469120 
3580.000000	96.477197 
3579.000000	96.480301 
3578.000000	96.479508 
3577.000000	96.477145 
3576.000000	96.474649 
3575.000000	96.472092 
3574.000000	96.469035 
3573.000000	96.465226 
3572.000000	96.461015 
3571.000000	96.456705 
3570.000000	96.452504 
3569.000000	96.449549 
3568.000000	96.449684 
3567.000000	96.453117 
3566.000000	96.458206 
3565.000000	96.462266 
3564.000000	96.462285 
3563.000000	96.458805 
3562.000000	96.455856 
3561.000000	96.456343 
3560.000000	96.459289 
3559.000000	96.461808 
3558.000000	96.462318 
3557.000000	96.461634 
3556.000000	96.461658 
3555.000000	96.463002 
3554.000000	96.464630 
3553.000000	96.465345 
3552.000000	96.465055 
3551.000000	96.463951 
3550.000000	96.461502 
3549.000000	96.457829 
3548.000000	96.455195 
3547.000000	96.455581 
3546.000000	96.457711 
3545.000000	96.458721 
3544.000000	96.458099 
3543.000000	96.457808 
3542.000000	96.459279 
3541.000000	96.461986 
3540.000000	96.464597 
3539.000000	96.466153 
3538.000000	96.466499 
3537.000000	96.466060 
3536.000000	96.465450 
3535.000000	96.464992 
3534.000000	96.464511 
3533.000000	96.463893 
3532.000000	96.463453 
3531.000000	96.463593 
3530.000000	96.463986 
3529.000000	96.463706 
3528.000000	96.462252 
3527.000000	96.460125 
3526.000000	96.458203 
3525.000000	96.457024 
3524.000000	96.456870 
3523.000000	96.457858 
3522.000000	96.459592 
3521.000000	96.461098 
3520.000000	96.461709 
3519.000000	96.461699 
3518.000000	96.461747 
3517.000000	96.461873 
3516.000000	96.461305 
3515.000000	96.459611 
3514.000000	96.457451 
3513.000000	96.455955 
3512.000000	96.455489 
3511.000000	96.455441 
3510.000000	96.455007 
3509.000000	96.454088 
3508.000000	96.453194 
3507.000000	96.452574 
3506.000000	96.451748 
3505.000000	96.450136 
3504.000000	96.447827 
3503.000000	96.445631 
3502.000000	96.444405 
3501.000000	96.444354 
3500.000000	96.444962 
3499.000000	96.445456 
3498.000000	96.445330 
3497.000000	96.444461 
3496.000000	96.442881 
3495.000000	96.440653 
3494.000000	96.438105 
3493.000000	96.435931 
3492.000000	96.434669 
3491.000000	96.434096 
3490.000000	96.433356 
3489.000000	96.431810 
3488.000000	96.429507 
3487.000000	96.426779 
3486.000000	96.423750 
3485.000000	96.420543 
3484.000000	96.417556 
3483.000000	96.415153 
3482.000000	96.413237 
3481.000000	96.411541 
3480.000000	96.410098 
3479.000000	96.409042 
3478.000000	96.408071 
3477.000000	96.406514 
3476.000000	96.404017 
3475.000000	96.400881 
3474.000000	96.397783 
3473.000000	96.395177 
3472.000000	96.392954 
3471.000000	96.390631 
3470.000000	96.387840 
3469.000000	96.384728 
3468.000000	96.381930 
3467.000000	96.380050 
3466.000000	96.379080 
3465.000000	96.378284 
3464.000000	96.376679 
3463.000000	96.373720 
3462.000000	96.369572 
3461.000000	96.364968 
3460.000000	96.360731 
3459.000000	96.357257 
3458.000000	96.354374 
3457.000000	96.351587 
3456.000000	96.348532 
3455.000000	96.345268 
3454.000000	96.342137 
3453.000000	96.339584 
3452.000000	96.337927 
3451.000000	96.337034 
3450.000000	96.336044 
3449.000000	96.333871 
3448.000000	96.330205 
3447.000000	96.325827 
3446.000000	96.321792 
3445.000000	96.318480 
3444.000000	96.315743 
3443.000000	96.313510 
3442.000000	96.311622 
3441.000000	96.309340 
3440.000000	96.305779 
3439.000000	96.300824 
3438.000000	96.295315 
3437.000000	96.290237 
3436.000000	96.286191 
3435.000000	96.283649 
3434.000000	96.282886 
3433.000000	96.283470 
3432.000000	96.284192 
3431.000000	96.284044 
3430.000000	96.282984 
3429.000000	96.281522 
3428.000000	96.279782 
3427.000000	96.277327 
3426.000000	96.274087 
3425.000000	96.270999 
3424.000000	96.269163 
3423.000000	96.268441 
3422.000000	96.267465 
3421.000000	96.265313 
3420.000000	96.262632 
3419.000000	96.260713 
3418.000000	96.259859 
3417.000000	96.259284 
3416.000000	96.258263 
3415.000000	96.256716 
3414.000000	96.254754 
3413.000000	96.252355 
3412.000000	96.249718 
3411.000000	96.247448 
3410.000000	96.246141 
3409.000000	96.245977 
3408.000000	96.246698 
3407.000000	96.247656 
3406.000000	96.247995 
3405.000000	96.247137 
3404.000000	96.245186 
3403.000000	96.242747 
3402.000000	96.240411 
3401.000000	96.238550 
3400.000000	96.237450 
3399.000000	96.237255 
3398.000000	96.237678 
3397.000000	96.238023 
3396.000000	96.237719 
3395.000000	96.236790 
3394.000000	96.235728 
3393.000000	96.235021 
3392.000000	96.234807 
3391.000000	96.234886 
3390.000000	96.235000 
3389.000000	96.235136 
3388.000000	96.235579 
3387.000000	96.236616 
3386.000000	96.238148 
3385.000000	96.239563 
3384.000000	96.240121 
3383.000000	96.239604 
3382.000000	96.238636 
3381.000000	96.238239 
3380.000000	96.238810 
3379.000000	96.239773 
3378.000000	96.240374 
3377.000000	96.240707 
3376.000000	96.241529 
3375.000000	96.243090 
3374.000000	96.244630 
3373.000000	96.245235 
3372.000000	96.244851 
3371.000000	96.244262 
3370.000000	96.244251 
3369.000000	96.245003 
3368.000000	96.246275 
3367.000000	96.247729 
3366.000000	96.249020 
3365.000000	96.249844 
3364.000000	96.250142 
3363.000000	96.250215 
3362.000000	96.250503 
3361.000000	96.251247 
3360.000000	96.252432 
3359.000000	96.253975 
3358.000000	96.255821 
3357.000000	96.257871 
3356.000000	96.259917 
3355.000000	96.261698 
3354.000000	96.263071 
3353.000000	96.264135 
3352.000000	96.265198 
3351.000000	96.266544 
3350.000000	96.268230 
3349.000000	96.270064 
3348.000000	96.271749 
3347.000000	96.273102 
3346.000000	96.274173 
3345.000000	96.275189 
3344.000000	96.276295 
3343.000000	96.277369 
3342.000000	96.278192 
3341.000000	96.278795 
3340.000000	96.279492 
3339.000000	96.280508 
3338.000000	96.281792 
3337.000000	96.283189 
3336.000000	96.284630 
3335.000000	96.286107 
3334.000000	96.287559 
3333.000000	96.288915 
3332.000000	96.290193 
3331.000000	96.291467 
3330.000000	96.292761 
3329.000000	96.294046 
3328.000000	96.295322 
3327.000000	96.296644 
3326.000000	96.298056 
3325.000000	96.299530 
3324.000000	96.300974 
3323.000000	96.302307 
3322.000000	96.303537 
3321.000000	96.304736 
3320.000000	96.305985 
3319.000000	96.307303 
3318.000000	96.308661 
3317.000000	96.310019 
3316.000000	96.311345 
3315.000000	96.312621 
3314.000000	96.313842 
3313.000000	96.315014 
3312.000000	96.316162 
3311.000000	96.317312 
3310.000000	96.318482 
3309.000000	96.319680 
3308.000000	96.320900 
3307.000000	96.322114 
3306.000000	96.323278 
3305.000000	96.324387 
3304.000000	96.325510 
3303.000000	96.326748 
3302.000000	96.328152 
3301.000000	96.329682 
3300.000000	96.331215 
3299.000000	96.332605 
3298.000000	96.333755 
3297.000000	96.334689 
3296.000000	96.335612 
3295.000000	96.336787 
3294.000000	96.338337 
3293.000000	96.340186 
3292.000000	96.342151 
3291.000000	96.344091 
3290.000000	96.345933 
3289.000000	96.347610 
3288.000000	96.349078 
3287.000000	96.350363 
3286.000000	96.351520 
3285.000000	96.352548 
3284.000000	96.353419 
3283.000000	96.354218 
3282.000000	96.355203 
3281.000000	96.356591 
3280.000000	96.358303 
3279.000000	96.359955 
3278.000000	96.361244 
3277.000000	96.362268 
3276.000000	96.363367 
3275.000000	96.364663 
3274.000000	96.365953 
3273.000000	96.367117 
3272.000000	96.368408 
3271.000000	96.370168 
3270.000000	96.372383 
3269.000000	96.374631 
3268.000000	96.376446 
3267.000000	96.377710 
3266.000000	96.378714 
3265.000000	96.379965 
3264.000000	96.381780 
3263.000000	96.384052 
3262.000000	96.386358 
3261.000000	96.388355 
3260.000000	96.389988 
3259.000000	96.391353 
3258.000000	96.392552 
3257.000000	96.393777 
3256.000000	96.395351 
3255.000000	96.397404 
3254.000000	96.399589 
3253.000000	96.401376 
3252.000000	96.402609 
3251.000000	96.403559 
3250.000000	96.404479 
3249.000000	96.405350 
3248.000000	96.406160 
3247.000000	96.407191 
3246.000000	96.408816 
3245.000000	96.411081 
3244.000000	96.413583 
3243.000000	96.415791 
3242.000000	96.417480 
3241.000000	96.418825 
3240.000000	96.420132 
3239.000000	96.421571 
3238.000000	96.423225 
3237.000000	96.425255 
3236.000000	96.427822 
3235.000000	96.430731 
3234.000000	96.433399 
3233.000000	96.435396 
3232.000000	96.436914 
3231.000000	96.438546 
3230.000000	96.440617 
3229.000000	96.442910 
3228.000000	96.445070 
3227.000000	96.447156 
3226.000000	96.449639 
3225.000000	96.452860 
3224.000000	96.456521 
3223.000000	96.459872 
3222.000000	96.462418 
3221.000000	96.464333 
3220.000000	96.466168 
3219.000000	96.468199 
3218.000000	96.470275 
3217.000000	96.472212 
3216.000000	96.474189 
3215.000000	96.476679 
3214.000000	96.480032 
3213.000000	96.484105 
3212.000000	96.488208 
3211.000000	96.491546 
3210.000000	96.493853 
3209.000000	96.495637 
3208.000000	96.497737 
3207.000000	96.500451 
3206.000000	96.503291 
3205.000000	96.505653 
3204.000000	96.507602 
3203.000000	96.509802 
3202.000000	96.512720 
3201.000000	96.516114 
3200.000000	96.519371 
3199.000000	96.522240 
3198.000000	96.525076 
3197.000000	96.528334 
3196.000000	96.532030 
3195.000000	96.535821 
3194.000000	96.539519 
3193.000000	96.543311 
3192.000000	96.547414 
3191.000000	96.551645 
3190.000000	96.555483 
3189.000000	96.558577 
3188.000000	96.561079 
3187.000000	96.563580 
3186.000000	96.566671 
3185.000000	96.570491 
3184.000000	96.574657 
3183.000000	96.578610 
3182.000000	96.582102 
3181.000000	96.585256 
3180.000000	96.588271 
3179.000000	96.591212 
3178.000000	96.594127 
3177.000000	96.597171 
3176.000000	96.600498 
3175.000000	96.604114 
3174.000000	96.607916 
3173.000000	96.611796 
3172.000000	96.615630 
3171.000000	96.619254 
3170.000000	96.622595 
3169.000000	96.625767 
3168.000000	96.628972 
3167.000000	96.632308 
3166.000000	96.635741 
3165.000000	96.639178 
3164.000000	96.642535 
3163.000000	96.645781 
3162.000000	96.648966 
3161.000000	96.652185 
3160.000000	96.655503 
3159.000000	96.658912 
3158.000000	96.662370 
3157.000000	96.665837 
3156.000000	96.669288 
3155.000000	96.672711 
3154.000000	96.676108 
3153.000000	96.679496 
3152.000000	96.682892 
3151.000000	96.686301 
3150.000000	96.689711 
3149.000000	96.693110 
3148.000000	96.696497 
3147.000000	96.699886 
3146.000000	96.703305 
3145.000000	96.706767 
3144.000000	96.710269 
3143.000000	96.713783 
3142.000000	96.717275 
3141.000000	96.720729 
3140.000000	96.724166 
3139.000000	96.727630 
3138.000000	96.731144 
3137.000000	96.734699 
3136.000000	96.738248 
3135.000000	96.741747 
3134.000000	96.745184 
3133.000000	96.748600 
3132.000000	96.752054 
3131.000000	96.755558 
3130.000000	96.759068 
3129.000000	96.762566 
3128.000000	96.766121 
3127.000000	96.769817 
3126.000000	96.773617 
3125.000000	96.777334 
3124.000000	96.780802 
3123.000000	96.784004 
3122.000000	96.787020 
3121.000000	96.789955 
3120.000000	96.792936 
3119.000000	96.796106 
3118.000000	96.799535 
3117.000000	96.803166 
3116.000000	96.806911 
3115.000000	96.810743 
3114.000000	96.814635 
3113.000000	96.818464 
3112.000000	96.822074 
3111.000000	96.825463 
3110.000000	96.828788 
3109.000000	96.832175 
3108.000000	96.835609 
3107.000000	96.839078 
3106.000000	96.842659 
3105.000000	96.846359 
3104.000000	96.849944 
3103.000000	96.853062 
3102.000000	96.855588 
3101.000000	96.857764 
3100.000000	96.859999 
3099.000000	96.862601 
3098.000000	96.865741 
3097.000000	96.869528 
3096.000000	96.873853 
3095.000000	96.878150 
3094.000000	96.881701 
3093.000000	96.884268 
3092.000000	96.886380 
3091.000000	96.888767 
3090.000000	96.891627 
3089.000000	96.894632 
3088.000000	96.897397 
3087.000000	96.899854 
3086.000000	96.902279 
3085.000000	96.905006 
3084.000000	96.908020 
3083.000000	96.910874 
3082.000000	96.913181 
3081.000000	96.915133 
3080.000000	96.917334 
3079.000000	96.920091 
3078.000000	96.923185 
3077.000000	96.926445 
3076.000000	96.930168 
3075.000000	96.934540 
3074.000000	96.938924 
3073.000000	96.942380 
3072.000000	96.944701 
3071.000000	96.946334 
3070.000000	96.947540 
3069.000000	96.948358 
3068.000000	96.949346 
3067.000000	96.951386 
3066.000000	96.954484 
3065.000000	96.957502 
3064.000000	96.959444 
3063.000000	96.960412 
3062.000000	96.961092 
3061.000000	96.961946 
3060.000000	96.963218 
3059.000000	96.965171 
3058.000000	96.967998 
3057.000000	96.971711 
3056.000000	96.976034 
3055.000000	96.979959 
3054.000000	96.981761 
3053.000000	96.980552 
3052.000000	96.978010 
3051.000000	96.977517 
3050.000000	96.980779 
3049.000000	96.985978 
3048.000000	96.989699 
3047.000000	96.990123 
3046.000000	96.987702 
3045.000000	96.983829 
3044.000000	96.980097 
3043.000000	96.978475 
3042.000000	96.980718 
3041.000000	96.986661 
3040.000000	96.993491 
3039.000000	96.997577 
3038.000000	96.997245 
3037.000000	96.993591 
3036.000000	96.988970 
3035.000000	96.984958 
3034.000000	96.981861 
3033.000000	96.979594 
3032.000000	96.978253 
3031.000000	96.977823 
3030.000000	96.977962 
3029.000000	96.978214 
3028.000000	96.977920 
3027.000000	96.975860 
3026.000000	96.970950 
3025.000000	96.963909 
3024.000000	96.957481 
3023.000000	96.953860 
3022.000000	96.952334 
3021.000000	96.950597 
3020.000000	96.947856 
3019.000000	96.945194 
3018.000000	96.942977 
3017.000000	96.939576 
3016.000000	96.933311 
3015.000000	96.924645 
3014.000000	96.916065 
3013.000000	96.910311 
3012.000000	96.908536 
3011.000000	96.909161 
3010.000000	96.908599 
3009.000000	96.904339 
3008.000000	96.897333 
3007.000000	96.890408 
3006.000000	96.884443 
3005.000000	96.877653 
3004.000000	96.868844 
3003.000000	96.859585 
3002.000000	96.852411 
3001.000000	96.848234 
3000.000000	96.846102 
2999.000000	96.844150 
2998.000000	96.840195 
2997.000000	96.832870 
2996.000000	96.823167 
2995.000000	96.813752 
2994.000000	96.805779 
2993.000000	96.797537 
2992.000000	96.787195 
2991.000000	96.775856 
2990.000000	96.766687 
2989.000000	96.761793 
2988.000000	96.761054 
2987.000000	96.763276 
2986.000000	96.767276 
2985.000000	96.772152 
2984.000000	96.777517 
2983.000000	96.783490 
2982.000000	96.789889 
2981.000000	96.795602 
2980.000000	96.799233 
2979.000000	96.800118 
2978.000000	96.798487 
2977.000000	96.795298 
2976.000000	96.792379 
2975.000000	96.791881 
2974.000000	96.794764 
2973.000000	96.800197 
2972.000000	96.806882 
2971.000000	96.814390 
2970.000000	96.822679 
2969.000000	96.831156 
2968.000000	96.839150 
2967.000000	96.846705 
2966.000000	96.853999 
2965.000000	96.860475 
2964.000000	96.865555 
2963.000000	96.869854 
2962.000000	96.874741 
2961.000000	96.880879 
2960.000000	96.888019 
2959.000000	96.895980 
2958.000000	96.904854 
2957.000000	96.914146 
2956.000000	96.922433 
2955.000000	96.928255 
2954.000000	96.931349 
2953.000000	96.933181 
2952.000000	96.936173 
2951.000000	96.941692 
2950.000000	96.948354 
2949.000000	96.953008 
2948.000000	96.954003 
2947.000000	96.952884 
2946.000000	96.952464 
2945.000000	96.953921 
2944.000000	96.956538 
2943.000000	96.959440 
2942.000000	96.962248 
2941.000000	96.964468 
2940.000000	96.965730 
2939.000000	96.966823 
2938.000000	96.969265 
2937.000000	96.973415 
2936.000000	96.977772 
2935.000000	96.980453 
2934.000000	96.980717 
2933.000000	96.978954 
2932.000000	96.976188 
2931.000000	96.974011 
2930.000000	96.974159 
2929.000000	96.977245 
2928.000000	96.981970 
2927.000000	96.986082 
2926.000000	96.988253 
2925.000000	96.989052 
2924.000000	96.990279 
2923.000000	96.993301 
2922.000000	96.997661 
2921.000000	97.001327 
2920.000000	97.002759 
2919.000000	97.002700 
2918.000000	97.003274 
2917.000000	97.004991 
2916.000000	97.005489 
2915.000000	97.002157 
2914.000000	96.995663 
2913.000000	96.989967 
2912.000000	96.988465 
2911.000000	96.990729 
2910.000000	96.993359 
2909.000000	96.993636 
2908.000000	96.991844 
2907.000000	96.990145 
2906.000000	96.989819 
2905.000000	96.989900 
2904.000000	96.988417 
2903.000000	96.984874 
2902.000000	96.981532 
2901.000000	96.981785 
2900.000000	96.987148 
2899.000000	96.995916 
2898.000000	97.004594 
2897.000000	97.011022 
2896.000000	97.015412 
2895.000000	97.018754 
2894.000000	97.021495 
2893.000000	97.024183 
2892.000000	97.027989 
2891.000000	97.033317 
2890.000000	97.038634 
2889.000000	97.042219 
2888.000000	97.044677 
2887.000000	97.047976 
2886.000000	97.052083 
2885.000000	97.054686 
2884.000000	97.055099 
2883.000000	97.056390 
2882.000000	97.061910 
2881.000000	97.071146 
2880.000000	97.080757 
2879.000000	97.088940 
2878.000000	97.096553 
2877.000000	97.104070 
2876.000000	97.109996 
2875.000000	97.113180 
2874.000000	97.114885 
2873.000000	97.117270 
2872.000000	97.120891 
2871.000000	97.124880 
2870.000000	97.128751 
2869.000000	97.132657 
2868.000000	97.136372 
2867.000000	97.139391 
2866.000000	97.142043 
2865.000000	97.145454 
2864.000000	97.150343 
2863.000000	97.156652 
2862.000000	97.164249 
2861.000000	97.173043 
2860.000000	97.182255 
2859.000000	97.190630 
2858.000000	97.197954 
2857.000000	97.205614 
2856.000000	97.214946 
2855.000000	97.225256 
2854.000000	97.234131 
2853.000000	97.239715 
2852.000000	97.242108 
2851.000000	97.242858 
2850.000000	97.243597 
2849.000000	97.245160 
2848.000000	97.247633 
2847.000000	97.250771 
2846.000000	97.254283 
2845.000000	97.257914 
2844.000000	97.261440 
2843.000000	97.264720 
2842.000000	97.267748 
2841.000000	97.270576 
2840.000000	97.273114 
2839.000000	97.275152 
2838.000000	97.276714 
2837.000000	97.278243 
2836.000000	97.280322 
2835.000000	97.283256 
2834.000000	97.287096 
2833.000000	97.291972 
2832.000000	97.297921 
2831.000000	97.304206 
2830.000000	97.309178 
2829.000000	97.311426 
2828.000000	97.311166 
2827.000000	97.310323 
2826.000000	97.311038 
2825.000000	97.313988 
2824.000000	97.318148 
2823.000000	97.321893 
2822.000000	97.324234 
2821.000000	97.325174 
2820.000000	97.325214 
2819.000000	97.324737 
2818.000000	97.323941 
2817.000000	97.323284 
2816.000000	97.323626 
2815.000000	97.325568 
2814.000000	97.328603 
2813.000000	97.331227 
2812.000000	97.332215 
2811.000000	97.331749 
2810.000000	97.331217 
2809.000000	97.331930 
2808.000000	97.334094 
2807.000000	97.336985 
2806.000000	97.339774 
2805.000000	97.342154 
2804.000000	97.344235 
2803.000000	97.346102 
2802.000000	97.347712 
2801.000000	97.349162 
2800.000000	97.350763 
2799.000000	97.352639 
2798.000000	97.354383 
2797.000000	97.355420 
2796.000000	97.355702 
2795.000000	97.355865 
2794.000000	97.356589 
2793.000000	97.357936 
2792.000000	97.359492 
2791.000000	97.360948 
2790.000000	97.362327 
2789.000000	97.363704 
2788.000000	97.365003 
2787.000000	97.366163 
2786.000000	97.367315 
2785.000000	97.368649 
2784.000000	97.370165 
2783.000000	97.371677 
2782.000000	97.373022 
2781.000000	97.374239 
2780.000000	97.375503 
2779.000000	97.376934 
2778.000000	97.378503 
2777.000000	97.380060 
2776.000000	97.381458 
2775.000000	97.382676 
2774.000000	97.383833 
2773.000000	97.385064 
2772.000000	97.386375 
2771.000000	97.387679 
2770.000000	97.388953 
2769.000000	97.390282 
2768.000000	97.391714 
2767.000000	97.393150 
2766.000000	97.394428 
2765.000000	97.395510 
2764.000000	97.396502 
2763.000000	97.397503 
2762.000000	97.398509 
2761.000000	97.399476 
2760.000000	97.400426 
2759.000000	97.401426 
2758.000000	97.402500 
2757.000000	97.403591 
2756.000000	97.404630 
2755.000000	97.405616 
2754.000000	97.406605 
2753.000000	97.407641 
2752.000000	97.408711 
2751.000000	97.409771 
2750.000000	97.410798 
2749.000000	97.411796 
2748.000000	97.412772 
2747.000000	97.413720 
2746.000000	97.414644 
2745.000000	97.415560 
2744.000000	97.416477 
2743.000000	97.417395 
2742.000000	97.418312 
2741.000000	97.419224 
2740.000000	97.420130 
2739.000000	97.421032 
2738.000000	97.421928 
2737.000000	97.422820 
2736.000000	97.423706 
2735.000000	97.424591 
2734.000000	97.425477 
2733.000000	97.426364 
2732.000000	97.427250 
2731.000000	97.428133 
2730.000000	97.429012 
2729.000000	97.429887 
2728.000000	97.430757 
2727.000000	97.431616 
2726.000000	97.432462 
2725.000000	97.433294 
2724.000000	97.434117 
2723.000000	97.434939 
2722.000000	97.435763 
2721.000000	97.436592 
2720.000000	97.437427 
2719.000000	97.438272 
2718.000000	97.439128 
2717.000000	97.439991 
2716.000000	97.440854 
2715.000000	97.441710 
2714.000000	97.442559 
2713.000000	97.443403 
2712.000000	97.444241 
2711.000000	97.445069 
2710.000000	97.445886 
2709.000000	97.446691 
2708.000000	97.447490 
2707.000000	97.448288 
2706.000000	97.449085 
2705.000000	97.449877 
2704.000000	97.450659 
2703.000000	97.451425 
2702.000000	97.452171 
2701.000000	97.452894 
2700.000000	97.453597 
2699.000000	97.454283 
2698.000000	97.454954 
2697.000000	97.455608 
2696.000000	97.456233 
2695.000000	97.456817 
2694.000000	97.457359 
2693.000000	97.457868 
2692.000000	97.458357 
2691.000000	97.458832 
2690.000000	97.459289 
2689.000000	97.459732 
2688.000000	97.460164 
2687.000000	97.460584 
2686.000000	97.460985 
2685.000000	97.461373 
2684.000000	97.461763 
2683.000000	97.462149 
2682.000000	97.462501 
2681.000000	97.462796 
2680.000000	97.463050 
2679.000000	97.463306 
2678.000000	97.463600 
2677.000000	97.463943 
2676.000000	97.464298 
2675.000000	97.464549 
2674.000000	97.464586 
2673.000000	97.464437 
2672.000000	97.464289 
2671.000000	97.464288 
2670.000000	97.464388 
2669.000000	97.464460 
2668.000000	97.464459 
2667.000000	97.464429 
2666.000000	97.464364 
2665.000000	97.464198 
2664.000000	97.463933 
2663.000000	97.463697 
2662.000000	97.463603 
2661.000000	97.463613 
2660.000000	97.463599 
2659.000000	97.463483 
2658.000000	97.463295 
2657.000000	97.463105 
2656.000000	97.462941 
2655.000000	97.462772 
2654.000000	97.462533 
2653.000000	97.462187 
2652.000000	97.461796 
2651.000000	97.461510 
2650.000000	97.461441 
2649.000000	97.461558 
2648.000000	97.461722 
2647.000000	97.461796 
2646.000000	97.461719 
2645.000000	97.461468 
2644.000000	97.461064 
2643.000000	97.460607 
2642.000000	97.460245 
2641.000000	97.460066 
2640.000000	97.460032 
2639.000000	97.460039 
2638.000000	97.460034 
2637.000000	97.460034 
2636.000000	97.460055 
2635.000000	97.460101 
2634.000000	97.460186 
2633.000000	97.460310 
2632.000000	97.460381 
2631.000000	97.460262 
2630.000000	97.459928 
2629.000000	97.459545 
2628.000000	97.459317 
2627.000000	97.459297 
2626.000000	97.459411 
2625.000000	97.459631 
2624.000000	97.460032 
2623.000000	97.460623 
2622.000000	97.461200 
2621.000000	97.461431 
2620.000000	97.461116 
2619.000000	97.460314 
2618.000000	97.459361 
2617.000000	97.458715 
2616.000000	97.458648 
2615.000000	97.459070 
2614.000000	97.459577 
2613.000000	97.459850 
2612.000000	97.459958 
2611.000000	97.460174 
2610.000000	97.460614 
2609.000000	97.461140 
2608.000000	97.461575 
2607.000000	97.461871 
2606.000000	97.462110 
2605.000000	97.462405 
2604.000000	97.462806 
2603.000000	97.463261 
2602.000000	97.463691 
2601.000000	97.464098 
2600.000000	97.464507 
2599.000000	97.464781 
2598.000000	97.464690 
2597.000000	97.464249 
2596.000000	97.463809 
2595.000000	97.463621 
2594.000000	97.463487 
2593.000000	97.463164 
2592.000000	97.462986 
2591.000000	97.463589 
2590.000000	97.465045 
2589.000000	97.466573 
2588.000000	97.467355 
2587.000000	97.467353 
2586.000000	97.467124 
2585.000000	97.467158 
2584.000000	97.467602 
2583.000000	97.468386 
2582.000000	97.469298 
2581.000000	97.470021 
2580.000000	97.470412 
2579.000000	97.470658 
2578.000000	97.471030 
2577.000000	97.471600 
2576.000000	97.472334 
2575.000000	97.473234 
2574.000000	97.474189 
2573.000000	97.474849 
2572.000000	97.474885 
2571.000000	97.474233 
2570.000000	97.473062 
2569.000000	97.471745 
2568.000000	97.470900 
2567.000000	97.471055 
2566.000000	97.471990 
2565.000000	97.472713 
2564.000000	97.472534 
2563.000000	97.471932 
2562.000000	97.471942 
2561.000000	97.472976 
2560.000000	97.474708 
2559.000000	97.476789 
2558.000000	97.479083 
2557.000000	97.481234 
2556.000000	97.482666 
2555.000000	97.483217 
2554.000000	97.483323 
2553.000000	97.483381 
2552.000000	97.483372 
2551.000000	97.483374 
2550.000000	97.483889 
2549.000000	97.485092 
2548.000000	97.486127 
2547.000000	97.485928 
2546.000000	97.484609 
2545.000000	97.483506 
2544.000000	97.483613 
2543.000000	97.484505 
2542.000000	97.485170 
2541.000000	97.485406 
2540.000000	97.485805 
2539.000000	97.486596 
2538.000000	97.487255 
2537.000000	97.487372 
2536.000000	97.487349 
2535.000000	97.487812 
2534.000000	97.488675 
2533.000000	97.489235 
2532.000000	97.489140 
2531.000000	97.488824 
2530.000000	97.488871 
2529.000000	97.489259 
2528.000000	97.489490 
2527.000000	97.489360 
2526.000000	97.489330 
2525.000000	97.490046 
2524.000000	97.491693 
2523.000000	97.493869 
2522.000000	97.495920 
2521.000000	97.497370 
2520.000000	97.498097 
2519.000000	97.498259 
2518.000000	97.498128 
2517.000000	97.497871 
2516.000000	97.497416 
2515.000000	97.496612 
2514.000000	97.495580 
2513.000000	97.494840 
2512.000000	97.494901 
2511.000000	97.495832 
2510.000000	97.497320 
2509.000000	97.498994 
2508.000000	97.500522 
2507.000000	97.501531 
2506.000000	97.501865 
2505.000000	97.501993 
2504.000000	97.502710 
2503.000000	97.504100 
2502.000000	97.505181 
2501.000000	97.505017 
2500.000000	97.503850 
2499.000000	97.502836 
2498.000000	97.502693 
2497.000000	97.503119 
2496.000000	97.503588 
2495.000000	97.504151 
2494.000000	97.505083 
2493.000000	97.506197 
2492.000000	97.507047 
2491.000000	97.507616 
2490.000000	97.508312 
2489.000000	97.509268 
2488.000000	97.510038 
2487.000000	97.510172 
2486.000000	97.509823 
2485.000000	97.509619 
2484.000000	97.510059 
2483.000000	97.511146 
2482.000000	97.512438 
2481.000000	97.513329 
2480.000000	97.513450 
2479.000000	97.512983 
2478.000000	97.512653 
2477.000000	97.513144 
2476.000000	97.514296 
2475.000000	97.515050 
2474.000000	97.514445 
2473.000000	97.512608 
2472.000000	97.510586 
2471.000000	97.509158 
2470.000000	97.508201 
2469.000000	97.507351 
2468.000000	97.506741 
2467.000000	97.506681 
2466.000000	97.506997 
2465.000000	97.507225 
2464.000000	97.507400 
2463.000000	97.508137 
2462.000000	97.509823 
2461.000000	97.512121 
2460.000000	97.514354 
2459.000000	97.516106 
2458.000000	97.517143 
2457.000000	97.517067 
2456.000000	97.515523 
2455.000000	97.512846 
2454.000000	97.510204 
2453.000000	97.508654 
2452.000000	97.508198 
2451.000000	97.508066 
2450.000000	97.507923 
2449.000000	97.508371 
2448.000000	97.509963 
2447.000000	97.512176 
2446.000000	97.513792 
2445.000000	97.514206 
2444.000000	97.513837 
2443.000000	97.513344 
2442.000000	97.512930 
2441.000000	97.512564 
2440.000000	97.512490 
2439.000000	97.513145 
2438.000000	97.514698 
2437.000000	97.516856 
2436.000000	97.519022 
2435.000000	97.520602 
2434.000000	97.521346 
2433.000000	97.521529 
2432.000000	97.521748 
2431.000000	97.522446 
2430.000000	97.523705 
2429.000000	97.525410 
2428.000000	97.527369 
2427.000000	97.529232 
2426.000000	97.530320 
2425.000000	97.529722 
2424.000000	97.527281 
2423.000000	97.524430 
2422.000000	97.523210 
2421.000000	97.524939 
2420.000000	97.529604 
2419.000000	97.535535 
2418.000000	97.540158 
2417.000000	97.542075 
2416.000000	97.542271 
2415.000000	97.542444 
2414.000000	97.543066 
2413.000000	97.543982 
2412.000000	97.545624 
2411.000000	97.548228 
2410.000000	97.550593 
2409.000000	97.551278 
2408.000000	97.550740 
2407.000000	97.550872 
2406.000000	97.552440 
2405.000000	97.554076 
2404.000000	97.553909 
2403.000000	97.551465 
2402.000000	97.548173 
2401.000000	97.546657 
2400.000000	97.548979 
2399.000000	97.554638 
2398.000000	97.560742 
2397.000000	97.564904 
2396.000000	97.567265 
2395.000000	97.568915 
2394.000000	97.569671 
2393.000000	97.569135 
2392.000000	97.568984 
2391.000000	97.571829 
2390.000000	97.577855 
2389.000000	97.584653 
2388.000000	97.590727 
2387.000000	97.597343 
2386.000000	97.606203 
2385.000000	97.616665 
2384.000000	97.626034 
2383.000000	97.631274 
2382.000000	97.629663 
2381.000000	97.619473 
2380.000000	97.601497 
2379.000000	97.579247 
2378.000000	97.556390 
2377.000000	97.534929 
2376.000000	97.517531 
2375.000000	97.509548 
2374.000000	97.514987 
2373.000000	97.530953 
2372.000000	97.548740 
2371.000000	97.561758 
2370.000000	97.569667 
2369.000000	97.573963 
2368.000000	97.574057 
2367.000000	97.569459 
2366.000000	97.562234 
2365.000000	97.555014 
2364.000000	97.549014 
2363.000000	97.545607 
2362.000000	97.546962 
2361.000000	97.552847 
2360.000000	97.560675 
2359.000000	97.567419 
2358.000000	97.570442 
2357.000000	97.568268 
2356.000000	97.561686 
2355.000000	97.553779 
2354.000000	97.545326 
2353.000000	97.537817 
2352.000000	97.536142 
2351.000000	97.542223 
2350.000000	97.551936 
2349.000000	97.558538 
2348.000000	97.559903 
2347.000000	97.558088 
2346.000000	97.556986 
2345.000000	97.559790 
2344.000000	97.565465 
2343.000000	97.570678 
2342.000000	97.572278 
2341.000000	97.570873 
2340.000000	97.569594 
2339.000000	97.570060 
2338.000000	97.570899 
2337.000000	97.570346 
2336.000000	97.570125 
2335.000000	97.572864 
2334.000000	97.577109 
2333.000000	97.579438 
2332.000000	97.581093 
2331.000000	97.585651 
2330.000000	97.593864 
2329.000000	97.601927 
2328.000000	97.609141 
2327.000000	97.616573 
2326.000000	97.622543 
2325.000000	97.625204 
2324.000000	97.625427 
2323.000000	97.627655 
2322.000000	97.630669 
2321.000000	97.630313 
2320.000000	97.626443 
2319.000000	97.624015 
2318.000000	97.625858 
2317.000000	97.627766 
2316.000000	97.625889 
2315.000000	97.621066 
2314.000000	97.618201 
2313.000000	97.620364 
2312.000000	97.629202 
2311.000000	97.644363 
2310.000000	97.661672 
2309.000000	97.674095 
2308.000000	97.677419 
2307.000000	97.674209 
2306.000000	97.669263 
2305.000000	97.665888 
2304.000000	97.664661 
2303.000000	97.665564 
2302.000000	97.668074 
2301.000000	97.670882 
2300.000000	97.672213 
2299.000000	97.669904 
2298.000000	97.662505 
2297.000000	97.649830 
2296.000000	97.634761 
2295.000000	97.621431 
2294.000000	97.611352 
2293.000000	97.602683 
2292.000000	97.593534 
2291.000000	97.584779 
2290.000000	97.577515 
2289.000000	97.571534 
2288.000000	97.565876 
2287.000000	97.560721 
2286.000000	97.556149 
2285.000000	97.551805 
2284.000000	97.547838 
2283.000000	97.545489 
2282.000000	97.544860 
2281.000000	97.543992 
2280.000000	97.540940 
2279.000000	97.535798 
2278.000000	97.529958 
2277.000000	97.524770 
2276.000000	97.521751 
2275.000000	97.521669 
2274.000000	97.523421 
2273.000000	97.525378 
2272.000000	97.528143 
2271.000000	97.533101 
2270.000000	97.538484 
2269.000000	97.540389 
2268.000000	97.538251 
2267.000000	97.535789 
2266.000000	97.535792 
2265.000000	97.537053 
2264.000000	97.537196 
2263.000000	97.535406 
2262.000000	97.531617 
2261.000000	97.526035 
2260.000000	97.520136 
2259.000000	97.515972 
2258.000000	97.513719 
2257.000000	97.512032 
2256.000000	97.510817 
2255.000000	97.511473 
2254.000000	97.514069 
2253.000000	97.516222 
2252.000000	97.515753 
2251.000000	97.512781 
2250.000000	97.508473 
2249.000000	97.503621 
2248.000000	97.499118 
2247.000000	97.496245 
2246.000000	97.495339 
2245.000000	97.495221 
2244.000000	97.494453 
2243.000000	97.492827 
2242.000000	97.491061 
2241.000000	97.489708 
2240.000000	97.488752 
2239.000000	97.487917 
2238.000000	97.486946 
2237.000000	97.485748 
2236.000000	97.484421 
2235.000000	97.483082 
2234.000000	97.481760 
2233.000000	97.480437 
2232.000000	97.479107 
2231.000000	97.477770 
2230.000000	97.476426 
2229.000000	97.475076 
2228.000000	97.473726 
2227.000000	97.472389 
2226.000000	97.471074 
2225.000000	97.469773 
2224.000000	97.468473 
2223.000000	97.467178 
2222.000000	97.465905 
2221.000000	97.464667 
2220.000000	97.463461 
2219.000000	97.462275 
2218.000000	97.461101 
2217.000000	97.459949 
2216.000000	97.458832 
2215.000000	97.457759 
2214.000000	97.456722 
2213.000000	97.455710 
2212.000000	97.454728 
2211.000000	97.453800 
2210.000000	97.452947 
2209.000000	97.452165 
2208.000000	97.451426 
2207.000000	97.450695 
2206.000000	97.449948 
2205.000000	97.449170 
2204.000000	97.448344 
2203.000000	97.447487 
2202.000000	97.446821 
2201.000000	97.446463 
2200.000000	97.446113 
2199.000000	97.445277 
2198.000000	97.443730 
2197.000000	97.441851 
2196.000000	97.440490 
2195.000000	97.440208 
2194.000000	97.440595 
2193.000000	97.440748 
2192.000000	97.440525 
2191.000000	97.440536 
2190.000000	97.440709 
2189.000000	97.440135 
2188.000000	97.438780 
2187.000000	97.437642 
2186.000000	97.436254 
2185.000000	97.432221 
2184.000000	97.425266 
2183.000000	97.419964 
2182.000000	97.421161 
2181.000000	97.427777 
2180.000000	97.433259 
2179.000000	97.432942 
2178.000000	97.428437 
2177.000000	97.424756 
2176.000000	97.425476 
2175.000000	97.430876 
2174.000000	97.438431 
2173.000000	97.444520 
2172.000000	97.447551 
2171.000000	97.449339 
2170.000000	97.451829 
2169.000000	97.453137 
2168.000000	97.449441 
2167.000000	97.440476 
2166.000000	97.430224 
2165.000000	97.421582 
2164.000000	97.413631 
2163.000000	97.405835 
2162.000000	97.402127 
2161.000000	97.407880 
2160.000000	97.423984 
2159.000000	97.445292 
2158.000000	97.464553 
2157.000000	97.477814 
2156.000000	97.485861 
2155.000000	97.491298 
2154.000000	97.495459 
2153.000000	97.498417 
2152.000000	97.500529 
2151.000000	97.501983 
2150.000000	97.501389 
2149.000000	97.497717 
2148.000000	97.494028 
2147.000000	97.496017 
2146.000000	97.505382 
2145.000000	97.517367 
2144.000000	97.526735 
2143.000000	97.533492 
2142.000000	97.540203 
2141.000000	97.546617 
2140.000000	97.550524 
2139.000000	97.552420 
2138.000000	97.555661 
2137.000000	97.561928 
2136.000000	97.568946 
2135.000000	97.572584 
2134.000000	97.570056 
2133.000000	97.562516 
2132.000000	97.555735 
2131.000000	97.556070 
2130.000000	97.564402 
2129.000000	97.575119 
2128.000000	97.582021 
2127.000000	97.584019 
2126.000000	97.583936 
2125.000000	97.583929 
2124.000000	97.583935 
2123.000000	97.583239 
2122.000000	97.581457 
2121.000000	97.578439 
2120.000000	97.574446 
2119.000000	97.570049 
2118.000000	97.565340 
2117.000000	97.560024 
2116.000000	97.554618 
2115.000000	97.550336 
2114.000000	97.547334 
2113.000000	97.544641 
2112.000000	97.542609 
2111.000000	97.543399 
2110.000000	97.547818 
2109.000000	97.553430 
2108.000000	97.557149 
2107.000000	97.558224 
2106.000000	97.557522 
2105.000000	97.555857 
2104.000000	97.554494 
2103.000000	97.555190 
2102.000000	97.557644 
2101.000000	97.558444 
2100.000000	97.554851 
2099.000000	97.548831 
2098.000000	97.545523 
2097.000000	97.547769 
2096.000000	97.554159 
2095.000000	97.561178 
2094.000000	97.565935 
2093.000000	97.567375 
2092.000000	97.566074 
2091.000000	97.563765 
2090.000000	97.562342 
2089.000000	97.562575 
2088.000000	97.563812 
2087.000000	97.564677 
2086.000000	97.564087 
2085.000000	97.561990 
2084.000000	97.559463 
2083.000000	97.557745 
2082.000000	97.557026 
2081.000000	97.556590 
2080.000000	97.556148 
2079.000000	97.556254 
2078.000000	97.557037 
2077.000000	97.557453 
2076.000000	97.556628 
2075.000000	97.555237 
2074.000000	97.554524 
2073.000000	97.554399 
2072.000000	97.553660 
2071.000000	97.551797 
2070.000000	97.549479 
2069.000000	97.547521 
2068.000000	97.546239 
2067.000000	97.545595 
2066.000000	97.545271 
2065.000000	97.544576 
2064.000000	97.542948 
2063.000000	97.540674 
2062.000000	97.538734 
2061.000000	97.537886 
2060.000000	97.538204 
2059.000000	97.539365 
2058.000000	97.540699 
2057.000000	97.541224 
2056.000000	97.540293 
2055.000000	97.538053 
2054.000000	97.535372 
2053.000000	97.533231 
2052.000000	97.532123 
2051.000000	97.531864 
2050.000000	97.531757 
2049.000000	97.531084 
2048.000000	97.529757 
2047.000000	97.528380 
2046.000000	97.527555 
2045.000000	97.527283 
2044.000000	97.527233 
2043.000000	97.527296 
2042.000000	97.527591 
2041.000000	97.528162 
2040.000000	97.529052 
2039.000000	97.530478 
2038.000000	97.532447 
2037.000000	97.534283 
2036.000000	97.535110 
2035.000000	97.534797 
2034.000000	97.534169 
2033.000000	97.534309 
2032.000000	97.535625 
2031.000000	97.537525 
2030.000000	97.538715 
2029.000000	97.538230 
2028.000000	97.536276 
2027.000000	97.534050 
2026.000000	97.532475 
2025.000000	97.531582 
2024.000000	97.531324 
2023.000000	97.532263 
2022.000000	97.534838 
2021.000000	97.538221 
2020.000000	97.540561 
2019.000000	97.540606 
2018.000000	97.538398 
2017.000000	97.535067 
2016.000000	97.532304 
2015.000000	97.531374 
2014.000000	97.532063 
2013.000000	97.532544 
2012.000000	97.531452 
2011.000000	97.530053 
2010.000000	97.530950 
2009.000000	97.534746 
2008.000000	97.539230 
2007.000000	97.542049 
2006.000000	97.543032 
2005.000000	97.543211 
2004.000000	97.543148 
2003.000000	97.543124 
2002.000000	97.543802 
2001.000000	97.545302 
2000.000000	97.546257 
1999.000000	97.544617 
1998.000000	97.539522 
1997.000000	97.532320 
1996.000000	97.525890 
1995.000000	97.522573 
1994.000000	97.522569 
1993.000000	97.523964 
1992.000000	97.524416 
1991.000000	97.523452 
1990.000000	97.522511 
1989.000000	97.522908 
1988.000000	97.524365 
1987.000000	97.525329 
1986.000000	97.524338 
1985.000000	97.521363 
1984.000000	97.518065 
1983.000000	97.516434 
1982.000000	97.516917 
1981.000000	97.518276 
1980.000000	97.519474 
1979.000000	97.520816 
1978.000000	97.522679 
1977.000000	97.524236 
1976.000000	97.524492 
1975.000000	97.524020 
1974.000000	97.524383 
1973.000000	97.526288 
1972.000000	97.529124 
1971.000000	97.531878 
1970.000000	97.533700 
1969.000000	97.533851 
1968.000000	97.532056 
1967.000000	97.529159 
1966.000000	97.527060 
1965.000000	97.527161 
1964.000000	97.529411 
1963.000000	97.532808 
1962.000000	97.536318 
1961.000000	97.539289 
1960.000000	97.541238 
1959.000000	97.541840 
1958.000000	97.541362 
1957.000000	97.540796 
1956.000000	97.541146 
1955.000000	97.542509 
1954.000000	97.544084 
1953.000000	97.545106 
1952.000000	97.545613 
1951.000000	97.546148 
1950.000000	97.546986 
1949.000000	97.548039 
1948.000000	97.549306 
1947.000000	97.550843 
1946.000000	97.552285 
1945.000000	97.552968 
1944.000000	97.552633 
1943.000000	97.551725 
1942.000000	97.550914 
1941.000000	97.550533 
1940.000000	97.550596 
1939.000000	97.551012 
1938.000000	97.551690 
1937.000000	97.552640 
1936.000000	97.553895 
1935.000000	97.555192 
1934.000000	97.555930 
1933.000000	97.555834 
1932.000000	97.555467 
1931.000000	97.555735 
1930.000000	97.556733 
1929.000000	97.557547 
1928.000000	97.557569 
1927.000000	97.557130 
1926.000000	97.556731 
1925.000000	97.556198 
1924.000000	97.555296 
1923.000000	97.554469 
1922.000000	97.554091 
1921.000000	97.553809 
1920.000000	97.553247 
1919.000000	97.552626 
1918.000000	97.552071 
1917.000000	97.551078 
1916.000000	97.549489 
1915.000000	97.548015 
1914.000000	97.547271 
1913.000000	97.546974 
1912.000000	97.546375 
1911.000000	97.545367 
1910.000000	97.544409 
1909.000000	97.543769 
1908.000000	97.543445 
1907.000000	97.543331 
1906.000000	97.543126 
1905.000000	97.542283 
1904.000000	97.540588 
1903.000000	97.538588 
1902.000000	97.537021 
1901.000000	97.536012 
1900.000000	97.535237 
1899.000000	97.534485 
1898.000000	97.533793 
1897.000000	97.533092 
1896.000000	97.532155 
1895.000000	97.530940 
1894.000000	97.529553 
1893.000000	97.527991 
1892.000000	97.526299 
1891.000000	97.524889 
1890.000000	97.524179 
1889.000000	97.524040 
1888.000000	97.524126 
1887.000000	97.524346 
1886.000000	97.524592 
1885.000000	97.524455 
1884.000000	97.523626 
1883.000000	97.522373 
1882.000000	97.521346 
1881.000000	97.520905 
1880.000000	97.520966 
1879.000000	97.521172 
1878.000000	97.521195 
1877.000000	97.521067 
1876.000000	97.521196 
1875.000000	97.521984 
1874.000000	97.523327 
1873.000000	97.524565 
1872.000000	97.525224 
1871.000000	97.525442 
1870.000000	97.525499 
1869.000000	97.525287 
1868.000000	97.524922 
1867.000000	97.525154 
1866.000000	97.526203 
1865.000000	97.527255 
1864.000000	97.527594 
1863.000000	97.527608 
1862.000000	97.528222 
1861.000000	97.529624 
1860.000000	97.531248 
1859.000000	97.532784 
1858.000000	97.534363 
1857.000000	97.535965 
1856.000000	97.537454 
1855.000000	97.538916 
1854.000000	97.540366 
1853.000000	97.541491 
1852.000000	97.542313 
1851.000000	97.543371 
1850.000000	97.544991 
1849.000000	97.546896 
1848.000000	97.548601 
1847.000000	97.550072 
1846.000000	97.551593 
1845.000000	97.553240 
1844.000000	97.554776 
1843.000000	97.556242 
1842.000000	97.557826 
1841.000000	97.559325 
1840.000000	97.560649 
1839.000000	97.562035 
1838.000000	97.563553 
1837.000000	97.564798 
1836.000000	97.565514 
1835.000000	97.566085 
1834.000000	97.567006 
1833.000000	97.568221 
1832.000000	97.569351 
1831.000000	97.570161 
1830.000000	97.570756 
1829.000000	97.571437 
1828.000000	97.572327 
1827.000000	97.573334 
1826.000000	97.574445 
1825.000000	97.575634 
1824.000000	97.576641 
1823.000000	97.577371 
1822.000000	97.578001 
1821.000000	97.578605 
1820.000000	97.579078 
1819.000000	97.579475 
1818.000000	97.580195 
1817.000000	97.581296 
1816.000000	97.582187 
1815.000000	97.582537 
1814.000000	97.582741 
1813.000000	97.583298 
1812.000000	97.583866 
1811.000000	97.583873 
1810.000000	97.583581 
1809.000000	97.583454 
1808.000000	97.583481 
1807.000000	97.583685 
1806.000000	97.584281 
1805.000000	97.585099 
1804.000000	97.585647 
1803.000000	97.585985 
1802.000000	97.586501 
1801.000000	97.587101 
1800.000000	97.587159 
1799.000000	97.586756 
1798.000000	97.586747 
1797.000000	97.587140 
1796.000000	97.587167 
1795.000000	97.586663 
1794.000000	97.586380 
1793.000000	97.586741 
1792.000000	97.586955 
1791.000000	97.586980 
1790.000000	97.587755 
1789.000000	97.588973 
1788.000000	97.589804 
1787.000000	97.590418 
1786.000000	97.591557 
1785.000000	97.593030 
1784.000000	97.593943 
1783.000000	97.594213 
1782.000000	97.594296 
1781.000000	97.594792 
1780.000000	97.595838 
1779.000000	97.597163 
1778.000000	97.598578 
1777.000000	97.599891 
1776.000000	97.601031 
1775.000000	97.601888 
1774.000000	97.602413 
1773.000000	97.602776 
1772.000000	97.603094 
1771.000000	97.603507 
1770.000000	97.604224 
1769.000000	97.605260 
1768.000000	97.606507 
1767.000000	97.607725 
1766.000000	97.608659 
1765.000000	97.609284 
1764.000000	97.609698 
1763.000000	97.610058 
1762.000000	97.610480 
1761.000000	97.611175 
1760.000000	97.612138 
1759.000000	97.612979 
1758.000000	97.613492 
1757.000000	97.614124 
1756.000000	97.615493 
1755.000000	97.616921 
1754.000000	97.617088 
1753.000000	97.615996 
1752.000000	97.615442 
1751.000000	97.616323 
1750.000000	97.617656 
1749.000000	97.618221 
1748.000000	97.617789 
1747.000000	97.616525 
1746.000000	97.614323 
1745.000000	97.612658 
1744.000000	97.613174 
1743.000000	97.615106 
1742.000000	97.616148 
1741.000000	97.615122 
1740.000000	97.612608 
1739.000000	97.610785 
1738.000000	97.610971 
1737.000000	97.611525 
1736.000000	97.611044 
1735.000000	97.612266 
1734.000000	97.612889 
1733.000000	97.609093 
1732.000000	97.604614 
1731.000000	97.602297 
1730.000000	97.602904 
1729.000000	97.605117 
1728.000000	97.605448 
1727.000000	97.602355 
1726.000000	97.597285 
1725.000000	97.593372 
1724.000000	97.590812 
1723.000000	97.588774 
1722.000000	97.587791 
1721.000000	97.586762 
1720.000000	97.583324 
1719.000000	97.578314 
1718.000000	97.575069 
1717.000000	97.571237 
1716.000000	97.562769 
1715.000000	97.553330 
1714.000000	97.548396 
1713.000000	97.546400 
1712.000000	97.542132 
1711.000000	97.535251 
1710.000000	97.529436 
1709.000000	97.525260 
1708.000000	97.519636 
1707.000000	97.511476 
1706.000000	97.504226 
1705.000000	97.498738 
1704.000000	97.491988 
1703.000000	97.482469 
1702.000000	97.473098 
1701.000000	97.468054 
1700.000000	97.462193 
1699.000000	97.453924 
1698.000000	97.447825 
1697.000000	97.442136 
1696.000000	97.434666 
1695.000000	97.426705 
1694.000000	97.420134 
1693.000000	97.413657 
1692.000000	97.405318 
1691.000000	97.396042 
1690.000000	97.387233 
1689.000000	97.379218 
1688.000000	97.371898 
1687.000000	97.364607 
1686.000000	97.357454 
1685.000000	97.350504 
1684.000000	97.340637 
1683.000000	97.328984 
1682.000000	97.319305 
1681.000000	97.310573 
1680.000000	97.303075 
1679.000000	97.297330 
1678.000000	97.291026 
1677.000000	97.282838 
1676.000000	97.274561 
1675.000000	97.267224 
1674.000000	97.258732 
1673.000000	97.248704 
1672.000000	97.237725 
1671.000000	97.227424 
1670.000000	97.217172 
1669.000000	97.205020 
1668.000000	97.195908 
1667.000000	97.192546 
1666.000000	97.190220 
1665.000000	97.185119 
1664.000000	97.178040 
1663.000000	97.171498 
1662.000000	97.163533 
1661.000000	97.152779 
1660.000000	97.142627 
1659.000000	97.134926 
1658.000000	97.127036 
1657.000000	97.115705 
1656.000000	97.103384 
1655.000000	97.094072 
1654.000000	97.092766 
1653.000000	97.076279 
1652.000000	97.050241 
1651.000000	97.044826 
1650.000000	97.043822 
1649.000000	97.036800 
1648.000000	97.033266 
1647.000000	97.032876 
1646.000000	97.029796 
1645.000000	97.024652 
1644.000000	97.019682 
1643.000000	97.015690 
1642.000000	97.014082 
1641.000000	97.014784 
1640.000000	97.016347 
1639.000000	97.016886 
1638.000000	97.015831 
1637.000000	97.015086 
1636.000000	97.012833 
1635.000000	97.004817 
1634.000000	96.998905 
1633.000000	96.998461 
1632.000000	96.998010 
1631.000000	96.999116 
1630.000000	97.002908 
1629.000000	97.006219 
1628.000000	97.008367 
1627.000000	97.013332 
1626.000000	97.021010 
1625.000000	97.027476 
1624.000000	97.032813 
1623.000000	97.039762 
1622.000000	97.048158 
1621.000000	97.056338 
1620.000000	97.065000 
1619.000000	97.076023 
1618.000000	97.089962 
1617.000000	97.097847 
1616.000000	97.097085 
1615.000000	97.099598 
1614.000000	97.107244 
1613.000000	97.113186 
1612.000000	97.118404 
1611.000000	97.126729 
1610.000000	97.135435 
1609.000000	97.142257 
1608.000000	97.152439 
1607.000000	97.168909 
1606.000000	97.183850 
1605.000000	97.192339 
1604.000000	97.200255 
1603.000000	97.211381 
1602.000000	97.221842 
1601.000000	97.228828 
1600.000000	97.235756 
1599.000000	97.244379 
1598.000000	97.251470 
1597.000000	97.255819 
1596.000000	97.260635 
1595.000000	97.268023 
1594.000000	97.275683 
1593.000000	97.281673 
1592.000000	97.287579 
1591.000000	97.294748 
1590.000000	97.301710 
1589.000000	97.307469 
1588.000000	97.313421 
1587.000000	97.320542 
1586.000000	97.327605 
1585.000000	97.333382 
1584.000000	97.338997 
1583.000000	97.345296 
1582.000000	97.351404 
1581.000000	97.356836 
1580.000000	97.362442 
1579.000000	97.368649 
1578.000000	97.374977 
1577.000000	97.381126 
1576.000000	97.386948 
1575.000000	97.392707 
1574.000000	97.398262 
1573.000000	97.403238 
1572.000000	97.408022 
1571.000000	97.413215 
1570.000000	97.418237 
1569.000000	97.422455 
1568.000000	97.426725 
1567.000000	97.431314 
1566.000000	97.435601 
1565.000000	97.439422 
1564.000000	97.443271 
1563.000000	97.447034 
1562.000000	97.450484 
1561.000000	97.453625 
1560.000000	97.457822 
1559.000000	97.462070 
1558.000000	97.464718 
1557.000000	97.467085 
1556.000000	97.469975 
1555.000000	97.473117 
1554.000000	97.476374 
1553.000000	97.479355 
1552.000000	97.481985 
1551.000000	97.484326 
1550.000000	97.486735 
1549.000000	97.489230 
1548.000000	97.491562 
1547.000000	97.493579 
1546.000000	97.495252 
1545.000000	97.496690 
1544.000000	97.497992 
1543.000000	97.499267 
1542.000000	97.500672 
1541.000000	97.501904 
1540.000000	97.501916 
1539.000000	97.501352 
1538.000000	97.501568 
1537.000000	97.501925 
1536.000000	97.501725 
1535.000000	97.501483 
1534.000000	97.501646 
1533.000000	97.502019 
1532.000000	97.502297 
1531.000000	97.502407 
1530.000000	97.502319 
1529.000000	97.501939 
1528.000000	97.501278 
1527.000000	97.500702 
1526.000000	97.500534 
1525.000000	97.500541 
1524.000000	97.500201 
1523.000000	97.499574 
1522.000000	97.499281 
1521.000000	97.499207 
1520.000000	97.498634 
1519.000000	97.497121 
1518.000000	97.494904 
1517.000000	97.493089 
1516.000000	97.492380 
1515.000000	97.492594 
1514.000000	97.493120 
1513.000000	97.493571 
1512.000000	97.493285 
1511.000000	97.491524 
1510.000000	97.488851 
1509.000000	97.486662 
1508.000000	97.486642 
1507.000000	97.487693 
1506.000000	97.487027 
1505.000000	97.485219 
1504.000000	97.483270 
1503.000000	97.480417 
1502.000000	97.477233 
1501.000000	97.474679 
1500.000000	97.472386 
1499.000000	97.469236 
1498.000000	97.466000 
1497.000000	97.464876 
1496.000000	97.465491 
1495.000000	97.467143 
1494.000000	97.470101 
1493.000000	97.473655 
1492.000000	97.476421 
1491.000000	97.477913 
1490.000000	97.478406 
1489.000000	97.477269 
1488.000000	97.473015 
1487.000000	97.467450 
1486.000000	97.463645 
1485.000000	97.460391 
1484.000000	97.456247 
1483.000000	97.452115 
1482.000000	97.450134 
1481.000000	97.450052 
1480.000000	97.448866 
1479.000000	97.445404 
1478.000000	97.441725 
1477.000000	97.439481 
1476.000000	97.437283 
1475.000000	97.434451 
1474.000000	97.432331 
1473.000000	97.431671 
1472.000000	97.430940 
1471.000000	97.429560 
1470.000000	97.428003 
1469.000000	97.425126 
1468.000000	97.419789 
1467.000000	97.413072 
1466.000000	97.407602 
1465.000000	97.404755 
1464.000000	97.403573 
1463.000000	97.401817 
1462.000000	97.398390 
1461.000000	97.393195 
1460.000000	97.386954 
1459.000000	97.380616 
1458.000000	97.375997 
1457.000000	97.373749 
1456.000000	97.372587 
1455.000000	97.370419 
1454.000000	97.365905 
1453.000000	97.360613 
1452.000000	97.356700 
1451.000000	97.354414 
1450.000000	97.353249 
1449.000000	97.352997 
1448.000000	97.352670 
1447.000000	97.351171 
1446.000000	97.348221 
1445.000000	97.345102 
1444.000000	97.342890 
1443.000000	97.340598 
1442.000000	97.337381 
1441.000000	97.333539 
1440.000000	97.328932 
1439.000000	97.321954 
1438.000000	97.314400 
1437.000000	97.311042 
1436.000000	97.312149 
1435.000000	97.312666 
1434.000000	97.310435 
1433.000000	97.307747 
1432.000000	97.307014 
1431.000000	97.307073 
1430.000000	97.306074 
1429.000000	97.305391 
1428.000000	97.305461 
1427.000000	97.304825 
1426.000000	97.302659 
1425.000000	97.302636 
1424.000000	97.307137 
1423.000000	97.310120 
1422.000000	97.306213 
1421.000000	97.299122 
1420.000000	97.296771 
1419.000000	97.297709 
1418.000000	97.296404 
1417.000000	97.295057 
1416.000000	97.296113 
1415.000000	97.297271 
1414.000000	97.295301 
1413.000000	97.290700 
1412.000000	97.286833 
1411.000000	97.284394 
1410.000000	97.282430 
1409.000000	97.281384 
1408.000000	97.281123 
1407.000000	97.281571 
1406.000000	97.283720 
1405.000000	97.290628 
1404.000000	97.302957 
1403.000000	97.314613 
1402.000000	97.320714 
1401.000000	97.324381 
1400.000000	97.332270 
1399.000000	97.344341 
1398.000000	97.353712 
1397.000000	97.356220 
1396.000000	97.354380 
1395.000000	97.353772 
1394.000000	97.357681 
1393.000000	97.366861 
1392.000000	97.379111 
1391.000000	97.389913 
1390.000000	97.396491 
1389.000000	97.399696 
1388.000000	97.402018 
1387.000000	97.404598 
1386.000000	97.406943 
1385.000000	97.409586 
1384.000000	97.414385 
1383.000000	97.421477 
1382.000000	97.428785 
1381.000000	97.434107 
1380.000000	97.437653 
1379.000000	97.441306 
1378.000000	97.445815 
1377.000000	97.450376 
1376.000000	97.454462 
1375.000000	97.458636 
1374.000000	97.463578 
1373.000000	97.470282 
1372.000000	97.479042 
1371.000000	97.488814 
1370.000000	97.497650 
1369.000000	97.504824 
1368.000000	97.511081 
1367.000000	97.516018 
1366.000000	97.518275 
1365.000000	97.518278 
1364.000000	97.518892 
1363.000000	97.522414 
1362.000000	97.528225 
1361.000000	97.534847 
1360.000000	97.542517 
1359.000000	97.551751 
1358.000000	97.561029 
1357.000000	97.568250 
1356.000000	97.573262 
1355.000000	97.577182 
1354.000000	97.580698 
1353.000000	97.584351 
1352.000000	97.588610 
1351.000000	97.594456 
1350.000000	97.600719 
1349.000000	97.605279 
1348.000000	97.608051 
1347.000000	97.610302 
1346.000000	97.612849 
1345.000000	97.615296 
1344.000000	97.616568 
1343.000000	97.615544 
1342.000000	97.612221 
1341.000000	97.608676 
1340.000000	97.607638 
1339.000000	97.609233 
1338.000000	97.611161 
1337.000000	97.612404 
1336.000000	97.613881 
1335.000000	97.615857 
1334.000000	97.617331 
1333.000000	97.618019 
1332.000000	97.618827 
1331.000000	97.620008 
1330.000000	97.620530 
1329.000000	97.620109 
1328.000000	97.619818 
1327.000000	97.620305 
1326.000000	97.620541 
1325.000000	97.619731 
1324.000000	97.618143 
1323.000000	97.615399 
1322.000000	97.610892 
1321.000000	97.606057 
1320.000000	97.603873 
1319.000000	97.605418 
1318.000000	97.608925 
1317.000000	97.612219 
1316.000000	97.614010 
1315.000000	97.613198 
1314.000000	97.609874 
1313.000000	97.607077 
1312.000000	97.608397 
1311.000000	97.613195 
1310.000000	97.616897 
1309.000000	97.616800 
1308.000000	97.614884 
1307.000000	97.614637 
1306.000000	97.616786 
1305.000000	97.619982 
1304.000000	97.623137 
1303.000000	97.625103 
1302.000000	97.624334 
1301.000000	97.620703 
1300.000000	97.616655 
1299.000000	97.615027 
1298.000000	97.616261 
1297.000000	97.618382 
1296.000000	97.619227 
1295.000000	97.618179 
1294.000000	97.616510 
1293.000000	97.616247 
1292.000000	97.617890 
1291.000000	97.619528 
1290.000000	97.619324 
1289.000000	97.618133 
1288.000000	97.618015 
1287.000000	97.618794 
1286.000000	97.618423 
1285.000000	97.616695 
1284.000000	97.615933 
1283.000000	97.617324 
1282.000000	97.618872 
1281.000000	97.618007 
1280.000000	97.614827 
1279.000000	97.611551 
1278.000000	97.610230 
1277.000000	97.611742 
1276.000000	97.615499 
1275.000000	97.619273 
1274.000000	97.620686 
1273.000000	97.619764 
1272.000000	97.618703 
1271.000000	97.618683 
1270.000000	97.618601 
1269.000000	97.617622 
1268.000000	97.616920 
1267.000000	97.617470 
1266.000000	97.618111 
1265.000000	97.617367 
1264.000000	97.615818 
1263.000000	97.615220 
1262.000000	97.616091 
1261.000000	97.617393 
1260.000000	97.618558 
1259.000000	97.620439 
1258.000000	97.623940 
1257.000000	97.627896 
1256.000000	97.628979 
1255.000000	97.625042 
1254.000000	97.618613 
1253.000000	97.614871 
1252.000000	97.615124 
1251.000000	97.614955 
1250.000000	97.611042 
1249.000000	97.607072 
1248.000000	97.609139 
1247.000000	97.616660 
1246.000000	97.622423 
1245.000000	97.621393 
1244.000000	97.615466 
1243.000000	97.609701 
1242.000000	97.607726 
1241.000000	97.611133 
1240.000000	97.619220 
1239.000000	97.627791 
1238.000000	97.631427 
1237.000000	97.628633 
1236.000000	97.622509 
1235.000000	97.615884 
1234.000000	97.608562 
1233.000000	97.599964 
1232.000000	97.591126 
1231.000000	97.582659 
1230.000000	97.573723 
1229.000000	97.564389 
1228.000000	97.556002 
1227.000000	97.547472 
1226.000000	97.533948 
1225.000000	97.511490 
1224.000000	97.481286 
1223.000000	97.447552 
1222.000000	97.412838 
1221.000000	97.376879 
1220.000000	97.338472 
1219.000000	97.296680 
1218.000000	97.251366 
1217.000000	97.203729 
1216.000000	97.154874 
1215.000000	97.103087 
1214.000000	97.044878 
1213.000000	96.980322 
1212.000000	96.914713 
1211.000000	96.852330 
1210.000000	96.790414 
1209.000000	96.722537 
1208.000000	96.646817 
1207.000000	96.567652 
1206.000000	96.489869 
1205.000000	96.414011 
1204.000000	96.337566 
1203.000000	96.258356 
1202.000000	96.176192 
1201.000000	96.092713 
1200.000000	96.009830 
1199.000000	95.927431 
1198.000000	95.843201 
1197.000000	95.755753 
1196.000000	95.666766 
1195.000000	95.578619 
1194.000000	95.491162 
1193.000000	95.402618 
1192.000000	95.312296 
1191.000000	95.220232 
1190.000000	95.125421 
1189.000000	95.026870 
1188.000000	94.925456 
1187.000000	94.822508 
1186.000000	94.717608 
1185.000000	94.609929 
1184.000000	94.500283 
1183.000000	94.389375 
1182.000000	94.275705 
1181.000000	94.158128 
1180.000000	94.038719 
1179.000000	93.919504 
1178.000000	93.797942 
1177.000000	93.669668 
1176.000000	93.534354 
1175.000000	93.394901 
1174.000000	93.252478 
1173.000000	93.107141 
1172.000000	92.961728 
1171.000000	92.819263 
1170.000000	92.677300 
1169.000000	92.531231 
1168.000000	92.383694 
1167.000000	92.245302 
1166.000000	92.126459 
1165.000000	92.034755 
1164.000000	91.979568 
1163.000000	91.970026 
1162.000000	92.004659 
1161.000000	92.067679 
1160.000000	92.136963 
1159.000000	92.191876 
1158.000000	92.215303 
1157.000000	92.196669 
1156.000000	92.136307 
1155.000000	92.043369 
1154.000000	91.928288 
1153.000000	91.799718 
1152.000000	91.666828 
1151.000000	91.537597 
1150.000000	91.413393 
1149.000000	91.290835 
1148.000000	91.169779 
1147.000000	91.053427 
1146.000000	90.940230 
1145.000000	90.823215 
1144.000000	90.699548 
1143.000000	90.574133 
1142.000000	90.451399 
1141.000000	90.329662 
1140.000000	90.206131 
1139.000000	90.081587 
1138.000000	89.957505 
1137.000000	89.833650 
1136.000000	89.710309 
1135.000000	89.587801 
1134.000000	89.462712 
1133.000000	89.330459 
1132.000000	89.192605 
1131.000000	89.055567 
1130.000000	88.921254 
1129.000000	88.785550 
1128.000000	88.646842 
1127.000000	88.508516 
1126.000000	88.371359 
1125.000000	88.230937 
1124.000000	88.084898 
1123.000000	87.936280 
1122.000000	87.787759 
1121.000000	87.639285 
1120.000000	87.492745 
1119.000000	87.351653 
1118.000000	87.214912 
1117.000000	87.078574 
1116.000000	86.944630 
1115.000000	86.819825 
1114.000000	86.704947 
1113.000000	86.594088 
1112.000000	86.484855 
1111.000000	86.379437 
1110.000000	86.275470 
1109.000000	86.166844 
1108.000000	86.053750 
1107.000000	85.941755 
1106.000000	85.830725 
1105.000000	85.715291 
1104.000000	85.596190 
1103.000000	85.479375 
1102.000000	85.363713 
1101.000000	85.242341 
1100.000000	85.116643 
1099.000000	84.997066 
1098.000000	84.887982 
1097.000000	84.783775 
1096.000000	84.680462 
1095.000000	84.578016 
1094.000000	84.471122 
1093.000000	84.352346 
1092.000000	84.226813 
1091.000000	84.109975 
1090.000000	84.008030 
1089.000000	83.912943 
1088.000000	83.817816 
1087.000000	83.723147 
1086.000000	83.626881 
1085.000000	83.523678 
1084.000000	83.416861 
1083.000000	83.316750 
1082.000000	83.224267 
1081.000000	83.129743 
1080.000000	83.029737 
1079.000000	82.930437 
1078.000000	82.832468 
1077.000000	82.727207 
1076.000000	82.610454 
1075.000000	82.484951 
1074.000000	82.347711 
1073.000000	82.190127 
1072.000000	82.011832 
1071.000000	81.818061 
1070.000000	81.601784 
1069.000000	81.346810 
1068.000000	81.053128 
1067.000000	80.743063 
1066.000000	80.437381 
1065.000000	80.139894 
1064.000000	79.849001 
1063.000000	79.565360 
1062.000000	79.281442 
1061.000000	78.981639 
1060.000000	78.661645 
1059.000000	78.334122 
1058.000000	78.009680 
1057.000000	77.686283 
1056.000000	77.361052 
1055.000000	77.035580 
1054.000000	76.704644 
1053.000000	76.357263 
1052.000000	75.995794 
1051.000000	75.636770 
1050.000000	75.285864 
1049.000000	74.930932 
1048.000000	74.565489 
1047.000000	74.197471 
1046.000000	73.830279 
1045.000000	73.457325 
1044.000000	73.079588 
1043.000000	72.708110 
1042.000000	72.345060 
1041.000000	71.981671 
1040.000000	71.618613 
1039.000000	71.268710 
1038.000000	70.936260 
1037.000000	70.614440 
1036.000000	70.305878 
1035.000000	70.023525 
1034.000000	69.767675 
1033.000000	69.524542 
1032.000000	69.290662 
1031.000000	69.075958 
1030.000000	68.880888 
1029.000000	68.695680 
1028.000000	68.524669 
1027.000000	68.384539 
1026.000000	68.273918 
1025.000000	68.170411 
1024.000000	68.062362 
1023.000000	67.958073 
1022.000000	67.859752 
1021.000000	67.755742 
1020.000000	67.643922 
1019.000000	67.536492 
1018.000000	67.435773 
1017.000000	67.330370 
1016.000000	67.219843 
1015.000000	67.117429 
1014.000000	67.023855 
1013.000000	66.924797 
1012.000000	66.819187 
1011.000000	66.723735 
1010.000000	66.644554 
1009.000000	66.570819 
1008.000000	66.501438 
1007.000000	66.451060 
1006.000000	66.424061 
1005.000000	66.408855 
1004.000000	66.402946 
1003.000000	66.417071 
1002.000000	66.449661 
1001.000000	66.484630 
1000.000000	66.520441 
999.000000	 66.574312 
998.000000	 66.651293 
997.000000	 66.735545 
996.000000	 66.818348 
995.000000	 66.908937 
994.000000	 67.011333 
993.000000	 67.116213 
992.000000	 67.222011 
991.000000	 67.339120 
990.000000	 67.467352 
989.000000	 67.593919 
988.000000	 67.719012 
987.000000	 67.858600 
986.000000	 68.017207 
985.000000	 68.183374 
984.000000	 68.356552 
983.000000	 68.551936 
982.000000	 68.772470 
981.000000	 69.001811 
980.000000	 69.231917 
979.000000	 69.473302 
978.000000	 69.731353 
977.000000	 69.997009 
976.000000	 70.267811 
975.000000	 70.554812 
974.000000	 70.861370 
973.000000	 71.176743 
972.000000	 71.496738 
971.000000	 71.829532 
970.000000	 72.175584 
969.000000	 72.522593 
968.000000	 72.865365 
967.000000	 73.210808 
966.000000	 73.559621 
965.000000	 73.903291 
964.000000	 74.242285 
963.000000	 74.586453 
962.000000	 74.934041 
961.000000	 75.270955 
960.000000	 75.594149 
959.000000	 75.915054 
958.000000	 76.236379 
957.000000	 76.546320 
956.000000	 76.840225 
955.000000	 77.127721 
954.000000	 77.413253 
953.000000	 77.688435 
952.000000	 77.948798 
951.000000	 78.200039 
950.000000	 78.443099 
949.000000	 78.670316 
948.000000	 78.880628 
947.000000	 79.081806 
946.000000	 79.274003 
945.000000	 79.447813 
944.000000	 79.602220 
943.000000	 79.748049 
942.000000	 79.890300 
941.000000	 80.023624 
940.000000	 80.149026 
939.000000	 80.277991 
938.000000	 80.415182 
937.000000	 80.552540 
936.000000	 80.684818 
935.000000	 80.816064 
934.000000	 80.947692 
933.000000	 81.075523 
932.000000	 81.201887 
931.000000	 81.335349 
930.000000	 81.474899 
929.000000	 81.608678 
928.000000	 81.731148 
927.000000	 81.847748 
926.000000	 81.960994 
925.000000	 82.066122 
924.000000	 82.161716 
923.000000	 82.250485 
922.000000	 82.329172 
921.000000	 82.392632 
920.000000	 82.448014 
919.000000	 82.509093 
918.000000	 82.575972 
917.000000	 82.636474 
916.000000	 82.688639 
915.000000	 82.745899 
914.000000	 82.819289 
913.000000	 82.911092 
912.000000	 83.026625 
911.000000	 83.174680 
910.000000	 83.354227 
909.000000	 83.556870 
908.000000	 83.783310 
907.000000	 84.041127 
906.000000	 84.326840 
905.000000	 84.627496 
904.000000	 84.939064 
903.000000	 85.265138 
902.000000	 85.598597 
901.000000	 85.924003 
900.000000	 86.238652 
899.000000	 86.553492 
898.000000	 86.872571 
897.000000	 87.188251 
896.000000	 87.495505 
895.000000	 87.793998 
894.000000	 88.077603 
893.000000	 88.339542 
892.000000	 88.587293 
891.000000	 88.835568 
890.000000	 89.084714 
889.000000	 89.321665 
888.000000	 89.540728 
887.000000	 89.747605 
886.000000	 89.945478 
885.000000	 90.134037 
884.000000	 90.319606 
883.000000	 90.508182 
882.000000	 90.691295 
881.000000	 90.858607 
880.000000	 91.022076 
879.000000	 91.205685 
878.000000	 91.411364 
877.000000	 91.617770 
876.000000	 91.813254 
875.000000	 92.006254 
874.000000	 92.202054 
873.000000	 92.394321 
872.000000	 92.583656 
871.000000	 92.780981 
870.000000	 92.986815 
869.000000	 93.187575 
868.000000	 93.377426 
867.000000	 93.565157 
866.000000	 93.755496 
865.000000	 93.941857 
864.000000	 94.122513 
863.000000	 94.306745 
862.000000	 94.498756 
861.000000	 94.690087 
860.000000	 94.873376 
859.000000	 95.050204 
858.000000	 95.221268 
857.000000	 95.382118 
856.000000	 95.532741 
855.000000	 95.678612 
854.000000	 95.818219 
853.000000	 95.941882 
852.000000	 96.047287 
851.000000	 96.145049 
850.000000	 96.245078 
849.000000	 96.347329 
848.000000	 96.447712 
847.000000	 96.541672 
846.000000	 96.620442 
845.000000	 96.675955 
844.000000	 96.711988 
843.000000	 96.740159 
842.000000	 96.764071 
841.000000	 96.777996 
840.000000	 96.780031 
839.000000	 96.773031 
838.000000	 96.752999 
837.000000	 96.712259 
836.000000	 96.657079 
835.000000	 96.607728 
834.000000	 96.576286 
833.000000	 96.556882 
832.000000	 96.541618 
831.000000	 96.532350 
830.000000	 96.532098 
829.000000	 96.539301 
828.000000	 96.557794 
827.000000	 96.599072 
826.000000	 96.666046 
825.000000	 96.746212 
824.000000	 96.827793 
823.000000	 96.909737 
822.000000	 96.990151 
821.000000	 97.059676 
820.000000	 97.112469 
819.000000	 97.150861 
818.000000	 97.174264 
817.000000	 97.173882 
816.000000	 97.142293 
815.000000	 97.080118 
814.000000	 96.990129 
813.000000	 96.870708 
812.000000	 96.715254 
811.000000	 96.510077 
810.000000	 96.233034 
809.000000	 95.864384 
808.000000	 95.402300 
807.000000	 94.862596 
806.000000	 94.265123 
805.000000	 93.629777 
804.000000	 92.984148 
803.000000	 92.360635 
802.000000	 91.783237 
801.000000	 91.269838 
800.000000	 90.846668 
799.000000	 90.541069 
798.000000	 90.356031 
797.000000	 90.269317 
796.000000	 90.259558 
795.000000	 90.314168 
794.000000	 90.411830 
793.000000	 90.521774 
792.000000	 90.626168 
791.000000	 90.724171 
790.000000	 90.810999 
789.000000	 90.871773 
788.000000	 90.897412 
787.000000	 90.886476 
786.000000	 90.829014 
785.000000	 90.709039 
784.000000	 90.528002 
783.000000	 90.309389 
782.000000	 90.078575 
781.000000	 89.856189 
780.000000	 89.670374 
779.000000	 89.550725 
778.000000	 89.504383 
777.000000	 89.518879 
776.000000	 89.591416 
775.000000	 89.731468 
774.000000	 89.930331 
773.000000	 90.153753 
772.000000	 90.372732 
771.000000	 90.580473 
770.000000	 90.774315 
769.000000	 90.944665 
768.000000	 91.088867 
767.000000	 91.214078 
766.000000	 91.319088 
765.000000	 91.394111 
764.000000	 91.445415 
763.000000	 91.498624 
762.000000	 91.569025 
761.000000	 91.648373 
760.000000	 91.728546 
759.000000	 91.816901 
758.000000	 91.919051 
757.000000	 92.027493 
756.000000	 92.138341 
755.000000	 92.260188 
754.000000	 92.394613 
753.000000	 92.524481 
752.000000	 92.632756 
751.000000	 92.720314 
750.000000	 92.798701 
749.000000	 92.878790 
748.000000	 92.971306 
747.000000	 93.082682 
746.000000	 93.203962 
745.000000	 93.318893 
744.000000	 93.428178 
743.000000	 93.549976 
742.000000	 93.692943 
741.000000	 93.846859 
740.000000	 94.003277 
739.000000	 94.165605 
738.000000	 94.333482 
737.000000	 94.496180 
736.000000	 94.648092 
735.000000	 94.793380 
734.000000	 94.930544 
733.000000	 95.050431 
732.000000	 95.152910 
731.000000	 95.246445 
730.000000	 95.328006 
729.000000	 95.385160 
728.000000	 95.419022 
727.000000	 95.446686 
726.000000	 95.481782 
725.000000	 95.527450 
724.000000	 95.588505 
723.000000	 95.671535 
722.000000	 95.769606 
721.000000	 95.864573 
720.000000	 95.949050 
719.000000	 96.031206 
718.000000	 96.115335 
717.000000	 96.195809 
716.000000	 96.272992 
715.000000	 96.352911 
714.000000	 96.428086 
713.000000	 96.482277 
712.000000	 96.517448 
711.000000	 96.552693 
710.000000	 96.591681 
709.000000	 96.622584 
708.000000	 96.640508 
707.000000	 96.651568 
706.000000	 96.654581 
705.000000	 96.635012 
704.000000	 96.584195 
703.000000	 96.507847 
702.000000	 96.402630 
701.000000	 96.244133 
700.000000	 96.014145 
699.000000	 95.721041 
698.000000	 95.392134 
697.000000	 95.062929 
696.000000	 94.778769 
695.000000	 94.590309 
694.000000	 94.523323 
693.000000	 94.563474 
692.000000	 94.679085 
691.000000	 94.840289 
690.000000	 95.020309 
689.000000	 95.195790 
688.000000	 95.355395 
687.000000	 95.500359 
686.000000	 95.626912 
685.000000	 95.727077 
684.000000	 95.809958 
683.000000	 95.895469 
682.000000	 95.987134 
681.000000	 96.072107 
680.000000	 96.148769 
679.000000	 96.228593 
678.000000	 96.311636 
677.000000	 96.392312 
676.000000	 96.473110 
675.000000	 96.562982 
674.000000	 96.654963 
673.000000	 96.719315 
672.000000	 96.728161 
671.000000	 96.667507 
670.000000	 96.533738 
669.000000	 96.351994 
668.000000	 96.282822 
667.000000	 96.487973 
666.000000	 96.811041 
665.000000	 97.051651 
664.000000	 97.198829 
663.000000	 97.292025 
662.000000	 97.360651 
661.000000	 97.417559 
660.000000	 97.467650 
659.000000	 97.515518 
658.000000	 97.560275 
657.000000	 97.597609 
656.000000	 97.618771 
655.000000	 97.619859 
654.000000	 97.607227 
653.000000	 97.590598 
652.000000	 97.577796 
651.000000	 97.579185 
650.000000	 97.602269 

