4000.000000	97.457261 
3999.000000	97.456185 
3998.000000	97.454033 
3997.000000	97.451758 
3996.000000	97.450364 
3995.000000	97.450135 
3994.000000	97.450875 
3993.000000	97.452078 
3992.000000	97.453081 
3991.000000	97.453457 
3990.000000	97.453245 
3989.000000	97.452786 
3988.000000	97.452330 
3987.000000	97.451900 
3986.000000	97.451572 
3985.000000	97.451567 
3984.000000	97.451864 
3983.000000	97.452077 
3982.000000	97.452006 
3981.000000	97.451934 
3980.000000	97.452059 
3979.000000	97.451979 
3978.000000	97.451215 
3977.000000	97.450092 
3976.000000	97.449492 
3975.000000	97.449719 
3974.000000	97.450078 
3973.000000	97.449736 
3972.000000	97.448562 
3971.000000	97.446951 
3970.000000	97.445402 
3969.000000	97.444339 
3968.000000	97.444040 
3967.000000	97.444421 
3966.000000	97.445007 
3965.000000	97.445209 
3964.000000	97.444615 
3963.000000	97.443216 
3962.000000	97.441493 
3961.000000	97.440228 
3960.000000	97.439792 
3959.000000	97.439713 
3958.000000	97.439422 
3957.000000	97.438968 
3956.000000	97.438685 
3955.000000	97.438352 
3954.000000	97.437278 
3953.000000	97.435167 
3952.000000	97.432431 
3951.000000	97.429923 
3950.000000	97.428301 
3949.000000	97.427641 
3948.000000	97.427528 
3947.000000	97.427593 
3946.000000	97.427750 
3945.000000	97.427830 
3944.000000	97.427488 
3943.000000	97.426773 
3942.000000	97.426438 
3941.000000	97.427274 
3940.000000	97.428974 
3939.000000	97.429962 
3938.000000	97.429230 
3937.000000	97.427280 
3936.000000	97.425263 
3935.000000	97.423583 
3934.000000	97.421998 
3933.000000	97.420832 
3932.000000	97.420691 
3931.000000	97.421307 
3930.000000	97.421722 
3929.000000	97.421606 
3928.000000	97.421657 
3927.000000	97.422192 
3926.000000	97.422385 
3925.000000	97.421610 
3924.000000	97.420518 
3923.000000	97.419983 
3922.000000	97.419792 
3921.000000	97.419468 
3920.000000	97.419221 
3919.000000	97.419344 
3918.000000	97.419601 
3917.000000	97.419659 
3916.000000	97.419545 
3915.000000	97.419386 
3914.000000	97.419225 
3913.000000	97.419092 
3912.000000	97.418950 
3911.000000	97.418781 
3910.000000	97.418591 
3909.000000	97.418401 
3908.000000	97.418226 
3907.000000	97.418068 
3906.000000	97.417925 
3905.000000	97.417808 
3904.000000	97.417734 
3903.000000	97.417716 
3902.000000	97.417754 
3901.000000	97.417829 
3900.000000	97.417907 
3899.000000	97.417956 
3898.000000	97.417964 
3897.000000	97.417940 
3896.000000	97.417899 
3895.000000	97.417841 
3894.000000	97.417754 
3893.000000	97.417640 
3892.000000	97.417513 
3891.000000	97.417376 
3890.000000	97.417242 
3889.000000	97.417131 
3888.000000	97.417039 
3887.000000	97.416949 
3886.000000	97.416852 
3885.000000	97.416761 
3884.000000	97.416694 
3883.000000	97.416650 
3882.000000	97.416609 
3881.000000	97.416563 
3880.000000	97.416532 
3879.000000	97.416536 
3878.000000	97.416580 
3877.000000	97.416639 
3876.000000	97.416687 
3875.000000	97.416726 
3874.000000	97.416781 
3873.000000	97.416879 
3872.000000	97.417024 
3871.000000	97.417195 
3870.000000	97.417385 
3869.000000	97.417616 
3868.000000	97.417911 
3867.000000	97.418246 
3866.000000	97.418572 
3865.000000	97.418878 
3864.000000	97.419188 
3863.000000	97.419505 
3862.000000	97.419801 
3861.000000	97.420058 
3860.000000	97.420292 
3859.000000	97.420524 
3858.000000	97.420769 
3857.000000	97.421047 
3856.000000	97.421401 
3855.000000	97.421873 
3854.000000	97.422449 
3853.000000	97.423081 
3852.000000	97.423777 
3851.000000	97.424575 
3850.000000	97.425453 
3849.000000	97.426355 
3848.000000	97.427243 
3847.000000	97.428108 
3846.000000	97.428956 
3845.000000	97.429800 
3844.000000	97.430645 
3843.000000	97.431486 
3842.000000	97.432320 
3841.000000	97.433160 
3840.000000	97.434022 
3839.000000	97.434905 
3838.000000	97.435791 
3837.000000	97.436662 
3836.000000	97.437521 
3835.000000	97.438379 
3834.000000	97.439237 
3833.000000	97.440087 
3832.000000	97.440920 
3831.000000	97.441734 
3830.000000	97.442529 
3829.000000	97.443307 
3828.000000	97.444065 
3827.000000	97.444794 
3826.000000	97.445486 
3825.000000	97.446153 
3824.000000	97.446819 
3823.000000	97.447491 
3822.000000	97.448144 
3821.000000	97.448760 
3820.000000	97.449365 
3819.000000	97.450001 
3818.000000	97.450655 
3817.000000	97.451277 
3816.000000	97.451844 
3815.000000	97.452379 
3814.000000	97.452903 
3813.000000	97.453387 
3812.000000	97.453788 
3811.000000	97.454116 
3810.000000	97.454406 
3809.000000	97.454660 
3808.000000	97.454846 
3807.000000	97.454957 
3806.000000	97.455034 
3805.000000	97.455128 
3804.000000	97.455251 
3803.000000	97.455373 
3802.000000	97.455474 
3801.000000	97.455567 
3800.000000	97.455686 
3799.000000	97.455832 
3798.000000	97.455958 
3797.000000	97.456032 
3796.000000	97.456064 
3795.000000	97.456075 
3794.000000	97.456075 
3793.000000	97.456056 
3792.000000	97.456009 
3791.000000	97.455931 
3790.000000	97.455822 
3789.000000	97.455686 
3788.000000	97.455528 
3787.000000	97.455354 
3786.000000	97.455160 
3785.000000	97.454946 
3784.000000	97.454734 
3783.000000	97.454542 
3782.000000	97.454351 
3781.000000	97.454124 
3780.000000	97.453850 
3779.000000	97.453545 
3778.000000	97.453221 
3777.000000	97.452869 
3776.000000	97.452478 
3775.000000	97.452067 
3774.000000	97.451661 
3773.000000	97.451262 
3772.000000	97.450852 
3771.000000	97.450415 
3770.000000	97.449961 
3769.000000	97.449511 
3768.000000	97.449072 
3767.000000	97.448632 
3766.000000	97.448188 
3765.000000	97.447757 
3764.000000	97.447359 
3763.000000	97.446979 
3762.000000	97.446579 
3761.000000	97.446131 
3760.000000	97.445638 
3759.000000	97.445105 
3758.000000	97.444518 
3757.000000	97.443867 
3756.000000	97.443172 
3755.000000	97.442482 
3754.000000	97.441837 
3753.000000	97.441257 
3752.000000	97.440741 
3751.000000	97.440261 
3750.000000	97.439779 
3749.000000	97.439284 
3748.000000	97.438796 
3747.000000	97.438320 
3746.000000	97.437826 
3745.000000	97.437275 
3744.000000	97.436641 
3743.000000	97.435929 
3742.000000	97.435133 
3741.000000	97.434191 
3740.000000	97.433066 
3739.000000	97.431793 
3738.000000	97.430426 
3737.000000	97.428961 
3736.000000	97.427400 
3735.000000	97.425787 
3734.000000	97.424374 
3733.000000	97.423077 
3732.000000	97.421109 
3731.000000	97.418483 
3730.000000	97.416597 
3729.000000	97.415792 
3728.000000	97.414406 
3727.000000	97.411500 
3726.000000	97.408560 
3725.000000	97.407554 
3724.000000	97.407590 
3723.000000	97.405993 
3722.000000	97.402244 
3721.000000	97.397790 
3720.000000	97.393569 
3719.000000	97.388651 
3718.000000	97.382039 
3717.000000	97.375071 
3716.000000	97.370348 
3715.000000	97.368395 
3714.000000	97.367985 
3713.000000	97.369697 
3712.000000	97.373226 
3711.000000	97.373569 
3710.000000	97.367368 
3709.000000	97.356151 
3708.000000	97.342196 
3707.000000	97.327321 
3706.000000	97.313598 
3705.000000	97.302239 
3704.000000	97.292311 
3703.000000	97.281821 
3702.000000	97.268895 
3701.000000	97.253713 
3700.000000	97.240248 
3699.000000	97.231181 
3698.000000	97.223369 
3697.000000	97.213755 
3696.000000	97.204459 
3695.000000	97.198517 
3694.000000	97.193929 
3693.000000	97.186586 
3692.000000	97.176693 
3691.000000	97.167210 
3690.000000	97.158084 
3689.000000	97.145942 
3688.000000	97.131794 
3687.000000	97.122221 
3686.000000	97.118259 
3685.000000	97.112883 
3684.000000	97.102164 
3683.000000	97.089282 
3682.000000	97.077549 
3681.000000	97.065307 
3680.000000	97.049768 
3679.000000	97.033236 
3678.000000	97.019628 
3677.000000	97.008205 
3676.000000	96.993849 
3675.000000	96.974834 
3674.000000	96.958040 
3673.000000	96.947140 
3672.000000	96.936209 
3671.000000	96.921363 
3670.000000	96.904311 
3669.000000	96.887702 
3668.000000	96.873580 
3667.000000	96.861023 
3666.000000	96.847474 
3665.000000	96.832722 
3664.000000	96.818136 
3663.000000	96.803705 
3662.000000	96.787613 
3661.000000	96.768804 
3660.000000	96.749152 
3659.000000	96.732238 
3658.000000	96.718543 
3657.000000	96.703348 
3656.000000	96.681400 
3655.000000	96.658010 
3654.000000	96.641700 
3653.000000	96.626950 
3652.000000	96.605505 
3651.000000	96.584386 
3650.000000	96.572543 
3649.000000	96.561805 
3648.000000	96.542114 
3647.000000	96.520200 
3646.000000	96.508693 
3645.000000	96.508569 
3644.000000	96.510332 
3643.000000	96.505795 
3642.000000	96.495447 
3641.000000	96.484007 
3640.000000	96.472378 
3639.000000	96.456764 
3638.000000	96.436342 
3637.000000	96.417464 
3636.000000	96.402524 
3635.000000	96.383255 
3634.000000	96.352586 
3633.000000	96.318523 
3632.000000	96.294884 
3631.000000	96.284615 
3630.000000	96.281699 
3629.000000	96.269424 
3628.000000	96.243243 
3627.000000	96.231567 
3626.000000	96.238537 
3625.000000	96.235412 
3624.000000	96.215731 
3623.000000	96.194758 
3622.000000	96.181101 
3621.000000	96.171584 
3620.000000	96.163534 
3619.000000	96.159121 
3618.000000	96.163566 
3617.000000	96.182204 
3616.000000	96.210955 
3615.000000	96.239142 
3614.000000	96.261159 
3613.000000	96.278631 
3612.000000	96.296054 
3611.000000	96.314762 
3610.000000	96.331104 
3609.000000	96.341765 
3608.000000	96.347350 
3607.000000	96.350934 
3606.000000	96.354912 
3605.000000	96.359598 
3604.000000	96.366813 
3603.000000	96.380150 
3602.000000	96.397492 
3601.000000	96.410302 
3600.000000	96.414156 
3599.000000	96.413303 
3598.000000	96.413352 
3597.000000	96.418261 
3596.000000	96.429032 
3595.000000	96.441391 
3594.000000	96.447977 
3593.000000	96.445738 
3592.000000	96.437361 
3591.000000	96.426740 
3590.000000	96.417918 
3589.000000	96.415478 
3588.000000	96.420685 
3587.000000	96.429974 
3586.000000	96.442119 
3585.000000	96.456794 
3584.000000	96.469473 
3583.000000	96.477565 
3582.000000	96.483301 
3581.000000	96.488858 
3580.000000	96.493646 
3579.000000	96.496679 
3578.000000	96.498061 
3577.000000	96.498663 
3576.000000	96.499038 
3575.000000	96.498194 
3574.000000	96.494464 
3573.000000	96.486838 
3572.000000	96.476001 
3571.000000	96.464125 
3570.000000	96.454285 
3569.000000	96.449485 
3568.000000	96.451325 
3567.000000	96.458145 
3566.000000	96.466908 
3565.000000	96.475745 
3564.000000	96.481733 
3563.000000	96.483068 
3562.000000	96.482491 
3561.000000	96.484028 
3560.000000	96.488148 
3559.000000	96.491923 
3558.000000	96.492743 
3557.000000	96.490654 
3556.000000	96.488060 
3555.000000	96.487125 
3554.000000	96.487712 
3553.000000	96.487965 
3552.000000	96.486706 
3551.000000	96.484525 
3550.000000	96.482127 
3549.000000	96.479320 
3548.000000	96.476808 
3547.000000	96.476527 
3546.000000	96.478846 
3545.000000	96.481940 
3544.000000	96.484443 
3543.000000	96.486574 
3542.000000	96.488779 
3541.000000	96.490743 
3540.000000	96.492053 
3539.000000	96.492630 
3538.000000	96.492565 
3537.000000	96.492139 
3536.000000	96.491840 
3535.000000	96.491999 
3534.000000	96.492333 
3533.000000	96.492460 
3532.000000	96.492593 
3531.000000	96.493373 
3530.000000	96.494785 
3529.000000	96.495753 
3528.000000	96.495300 
3527.000000	96.493676 
3526.000000	96.492108 
3525.000000	96.491533 
3524.000000	96.492094 
3523.000000	96.493487 
3522.000000	96.495241 
3521.000000	96.496836 
3520.000000	96.497973 
3519.000000	96.498775 
3518.000000	96.499508 
3517.000000	96.500115 
3516.000000	96.500131 
3515.000000	96.499302 
3514.000000	96.498169 
3513.000000	96.497671 
3512.000000	96.498065 
3511.000000	96.498645 
3510.000000	96.498553 
3509.000000	96.497680 
3508.000000	96.496694 
3507.000000	96.496174 
3506.000000	96.495908 
3505.000000	96.495286 
3504.000000	96.494136 
3503.000000	96.492898 
3502.000000	96.492140 
3501.000000	96.492020 
3500.000000	96.492264 
3499.000000	96.492565 
3498.000000	96.492836 
3497.000000	96.493025 
3496.000000	96.492918 
3495.000000	96.492313 
3494.000000	96.491407 
3493.000000	96.490764 
3492.000000	96.490633 
3491.000000	96.490537 
3490.000000	96.489825 
3489.000000	96.488444 
3488.000000	96.486887 
3487.000000	96.485478 
3486.000000	96.484051 
3485.000000	96.482421 
3484.000000	96.480748 
3483.000000	96.479232 
3482.000000	96.477800 
3481.000000	96.476462 
3480.000000	96.475569 
3479.000000	96.475319 
3478.000000	96.475218 
3477.000000	96.474401 
3476.000000	96.472505 
3475.000000	96.469927 
3474.000000	96.467357 
3473.000000	96.465176 
3472.000000	96.463255 
3471.000000	96.461203 
3470.000000	96.458839 
3469.000000	96.456458 
3468.000000	96.454635 
3467.000000	96.453761 
3466.000000	96.453712 
3465.000000	96.453799 
3464.000000	96.453085 
3463.000000	96.450975 
3462.000000	96.447571 
3461.000000	96.443661 
3460.000000	96.440223 
3459.000000	96.437712 
3458.000000	96.435886 
3457.000000	96.434134 
3456.000000	96.432000 
3455.000000	96.429567 
3454.000000	96.427279 
3453.000000	96.425455 
3452.000000	96.424080 
3451.000000	96.422970 
3450.000000	96.421867 
3449.000000	96.420382 
3448.000000	96.418183 
3447.000000	96.415293 
3446.000000	96.412106 
3445.000000	96.409011 
3444.000000	96.406172 
3443.000000	96.403744 
3442.000000	96.401904 
3441.000000	96.400420 
3440.000000	96.398566 
3439.000000	96.395763 
3438.000000	96.392232 
3437.000000	96.388835 
3436.000000	96.386274 
3435.000000	96.384738 
3434.000000	96.383995 
3433.000000	96.383551 
3432.000000	96.382897 
3431.000000	96.381853 
3430.000000	96.380574 
3429.000000	96.379180 
3428.000000	96.377525 
3427.000000	96.375426 
3426.000000	96.373143 
3425.000000	96.371379 
3424.000000	96.370583 
3423.000000	96.370317 
3422.000000	96.369604 
3421.000000	96.368053 
3420.000000	96.366278 
3419.000000	96.365056 
3418.000000	96.364375 
3417.000000	96.363719 
3416.000000	96.362948 
3415.000000	96.362316 
3414.000000	96.361684 
3413.000000	96.360396 
3412.000000	96.358165 
3411.000000	96.355648 
3410.000000	96.353907 
3409.000000	96.353445 
3408.000000	96.353956 
3407.000000	96.354645 
3406.000000	96.354765 
3405.000000	96.354081 
3404.000000	96.352886 
3403.000000	96.351588 
3402.000000	96.350316 
3401.000000	96.349104 
3400.000000	96.348232 
3399.000000	96.348014 
3398.000000	96.348315 
3397.000000	96.348614 
3396.000000	96.348564 
3395.000000	96.348249 
3394.000000	96.347863 
3393.000000	96.347422 
3392.000000	96.346880 
3391.000000	96.346314 
3390.000000	96.345933 
3389.000000	96.345988 
3388.000000	96.346706 
3387.000000	96.348140 
3386.000000	96.349950 
3385.000000	96.351462 
3384.000000	96.352078 
3383.000000	96.351733 
3382.000000	96.351040 
3381.000000	96.350939 
3380.000000	96.351875 
3379.000000	96.353378 
3378.000000	96.354609 
3377.000000	96.355429 
3376.000000	96.356519 
3375.000000	96.358286 
3374.000000	96.360121 
3373.000000	96.361041 
3372.000000	96.360872 
3371.000000	96.360480 
3370.000000	96.360917 
3369.000000	96.362482 
3368.000000	96.364685 
3367.000000	96.366770 
3366.000000	96.368294 
3365.000000	96.369319 
3364.000000	96.370212 
3363.000000	96.371229 
3362.000000	96.372305 
3361.000000	96.373291 
3360.000000	96.374330 
3359.000000	96.375816 
3358.000000	96.377951 
3357.000000	96.380502 
3356.000000	96.382997 
3355.000000	96.385070 
3354.000000	96.386641 
3353.000000	96.387899 
3352.000000	96.389201 
3351.000000	96.390861 
3350.000000	96.392937 
3349.000000	96.395204 
3348.000000	96.397329 
3347.000000	96.399111 
3346.000000	96.400567 
3345.000000	96.401861 
3344.000000	96.403149 
3343.000000	96.404435 
3342.000000	96.405602 
3341.000000	96.406648 
3340.000000	96.407735 
3339.000000	96.408927 
3338.000000	96.410107 
3337.000000	96.411187 
3336.000000	96.412277 
3335.000000	96.413569 
3334.000000	96.415129 
3333.000000	96.416850 
3332.000000	96.418582 
3331.000000	96.420227 
3330.000000	96.421713 
3329.000000	96.423001 
3328.000000	96.424152 
3327.000000	96.425350 
3326.000000	96.426777 
3325.000000	96.428452 
3324.000000	96.430230 
3323.000000	96.431918 
3322.000000	96.433441 
3321.000000	96.434860 
3320.000000	96.436264 
3319.000000	96.437674 
3318.000000	96.439072 
3317.000000	96.440465 
3316.000000	96.441874 
3315.000000	96.443293 
3314.000000	96.444688 
3313.000000	96.446042 
3312.000000	96.447377 
3311.000000	96.448727 
3310.000000	96.450107 
3309.000000	96.451518 
3308.000000	96.452952 
3307.000000	96.454391 
3306.000000	96.455815 
3305.000000	96.457227 
3304.000000	96.458662 
3303.000000	96.460157 
3302.000000	96.461724 
3301.000000	96.463343 
3300.000000	96.464969 
3299.000000	96.466554 
3298.000000	96.468071 
3297.000000	96.469540 
3296.000000	96.471063 
3295.000000	96.472726 
3294.000000	96.474536 
3293.000000	96.476417 
3292.000000	96.478286 
3291.000000	96.480111 
3290.000000	96.481885 
3289.000000	96.483609 
3288.000000	96.485291 
3287.000000	96.486951 
3286.000000	96.488596 
3285.000000	96.490223 
3284.000000	96.491842 
3283.000000	96.493483 
3282.000000	96.495182 
3281.000000	96.496951 
3280.000000	96.498762 
3279.000000	96.500557 
3278.000000	96.502300 
3277.000000	96.504007 
3276.000000	96.505729 
3275.000000	96.507490 
3274.000000	96.509271 
3273.000000	96.511056 
3272.000000	96.512880 
3271.000000	96.514782 
3270.000000	96.516754 
3269.000000	96.518742 
3268.000000	96.520685 
3267.000000	96.522562 
3266.000000	96.524395 
3265.000000	96.526241 
3264.000000	96.528152 
3263.000000	96.530128 
3262.000000	96.532117 
3261.000000	96.534061 
3260.000000	96.535952 
3259.000000	96.537818 
3258.000000	96.539685 
3257.000000	96.541564 
3256.000000	96.543469 
3255.000000	96.545401 
3254.000000	96.547320 
3253.000000	96.549187 
3252.000000	96.551018 
3251.000000	96.552880 
3250.000000	96.554812 
3249.000000	96.556789 
3248.000000	96.558749 
3247.000000	96.560671 
3246.000000	96.562596 
3245.000000	96.564595 
3244.000000	96.566712 
3243.000000	96.568929 
3242.000000	96.571161 
3241.000000	96.573314 
3240.000000	96.575351 
3239.000000	96.577322 
3238.000000	96.579340 
3237.000000	96.581497 
3236.000000	96.583801 
3235.000000	96.586145 
3234.000000	96.588369 
3233.000000	96.590378 
3232.000000	96.592226 
3231.000000	96.594097 
3230.000000	96.596147 
3229.000000	96.598401 
3228.000000	96.600796 
3227.000000	96.603280 
3226.000000	96.605870 
3225.000000	96.608588 
3224.000000	96.611358 
3223.000000	96.614034 
3222.000000	96.616508 
3221.000000	96.618812 
3220.000000	96.621095 
3219.000000	96.623469 
3218.000000	96.625928 
3217.000000	96.628403 
3216.000000	96.630860 
3215.000000	96.633359 
3214.000000	96.636024 
3213.000000	96.638919 
3212.000000	96.641920 
3211.000000	96.644756 
3210.000000	96.647229 
3209.000000	96.649400 
3208.000000	96.651543 
3207.000000	96.653875 
3206.000000	96.656359 
3205.000000	96.658851 
3204.000000	96.661380 
3203.000000	96.664179 
3202.000000	96.667395 
3201.000000	96.670839 
3200.000000	96.674086 
3199.000000	96.676891 
3198.000000	96.679430 
3197.000000	96.682091 
3196.000000	96.685004 
3195.000000	96.687946 
3194.000000	96.690732 
3193.000000	96.693548 
3192.000000	96.696723 
3191.000000	96.700259 
3190.000000	96.703732 
3189.000000	96.706735 
3188.000000	96.709255 
3187.000000	96.711652 
3186.000000	96.714328 
3185.000000	96.717407 
3184.000000	96.720682 
3183.000000	96.723851 
3182.000000	96.726842 
3181.000000	96.729790 
3180.000000	96.732743 
3179.000000	96.735549 
3178.000000	96.738110 
3177.000000	96.740609 
3176.000000	96.743329 
3175.000000	96.746357 
3174.000000	96.749590 
3173.000000	96.752910 
3172.000000	96.756229 
3171.000000	96.759423 
3170.000000	96.762392 
3169.000000	96.765186 
3168.000000	96.767908 
3167.000000	96.770562 
3166.000000	96.773124 
3165.000000	96.775673 
3164.000000	96.778289 
3163.000000	96.780923 
3162.000000	96.783465 
3161.000000	96.785900 
3160.000000	96.788306 
3159.000000	96.790744 
3158.000000	96.793247 
3157.000000	96.795857 
3156.000000	96.798574 
3155.000000	96.801284 
3154.000000	96.803855 
3153.000000	96.806311 
3152.000000	96.808828 
3151.000000	96.811512 
3150.000000	96.814277 
3149.000000	96.816953 
3148.000000	96.819482 
3147.000000	96.821970 
3146.000000	96.824601 
3145.000000	96.827482 
3144.000000	96.830526 
3143.000000	96.833424 
3142.000000	96.835873 
3141.000000	96.837841 
3140.000000	96.839640 
3139.000000	96.841692 
3138.000000	96.844172 
3137.000000	96.846959 
3136.000000	96.849752 
3135.000000	96.852279 
3134.000000	96.854467 
3133.000000	96.856486 
3132.000000	96.858606 
3131.000000	96.860917 
3130.000000	96.863331 
3129.000000	96.865877 
3128.000000	96.868814 
3127.000000	96.872286 
3126.000000	96.875994 
3125.000000	96.879353 
3124.000000	96.882015 
3123.000000	96.884069 
3122.000000	96.885772 
3121.000000	96.887302 
3120.000000	96.888781 
3119.000000	96.890363 
3118.000000	96.892225 
3117.000000	96.894535 
3116.000000	96.897395 
3115.000000	96.900712 
3114.000000	96.904160 
3113.000000	96.907382 
3112.000000	96.910297 
3111.000000	96.913141 
3110.000000	96.916174 
3109.000000	96.919387 
3108.000000	96.922541 
3107.000000	96.925451 
3106.000000	96.928084 
3105.000000	96.930356 
3104.000000	96.932006 
3103.000000	96.932801 
3102.000000	96.932919 
3101.000000	96.933085 
3100.000000	96.934134 
3099.000000	96.936393 
3098.000000	96.939626 
3097.000000	96.943485 
3096.000000	96.947641 
3095.000000	96.951456 
3094.000000	96.954156 
3093.000000	96.955605 
3092.000000	96.956627 
3091.000000	96.958092 
3090.000000	96.959863 
3089.000000	96.961091 
3088.000000	96.961373 
3087.000000	96.961307 
3086.000000	96.961971 
3085.000000	96.963950 
3084.000000	96.966810 
3083.000000	96.969382 
3082.000000	96.970791 
3081.000000	96.971358 
3080.000000	96.972360 
3079.000000	96.974692 
3078.000000	96.978058 
3077.000000	96.981643 
3076.000000	96.985154 
3075.000000	96.988588 
3074.000000	96.991406 
3073.000000	96.992887 
3072.000000	96.993181 
3071.000000	96.993114 
3070.000000	96.993011 
3069.000000	96.992745 
3068.000000	96.992939 
3067.000000	96.994815 
3066.000000	96.998455 
3065.000000	97.002255 
3064.000000	97.004641 
3063.000000	97.005395 
3062.000000	97.004959 
3061.000000	97.003618 
3060.000000	97.001935 
3059.000000	97.001043 
3058.000000	97.001810 
3057.000000	97.004167 
3056.000000	97.007347 
3055.000000	97.010102 
3054.000000	97.010795 
3053.000000	97.008640 
3052.000000	97.005410 
3051.000000	97.004563 
3050.000000	97.007637 
3049.000000	97.012406 
3048.000000	97.015263 
3047.000000	97.014628 
3046.000000	97.011298 
3045.000000	97.006788 
3044.000000	97.002708 
3043.000000	97.001042 
3042.000000	97.003256 
3041.000000	97.008448 
3040.000000	97.013223 
3039.000000	97.014358 
3038.000000	97.011349 
3037.000000	97.006147 
3036.000000	97.000753 
3035.000000	96.995562 
3034.000000	96.990270 
3033.000000	96.985483 
3032.000000	96.982328 
3031.000000	96.980724 
3030.000000	96.979338 
3029.000000	96.977361 
3028.000000	96.974975 
3027.000000	96.971669 
3026.000000	96.965720 
3025.000000	96.956642 
3024.000000	96.947000 
3023.000000	96.939987 
3022.000000	96.935736 
3021.000000	96.931964 
3020.000000	96.927716 
3019.000000	96.924104 
3018.000000	96.921166 
3017.000000	96.916478 
3016.000000	96.908039 
3015.000000	96.896950 
3014.000000	96.886366 
3013.000000	96.878847 
3012.000000	96.875034 
3011.000000	96.873374 
3010.000000	96.870527 
3009.000000	96.863544 
3008.000000	96.852523 
3007.000000	96.840316 
3006.000000	96.829226 
3005.000000	96.819230 
3004.000000	96.809871 
3003.000000	96.802116 
3002.000000	96.797095 
3001.000000	96.794192 
3000.000000	96.791465 
2999.000000	96.787066 
2998.000000	96.779679 
2997.000000	96.768871 
2996.000000	96.756042 
2995.000000	96.743949 
2994.000000	96.733943 
2993.000000	96.724304 
2992.000000	96.712399 
2991.000000	96.698094 
2990.000000	96.684233 
2989.000000	96.674283 
2988.000000	96.670275 
2987.000000	96.672204 
2986.000000	96.678221 
2985.000000	96.685514 
2984.000000	96.691846 
2983.000000	96.696566 
2982.000000	96.700179 
2981.000000	96.703374 
2980.000000	96.706415 
2979.000000	96.708645 
2978.000000	96.708534 
2977.000000	96.705288 
2976.000000	96.700787 
2975.000000	96.698768 
2974.000000	96.701418 
2973.000000	96.707740 
2972.000000	96.715620 
2971.000000	96.724204 
2970.000000	96.733327 
2969.000000	96.741965 
2968.000000	96.748826 
2967.000000	96.753903 
2966.000000	96.758277 
2965.000000	96.762812 
2964.000000	96.767995 
2963.000000	96.774452 
2962.000000	96.782419 
2961.000000	96.791011 
2960.000000	96.799106 
2959.000000	96.806807 
2958.000000	96.815102 
2957.000000	96.824135 
2956.000000	96.832512 
2955.000000	96.838368 
2954.000000	96.840940 
2953.000000	96.841557 
2952.000000	96.843321 
2951.000000	96.848847 
2950.000000	96.857435 
2949.000000	96.865184 
2948.000000	96.868755 
2947.000000	96.868389 
2946.000000	96.866793 
2945.000000	96.866083 
2944.000000	96.866897 
2943.000000	96.869461 
2942.000000	96.873563 
2941.000000	96.877696 
2940.000000	96.880050 
2939.000000	96.880720 
2938.000000	96.881656 
2937.000000	96.884104 
2936.000000	96.887153 
2935.000000	96.889038 
2934.000000	96.888800 
2933.000000	96.886379 
2932.000000	96.882377 
2931.000000	96.878411 
2930.000000	96.876734 
2929.000000	96.878560 
2928.000000	96.882975 
2927.000000	96.887849 
2926.000000	96.891553 
2925.000000	96.893833 
2924.000000	96.895633 
2923.000000	96.898214 
2922.000000	96.901716 
2921.000000	96.904444 
2920.000000	96.904457 
2919.000000	96.902071 
2918.000000	96.899753 
2917.000000	96.898876 
2916.000000	96.897659 
2915.000000	96.893526 
2914.000000	96.886849 
2913.000000	96.880948 
2912.000000	96.878373 
2911.000000	96.878411 
2910.000000	96.878613 
2909.000000	96.877937 
2908.000000	96.877590 
2907.000000	96.878994 
2906.000000	96.881584 
2905.000000	96.882724 
2904.000000	96.879889 
2903.000000	96.873491 
2902.000000	96.867523 
2901.000000	96.866723 
2900.000000	96.872593 
2899.000000	96.882482 
2898.000000	96.892312 
2897.000000	96.899955 
2896.000000	96.905549 
2895.000000	96.909382 
2894.000000	96.911327 
2893.000000	96.912370 
2892.000000	96.914845 
2891.000000	96.919896 
2890.000000	96.925713 
2889.000000	96.929697 
2888.000000	96.931811 
2887.000000	96.934150 
2886.000000	96.937441 
2885.000000	96.940054 
2884.000000	96.941174 
2883.000000	96.942961 
2882.000000	96.947967 
2881.000000	96.955692 
2880.000000	96.963602 
2879.000000	96.970938 
2878.000000	96.979277 
2877.000000	96.989084 
2876.000000	96.997892 
2875.000000	97.003163 
2874.000000	97.005563 
2873.000000	97.008029 
2872.000000	97.012273 
2871.000000	97.017469 
2870.000000	97.022075 
2869.000000	97.025609 
2868.000000	97.028528 
2867.000000	97.031516 
2866.000000	97.035261 
2865.000000	97.040184 
2864.000000	97.046056 
2863.000000	97.052474 
2862.000000	97.059904 
2861.000000	97.069347 
2860.000000	97.080518 
2859.000000	97.091306 
2858.000000	97.099916 
2857.000000	97.107074 
2856.000000	97.115119 
2855.000000	97.124926 
2854.000000	97.134638 
2853.000000	97.141626 
2852.000000	97.144947 
2851.000000	97.145810 
2850.000000	97.146413 
2849.000000	97.148552 
2848.000000	97.152804 
2847.000000	97.158358 
2846.000000	97.163632 
2845.000000	97.167442 
2844.000000	97.169744 
2843.000000	97.171345 
2842.000000	97.173158 
2841.000000	97.175723 
2840.000000	97.178989 
2839.000000	97.182247 
2838.000000	97.184588 
2837.000000	97.185822 
2836.000000	97.186869 
2835.000000	97.189012 
2834.000000	97.192814 
2833.000000	97.197929 
2832.000000	97.203590 
2831.000000	97.208828 
2830.000000	97.212474 
2829.000000	97.213707 
2828.000000	97.213010 
2827.000000	97.212291 
2826.000000	97.213613 
2825.000000	97.217623 
2824.000000	97.223175 
2823.000000	97.228250 
2822.000000	97.231360 
2821.000000	97.232376 
2820.000000	97.232279 
2819.000000	97.232202 
2818.000000	97.232627 
2817.000000	97.233476 
2816.000000	97.234712 
2815.000000	97.236426 
2814.000000	97.238336 
2813.000000	97.239605 
2812.000000	97.239558 
2811.000000	97.238505 
2810.000000	97.237676 
2809.000000	97.238238 
2808.000000	97.240434 
2807.000000	97.243623 
2806.000000	97.246908 
2805.000000	97.249712 
2804.000000	97.251873 
2803.000000	97.253385 
2802.000000	97.254310 
2801.000000	97.254931 
2800.000000	97.255716 
2799.000000	97.256937 
2798.000000	97.258380 
2797.000000	97.259578 
2796.000000	97.260326 
2795.000000	97.260862 
2794.000000	97.261591 
2793.000000	97.262715 
2792.000000	97.264166 
2791.000000	97.265750 
2790.000000	97.267265 
2789.000000	97.268581 
2788.000000	97.269695 
2787.000000	97.270731 
2786.000000	97.271836 
2785.000000	97.273059 
2784.000000	97.274334 
2783.000000	97.275567 
2782.000000	97.276722 
2781.000000	97.277839 
2780.000000	97.278960 
2779.000000	97.280095 
2778.000000	97.281235 
2777.000000	97.282368 
2776.000000	97.283491 
2775.000000	97.284604 
2774.000000	97.285708 
2773.000000	97.286805 
2772.000000	97.287896 
2771.000000	97.288981 
2770.000000	97.290067 
2769.000000	97.291159 
2768.000000	97.292256 
2767.000000	97.293346 
2766.000000	97.294408 
2765.000000	97.295433 
2764.000000	97.296428 
2763.000000	97.297405 
2762.000000	97.298373 
2761.000000	97.299330 
2760.000000	97.300282 
2759.000000	97.301240 
2758.000000	97.302210 
2757.000000	97.303184 
2756.000000	97.304134 
2755.000000	97.305039 
2754.000000	97.305908 
2753.000000	97.306783 
2752.000000	97.307694 
2751.000000	97.308636 
2750.000000	97.309575 
2749.000000	97.310492 
2748.000000	97.311383 
2747.000000	97.312212 
2746.000000	97.312927 
2745.000000	97.313546 
2744.000000	97.314174 
2743.000000	97.314896 
2742.000000	97.315709 
2741.000000	97.316536 
2740.000000	97.317322 
2739.000000	97.318067 
2738.000000	97.318781 
2737.000000	97.319472 
2736.000000	97.320169 
2735.000000	97.320916 
2734.000000	97.321713 
2733.000000	97.322527 
2732.000000	97.323338 
2731.000000	97.324149 
2730.000000	97.324964 
2729.000000	97.325771 
2728.000000	97.326554 
2727.000000	97.327306 
2726.000000	97.328029 
2725.000000	97.328738 
2724.000000	97.329446 
2723.000000	97.330155 
2722.000000	97.330863 
2721.000000	97.331567 
2720.000000	97.332265 
2719.000000	97.332962 
2718.000000	97.333662 
2717.000000	97.334366 
2716.000000	97.335072 
2715.000000	97.335779 
2714.000000	97.336489 
2713.000000	97.337203 
2712.000000	97.337920 
2711.000000	97.338636 
2710.000000	97.339345 
2709.000000	97.340043 
2708.000000	97.340730 
2707.000000	97.341411 
2706.000000	97.342086 
2705.000000	97.342757 
2704.000000	97.343419 
2703.000000	97.344071 
2702.000000	97.344712 
2701.000000	97.345342 
2700.000000	97.345965 
2699.000000	97.346583 
2698.000000	97.347193 
2697.000000	97.347783 
2696.000000	97.348346 
2695.000000	97.348877 
2694.000000	97.349379 
2693.000000	97.349856 
2692.000000	97.350307 
2691.000000	97.350733 
2690.000000	97.351133 
2689.000000	97.351510 
2688.000000	97.351867 
2687.000000	97.352207 
2686.000000	97.352526 
2685.000000	97.352821 
2684.000000	97.353093 
2683.000000	97.353354 
2682.000000	97.353599 
2681.000000	97.353792 
2680.000000	97.353907 
2679.000000	97.353999 
2678.000000	97.354192 
2677.000000	97.354590 
2676.000000	97.355172 
2675.000000	97.355739 
2674.000000	97.356015 
2673.000000	97.355919 
2672.000000	97.355730 
2671.000000	97.355790 
2670.000000	97.356010 
2669.000000	97.355954 
2668.000000	97.355451 
2667.000000	97.354891 
2666.000000	97.354728 
2665.000000	97.354907 
2664.000000	97.355037 
2663.000000	97.354981 
2662.000000	97.354969 
2661.000000	97.355119 
2660.000000	97.355146 
2659.000000	97.354678 
2658.000000	97.353698 
2657.000000	97.352564 
2656.000000	97.351680 
2655.000000	97.351130 
2654.000000	97.350597 
2653.000000	97.349697 
2652.000000	97.348467 
2651.000000	97.347478 
2650.000000	97.347331 
2649.000000	97.348078 
2648.000000	97.349201 
2647.000000	97.350030 
2646.000000	97.350055 
2645.000000	97.349012 
2644.000000	97.347020 
2643.000000	97.344737 
2642.000000	97.343024 
2641.000000	97.342246 
2640.000000	97.342115 
2639.000000	97.342251 
2638.000000	97.342646 
2637.000000	97.343403 
2636.000000	97.344312 
2635.000000	97.345088 
2634.000000	97.345790 
2633.000000	97.346605 
2632.000000	97.347272 
2631.000000	97.347181 
2630.000000	97.346200 
2629.000000	97.344948 
2628.000000	97.344174 
2627.000000	97.344029 
2626.000000	97.344198 
2625.000000	97.344488 
2624.000000	97.344963 
2623.000000	97.345641 
2622.000000	97.346305 
2621.000000	97.346635 
2620.000000	97.346402 
2619.000000	97.345557 
2618.000000	97.344345 
2617.000000	97.343305 
2616.000000	97.342908 
2615.000000	97.343148 
2614.000000	97.343584 
2613.000000	97.343817 
2612.000000	97.343872 
2611.000000	97.344007 
2610.000000	97.344343 
2609.000000	97.344770 
2608.000000	97.345125 
2607.000000	97.345353 
2606.000000	97.345526 
2605.000000	97.345750 
2604.000000	97.346031 
2603.000000	97.346259 
2602.000000	97.346374 
2601.000000	97.346500 
2600.000000	97.346806 
2599.000000	97.347257 
2598.000000	97.347641 
2597.000000	97.347829 
2596.000000	97.347870 
2595.000000	97.347851 
2594.000000	97.347788 
2593.000000	97.347733 
2592.000000	97.347891 
2591.000000	97.348424 
2590.000000	97.349153 
2589.000000	97.349624 
2588.000000	97.349640 
2587.000000	97.349523 
2586.000000	97.349756 
2585.000000	97.350448 
2584.000000	97.351330 
2583.000000	97.352112 
2582.000000	97.352691 
2581.000000	97.353054 
2580.000000	97.353183 
2579.000000	97.353093 
2578.000000	97.352904 
2577.000000	97.352830 
2576.000000	97.353033 
2575.000000	97.353442 
2574.000000	97.353765 
2573.000000	97.353794 
2572.000000	97.353628 
2571.000000	97.353473 
2570.000000	97.353325 
2569.000000	97.353073 
2568.000000	97.352865 
2567.000000	97.353055 
2566.000000	97.353713 
2565.000000	97.354430 
2564.000000	97.354717 
2563.000000	97.354470 
2562.000000	97.353954 
2561.000000	97.353589 
2560.000000	97.353806 
2559.000000	97.354850 
2558.000000	97.356480 
2557.000000	97.357989 
2556.000000	97.358869 
2555.000000	97.359251 
2554.000000	97.359536 
2553.000000	97.359758 
2552.000000	97.359648 
2551.000000	97.359304 
2550.000000	97.359260 
2549.000000	97.359676 
2548.000000	97.359887 
2547.000000	97.359215 
2546.000000	97.357972 
2545.000000	97.357275 
2544.000000	97.357675 
2543.000000	97.358469 
2542.000000	97.358523 
2541.000000	97.357685 
2540.000000	97.356930 
2539.000000	97.357107 
2538.000000	97.357985 
2537.000000	97.358784 
2536.000000	97.359306 
2535.000000	97.360008 
2534.000000	97.361011 
2533.000000	97.361660 
2532.000000	97.361373 
2531.000000	97.360397 
2530.000000	97.359423 
2529.000000	97.358725 
2528.000000	97.358063 
2527.000000	97.357306 
2526.000000	97.356746 
2525.000000	97.356745 
2524.000000	97.357337 
2523.000000	97.358266 
2522.000000	97.359255 
2521.000000	97.360136 
2520.000000	97.360831 
2519.000000	97.361333 
2518.000000	97.361664 
2517.000000	97.361767 
2516.000000	97.361446 
2515.000000	97.360549 
2514.000000	97.359322 
2513.000000	97.358470 
2512.000000	97.358621 
2511.000000	97.359782 
2510.000000	97.361397 
2509.000000	97.362878 
2508.000000	97.363980 
2507.000000	97.364699 
2506.000000	97.365192 
2505.000000	97.365893 
2504.000000	97.367297 
2503.000000	97.369355 
2502.000000	97.371206 
2501.000000	97.371954 
2500.000000	97.371558 
2499.000000	97.370747 
2498.000000	97.370321 
2497.000000	97.370563 
2496.000000	97.371403 
2495.000000	97.372609 
2494.000000	97.373719 
2493.000000	97.374220 
2492.000000	97.374068 
2491.000000	97.373871 
2490.000000	97.374303 
2489.000000	97.375383 
2488.000000	97.376537 
2487.000000	97.377322 
2486.000000	97.377877 
2485.000000	97.378562 
2484.000000	97.379430 
2483.000000	97.380251 
2482.000000	97.380902 
2481.000000	97.381486 
2480.000000	97.382048 
2479.000000	97.382409 
2478.000000	97.382434 
2477.000000	97.382319 
2476.000000	97.382363 
2475.000000	97.382465 
2474.000000	97.382144 
2473.000000	97.381171 
2472.000000	97.379994 
2471.000000	97.379321 
2470.000000	97.379426 
2469.000000	97.380115 
2468.000000	97.381105 
2467.000000	97.382185 
2466.000000	97.383086 
2465.000000	97.383549 
2464.000000	97.383660 
2463.000000	97.383866 
2462.000000	97.384577 
2461.000000	97.385912 
2460.000000	97.387782 
2459.000000	97.389853 
2458.000000	97.391344 
2457.000000	97.391424 
2456.000000	97.390069 
2455.000000	97.388282 
2454.000000	97.387187 
2453.000000	97.386813 
2452.000000	97.386224 
2451.000000	97.384856 
2450.000000	97.383398 
2449.000000	97.383063 
2448.000000	97.384154 
2447.000000	97.385750 
2446.000000	97.386706 
2445.000000	97.386759 
2444.000000	97.386347 
2443.000000	97.385796 
2442.000000	97.385179 
2441.000000	97.384782 
2440.000000	97.385136 
2439.000000	97.386438 
2438.000000	97.388362 
2437.000000	97.390563 
2436.000000	97.392955 
2435.000000	97.395322 
2434.000000	97.397059 
2433.000000	97.397658 
2432.000000	97.397316 
2431.000000	97.396852 
2430.000000	97.397083 
2429.000000	97.398353 
2428.000000	97.400491 
2427.000000	97.402876 
2426.000000	97.404612 
2425.000000	97.404862 
2424.000000	97.403468 
2423.000000	97.401341 
2422.000000	97.399785 
2421.000000	97.399784 
2420.000000	97.401824 
2419.000000	97.405495 
2418.000000	97.409364 
2417.000000	97.412035 
2416.000000	97.413469 
2415.000000	97.414549 
2414.000000	97.415680 
2413.000000	97.416758 
2412.000000	97.417924 
2411.000000	97.419231 
2410.000000	97.420013 
2409.000000	97.419832 
2408.000000	97.419719 
2407.000000	97.421122 
2406.000000	97.423688 
2405.000000	97.425283 
2404.000000	97.424378 
2403.000000	97.421534 
2402.000000	97.418578 
2401.000000	97.417285 
2400.000000	97.418706 
2399.000000	97.422677 
2398.000000	97.427883 
2397.000000	97.433092 
2396.000000	97.438001 
2395.000000	97.442249 
2394.000000	97.444434 
2393.000000	97.443747 
2392.000000	97.441957 
2391.000000	97.442263 
2390.000000	97.446022 
2389.000000	97.451960 
2388.000000	97.458505 
2387.000000	97.465402 
2386.000000	97.472691 
2385.000000	97.479404 
2384.000000	97.484136 
2383.000000	97.485811 
2382.000000	97.483269 
2381.000000	97.475441 
2380.000000	97.462699 
2379.000000	97.447429 
2378.000000	97.432424 
2377.000000	97.419580 
2376.000000	97.411046 
2375.000000	97.409931 
2374.000000	97.417553 
2373.000000	97.430583 
2372.000000	97.443134 
2371.000000	97.452100 
2370.000000	97.458196 
2369.000000	97.462207 
2368.000000	97.463400 
2367.000000	97.461725 
2366.000000	97.458902 
2365.000000	97.456683 
2364.000000	97.455693 
2363.000000	97.456018 
2362.000000	97.457910 
2361.000000	97.461223 
2360.000000	97.465001 
2359.000000	97.468350 
2358.000000	97.470250 
2357.000000	97.470099 
2356.000000	97.468454 
2355.000000	97.466486 
2354.000000	97.464694 
2353.000000	97.463676 
2352.000000	97.464334 
2351.000000	97.466371 
2350.000000	97.468415 
2349.000000	97.469524 
2348.000000	97.469954 
2347.000000	97.470336 
2346.000000	97.471098 
2345.000000	97.472189 
2344.000000	97.473376 
2343.000000	97.474491 
2342.000000	97.475541 
2341.000000	97.476589 
2340.000000	97.477684 
2339.000000	97.478841 
2338.000000	97.480042 
2337.000000	97.481255 
2336.000000	97.482469 
2335.000000	97.483686 
2334.000000	97.484870 
2333.000000	97.485944 
2332.000000	97.486865 
2331.000000	97.487686 
2330.000000	97.488533 
2329.000000	97.489442 
2328.000000	97.490409 
2327.000000	97.491467 
2326.000000	97.492522 
2325.000000	97.493289 
2324.000000	97.493902 
2323.000000	97.494697 
2322.000000	97.495314 
2321.000000	97.494620 
2320.000000	97.492668 
2319.000000	97.490937 
2318.000000	97.490542 
2317.000000	97.490270 
2316.000000	97.488523 
2315.000000	97.485279 
2314.000000	97.482446 
2313.000000	97.481616 
2312.000000	97.484030 
2311.000000	97.489989 
2310.000000	97.497774 
2309.000000	97.503465 
2308.000000	97.504999 
2307.000000	97.504152 
2306.000000	97.503392 
2305.000000	97.502813 
2304.000000	97.502178 
2303.000000	97.502517 
2302.000000	97.505385 
2301.000000	97.509689 
2300.000000	97.512232 
2299.000000	97.509607 
2298.000000	97.501124 
2297.000000	97.487597 
2296.000000	97.472218 
2295.000000	97.458946 
2294.000000	97.449936 
2293.000000	97.443384 
2292.000000	97.436731 
2291.000000	97.429778 
2290.000000	97.424316 
2289.000000	97.421439 
2288.000000	97.420476 
2287.000000	97.419955 
2286.000000	97.418228 
2285.000000	97.414539 
2284.000000	97.409753 
2283.000000	97.405657 
2282.000000	97.402463 
2281.000000	97.398682 
2280.000000	97.393470 
2279.000000	97.387802 
2278.000000	97.382703 
2277.000000	97.378246 
2276.000000	97.375035 
2275.000000	97.374188 
2274.000000	97.375258 
2273.000000	97.376299 
2272.000000	97.376852 
2271.000000	97.378296 
2270.000000	97.380707 
2269.000000	97.381898 
2268.000000	97.380653 
2267.000000	97.378316 
2266.000000	97.376415 
2265.000000	97.374877 
2264.000000	97.373229 
2263.000000	97.371549 
2262.000000	97.369629 
2261.000000	97.366988 
2260.000000	97.363990 
2259.000000	97.361543 
2258.000000	97.359672 
2257.000000	97.357734 
2256.000000	97.355791 
2255.000000	97.354530 
2254.000000	97.353944 
2253.000000	97.353070 
2252.000000	97.351210 
2251.000000	97.348656 
2250.000000	97.346003 
2249.000000	97.343553 
2248.000000	97.341426 
2247.000000	97.339647 
2246.000000	97.338039 
2245.000000	97.336405 
2244.000000	97.334713 
2243.000000	97.333025 
2242.000000	97.331363 
2241.000000	97.329747 
2240.000000	97.328189 
2239.000000	97.326681 
2238.000000	97.325204 
2237.000000	97.323732 
2236.000000	97.322249 
2235.000000	97.320748 
2234.000000	97.319229 
2233.000000	97.317693 
2232.000000	97.316141 
2231.000000	97.314571 
2230.000000	97.312975 
2229.000000	97.311342 
2228.000000	97.309671 
2227.000000	97.307971 
2226.000000	97.306249 
2225.000000	97.304501 
2224.000000	97.302718 
2223.000000	97.300909 
2222.000000	97.299101 
2221.000000	97.297315 
2220.000000	97.295548 
2219.000000	97.293783 
2218.000000	97.292005 
2217.000000	97.290219 
2216.000000	97.288441 
2215.000000	97.286686 
2214.000000	97.284954 
2213.000000	97.283235 
2212.000000	97.281534 
2211.000000	97.279866 
2210.000000	97.278249 
2209.000000	97.276680 
2208.000000	97.275140 
2207.000000	97.273605 
2206.000000	97.272058 
2205.000000	97.270516 
2204.000000	97.269074 
2203.000000	97.267796 
2202.000000	97.266644 
2201.000000	97.265563 
2200.000000	97.264350 
2199.000000	97.262564 
2198.000000	97.259871 
2197.000000	97.256546 
2196.000000	97.253426 
2195.000000	97.251129 
2194.000000	97.249551 
2193.000000	97.248316 
2192.000000	97.247425 
2191.000000	97.246809 
2190.000000	97.245581 
2189.000000	97.242896 
2188.000000	97.239566 
2187.000000	97.237193 
2186.000000	97.235348 
2185.000000	97.231655 
2184.000000	97.226040 
2183.000000	97.222825 
2182.000000	97.226046 
2181.000000	97.234229 
2180.000000	97.241182 
2179.000000	97.242420 
2178.000000	97.238515 
2177.000000	97.233062 
2176.000000	97.229482 
2175.000000	97.229417 
2174.000000	97.232459 
2173.000000	97.236633 
2172.000000	97.240155 
2171.000000	97.242691 
2170.000000	97.243961 
2169.000000	97.242278 
2168.000000	97.236528 
2167.000000	97.229022 
2166.000000	97.223816 
2165.000000	97.221687 
2164.000000	97.219100 
2163.000000	97.213460 
2162.000000	97.208016 
2161.000000	97.209684 
2160.000000	97.222356 
2159.000000	97.242880 
2158.000000	97.262886 
2157.000000	97.275926 
2156.000000	97.282210 
2155.000000	97.285907 
2154.000000	97.290052 
2153.000000	97.295040 
2152.000000	97.300214 
2151.000000	97.304193 
2150.000000	97.304335 
2149.000000	97.299316 
2148.000000	97.292746 
2147.000000	97.290954 
2146.000000	97.296055 
2145.000000	97.304219 
2144.000000	97.311756 
2143.000000	97.319509 
2142.000000	97.329040 
2141.000000	97.338143 
2140.000000	97.343627 
2139.000000	97.346457 
2138.000000	97.350749 
2137.000000	97.358519 
2136.000000	97.367717 
2135.000000	97.374411 
2134.000000	97.375322 
2133.000000	97.370107 
2132.000000	97.363190 
2131.000000	97.361207 
2130.000000	97.366616 
2129.000000	97.375320 
2128.000000	97.381755 
2127.000000	97.384824 
2126.000000	97.387129 
2125.000000	97.390311 
2124.000000	97.393578 
2123.000000	97.395709 
2122.000000	97.396067 
2121.000000	97.394010 
2120.000000	97.389260 
2119.000000	97.382833 
2118.000000	97.376650 
2117.000000	97.372365 
2116.000000	97.370585 
2115.000000	97.370320 
2114.000000	97.368907 
2113.000000	97.364234 
2112.000000	97.358071 
2111.000000	97.355321 
2110.000000	97.358651 
2109.000000	97.365454 
2108.000000	97.370906 
2107.000000	97.372794 
2106.000000	97.372069 
2105.000000	97.370667 
2104.000000	97.370543 
2103.000000	97.372905 
2102.000000	97.376301 
2101.000000	97.376896 
2100.000000	97.372788 
2099.000000	97.366994 
2098.000000	97.364470 
2097.000000	97.366790 
2096.000000	97.371611 
2095.000000	97.376094 
2094.000000	97.378932 
2093.000000	97.379688 
2092.000000	97.378335 
2091.000000	97.375803 
2090.000000	97.373679 
2089.000000	97.372861 
2088.000000	97.372979 
2087.000000	97.372890 
2086.000000	97.371360 
2085.000000	97.367868 
2084.000000	97.363386 
2083.000000	97.359670 
2082.000000	97.357323 
2081.000000	97.355545 
2080.000000	97.354093 
2079.000000	97.353973 
2078.000000	97.355211 
2077.000000	97.355458 
2076.000000	97.352666 
2075.000000	97.347981 
2074.000000	97.344222 
2073.000000	97.342001 
2072.000000	97.339437 
2071.000000	97.335343 
2070.000000	97.330681 
2069.000000	97.326888 
2068.000000	97.324440 
2067.000000	97.323136 
2066.000000	97.322472 
2065.000000	97.321464 
2064.000000	97.319231 
2063.000000	97.316164 
2062.000000	97.313694 
2061.000000	97.312774 
2060.000000	97.313168 
2059.000000	97.314059 
2058.000000	97.314496 
2057.000000	97.313626 
2056.000000	97.311121 
2055.000000	97.307305 
2054.000000	97.302983 
2053.000000	97.299029 
2052.000000	97.296130 
2051.000000	97.294412 
2050.000000	97.293299 
2049.000000	97.291965 
2048.000000	97.290226 
2047.000000	97.288610 
2046.000000	97.287460 
2045.000000	97.286499 
2044.000000	97.285379 
2043.000000	97.284196 
2042.000000	97.283205 
2041.000000	97.282367 
2040.000000	97.281611 
2039.000000	97.281320 
2038.000000	97.281850 
2037.000000	97.282632 
2036.000000	97.282583 
2035.000000	97.281413 
2034.000000	97.279924 
2033.000000	97.279095 
2032.000000	97.279274 
2031.000000	97.280146 
2030.000000	97.280819 
2029.000000	97.280240 
2028.000000	97.278245 
2027.000000	97.275986 
2026.000000	97.274586 
2025.000000	97.273881 
2024.000000	97.273374 
2023.000000	97.273815 
2022.000000	97.276438 
2021.000000	97.280667 
2020.000000	97.283804 
2019.000000	97.283673 
2018.000000	97.280246 
2017.000000	97.275134 
2016.000000	97.270491 
2015.000000	97.268022 
2014.000000	97.267668 
2013.000000	97.266985 
2012.000000	97.263782 
2011.000000	97.259874 
2010.000000	97.259642 
2009.000000	97.264494 
2008.000000	97.271095 
2007.000000	97.275750 
2006.000000	97.278385 
2005.000000	97.280492 
2004.000000	97.282122 
2003.000000	97.282940 
2002.000000	97.284135 
2001.000000	97.286411 
2000.000000	97.287647 
1999.000000	97.284549 
1998.000000	97.276228 
1997.000000	97.265512 
1996.000000	97.256886 
1995.000000	97.253212 
1994.000000	97.254059 
1993.000000	97.256123 
1992.000000	97.255889 
1991.000000	97.253241 
1990.000000	97.251435 
1989.000000	97.252963 
1988.000000	97.256410 
1987.000000	97.257769 
1986.000000	97.254569 
1985.000000	97.248276 
1984.000000	97.242795 
1983.000000	97.240648 
1982.000000	97.241063 
1981.000000	97.241678 
1980.000000	97.242008 
1979.000000	97.243656 
1978.000000	97.246972 
1977.000000	97.249753 
1976.000000	97.250267 
1975.000000	97.250033 
1974.000000	97.251775 
1973.000000	97.256135 
1972.000000	97.261645 
1971.000000	97.266760 
1970.000000	97.270351 
1969.000000	97.271068 
1968.000000	97.268164 
1967.000000	97.263126 
1966.000000	97.259361 
1965.000000	97.259233 
1964.000000	97.262617 
1963.000000	97.268174 
1962.000000	97.274774 
1961.000000	97.281332 
1960.000000	97.286287 
1959.000000	97.288398 
1958.000000	97.288080 
1957.000000	97.287465 
1956.000000	97.288609 
1955.000000	97.291601 
1954.000000	97.294772 
1953.000000	97.296716 
1952.000000	97.297509 
1951.000000	97.298067 
1950.000000	97.299057 
1949.000000	97.300801 
1948.000000	97.303716 
1947.000000	97.307759 
1946.000000	97.311638 
1945.000000	97.313737 
1944.000000	97.313835 
1943.000000	97.313260 
1942.000000	97.313257 
1941.000000	97.313925 
1940.000000	97.314909 
1939.000000	97.316021 
1938.000000	97.317166 
1937.000000	97.318389 
1936.000000	97.320097 
1935.000000	97.322586 
1934.000000	97.325293 
1933.000000	97.327299 
1932.000000	97.328568 
1931.000000	97.330171 
1930.000000	97.332787 
1929.000000	97.335522 
1928.000000	97.337359 
1927.000000	97.338220 
1926.000000	97.338459 
1925.000000	97.337967 
1924.000000	97.336823 
1923.000000	97.336211 
1922.000000	97.336887 
1921.000000	97.338011 
1920.000000	97.338620 
1919.000000	97.339136 
1918.000000	97.340126 
1917.000000	97.340592 
1916.000000	97.339619 
1915.000000	97.338130 
1914.000000	97.337432 
1913.000000	97.337473 
1912.000000	97.337243 
1911.000000	97.336583 
1910.000000	97.336203 
1909.000000	97.336388 
1908.000000	97.336976 
1907.000000	97.337586 
1906.000000	97.337722 
1905.000000	97.336779 
1904.000000	97.334755 
1903.000000	97.332834 
1902.000000	97.332048 
1901.000000	97.332112 
1900.000000	97.332192 
1899.000000	97.332048 
1898.000000	97.331991 
1897.000000	97.331971 
1896.000000	97.331519 
1895.000000	97.330594 
1894.000000	97.329541 
1893.000000	97.328464 
1892.000000	97.327328 
1891.000000	97.326488 
1890.000000	97.326342 
1889.000000	97.326592 
1888.000000	97.326687 
1887.000000	97.326719 
1886.000000	97.327034 
1885.000000	97.327442 
1884.000000	97.327380 
1883.000000	97.326789 
1882.000000	97.326293 
1881.000000	97.326464 
1880.000000	97.327342 
1879.000000	97.328422 
1878.000000	97.329067 
1877.000000	97.329120 
1876.000000	97.329029 
1875.000000	97.329508 
1874.000000	97.330845 
1873.000000	97.332494 
1872.000000	97.333737 
1871.000000	97.334533 
1870.000000	97.335144 
1869.000000	97.335281 
1868.000000	97.334929 
1867.000000	97.335336 
1866.000000	97.337031 
1865.000000	97.338589 
1864.000000	97.338675 
1863.000000	97.338191 
1862.000000	97.339140 
1861.000000	97.341829 
1860.000000	97.344822 
1859.000000	97.347359 
1858.000000	97.349873 
1857.000000	97.352411 
1856.000000	97.354548 
1855.000000	97.356508 
1854.000000	97.358749 
1853.000000	97.360656 
1852.000000	97.361971 
1851.000000	97.363496 
1850.000000	97.365740 
1849.000000	97.368209 
1848.000000	97.370174 
1847.000000	97.371905 
1846.000000	97.374062 
1845.000000	97.376535 
1844.000000	97.378477 
1843.000000	97.380015 
1842.000000	97.381775 
1841.000000	97.383264 
1840.000000	97.384410 
1839.000000	97.385921 
1838.000000	97.387989 
1837.000000	97.389587 
1836.000000	97.390004 
1835.000000	97.390207 
1834.000000	97.391355 
1833.000000	97.393059 
1832.000000	97.394255 
1831.000000	97.394532 
1830.000000	97.394398 
1829.000000	97.394726 
1828.000000	97.395703 
1827.000000	97.396868 
1826.000000	97.398044 
1825.000000	97.399363 
1824.000000	97.400593 
1823.000000	97.401473 
1822.000000	97.401986 
1821.000000	97.402213 
1820.000000	97.402284 
1819.000000	97.402462 
1818.000000	97.403172 
1817.000000	97.404328 
1816.000000	97.405180 
1815.000000	97.405448 
1814.000000	97.405654 
1813.000000	97.406351 
1812.000000	97.407115 
1811.000000	97.407204 
1810.000000	97.406869 
1809.000000	97.406694 
1808.000000	97.406701 
1807.000000	97.406774 
1806.000000	97.406996 
1805.000000	97.407250 
1804.000000	97.407262 
1803.000000	97.407363 
1802.000000	97.408002 
1801.000000	97.408901 
1800.000000	97.409067 
1799.000000	97.408279 
1798.000000	97.407666 
1797.000000	97.407789 
1796.000000	97.408113 
1795.000000	97.408337 
1794.000000	97.408968 
1793.000000	97.410210 
1792.000000	97.411085 
1791.000000	97.411514 
1790.000000	97.412628 
1789.000000	97.414094 
1788.000000	97.415022 
1787.000000	97.415655 
1786.000000	97.416917 
1785.000000	97.418639 
1784.000000	97.419808 
1783.000000	97.420451 
1782.000000	97.420955 
1781.000000	97.421750 
1780.000000	97.422933 
1779.000000	97.424299 
1778.000000	97.425898 
1777.000000	97.427599 
1776.000000	97.429295 
1775.000000	97.430699 
1774.000000	97.431605 
1773.000000	97.432189 
1772.000000	97.432756 
1771.000000	97.433547 
1770.000000	97.434661 
1769.000000	97.435958 
1768.000000	97.437312 
1767.000000	97.438606 
1766.000000	97.439766 
1765.000000	97.440833 
1764.000000	97.441868 
1763.000000	97.442908 
1762.000000	97.443934 
1761.000000	97.445012 
1760.000000	97.446161 
1759.000000	97.447230 
1758.000000	97.448107 
1757.000000	97.448864 
1756.000000	97.449759 
1755.000000	97.450706 
1754.000000	97.451356 
1753.000000	97.451654 
1752.000000	97.452074 
1751.000000	97.452921 
1750.000000	97.453947 
1749.000000	97.454653 
1748.000000	97.454841 
1747.000000	97.454714 
1746.000000	97.454325 
1745.000000	97.454159 
1744.000000	97.454776 
1743.000000	97.455897 
1742.000000	97.456712 
1741.000000	97.456807 
1740.000000	97.456275 
1739.000000	97.455800 
1738.000000	97.456117 
1737.000000	97.456512 
1736.000000	97.456422 
1735.000000	97.457020 
1734.000000	97.457423 
1733.000000	97.455710 
1732.000000	97.453939 
1731.000000	97.453311 
1730.000000	97.454398 
1729.000000	97.456485 
1728.000000	97.457602 
1727.000000	97.456453 
1726.000000	97.453554 
1725.000000	97.451071 
1724.000000	97.449533 
1723.000000	97.448053 
1722.000000	97.446578 
1721.000000	97.444833 
1720.000000	97.442357 
1719.000000	97.439845 
1718.000000	97.438655 
1717.000000	97.437179 
1716.000000	97.433200 
1715.000000	97.428498 
1714.000000	97.425920 
1713.000000	97.424695 
1712.000000	97.421955 
1711.000000	97.417622 
1710.000000	97.413860 
1709.000000	97.411329 
1708.000000	97.408427 
1707.000000	97.403908 
1706.000000	97.398664 
1705.000000	97.393670 
1704.000000	97.388842 
1703.000000	97.383893 
1702.000000	97.379701 
1701.000000	97.376963 
1700.000000	97.372610 
1699.000000	97.366384 
1698.000000	97.361698 
1697.000000	97.357679 
1696.000000	97.352923 
1695.000000	97.347470 
1694.000000	97.342419 
1693.000000	97.337384 
1692.000000	97.331719 
1691.000000	97.325793 
1690.000000	97.320005 
1689.000000	97.314410 
1688.000000	97.308965 
1687.000000	97.303478 
1686.000000	97.297929 
1685.000000	97.292326 
1684.000000	97.286442 
1683.000000	97.280511 
1682.000000	97.274890 
1681.000000	97.269245 
1680.000000	97.263641 
1679.000000	97.258289 
1678.000000	97.253054 
1677.000000	97.247692 
1676.000000	97.242314 
1675.000000	97.236903 
1674.000000	97.230980 
1673.000000	97.224633 
1672.000000	97.218198 
1671.000000	97.212133 
1670.000000	97.206177 
1669.000000	97.199349 
1668.000000	97.192941 
1667.000000	97.188297 
1666.000000	97.184425 
1665.000000	97.180155 
1664.000000	97.175531 
1663.000000	97.171363 
1662.000000	97.166851 
1661.000000	97.160985 
1660.000000	97.154938 
1659.000000	97.149683 
1658.000000	97.144598 
1657.000000	97.139324 
1656.000000	97.134778 
1655.000000	97.133071 
1654.000000	97.134108 
1653.000000	97.125683 
1652.000000	97.107627 
1651.000000	97.100035 
1650.000000	97.096661 
1649.000000	97.091740 
1648.000000	97.087822 
1647.000000	97.086794 
1646.000000	97.085674 
1645.000000	97.084239 
1644.000000	97.082051 
1643.000000	97.079583 
1642.000000	97.077683 
1641.000000	97.076312 
1640.000000	97.075894 
1639.000000	97.075818 
1638.000000	97.075696 
1637.000000	97.075356 
1636.000000	97.073209 
1635.000000	97.067320 
1634.000000	97.063739 
1633.000000	97.064837 
1632.000000	97.066037 
1631.000000	97.068336 
1630.000000	97.072487 
1629.000000	97.075853 
1628.000000	97.077333 
1627.000000	97.080741 
1626.000000	97.086841 
1625.000000	97.092427 
1624.000000	97.096375 
1623.000000	97.100413 
1622.000000	97.105144 
1621.000000	97.109910 
1620.000000	97.115093 
1619.000000	97.121661 
1618.000000	97.129331 
1617.000000	97.131215 
1616.000000	97.126601 
1615.000000	97.127401 
1614.000000	97.135138 
1613.000000	97.141736 
1612.000000	97.146082 
1611.000000	97.152177 
1610.000000	97.159376 
1609.000000	97.165578 
1608.000000	97.174517 
1607.000000	97.188661 
1606.000000	97.201242 
1605.000000	97.207290 
1604.000000	97.211932 
1603.000000	97.219357 
1602.000000	97.227209 
1601.000000	97.232788 
1600.000000	97.238371 
1599.000000	97.245631 
1598.000000	97.252021 
1597.000000	97.255992 
1596.000000	97.259866 
1595.000000	97.266083 
1594.000000	97.273320 
1593.000000	97.279106 
1592.000000	97.283720 
1591.000000	97.288632 
1590.000000	97.293614 
1589.000000	97.298229 
1588.000000	97.303749 
1587.000000	97.311032 
1586.000000	97.318033 
1585.000000	97.322085 
1584.000000	97.325054 
1583.000000	97.329555 
1582.000000	97.334066 
1581.000000	97.337107 
1580.000000	97.340889 
1579.000000	97.346943 
1578.000000	97.353658 
1577.000000	97.359056 
1576.000000	97.362159 
1575.000000	97.365245 
1574.000000	97.369642 
1573.000000	97.373186 
1572.000000	97.376066 
1571.000000	97.379978 
1570.000000	97.382733 
1569.000000	97.381678 
1568.000000	97.381382 
1567.000000	97.383645 
1566.000000	97.384980 
1565.000000	97.384243 
1564.000000	97.384089 
1563.000000	97.385381 
1562.000000	97.385568 
1561.000000	97.385145 
1560.000000	97.392553 
1559.000000	97.401681 
1558.000000	97.398726 
1557.000000	97.394087 
1556.000000	97.391301 
1555.000000	97.390324 
1554.000000	97.389816 
1553.000000	97.388682 
1552.000000	97.386534 
1551.000000	97.383627 
1550.000000	97.381477 
1549.000000	97.379964 
1548.000000	97.377977 
1547.000000	97.375155 
1546.000000	97.371680 
1545.000000	97.368440 
1544.000000	97.366161 
1543.000000	97.364735 
1542.000000	97.364001 
1541.000000	97.361874 
1540.000000	97.354110 
1539.000000	97.343489 
1538.000000	97.336661 
1537.000000	97.331763 
1536.000000	97.325459 
1535.000000	97.318975 
1534.000000	97.314170 
1533.000000	97.310645 
1532.000000	97.306948 
1531.000000	97.302055 
1530.000000	97.296046 
1529.000000	97.289426 
1528.000000	97.282821 
1527.000000	97.277307 
1526.000000	97.273056 
1525.000000	97.268719 
1524.000000	97.262858 
1523.000000	97.255769 
1522.000000	97.249126 
1521.000000	97.243090 
1520.000000	97.236387 
1519.000000	97.228041 
1518.000000	97.218371 
1517.000000	97.209650 
1516.000000	97.203156 
1515.000000	97.198033 
1514.000000	97.192710 
1513.000000	97.186794 
1512.000000	97.179942 
1511.000000	97.171725 
1510.000000	97.162870 
1509.000000	97.154935 
1508.000000	97.149447 
1507.000000	97.145115 
1506.000000	97.138691 
1505.000000	97.130367 
1504.000000	97.121549 
1503.000000	97.112133 
1502.000000	97.102522 
1501.000000	97.093747 
1500.000000	97.085725 
1499.000000	97.077127 
1498.000000	97.067997 
1497.000000	97.060364 
1496.000000	97.054425 
1495.000000	97.049817 
1494.000000	97.046633 
1493.000000	97.043885 
1492.000000	97.040396 
1491.000000	97.036169 
1490.000000	97.032081 
1489.000000	97.027381 
1488.000000	97.019230 
1487.000000	97.008654 
1486.000000	96.999581 
1485.000000	96.990789 
1484.000000	96.980571 
1483.000000	96.969946 
1482.000000	96.961570 
1481.000000	96.955876 
1480.000000	96.949440 
1479.000000	96.940644 
1478.000000	96.931751 
1477.000000	96.924946 
1476.000000	96.918138 
1475.000000	96.910512 
1474.000000	96.904072 
1473.000000	96.900165 
1472.000000	96.896701 
1471.000000	96.891660 
1470.000000	96.885623 
1469.000000	96.877865 
1468.000000	96.867410 
1467.000000	96.855991 
1466.000000	96.847065 
1465.000000	96.842021 
1464.000000	96.838937 
1463.000000	96.833124 
1462.000000	96.822756 
1461.000000	96.809335 
1460.000000	96.795824 
1459.000000	96.784592 
1458.000000	96.777749 
1457.000000	96.775462 
1456.000000	96.774048 
1455.000000	96.769635 
1454.000000	96.759289 
1453.000000	96.747777 
1452.000000	96.741093 
1451.000000	96.739305 
1450.000000	96.740303 
1449.000000	96.744205 
1448.000000	96.749577 
1447.000000	96.752790 
1446.000000	96.750304 
1445.000000	96.744445 
1444.000000	96.740064 
1443.000000	96.736644 
1442.000000	96.732441 
1441.000000	96.727564 
1440.000000	96.722426 
1439.000000	96.715374 
1438.000000	96.709950 
1437.000000	96.713113 
1436.000000	96.721776 
1435.000000	96.724999 
1434.000000	96.720283 
1433.000000	96.714369 
1432.000000	96.713263 
1431.000000	96.715985 
1430.000000	96.719132 
1429.000000	96.723457 
1428.000000	96.728241 
1427.000000	96.730502 
1426.000000	96.728481 
1425.000000	96.728268 
1424.000000	96.736262 
1423.000000	96.745621 
1422.000000	96.747456 
1421.000000	96.744848 
1420.000000	96.748068 
1419.000000	96.755580 
1418.000000	96.759178 
1417.000000	96.760805 
1416.000000	96.763805 
1415.000000	96.766394 
1414.000000	96.765273 
1413.000000	96.761783 
1412.000000	96.760489 
1411.000000	96.761738 
1410.000000	96.763567 
1409.000000	96.766415 
1408.000000	96.770663 
1407.000000	96.776666 
1406.000000	96.785069 
1405.000000	96.798772 
1404.000000	96.818852 
1403.000000	96.837997 
1402.000000	96.850181 
1401.000000	96.859231 
1400.000000	96.873497 
1399.000000	96.892807 
1398.000000	96.908107 
1397.000000	96.914205 
1396.000000	96.915354 
1395.000000	96.919986 
1394.000000	96.931810 
1393.000000	96.950172 
1392.000000	96.971717 
1391.000000	96.990737 
1390.000000	97.003974 
1389.000000	97.013193 
1388.000000	97.022257 
1387.000000	97.032011 
1386.000000	97.040102 
1385.000000	97.046686 
1384.000000	97.055556 
1383.000000	97.067932 
1382.000000	97.080852 
1381.000000	97.091066 
1380.000000	97.099462 
1379.000000	97.109390 
1378.000000	97.121249 
1377.000000	97.132407 
1376.000000	97.141746 
1375.000000	97.151365 
1374.000000	97.163282 
1373.000000	97.177658 
1372.000000	97.193029 
1371.000000	97.208153 
1370.000000	97.222205 
1369.000000	97.235281 
1368.000000	97.248134 
1367.000000	97.259098 
1366.000000	97.265903 
1365.000000	97.269508 
1364.000000	97.274308 
1363.000000	97.283584 
1362.000000	97.296169 
1361.000000	97.309051 
1360.000000	97.321660 
1359.000000	97.334727 
1358.000000	97.346746 
1357.000000	97.355121 
1356.000000	97.359980 
1355.000000	97.363811 
1354.000000	97.368931 
1353.000000	97.375982 
1352.000000	97.384005 
1351.000000	97.392992 
1350.000000	97.402177 
1349.000000	97.409985 
1348.000000	97.416290 
1347.000000	97.421575 
1346.000000	97.426406 
1345.000000	97.430508 
1344.000000	97.432911 
1343.000000	97.432441 
1342.000000	97.429578 
1341.000000	97.427365 
1340.000000	97.429356 
1339.000000	97.435575 
1338.000000	97.442614 
1337.000000	97.448049 
1336.000000	97.451746 
1335.000000	97.453591 
1334.000000	97.453386 
1333.000000	97.452501 
1332.000000	97.452965 
1331.000000	97.454725 
1330.000000	97.456031 
1329.000000	97.456735 
1328.000000	97.458489 
1327.000000	97.461470 
1326.000000	97.463040 
1325.000000	97.461397 
1324.000000	97.457733 
1323.000000	97.453449 
1322.000000	97.448937 
1321.000000	97.445353 
1320.000000	97.444800 
1319.000000	97.447426 
1318.000000	97.450955 
1317.000000	97.453652 
1316.000000	97.455496 
1315.000000	97.456221 
1314.000000	97.455196 
1313.000000	97.453675 
1312.000000	97.454141 
1311.000000	97.456579 
1310.000000	97.458131 
1309.000000	97.457262 
1308.000000	97.455654 
1307.000000	97.455559 
1306.000000	97.456878 
1305.000000	97.458550 
1304.000000	97.460444 
1303.000000	97.462017 
1302.000000	97.461726 
1301.000000	97.459162 
1300.000000	97.456472 
1299.000000	97.456046 
1298.000000	97.457780 
1297.000000	97.459364 
1296.000000	97.458762 
1295.000000	97.455902 
1294.000000	97.452776 
1293.000000	97.452051 
1292.000000	97.454503 
1291.000000	97.458030 
1290.000000	97.460210 
1289.000000	97.461117 
1288.000000	97.461973 
1287.000000	97.462002 
1286.000000	97.459287 
1285.000000	97.454710 
1284.000000	97.452105 
1283.000000	97.453510 
1282.000000	97.456360 
1281.000000	97.456482 
1280.000000	97.452708 
1279.000000	97.447511 
1278.000000	97.444477 
1277.000000	97.445820 
1276.000000	97.450873 
1275.000000	97.456289 
1274.000000	97.458904 
1273.000000	97.459013 
1272.000000	97.459435 
1271.000000	97.461257 
1270.000000	97.462368 
1269.000000	97.460755 
1268.000000	97.457157 
1267.000000	97.453387 
1266.000000	97.450217 
1265.000000	97.448135 
1264.000000	97.448213 
1263.000000	97.450837 
1262.000000	97.454596 
1261.000000	97.457608 
1260.000000	97.459619 
1259.000000	97.461825 
1258.000000	97.464982 
1257.000000	97.467982 
1256.000000	97.468086 
1255.000000	97.463587 
1254.000000	97.456772 
1253.000000	97.452497 
1252.000000	97.452330 
1251.000000	97.452248 
1250.000000	97.448487 
1249.000000	97.443691 
1248.000000	97.443710 
1247.000000	97.449246 
1246.000000	97.454761 
1245.000000	97.455526 
1244.000000	97.451951 
1243.000000	97.447297 
1242.000000	97.444828 
1241.000000	97.447233 
1240.000000	97.454591 
1239.000000	97.461830 
1238.000000	97.461926 
1237.000000	97.453144 
1236.000000	97.440344 
1235.000000	97.428432 
1234.000000	97.417663 
1233.000000	97.406349 
1232.000000	97.394465 
1231.000000	97.382515 
1230.000000	97.369890 
1229.000000	97.356383 
1228.000000	97.342743 
1227.000000	97.327819 
1226.000000	97.307576 
1225.000000	97.279167 
1224.000000	97.244251 
1223.000000	97.206464 
1222.000000	97.167040 
1221.000000	97.124620 
1220.000000	97.078022 
1219.000000	97.027467 
1218.000000	96.974025 
1217.000000	96.918970 
1216.000000	96.862502 
1215.000000	96.802500 
1214.000000	96.736597 
1213.000000	96.666664 
1212.000000	96.598536 
1211.000000	96.534928 
1210.000000	96.470712 
1209.000000	96.398380 
1208.000000	96.316988 
1207.000000	96.232878 
1206.000000	96.152161 
1205.000000	96.074936 
1204.000000	95.996924 
1203.000000	95.914417 
1202.000000	95.827339 
1201.000000	95.739037 
1200.000000	95.653264 
1199.000000	95.570585 
1198.000000	95.488201 
1197.000000	95.403889 
1196.000000	95.318540 
1195.000000	95.233731 
1194.000000	95.148615 
1193.000000	95.061075 
1192.000000	94.970518 
1191.000000	94.877515 
1190.000000	94.782089 
1189.000000	94.684284 
1188.000000	94.585071 
1187.000000	94.484780 
1186.000000	94.382158 
1185.000000	94.276662 
1184.000000	94.169595 
1183.000000	94.061064 
1182.000000	93.948549 
1181.000000	93.831179 
1180.000000	93.712399 
1179.000000	93.594627 
1178.000000	93.474135 
1177.000000	93.345813 
1176.000000	93.210518 
1175.000000	93.072743 
1174.000000	92.933259 
1173.000000	92.789964 
1172.000000	92.644446 
1171.000000	92.501087 
1170.000000	92.360377 
1169.000000	92.219860 
1168.000000	92.081958 
1167.000000	91.954909 
1166.000000	91.846203 
1165.000000	91.761706 
1164.000000	91.710640 
1163.000000	91.702631 
1162.000000	91.736735 
1161.000000	91.798211 
1160.000000	91.866887 
1159.000000	91.923991 
1158.000000	91.952731 
1157.000000	91.941269 
1156.000000	91.888391 
1155.000000	91.802481 
1154.000000	91.693977 
1153.000000	91.571806 
1152.000000	91.445482 
1151.000000	91.323504 
1150.000000	91.207731 
1149.000000	91.094656 
1148.000000	90.983227 
1147.000000	90.875832 
1146.000000	90.771089 
1145.000000	90.662588 
1144.000000	90.546936 
1143.000000	90.427542 
1142.000000	90.308817 
1141.000000	90.191889 
1140.000000	90.077131 
1139.000000	89.965109 
1138.000000	89.853494 
1137.000000	89.738441 
1136.000000	89.620183 
1135.000000	89.502270 
1134.000000	89.385049 
1133.000000	89.265671 
1132.000000	89.144418 
1131.000000	89.024342 
1130.000000	88.904474 
1129.000000	88.780490 
1128.000000	88.652619 
1127.000000	88.525561 
1126.000000	88.399815 
1125.000000	88.270579 
1124.000000	88.136369 
1123.000000	88.001268 
1122.000000	87.867399 
1121.000000	87.732725 
1120.000000	87.597608 
1119.000000	87.465784 
1118.000000	87.337540 
1117.000000	87.209944 
1116.000000	87.084674 
1115.000000	86.967111 
1114.000000	86.856825 
1113.000000	86.747953 
1112.000000	86.639711 
1111.000000	86.536555 
1110.000000	86.437549 
1109.000000	86.336173 
1108.000000	86.230735 
1107.000000	86.125017 
1106.000000	86.018657 
1105.000000	85.907473 
1104.000000	85.793566 
1103.000000	85.683786 
1102.000000	85.577627 
1101.000000	85.468175 
1100.000000	85.355343 
1099.000000	85.247022 
1098.000000	85.146355 
1097.000000	85.048895 
1096.000000	84.952649 
1095.000000	84.858536 
1094.000000	84.761308 
1093.000000	84.653488 
1092.000000	84.539586 
1091.000000	84.433653 
1090.000000	84.341300 
1089.000000	84.255845 
1088.000000	84.171986 
1087.000000	84.089975 
1086.000000	84.006666 
1085.000000	83.916970 
1084.000000	83.824962 
1083.000000	83.739652 
1082.000000	83.659362 
1081.000000	83.574555 
1080.000000	83.485820 
1079.000000	83.403114 
1078.000000	83.326305 
1077.000000	83.242764 
1076.000000	83.145892 
1075.000000	83.039930 
1074.000000	82.924920 
1073.000000	82.793166 
1072.000000	82.642280 
1071.000000	82.474972 
1070.000000	82.283860 
1069.000000	82.054609 
1068.000000	81.789032 
1067.000000	81.509747 
1066.000000	81.236834 
1065.000000	80.973505 
1064.000000	80.717707 
1063.000000	80.469569 
1062.000000	80.221572 
1061.000000	79.959218 
1060.000000	79.679735 
1059.000000	79.396623 
1058.000000	79.120210 
1057.000000	78.847363 
1056.000000	78.574254 
1055.000000	78.303340 
1054.000000	78.032663 
1053.000000	77.753954 
1052.000000	77.467413 
1051.000000	77.183174 
1050.000000	76.902769 
1049.000000	76.616184 
1048.000000	76.321468 
1047.000000	76.028311 
1046.000000	75.739709 
1045.000000	75.449270 
1044.000000	75.157751 
1043.000000	74.873282 
1042.000000	74.593997 
1041.000000	74.309281 
1040.000000	74.020241 
1039.000000	73.740511 
1038.000000	73.475689 
1037.000000	73.221456 
1036.000000	72.982141 
1035.000000	72.769198 
1034.000000	72.579856 
1033.000000	72.399260 
1032.000000	72.225132 
1031.000000	72.067873 
1030.000000	71.926077 
1029.000000	71.787250 
1028.000000	71.654636 
1027.000000	71.546800 
1026.000000	71.466249 
1025.000000	71.393345 
1024.000000	71.315717 
1023.000000	71.239448 
1022.000000	71.167005 
1021.000000	71.089522 
1020.000000	71.006268 
1019.000000	70.927871 
1018.000000	70.855184 
1017.000000	70.777734 
1016.000000	70.696681 
1015.000000	70.625590 
1014.000000	70.564957 
1013.000000	70.500337 
1012.000000	70.429499 
1011.000000	70.366924 
1010.000000	70.317281 
1009.000000	70.269442 
1008.000000	70.221548 
1007.000000	70.187496 
1006.000000	70.173335 
1005.000000	70.170714 
1004.000000	70.177772 
1003.000000	70.202402 
1002.000000	70.240565 
1001.000000	70.276118 
1000.000000	70.307592 
999.000000	 70.351527 
998.000000	 70.414334 
997.000000	 70.484039 
996.000000	 70.554014 
995.000000	 70.631495 
994.000000	 70.718080 
993.000000	 70.805247 
992.000000	 70.893730 
991.000000	 70.994455 
990.000000	 71.106263 
989.000000	 71.215579 
988.000000	 71.321775 
987.000000	 71.439595 
986.000000	 71.573158 
985.000000	 71.711686 
984.000000	 71.854555 
983.000000	 72.015789 
982.000000	 72.198568 
981.000000	 72.389114 
980.000000	 72.581184 
979.000000	 72.783809 
978.000000	 72.999633 
977.000000	 73.218910 
976.000000	 73.440671 
975.000000	 73.677270 
974.000000	 73.931618 
973.000000	 74.191001 
972.000000	 74.449237 
971.000000	 74.714752 
970.000000	 74.991300 
969.000000	 75.270399 
968.000000	 75.547724 
967.000000	 75.828062 
966.000000	 76.110008 
965.000000	 76.384772 
964.000000	 76.653931 
963.000000	 76.929570 
962.000000	 77.213111 
961.000000	 77.492140 
960.000000	 77.761170 
959.000000	 78.027091 
958.000000	 78.291416 
957.000000	 78.545944 
956.000000	 78.789531 
955.000000	 79.031107 
954.000000	 79.272513 
953.000000	 79.505351 
952.000000	 79.727418 
951.000000	 79.944932 
950.000000	 80.156370 
949.000000	 80.351894 
948.000000	 80.531285 
947.000000	 80.704993 
946.000000	 80.874780 
945.000000	 81.030729 
944.000000	 81.170494 
943.000000	 81.304483 
942.000000	 81.438750 
941.000000	 81.569055 
940.000000	 81.694959 
939.000000	 81.823185 
938.000000	 81.953867 
937.000000	 82.079640 
936.000000	 82.201320 
935.000000	 82.328534 
934.000000	 82.462361 
933.000000	 82.593722 
932.000000	 82.721278 
931.000000	 82.853948 
930.000000	 82.992742 
929.000000	 83.126898 
928.000000	 83.251691 
927.000000	 83.374111 
926.000000	 83.497243 
925.000000	 83.614085 
924.000000	 83.720143 
923.000000	 83.817913 
922.000000	 83.906909 
921.000000	 83.984143 
920.000000	 84.056068 
919.000000	 84.134254 
918.000000	 84.216776 
917.000000	 84.289563 
916.000000	 84.349172 
915.000000	 84.409522 
914.000000	 84.483863 
913.000000	 84.575188 
912.000000	 84.686127 
911.000000	 84.822014 
910.000000	 84.981142 
909.000000	 85.156925 
908.000000	 85.351527 
907.000000	 85.572499 
906.000000	 85.815824 
905.000000	 86.068401 
904.000000	 86.327044 
903.000000	 86.597924 
902.000000	 86.877745 
901.000000	 87.154124 
900.000000	 87.425417 
899.000000	 87.702030 
898.000000	 87.985995 
897.000000	 88.266231 
896.000000	 88.535374 
895.000000	 88.794487 
894.000000	 89.040268 
893.000000	 89.264874 
892.000000	 89.470991 
891.000000	 89.671374 
890.000000	 89.870560 
889.000000	 90.060709 
888.000000	 90.236660 
887.000000	 90.400707 
886.000000	 90.552170 
885.000000	 90.687611 
884.000000	 90.812071 
883.000000	 90.934683 
882.000000	 91.053253 
881.000000	 91.160681 
880.000000	 91.267001 
879.000000	 91.394684 
878.000000	 91.548389 
877.000000	 91.709393 
876.000000	 91.864869 
875.000000	 92.023056 
874.000000	 92.194414 
873.000000	 92.378082 
872.000000	 92.573602 
871.000000	 92.786559 
870.000000	 93.014229 
869.000000	 93.241627 
868.000000	 93.458997 
867.000000	 93.669600 
866.000000	 93.875693 
865.000000	 94.071423 
864.000000	 94.255542 
863.000000	 94.437820 
862.000000	 94.625375 
861.000000	 94.812697 
860.000000	 94.991117 
859.000000	 95.159034 
858.000000	 95.318191 
857.000000	 95.468343 
856.000000	 95.609645 
855.000000	 95.742803 
854.000000	 95.864295 
853.000000	 95.969122 
852.000000	 96.060147 
851.000000	 96.147201 
850.000000	 96.236108 
849.000000	 96.326018 
848.000000	 96.416251 
847.000000	 96.505728 
846.000000	 96.586766 
845.000000	 96.650994 
844.000000	 96.701535 
843.000000	 96.748090 
842.000000	 96.789874 
841.000000	 96.815258 
840.000000	 96.818795 
839.000000	 96.806346 
838.000000	 96.782860 
837.000000	 96.748448 
836.000000	 96.709071 
835.000000	 96.677567 
834.000000	 96.658839 
833.000000	 96.645235 
832.000000	 96.631196 
831.000000	 96.621641 
830.000000	 96.621726 
829.000000	 96.630401 
828.000000	 96.650390 
827.000000	 96.692818 
826.000000	 96.763062 
825.000000	 96.850262 
824.000000	 96.937071 
823.000000	 97.011921 
822.000000	 97.069741 
821.000000	 97.111819 
820.000000	 97.147077 
819.000000	 97.182415 
818.000000	 97.209408 
817.000000	 97.209384 
816.000000	 97.172210 
815.000000	 97.101396 
814.000000	 97.000709 
813.000000	 96.865464 
812.000000	 96.687747 
811.000000	 96.458946 
810.000000	 96.164196 
809.000000	 95.785711 
808.000000	 95.318301 
807.000000	 94.776139 
806.000000	 94.182103 
805.000000	 93.558284 
804.000000	 92.928816 
803.000000	 92.320160 
802.000000	 91.753006 
801.000000	 91.243750 
800.000000	 90.816197 
799.000000	 90.497426 
798.000000	 90.297284 
797.000000	 90.204256 
796.000000	 90.201686 
795.000000	 90.271672 
794.000000	 90.384532 
793.000000	 90.506680 
792.000000	 90.623125 
791.000000	 90.734895 
790.000000	 90.833687 
789.000000	 90.898086 
788.000000	 90.915742 
787.000000	 90.889218 
786.000000	 90.817299 
785.000000	 90.690292 
784.000000	 90.508738 
783.000000	 90.289880 
782.000000	 90.052808 
781.000000	 89.815505 
780.000000	 89.608436 
779.000000	 89.468048 
778.000000	 89.408950 
777.000000	 89.420638 
776.000000	 89.495046 
775.000000	 89.634827 
774.000000	 89.829004 
773.000000	 90.045315 
772.000000	 90.257621 
771.000000	 90.462204 
770.000000	 90.659486 
769.000000	 90.839520 
768.000000	 90.994376 
767.000000	 91.126933 
766.000000	 91.238958 
765.000000	 91.327364 
764.000000	 91.400162 
763.000000	 91.478761 
762.000000	 91.574617 
761.000000	 91.677792 
760.000000	 91.775942 
759.000000	 91.869859 
758.000000	 91.964081 
757.000000	 92.058905 
756.000000	 92.159953 
755.000000	 92.279632 
754.000000	 92.418808 
753.000000	 92.559039 
752.000000	 92.680520 
751.000000	 92.778069 
750.000000	 92.857705 
749.000000	 92.931145 
748.000000	 93.016026 
747.000000	 93.125436 
746.000000	 93.251490 
745.000000	 93.373565 
744.000000	 93.487118 
743.000000	 93.609025 
742.000000	 93.750958 
741.000000	 93.905053 
740.000000	 94.060666 
739.000000	 94.217421 
738.000000	 94.374998 
737.000000	 94.525733 
736.000000	 94.664494 
735.000000	 94.792383 
734.000000	 94.906596 
733.000000	 95.000732 
732.000000	 95.077725 
731.000000	 95.147313 
730.000000	 95.209221 
729.000000	 95.256587 
728.000000	 95.293817 
727.000000	 95.334371 
726.000000	 95.384272 
725.000000	 95.442172 
724.000000	 95.514201 
723.000000	 95.610426 
722.000000	 95.723987 
721.000000	 95.831239 
720.000000	 95.917542 
719.000000	 95.988818 
718.000000	 96.053278 
717.000000	 96.108965 
716.000000	 96.156516 
715.000000	 96.205412 
714.000000	 96.260067 
713.000000	 96.316057 
712.000000	 96.373975 
711.000000	 96.439805 
710.000000	 96.506150 
709.000000	 96.559204 
708.000000	 96.595729 
707.000000	 96.620879 
706.000000	 96.632782 
705.000000	 96.619621 
704.000000	 96.575107 
703.000000	 96.505284 
702.000000	 96.409413 
701.000000	 96.268406 
700.000000	 96.063821 
699.000000	 95.794627 
698.000000	 95.479076 
697.000000	 95.154193 
696.000000	 94.873457 
695.000000	 94.691347 
694.000000	 94.631779 
693.000000	 94.679682 
692.000000	 94.805312 
691.000000	 94.978775 
690.000000	 95.169441 
689.000000	 95.349879 
688.000000	 95.507264 
687.000000	 95.643382 
686.000000	 95.756616 
685.000000	 95.842568 
684.000000	 95.913136 
683.000000	 95.988478 
682.000000	 96.071607 
681.000000	 96.149701 
680.000000	 96.220611 
679.000000	 96.293218 
678.000000	 96.366071 
677.000000	 96.433686 
676.000000	 96.500812 
675.000000	 96.576902 
674.000000	 96.657008 
673.000000	 96.714517 
672.000000	 96.726548 
671.000000	 96.675647 
670.000000	 96.554153 
669.000000	 96.376192 
668.000000	 96.295761 
667.000000	 96.469174 
666.000000	 96.757979 
665.000000	 96.972980 
664.000000	 97.103504 
663.000000	 97.184848 
662.000000	 97.243969 
661.000000	 97.291907 
660.000000	 97.334493 
659.000000	 97.379496 
658.000000	 97.426523 
657.000000	 97.466986 
656.000000	 97.488611 
655.000000	 97.487257 
654.000000	 97.469899 
653.000000	 97.445115 
652.000000	 97.421419 
651.000000	 97.414907 
650.000000	 97.439301 

