4000.000000	97.741182 
3999.000000	97.737736 
3998.000000	97.732087 
3997.000000	97.725885 
3996.000000	97.720734 
3995.000000	97.717738 
3994.000000	97.717474 
3993.000000	97.719484 
3992.000000	97.722028 
3991.000000	97.723409 
3990.000000	97.723524 
3989.000000	97.723467 
3988.000000	97.723902 
3987.000000	97.724664 
3986.000000	97.725773 
3985.000000	97.727729 
3984.000000	97.730473 
3983.000000	97.733092 
3982.000000	97.735036 
3981.000000	97.736740 
3980.000000	97.738465 
3979.000000	97.739244 
3978.000000	97.738105 
3977.000000	97.735926 
3976.000000	97.734744 
3975.000000	97.735255 
3974.000000	97.736012 
3973.000000	97.735326 
3972.000000	97.732863 
3971.000000	97.729373 
3970.000000	97.726017 
3969.000000	97.723815 
3968.000000	97.723225 
3967.000000	97.723817 
3966.000000	97.724605 
3965.000000	97.724723 
3964.000000	97.723766 
3963.000000	97.721844 
3962.000000	97.719566 
3961.000000	97.717837 
3960.000000	97.716996 
3959.000000	97.716525 
3958.000000	97.716101 
3957.000000	97.715961 
3956.000000	97.716220 
3955.000000	97.716305 
3954.000000	97.715610 
3953.000000	97.714219 
3952.000000	97.712699 
3951.000000	97.711578 
3950.000000	97.710940 
3949.000000	97.710514 
3948.000000	97.710012 
3947.000000	97.709441 
3946.000000	97.708927 
3945.000000	97.708377 
3944.000000	97.707571 
3943.000000	97.706625 
3942.000000	97.706102 
3941.000000	97.706465 
3940.000000	97.707306 
3939.000000	97.707390 
3938.000000	97.706101 
3937.000000	97.704000 
3936.000000	97.702042 
3935.000000	97.700311 
3934.000000	97.698442 
3933.000000	97.696916 
3932.000000	97.696581 
3931.000000	97.697145 
3930.000000	97.697350 
3929.000000	97.696747 
3928.000000	97.696313 
3927.000000	97.696568 
3926.000000	97.696618 
3925.000000	97.695903 
3924.000000	97.695256 
3923.000000	97.695274 
3922.000000	97.695072 
3921.000000	97.693911 
3920.000000	97.692621 
3919.000000	97.692242 
3918.000000	97.692467 
3917.000000	97.692347 
3916.000000	97.691719 
3915.000000	97.691055 
3914.000000	97.690430 
3913.000000	97.689602 
3912.000000	97.688666 
3911.000000	97.687725 
3910.000000	97.686863 
3909.000000	97.686093 
3908.000000	97.685414 
3907.000000	97.684767 
3906.000000	97.684144 
3905.000000	97.683564 
3904.000000	97.683047 
3903.000000	97.682605 
3902.000000	97.682232 
3901.000000	97.681909 
3900.000000	97.681610 
3899.000000	97.681315 
3898.000000	97.681016 
3897.000000	97.680712 
3896.000000	97.680395 
3895.000000	97.680041 
3894.000000	97.679623 
3893.000000	97.679133 
3892.000000	97.678578 
3891.000000	97.677968 
3890.000000	97.677334 
3889.000000	97.676709 
3888.000000	97.676105 
3887.000000	97.675515 
3886.000000	97.674944 
3885.000000	97.674415 
3884.000000	97.673951 
3883.000000	97.673547 
3882.000000	97.673184 
3881.000000	97.672862 
3880.000000	97.672601 
3879.000000	97.672416 
3878.000000	97.672297 
3877.000000	97.672208 
3876.000000	97.672126 
3875.000000	97.672053 
3874.000000	97.672016 
3873.000000	97.672032 
3872.000000	97.672089 
3871.000000	97.672157 
3870.000000	97.672235 
3869.000000	97.672350 
3868.000000	97.672526 
3867.000000	97.672732 
3866.000000	97.672932 
3865.000000	97.673129 
3864.000000	97.673345 
3863.000000	97.673567 
3862.000000	97.673750 
3861.000000	97.673882 
3860.000000	97.673992 
3859.000000	97.674109 
3858.000000	97.674242 
3857.000000	97.674394 
3856.000000	97.674587 
3855.000000	97.674854 
3854.000000	97.675199 
3853.000000	97.675620 
3852.000000	97.676169 
3851.000000	97.676910 
3850.000000	97.677833 
3849.000000	97.678878 
3848.000000	97.679990 
3847.000000	97.681130 
3846.000000	97.682279 
3845.000000	97.683429 
3844.000000	97.684570 
3843.000000	97.685687 
3842.000000	97.686776 
3841.000000	97.687844 
3840.000000	97.688898 
3839.000000	97.689930 
3838.000000	97.690921 
3837.000000	97.691868 
3836.000000	97.692792 
3835.000000	97.693721 
3834.000000	97.694665 
3833.000000	97.695616 
3832.000000	97.696570 
3831.000000	97.697527 
3830.000000	97.698494 
3829.000000	97.699474 
3828.000000	97.700461 
3827.000000	97.701443 
3826.000000	97.702411 
3825.000000	97.703374 
3824.000000	97.704343 
3823.000000	97.705308 
3822.000000	97.706243 
3821.000000	97.707145 
3820.000000	97.708065 
3819.000000	97.709045 
3818.000000	97.710059 
3817.000000	97.711047 
3816.000000	97.711988 
3815.000000	97.712914 
3814.000000	97.713850 
3813.000000	97.714772 
3812.000000	97.715645 
3811.000000	97.716470 
3810.000000	97.717259 
3809.000000	97.717981 
3808.000000	97.718589 
3807.000000	97.719076 
3806.000000	97.719500 
3805.000000	97.719924 
3804.000000	97.720365 
3803.000000	97.720799 
3802.000000	97.721218 
3801.000000	97.721651 
3800.000000	97.722134 
3799.000000	97.722659 
3798.000000	97.723182 
3797.000000	97.723677 
3796.000000	97.724150 
3795.000000	97.724605 
3794.000000	97.725017 
3793.000000	97.725355 
3792.000000	97.725594 
3791.000000	97.725726 
3790.000000	97.725753 
3789.000000	97.725686 
3788.000000	97.725538 
3787.000000	97.725318 
3786.000000	97.725023 
3785.000000	97.724652 
3784.000000	97.724226 
3783.000000	97.723760 
3782.000000	97.723238 
3781.000000	97.722641 
3780.000000	97.721976 
3779.000000	97.721262 
3778.000000	97.720500 
3777.000000	97.719671 
3776.000000	97.718770 
3775.000000	97.717824 
3774.000000	97.716862 
3773.000000	97.715885 
3772.000000	97.714870 
3771.000000	97.713804 
3770.000000	97.712698 
3769.000000	97.711567 
3768.000000	97.710411 
3767.000000	97.709220 
3766.000000	97.707999 
3765.000000	97.706771 
3764.000000	97.705550 
3763.000000	97.704318 
3762.000000	97.703037 
3761.000000	97.701696 
3760.000000	97.700310 
3759.000000	97.698882 
3758.000000	97.697392 
3757.000000	97.695829 
3756.000000	97.694218 
3755.000000	97.692598 
3754.000000	97.690999 
3753.000000	97.689444 
3752.000000	97.687950 
3751.000000	97.686520 
3750.000000	97.685117 
3749.000000	97.683659 
3748.000000	97.682236 
3747.000000	97.681091 
3746.000000	97.680193 
3745.000000	97.679125 
3744.000000	97.677478 
3743.000000	97.675999 
3742.000000	97.675689 
3741.000000	97.675098 
3740.000000	97.672677 
3739.000000	97.669553 
3738.000000	97.667552 
3737.000000	97.666372 
3736.000000	97.664974 
3735.000000	97.664734 
3734.000000	97.666787 
3733.000000	97.668090 
3732.000000	97.665398 
3731.000000	97.661062 
3730.000000	97.659824 
3729.000000	97.661042 
3728.000000	97.659913 
3727.000000	97.655575 
3726.000000	97.652569 
3725.000000	97.654169 
3724.000000	97.656926 
3723.000000	97.656399 
3722.000000	97.653182 
3721.000000	97.650010 
3720.000000	97.647717 
3719.000000	97.643963 
3718.000000	97.637304 
3717.000000	97.630428 
3716.000000	97.626857 
3715.000000	97.625591 
3714.000000	97.623638 
3713.000000	97.622765 
3712.000000	97.625473 
3711.000000	97.627314 
3710.000000	97.623003 
3709.000000	97.612246 
3708.000000	97.597556 
3707.000000	97.582189 
3706.000000	97.569050 
3705.000000	97.558680 
3704.000000	97.549296 
3703.000000	97.539096 
3702.000000	97.526694 
3701.000000	97.511954 
3700.000000	97.498327 
3699.000000	97.488105 
3698.000000	97.478352 
3697.000000	97.467473 
3696.000000	97.458492 
3695.000000	97.452965 
3694.000000	97.446924 
3693.000000	97.436874 
3692.000000	97.425458 
3691.000000	97.417059 
3690.000000	97.410728 
3689.000000	97.401030 
3688.000000	97.388182 
3687.000000	97.379520 
3686.000000	97.376861 
3685.000000	97.374098 
3684.000000	97.367891 
3683.000000	97.360535 
3682.000000	97.353701 
3681.000000	97.345498 
3680.000000	97.334577 
3679.000000	97.323549 
3678.000000	97.314660 
3677.000000	97.306735 
3676.000000	97.297084 
3675.000000	97.285784 
3674.000000	97.277125 
3673.000000	97.271927 
3672.000000	97.266008 
3671.000000	97.257819 
3670.000000	97.249607 
3669.000000	97.242925 
3668.000000	97.237630 
3667.000000	97.232374 
3666.000000	97.226173 
3665.000000	97.219462 
3664.000000	97.213202 
3663.000000	97.207481 
3662.000000	97.201505 
3661.000000	97.194744 
3660.000000	97.187831 
3659.000000	97.182064 
3658.000000	97.177535 
3657.000000	97.172444 
3656.000000	97.164715 
3655.000000	97.156545 
3654.000000	97.150748 
3653.000000	97.143758 
3652.000000	97.132026 
3651.000000	97.121653 
3650.000000	97.120172 
3649.000000	97.123279 
3648.000000	97.121689 
3647.000000	97.116931 
3646.000000	97.116964 
3645.000000	97.122948 
3644.000000	97.129445 
3643.000000	97.132269 
3642.000000	97.133169 
3641.000000	97.135247 
3640.000000	97.137470 
3639.000000	97.136022 
3638.000000	97.131170 
3637.000000	97.128132 
3636.000000	97.127209 
3635.000000	97.121037 
3634.000000	97.105685 
3633.000000	97.088573 
3632.000000	97.077806 
3631.000000	97.072523 
3630.000000	97.070807 
3629.000000	97.068276 
3628.000000	97.063041 
3627.000000	97.066567 
3626.000000	97.076638 
3625.000000	97.077104 
3624.000000	97.067774 
3623.000000	97.059061 
3622.000000	97.053480 
3621.000000	97.046314 
3620.000000	97.037250 
3619.000000	97.030186 
3618.000000	97.029123 
3617.000000	97.037573 
3616.000000	97.052838 
3615.000000	97.067879 
3614.000000	97.080262 
3613.000000	97.093069 
3612.000000	97.108905 
3611.000000	97.125076 
3610.000000	97.135988 
3609.000000	97.141013 
3608.000000	97.145252 
3607.000000	97.152315 
3606.000000	97.160512 
3605.000000	97.166217 
3604.000000	97.170023 
3603.000000	97.175825 
3602.000000	97.183161 
3601.000000	97.186819 
3600.000000	97.185044 
3599.000000	97.181302 
3598.000000	97.178962 
3597.000000	97.180732 
3596.000000	97.186745 
3595.000000	97.193634 
3594.000000	97.196416 
3593.000000	97.193333 
3592.000000	97.185896 
3591.000000	97.176017 
3590.000000	97.165990 
3589.000000	97.160927 
3588.000000	97.165130 
3587.000000	97.176688 
3586.000000	97.190530 
3585.000000	97.202368 
3584.000000	97.209737 
3583.000000	97.213641 
3582.000000	97.217006 
3581.000000	97.221145 
3580.000000	97.224964 
3579.000000	97.227335 
3578.000000	97.228045 
3577.000000	97.228042 
3576.000000	97.228308 
3575.000000	97.228449 
3574.000000	97.226846 
3573.000000	97.221901 
3572.000000	97.213603 
3571.000000	97.203701 
3570.000000	97.194794 
3569.000000	97.189660 
3568.000000	97.190643 
3567.000000	97.197210 
3566.000000	97.205660 
3565.000000	97.212221 
3564.000000	97.214626 
3563.000000	97.213122 
3562.000000	97.210526 
3561.000000	97.209615 
3560.000000	97.210786 
3559.000000	97.212592 
3558.000000	97.213670 
3557.000000	97.213811 
3556.000000	97.213852 
3555.000000	97.214443 
3554.000000	97.215336 
3553.000000	97.215805 
3552.000000	97.215501 
3551.000000	97.214516 
3550.000000	97.212743 
3549.000000	97.210181 
3548.000000	97.208248 
3547.000000	97.208900 
3546.000000	97.211997 
3545.000000	97.215270 
3544.000000	97.217177 
3543.000000	97.218170 
3542.000000	97.219108 
3541.000000	97.219902 
3540.000000	97.220129 
3539.000000	97.219748 
3538.000000	97.219112 
3537.000000	97.218641 
3536.000000	97.218543 
3535.000000	97.218669 
3534.000000	97.218455 
3533.000000	97.217530 
3532.000000	97.216318 
3531.000000	97.215832 
3530.000000	97.216392 
3529.000000	97.216985 
3528.000000	97.216325 
3527.000000	97.214422 
3526.000000	97.212539 
3525.000000	97.211955 
3524.000000	97.213237 
3523.000000	97.216176 
3522.000000	97.219839 
3521.000000	97.222922 
3520.000000	97.224840 
3519.000000	97.226101 
3518.000000	97.227409 
3517.000000	97.228639 
3516.000000	97.228820 
3515.000000	97.227352 
3514.000000	97.224950 
3513.000000	97.223116 
3512.000000	97.222683 
3511.000000	97.223383 
3510.000000	97.224406 
3509.000000	97.225174 
3508.000000	97.225589 
3507.000000	97.225574 
3506.000000	97.224596 
3505.000000	97.222291 
3504.000000	97.219385 
3503.000000	97.217409 
3502.000000	97.217388 
3501.000000	97.219125 
3500.000000	97.221605 
3499.000000	97.223967 
3498.000000	97.226011 
3497.000000	97.227825 
3496.000000	97.229164 
3495.000000	97.229521 
3494.000000	97.229012 
3493.000000	97.228737 
3492.000000	97.229658 
3491.000000	97.231351 
3490.000000	97.232362 
3489.000000	97.231791 
3488.000000	97.229985 
3487.000000	97.227695 
3486.000000	97.225168 
3485.000000	97.222521 
3484.000000	97.220365 
3483.000000	97.219378 
3482.000000	97.219497 
3481.000000	97.220137 
3480.000000	97.221003 
3479.000000	97.222104 
3478.000000	97.223030 
3477.000000	97.222973 
3476.000000	97.221632 
3475.000000	97.219557 
3474.000000	97.217580 
3473.000000	97.216163 
3472.000000	97.215330 
3471.000000	97.214970 
3470.000000	97.215022 
3469.000000	97.215363 
3468.000000	97.215771 
3467.000000	97.216101 
3466.000000	97.216331 
3465.000000	97.216305 
3464.000000	97.215626 
3463.000000	97.214060 
3462.000000	97.211987 
3461.000000	97.210210 
3460.000000	97.209179 
3459.000000	97.208554 
3458.000000	97.207647 
3457.000000	97.206124 
3456.000000	97.204213 
3455.000000	97.202459 
3454.000000	97.201201 
3453.000000	97.200421 
3452.000000	97.199962 
3451.000000	97.199719 
3450.000000	97.199544 
3449.000000	97.199173 
3448.000000	97.198419 
3447.000000	97.197339 
3446.000000	97.196150 
3445.000000	97.195058 
3444.000000	97.194173 
3443.000000	97.193535 
3442.000000	97.193097 
3441.000000	97.192693 
3440.000000	97.192144 
3439.000000	97.191396 
3438.000000	97.190528 
3437.000000	97.189641 
3436.000000	97.188803 
3435.000000	97.188074 
3434.000000	97.187486 
3433.000000	97.186990 
3432.000000	97.186483 
3431.000000	97.185910 
3430.000000	97.185302 
3429.000000	97.184713 
3428.000000	97.184145 
3427.000000	97.183558 
3426.000000	97.182944 
3425.000000	97.182343 
3424.000000	97.181799 
3423.000000	97.181314 
3422.000000	97.180865 
3421.000000	97.180429 
3420.000000	97.180010 
3419.000000	97.179625 
3418.000000	97.179278 
3417.000000	97.178947 
3416.000000	97.178615 
3415.000000	97.178279 
3414.000000	97.177935 
3413.000000	97.177573 
3412.000000	97.177192 
3411.000000	97.176826 
3410.000000	97.176515 
3409.000000	97.176285 
3408.000000	97.176137 
3407.000000	97.176035 
3406.000000	97.175918 
3405.000000	97.175734 
3404.000000	97.175485 
3403.000000	97.175229 
3402.000000	97.175031 
3401.000000	97.174930 
3400.000000	97.174941 
3399.000000	97.175043 
3398.000000	97.175164 
3397.000000	97.175216 
3396.000000	97.175168 
3395.000000	97.175082 
3394.000000	97.175057 
3393.000000	97.175157 
3392.000000	97.175361 
3391.000000	97.175608 
3390.000000	97.175873 
3389.000000	97.176209 
3388.000000	97.176679 
3387.000000	97.177247 
3386.000000	97.177781 
3385.000000	97.178159 
3384.000000	97.178357 
3383.000000	97.178452 
3382.000000	97.178615 
3381.000000	97.179051 
3380.000000	97.179846 
3379.000000	97.180845 
3378.000000	97.181758 
3377.000000	97.182481 
3376.000000	97.183168 
3375.000000	97.183989 
3374.000000	97.184912 
3373.000000	97.185788 
3372.000000	97.186569 
3371.000000	97.187370 
3370.000000	97.188325 
3369.000000	97.189449 
3368.000000	97.190653 
3367.000000	97.191837 
3366.000000	97.192953 
3365.000000	97.194005 
3364.000000	97.195017 
3363.000000	97.196016 
3362.000000	97.197025 
3361.000000	97.198076 
3360.000000	97.199203 
3359.000000	97.200411 
3358.000000	97.201671 
3357.000000	97.202940 
3356.000000	97.204190 
3355.000000	97.205387 
3354.000000	97.206500 
3353.000000	97.207552 
3352.000000	97.208642 
3351.000000	97.209854 
3350.000000	97.211174 
3349.000000	97.212492 
3348.000000	97.213716 
3347.000000	97.214861 
3346.000000	97.216009 
3345.000000	97.217193 
3344.000000	97.218353 
3343.000000	97.219426 
3342.000000	97.220442 
3341.000000	97.221511 
3340.000000	97.222701 
3339.000000	97.223969 
3338.000000	97.225203 
3337.000000	97.226325 
3336.000000	97.227337 
3335.000000	97.228303 
3334.000000	97.229285 
3333.000000	97.230302 
3332.000000	97.231345 
3331.000000	97.232406 
3330.000000	97.233480 
3329.000000	97.234553 
3328.000000	97.235597 
3327.000000	97.236589 
3326.000000	97.237514 
3325.000000	97.238361 
3324.000000	97.239114 
3323.000000	97.239748 
3322.000000	97.240290 
3321.000000	97.240878 
3320.000000	97.241684 
3319.000000	97.242763 
3318.000000	97.244008 
3317.000000	97.245254 
3316.000000	97.246402 
3315.000000	97.247427 
3314.000000	97.248319 
3313.000000	97.249089 
3312.000000	97.249819 
3311.000000	97.250652 
3310.000000	97.251700 
3309.000000	97.252949 
3308.000000	97.254235 
3307.000000	97.255326 
3306.000000	97.256065 
3305.000000	97.256480 
3304.000000	97.256797 
3303.000000	97.257297 
3302.000000	97.258162 
3301.000000	97.259426 
3300.000000	97.260911 
3299.000000	97.262200 
3298.000000	97.262838 
3297.000000	97.262703 
3296.000000	97.262220 
3295.000000	97.262054 
3294.000000	97.262602 
3293.000000	97.263915 
3292.000000	97.265906 
3291.000000	97.268418 
3290.000000	97.271113 
3289.000000	97.273609 
3288.000000	97.275759 
3287.000000	97.277539 
3286.000000	97.278635 
3285.000000	97.278561 
3284.000000	97.277406 
3283.000000	97.276241 
3282.000000	97.276482 
3281.000000	97.278699 
3280.000000	97.281978 
3279.000000	97.284529 
3278.000000	97.285296 
3277.000000	97.284832 
3276.000000	97.284374 
3275.000000	97.284048 
3274.000000	97.282730 
3273.000000	97.279984 
3272.000000	97.277385 
3271.000000	97.277131 
3270.000000	97.279638 
3269.000000	97.283036 
3268.000000	97.284921 
3267.000000	97.284403 
3266.000000	97.282732 
3265.000000	97.282395 
3264.000000	97.285152 
3263.000000	97.290436 
3262.000000	97.296100 
3261.000000	97.301000 
3260.000000	97.305987 
3259.000000	97.311846 
3258.000000	97.317398 
3257.000000	97.320811 
3256.000000	97.322166 
3255.000000	97.323213 
3254.000000	97.324695 
3253.000000	97.325600 
3252.000000	97.325377 
3251.000000	97.325321 
3250.000000	97.326863 
3249.000000	97.329485 
3248.000000	97.331323 
3247.000000	97.331248 
3246.000000	97.329450 
3245.000000	97.326435 
3244.000000	97.322377 
3243.000000	97.317646 
3242.000000	97.313256 
3241.000000	97.310253 
3240.000000	97.308939 
3239.000000	97.309222 
3238.000000	97.311493 
3237.000000	97.316381 
3236.000000	97.323370 
3235.000000	97.330112 
3234.000000	97.333827 
3233.000000	97.333600 
3232.000000	97.331075 
3231.000000	97.329104 
3230.000000	97.329879 
3229.000000	97.334065 
3228.000000	97.340977 
3227.000000	97.349190 
3226.000000	97.357158 
3225.000000	97.363622 
3224.000000	97.367717 
3223.000000	97.369139 
3222.000000	97.368559 
3221.000000	97.367623 
3220.000000	97.367767 
3219.000000	97.368967 
3218.000000	97.370150 
3217.000000	97.370535 
3216.000000	97.370066 
3215.000000	97.368919 
3214.000000	97.367228 
3213.000000	97.365272 
3212.000000	97.363351 
3211.000000	97.361431 
3210.000000	97.359356 
3209.000000	97.357499 
3208.000000	97.356745 
3207.000000	97.357631 
3206.000000	97.359748 
3205.000000	97.362222 
3204.000000	97.364583 
3203.000000	97.367091 
3202.000000	97.370400 
3201.000000	97.374800 
3200.000000	97.379746 
3199.000000	97.384352 
3198.000000	97.388447 
3197.000000	97.392587 
3196.000000	97.396792 
3195.000000	97.399984 
3194.000000	97.401292 
3193.000000	97.401439 
3192.000000	97.401946 
3191.000000	97.403181 
3190.000000	97.404041 
3189.000000	97.403629 
3188.000000	97.402462 
3187.000000	97.401928 
3186.000000	97.403122 
3185.000000	97.406025 
3184.000000	97.409361 
3183.000000	97.411473 
3182.000000	97.411748 
3181.000000	97.411063 
3180.000000	97.410627 
3179.000000	97.410773 
3178.000000	97.411365 
3177.000000	97.412857 
3176.000000	97.416105 
3175.000000	97.421264 
3174.000000	97.427515 
3173.000000	97.433732 
3172.000000	97.438825 
3171.000000	97.441803 
3170.000000	97.442528 
3169.000000	97.442450 
3168.000000	97.443597 
3167.000000	97.446426 
3166.000000	97.449411 
3165.000000	97.450738 
3164.000000	97.449742 
3163.000000	97.446812 
3162.000000	97.442878 
3161.000000	97.439229 
3160.000000	97.437032 
3159.000000	97.436635 
3158.000000	97.437650 
3157.000000	97.439716 
3156.000000	97.442478 
3155.000000	97.444848 
3154.000000	97.445460 
3153.000000	97.444411 
3152.000000	97.443657 
3151.000000	97.444870 
3150.000000	97.447573 
3149.000000	97.450178 
3148.000000	97.452361 
3147.000000	97.455484 
3146.000000	97.460809 
3145.000000	97.467953 
3144.000000	97.474997 
3143.000000	97.479685 
3142.000000	97.480814 
3141.000000	97.479151 
3140.000000	97.477135 
3139.000000	97.477098 
3138.000000	97.479495 
3137.000000	97.482830 
3136.000000	97.484930 
3135.000000	97.484406 
3134.000000	97.481449 
3133.000000	97.477611 
3132.000000	97.474474 
3131.000000	97.472390 
3130.000000	97.470827 
3129.000000	97.469699 
3128.000000	97.469662 
3127.000000	97.471106 
3126.000000	97.473511 
3125.000000	97.475967 
3124.000000	97.477832 
3123.000000	97.478621 
3122.000000	97.478073 
3121.000000	97.477117 
3120.000000	97.477863 
3119.000000	97.481548 
3118.000000	97.486950 
3117.000000	97.491646 
3116.000000	97.494770 
3115.000000	97.497593 
3114.000000	97.501419 
3113.000000	97.505920 
3112.000000	97.509870 
3111.000000	97.512793 
3110.000000	97.515118 
3109.000000	97.517105 
3108.000000	97.518406 
3107.000000	97.518777 
3106.000000	97.518446 
3105.000000	97.517537 
3104.000000	97.515750 
3103.000000	97.512866 
3102.000000	97.509304 
3101.000000	97.505897 
3100.000000	97.503173 
3099.000000	97.501301 
3098.000000	97.500889 
3097.000000	97.503113 
3096.000000	97.508245 
3095.000000	97.514381 
3094.000000	97.518735 
3093.000000	97.520372 
3092.000000	97.520839 
3091.000000	97.521925 
3090.000000	97.523629 
3089.000000	97.524889 
3088.000000	97.525543 
3087.000000	97.526677 
3086.000000	97.529267 
3085.000000	97.532989 
3084.000000	97.536278 
3083.000000	97.537306 
3082.000000	97.535435 
3081.000000	97.532177 
3080.000000	97.529957 
3079.000000	97.529500 
3078.000000	97.529422 
3077.000000	97.528863 
3076.000000	97.529118 
3075.000000	97.531506 
3074.000000	97.534659 
3073.000000	97.535649 
3072.000000	97.533451 
3071.000000	97.529695 
3070.000000	97.526372 
3069.000000	97.524442 
3068.000000	97.524552 
3067.000000	97.527277 
3066.000000	97.532082 
3065.000000	97.537186 
3064.000000	97.540768 
3063.000000	97.541549 
3062.000000	97.538801 
3061.000000	97.533290 
3060.000000	97.527993 
3059.000000	97.526313 
3058.000000	97.529414 
3057.000000	97.535965 
3056.000000	97.543409 
3055.000000	97.548199 
3054.000000	97.546349 
3053.000000	97.536900 
3052.000000	97.525025 
3051.000000	97.518440 
3050.000000	97.519251 
3049.000000	97.521524 
3048.000000	97.518026 
3047.000000	97.507387 
3046.000000	97.493545 
3045.000000	97.480791 
3044.000000	97.471664 
3043.000000	97.467943 
3042.000000	97.470133 
3041.000000	97.475043 
3040.000000	97.476366 
3039.000000	97.469767 
3038.000000	97.456887 
3037.000000	97.443388 
3036.000000	97.433005 
3035.000000	97.424499 
3034.000000	97.414746 
3033.000000	97.403071 
3032.000000	97.391104 
3031.000000	97.379648 
3030.000000	97.367911 
3029.000000	97.355619 
3028.000000	97.343362 
3027.000000	97.330066 
3026.000000	97.312462 
3025.000000	97.288970 
3024.000000	97.262799 
3023.000000	97.239027 
3022.000000	97.219199 
3021.000000	97.200968 
3020.000000	97.182394 
3019.000000	97.163706 
3018.000000	97.144490 
3017.000000	97.122016 
3016.000000	97.094202 
3015.000000	97.062982 
3014.000000	97.033337 
3013.000000	97.009278 
3012.000000	96.991038 
3011.000000	96.975203 
3010.000000	96.956924 
3009.000000	96.932816 
3008.000000	96.902821 
3007.000000	96.869790 
3006.000000	96.837447 
3005.000000	96.808520 
3004.000000	96.783720 
3003.000000	96.761436 
3002.000000	96.738850 
3001.000000	96.714504 
3000.000000	96.689583 
2999.000000	96.665779 
2998.000000	96.642911 
2997.000000	96.620142 
2996.000000	96.598431 
2995.000000	96.578820 
2994.000000	96.557792 
2993.000000	96.527501 
2992.000000	96.483317 
2991.000000	96.430600 
2990.000000	96.382436 
2989.000000	96.350641 
2988.000000	96.339151 
2987.000000	96.343941 
2986.000000	96.356874 
2985.000000	96.370362 
2984.000000	96.380694 
2983.000000	96.388510 
2982.000000	96.396143 
2981.000000	96.404209 
2980.000000	96.410599 
2979.000000	96.412313 
2978.000000	96.407940 
2977.000000	96.398708 
2976.000000	96.387883 
2975.000000	96.379256 
2974.000000	96.375616 
2973.000000	96.377884 
2972.000000	96.385144 
2971.000000	96.395423 
2970.000000	96.406948 
2969.000000	96.419294 
2968.000000	96.433348 
2967.000000	96.449877 
2966.000000	96.468405 
2965.000000	96.487759 
2964.000000	96.507164 
2963.000000	96.526051 
2962.000000	96.543314 
2961.000000	96.558165 
2960.000000	96.571879 
2959.000000	96.587422 
2958.000000	96.606564 
2957.000000	96.627859 
2956.000000	96.647769 
2955.000000	96.663210 
2954.000000	96.673286 
2953.000000	96.680083 
2952.000000	96.688353 
2951.000000	96.702654 
2950.000000	96.722792 
2949.000000	96.742605 
2948.000000	96.754925 
2947.000000	96.757825 
2946.000000	96.755493 
2945.000000	96.753651 
2944.000000	96.755247 
2943.000000	96.760298 
2942.000000	96.767565 
2941.000000	96.774864 
2940.000000	96.779267 
2939.000000	96.779260 
2938.000000	96.776700 
2937.000000	96.775362 
2936.000000	96.777179 
2935.000000	96.780530 
2934.000000	96.782314 
2933.000000	96.780753 
2932.000000	96.775956 
2931.000000	96.768930 
2930.000000	96.761174 
2929.000000	96.754868 
2928.000000	96.751980 
2927.000000	96.752416 
2926.000000	96.753673 
2925.000000	96.753282 
2924.000000	96.751566 
2923.000000	96.751188 
2922.000000	96.753752 
2921.000000	96.757758 
2920.000000	96.760650 
2919.000000	96.761982 
2918.000000	96.762954 
2917.000000	96.762740 
2916.000000	96.757352 
2915.000000	96.743897 
2914.000000	96.725318 
2913.000000	96.708952 
2912.000000	96.699901 
2911.000000	96.697006 
2910.000000	96.695466 
2909.000000	96.691984 
2908.000000	96.686441 
2907.000000	96.679805 
2906.000000	96.671944 
2905.000000	96.661268 
2904.000000	96.646160 
2903.000000	96.628093 
2902.000000	96.614085 
2901.000000	96.613833 
2900.000000	96.631779 
2899.000000	96.661984 
2898.000000	96.692313 
2897.000000	96.714686 
2896.000000	96.729478 
2895.000000	96.740212 
2894.000000	96.748150 
2893.000000	96.753717 
2892.000000	96.759629 
2891.000000	96.768689 
2890.000000	96.779556 
2889.000000	96.788189 
2888.000000	96.793317 
2887.000000	96.797428 
2886.000000	96.802099 
2885.000000	96.805921 
2884.000000	96.808855 
2883.000000	96.815555 
2882.000000	96.831167 
2881.000000	96.854900 
2880.000000	96.880505 
2879.000000	96.903011 
2878.000000	96.922268 
2877.000000	96.939519 
2876.000000	96.953663 
2875.000000	96.963264 
2874.000000	96.970451 
2873.000000	96.979749 
2872.000000	96.992832 
2871.000000	97.006551 
2870.000000	97.017098 
2869.000000	97.024563 
2868.000000	97.032291 
2867.000000	97.042950 
2866.000000	97.056755 
2865.000000	97.072908 
2864.000000	97.090975 
2863.000000	97.110544 
2862.000000	97.130805 
2861.000000	97.151147 
2860.000000	97.171554 
2859.000000	97.192051 
2858.000000	97.212410 
2857.000000	97.232695 
2856.000000	97.253277 
2855.000000	97.273584 
2854.000000	97.291584 
2853.000000	97.305485 
2852.000000	97.315776 
2851.000000	97.325243 
2850.000000	97.336848 
2849.000000	97.351348 
2848.000000	97.366691 
2847.000000	97.379698 
2846.000000	97.388705 
2845.000000	97.394837 
2844.000000	97.400788 
2843.000000	97.408569 
2842.000000	97.418544 
2841.000000	97.429798 
2840.000000	97.440331 
2839.000000	97.447422 
2838.000000	97.449595 
2837.000000	97.448734 
2836.000000	97.449197 
2835.000000	97.454040 
2834.000000	97.462752 
2833.000000	97.473004 
2832.000000	97.483207 
2831.000000	97.492379 
2830.000000	97.498898 
2829.000000	97.501483 
2828.000000	97.501423 
2827.000000	97.502335 
2826.000000	97.507014 
2825.000000	97.514955 
2824.000000	97.523177 
2823.000000	97.528946 
2822.000000	97.531579 
2821.000000	97.532360 
2820.000000	97.533334 
2819.000000	97.536015 
2818.000000	97.540634 
2817.000000	97.546063 
2816.000000	97.550418 
2815.000000	97.552249 
2814.000000	97.551662 
2813.000000	97.550199 
2812.000000	97.549271 
2811.000000	97.549028 
2810.000000	97.549243 
2809.000000	97.550662 
2808.000000	97.554285 
2807.000000	97.559493 
2806.000000	97.564321 
2805.000000	97.567819 
2804.000000	97.570779 
2803.000000	97.573644 
2802.000000	97.575298 
2801.000000	97.575067 
2800.000000	97.574597 
2799.000000	97.576048 
2798.000000	97.578973 
2797.000000	97.580710 
2796.000000	97.579792 
2795.000000	97.577544 
2794.000000	97.576180 
2793.000000	97.576511 
2792.000000	97.578063 
2791.000000	97.580335 
2790.000000	97.583050 
2789.000000	97.585627 
2788.000000	97.587373 
2787.000000	97.588329 
2786.000000	97.589385 
2785.000000	97.591299 
2784.000000	97.593886 
2783.000000	97.596381 
2782.000000	97.598436 
2781.000000	97.600470 
2780.000000	97.602999 
2779.000000	97.605932 
2778.000000	97.608670 
2777.000000	97.610709 
2776.000000	97.611979 
2775.000000	97.612748 
2774.000000	97.613425 
2773.000000	97.614361 
2772.000000	97.615626 
2771.000000	97.616961 
2770.000000	97.618095 
2769.000000	97.619112 
2768.000000	97.620316 
2767.000000	97.621760 
2766.000000	97.623148 
2765.000000	97.624262 
2764.000000	97.625216 
2763.000000	97.626188 
2762.000000	97.627135 
2761.000000	97.627950 
2760.000000	97.628714 
2759.000000	97.629628 
2758.000000	97.630750 
2757.000000	97.631949 
2756.000000	97.633069 
2755.000000	97.634086 
2754.000000	97.635080 
2753.000000	97.636107 
2752.000000	97.637156 
2751.000000	97.638193 
2750.000000	97.639204 
2749.000000	97.640187 
2748.000000	97.641139 
2747.000000	97.642057 
2746.000000	97.642939 
2745.000000	97.643794 
2744.000000	97.644636 
2743.000000	97.645474 
2742.000000	97.646310 
2741.000000	97.647138 
2740.000000	97.647957 
2739.000000	97.648765 
2738.000000	97.649564 
2737.000000	97.650355 
2736.000000	97.651143 
2735.000000	97.651931 
2734.000000	97.652719 
2733.000000	97.653500 
2732.000000	97.654272 
2731.000000	97.655034 
2730.000000	97.655794 
2729.000000	97.656554 
2728.000000	97.657318 
2727.000000	97.658082 
2726.000000	97.658840 
2725.000000	97.659589 
2724.000000	97.660330 
2723.000000	97.661074 
2722.000000	97.661836 
2721.000000	97.662623 
2720.000000	97.663438 
2719.000000	97.664273 
2718.000000	97.665115 
2717.000000	97.665946 
2716.000000	97.666751 
2715.000000	97.667524 
2714.000000	97.668273 
2713.000000	97.669016 
2712.000000	97.669763 
2711.000000	97.670510 
2710.000000	97.671244 
2709.000000	97.671955 
2708.000000	97.672644 
2707.000000	97.673317 
2706.000000	97.673985 
2705.000000	97.674654 
2704.000000	97.675329 
2703.000000	97.676009 
2702.000000	97.676680 
2701.000000	97.677327 
2700.000000	97.677939 
2699.000000	97.678519 
2698.000000	97.679073 
2697.000000	97.679601 
2696.000000	97.680103 
2695.000000	97.680574 
2694.000000	97.681012 
2693.000000	97.681409 
2692.000000	97.681760 
2691.000000	97.682066 
2690.000000	97.682343 
2689.000000	97.682605 
2688.000000	97.682857 
2687.000000	97.683093 
2686.000000	97.683298 
2685.000000	97.683467 
2684.000000	97.683597 
2683.000000	97.683692 
2682.000000	97.683757 
2681.000000	97.683796 
2680.000000	97.683808 
2679.000000	97.683785 
2678.000000	97.683716 
2677.000000	97.683596 
2676.000000	97.683436 
2675.000000	97.683252 
2674.000000	97.683064 
2673.000000	97.682883 
2672.000000	97.682711 
2671.000000	97.682534 
2670.000000	97.682332 
2669.000000	97.682087 
2668.000000	97.681799 
2667.000000	97.681482 
2666.000000	97.681150 
2665.000000	97.680809 
2664.000000	97.680450 
2663.000000	97.680064 
2662.000000	97.679646 
2661.000000	97.679184 
2660.000000	97.678659 
2659.000000	97.678043 
2658.000000	97.677353 
2657.000000	97.676664 
2656.000000	97.676058 
2655.000000	97.675531 
2654.000000	97.675001 
2653.000000	97.674353 
2652.000000	97.673450 
2651.000000	97.672231 
2650.000000	97.670938 
2649.000000	97.670076 
2648.000000	97.669967 
2647.000000	97.670331 
2646.000000	97.670383 
2645.000000	97.669583 
2644.000000	97.668101 
2643.000000	97.666597 
2642.000000	97.665562 
2641.000000	97.665124 
2640.000000	97.665453 
2639.000000	97.666861 
2638.000000	97.669076 
2637.000000	97.670871 
2636.000000	97.671242 
2635.000000	97.670804 
2634.000000	97.671296 
2633.000000	97.673211 
2632.000000	97.674764 
2631.000000	97.674068 
2630.000000	97.671476 
2629.000000	97.668932 
2628.000000	97.667301 
2627.000000	97.665734 
2626.000000	97.663729 
2625.000000	97.662159 
2624.000000	97.661578 
2623.000000	97.660933 
2622.000000	97.659079 
2621.000000	97.656640 
2620.000000	97.654952 
2619.000000	97.653895 
2618.000000	97.652447 
2617.000000	97.651093 
2616.000000	97.651666 
2615.000000	97.654463 
2614.000000	97.657263 
2613.000000	97.658181 
2612.000000	97.658326 
2611.000000	97.660173 
2610.000000	97.664166 
2609.000000	97.668220 
2608.000000	97.670337 
2607.000000	97.670526 
2606.000000	97.669974 
2605.000000	97.669495 
2604.000000	97.669342 
2603.000000	97.669897 
2602.000000	97.671486 
2601.000000	97.673426 
2600.000000	97.674038 
2599.000000	97.672240 
2598.000000	97.668762 
2597.000000	97.665589 
2596.000000	97.664122 
2595.000000	97.664225 
2594.000000	97.665012 
2593.000000	97.665864 
2592.000000	97.666505 
2591.000000	97.666562 
2590.000000	97.665755 
2589.000000	97.664467 
2588.000000	97.663640 
2587.000000	97.663859 
2586.000000	97.664859 
2585.000000	97.665954 
2584.000000	97.666665 
2583.000000	97.666873 
2582.000000	97.666686 
2581.000000	97.666501 
2580.000000	97.666903 
2579.000000	97.668136 
2578.000000	97.669821 
2577.000000	97.671258 
2576.000000	97.672035 
2575.000000	97.672211 
2574.000000	97.672061 
2573.000000	97.671885 
2572.000000	97.671919 
2571.000000	97.672259 
2570.000000	97.672797 
2569.000000	97.673268 
2568.000000	97.673482 
2567.000000	97.673480 
2566.000000	97.673426 
2565.000000	97.673404 
2564.000000	97.673448 
2563.000000	97.673640 
2562.000000	97.674060 
2561.000000	97.674667 
2560.000000	97.675291 
2559.000000	97.675820 
2558.000000	97.676320 
2557.000000	97.676919 
2556.000000	97.677639 
2555.000000	97.678372 
2554.000000	97.679009 
2553.000000	97.679504 
2552.000000	97.679834 
2551.000000	97.679954 
2550.000000	97.679920 
2549.000000	97.680000 
2548.000000	97.680434 
2547.000000	97.681085 
2546.000000	97.681524 
2545.000000	97.681504 
2544.000000	97.681128 
2543.000000	97.680558 
2542.000000	97.679798 
2541.000000	97.679015 
2540.000000	97.678744 
2539.000000	97.679400 
2538.000000	97.680636 
2537.000000	97.681506 
2536.000000	97.681450 
2535.000000	97.680911 
2534.000000	97.680802 
2533.000000	97.681521 
2532.000000	97.682746 
2531.000000	97.684044 
2530.000000	97.685226 
2529.000000	97.685940 
2528.000000	97.685493 
2527.000000	97.683771 
2526.000000	97.682256 
2525.000000	97.683223 
2524.000000	97.687403 
2523.000000	97.692641 
2522.000000	97.695614 
2521.000000	97.695062 
2520.000000	97.692414 
2519.000000	97.689716 
2518.000000	97.687524 
2517.000000	97.685404 
2516.000000	97.683351 
2515.000000	97.681543 
2514.000000	97.679257 
2513.000000	97.675440 
2512.000000	97.670703 
2511.000000	97.667723 
2510.000000	97.668780 
2509.000000	97.673427 
2508.000000	97.678780 
2507.000000	97.682214 
2506.000000	97.683437 
2505.000000	97.683764 
2504.000000	97.684302 
2503.000000	97.685391 
2502.000000	97.687327 
2501.000000	97.690504 
2500.000000	97.694457 
2499.000000	97.697637 
2498.000000	97.698925 
2497.000000	97.698909 
2496.000000	97.698914 
2495.000000	97.699255 
2494.000000	97.699397 
2493.000000	97.699500 
2492.000000	97.700445 
2491.000000	97.702145 
2490.000000	97.703141 
2489.000000	97.702368 
2488.000000	97.700340 
2487.000000	97.698108 
2486.000000	97.695959 
2485.000000	97.693951 
2484.000000	97.692876 
2483.000000	97.693529 
2482.000000	97.695349 
2481.000000	97.696786 
2480.000000	97.697179 
2479.000000	97.697364 
2478.000000	97.698339 
2477.000000	97.700028 
2476.000000	97.701517 
2475.000000	97.702009 
2474.000000	97.701254 
2473.000000	97.699408 
2472.000000	97.696966 
2471.000000	97.694912 
2470.000000	97.694452 
2469.000000	97.696122 
2468.000000	97.699147 
2467.000000	97.701857 
2466.000000	97.703067 
2465.000000	97.702855 
2464.000000	97.701942 
2463.000000	97.700895 
2462.000000	97.700192 
2461.000000	97.700544 
2460.000000	97.702346 
2459.000000	97.704936 
2458.000000	97.707027 
2457.000000	97.707814 
2456.000000	97.707117 
2455.000000	97.704856 
2454.000000	97.701225 
2453.000000	97.697149 
2452.000000	97.693708 
2451.000000	97.691169 
2450.000000	97.689446 
2449.000000	97.689180 
2448.000000	97.691056 
2447.000000	97.694078 
2446.000000	97.695892 
2445.000000	97.695376 
2444.000000	97.693780 
2443.000000	97.693083 
2442.000000	97.694243 
2441.000000	97.697208 
2440.000000	97.701343 
2439.000000	97.705400 
2438.000000	97.708232 
2437.000000	97.709853 
2436.000000	97.710953 
2435.000000	97.711421 
2434.000000	97.710644 
2433.000000	97.709334 
2432.000000	97.709347 
2431.000000	97.711180 
2430.000000	97.713235 
2429.000000	97.714134 
2428.000000	97.714243 
2427.000000	97.714141 
2426.000000	97.713213 
2425.000000	97.711105 
2424.000000	97.709479 
2423.000000	97.710065 
2422.000000	97.711804 
2421.000000	97.712786 
2420.000000	97.713918 
2419.000000	97.717600 
2418.000000	97.723582 
2417.000000	97.729152 
2416.000000	97.733126 
2415.000000	97.736551 
2414.000000	97.739511 
2413.000000	97.740281 
2412.000000	97.738137 
2411.000000	97.734852 
2410.000000	97.732817 
2409.000000	97.733049 
2408.000000	97.735263 
2407.000000	97.738390 
2406.000000	97.740507 
2405.000000	97.739432 
2404.000000	97.734155 
2403.000000	97.725681 
2402.000000	97.716892 
2401.000000	97.711652 
2400.000000	97.712527 
2399.000000	97.718346 
2398.000000	97.724941 
2397.000000	97.729328 
2396.000000	97.732089 
2395.000000	97.734764 
2394.000000	97.736930 
2393.000000	97.737797 
2392.000000	97.739093 
2391.000000	97.743476 
2390.000000	97.750769 
2389.000000	97.758359 
2388.000000	97.765213 
2387.000000	97.773098 
2386.000000	97.783428 
2385.000000	97.794954 
2384.000000	97.804831 
2383.000000	97.809849 
2382.000000	97.806277 
2381.000000	97.791403 
2380.000000	97.766814 
2379.000000	97.738701 
2378.000000	97.713133 
2377.000000	97.692476 
2376.000000	97.678204 
2375.000000	97.674133 
2374.000000	97.682432 
2373.000000	97.698095 
2372.000000	97.711904 
2371.000000	97.720119 
2370.000000	97.726343 
2369.000000	97.732979 
2368.000000	97.736078 
2367.000000	97.731346 
2366.000000	97.720547 
2365.000000	97.708868 
2364.000000	97.699447 
2363.000000	97.694551 
2362.000000	97.697072 
2361.000000	97.706772 
2360.000000	97.719658 
2359.000000	97.730572 
2358.000000	97.735412 
2357.000000	97.734137 
2356.000000	97.728670 
2355.000000	97.722072 
2354.000000	97.711373 
2353.000000	97.696327 
2352.000000	97.684922 
2351.000000	97.682562 
2350.000000	97.686345 
2349.000000	97.689044 
2348.000000	97.689466 
2347.000000	97.690820 
2346.000000	97.695999 
2345.000000	97.707581 
2344.000000	97.721376 
2343.000000	97.732515 
2342.000000	97.735567 
2341.000000	97.731649 
2340.000000	97.726915 
2339.000000	97.724745 
2338.000000	97.723701 
2337.000000	97.720207 
2336.000000	97.718295 
2335.000000	97.721650 
2334.000000	97.728954 
2333.000000	97.733078 
2332.000000	97.737511 
2331.000000	97.745924 
2330.000000	97.760969 
2329.000000	97.774077 
2328.000000	97.784643 
2327.000000	97.792443 
2326.000000	97.796477 
2325.000000	97.795216 
2324.000000	97.791736 
2323.000000	97.791985 
2322.000000	97.793745 
2321.000000	97.789948 
2320.000000	97.781761 
2319.000000	97.775384 
2318.000000	97.776052 
2317.000000	97.776296 
2316.000000	97.773038 
2315.000000	97.766138 
2314.000000	97.763840 
2313.000000	97.766445 
2312.000000	97.775437 
2311.000000	97.787405 
2310.000000	97.801246 
2309.000000	97.810884 
2308.000000	97.815194 
2307.000000	97.814763 
2306.000000	97.814323 
2305.000000	97.814680 
2304.000000	97.816717 
2303.000000	97.818703 
2302.000000	97.821429 
2301.000000	97.823181 
2300.000000	97.823909 
2299.000000	97.820226 
2298.000000	97.811000 
2297.000000	97.795157 
2296.000000	97.777172 
2295.000000	97.761295 
2294.000000	97.749654 
2293.000000	97.739993 
2292.000000	97.730979 
2291.000000	97.723231 
2290.000000	97.716937 
2289.000000	97.710796 
2288.000000	97.703914 
2287.000000	97.697693 
2286.000000	97.692921 
2285.000000	97.688970 
2284.000000	97.684936 
2283.000000	97.681763 
2282.000000	97.680017 
2281.000000	97.678687 
2280.000000	97.676089 
2279.000000	97.671774 
2278.000000	97.666402 
2277.000000	97.661143 
2276.000000	97.657841 
2275.000000	97.657464 
2274.000000	97.659127 
2273.000000	97.661373 
2272.000000	97.664688 
2271.000000	97.669804 
2270.000000	97.674650 
2269.000000	97.675595 
2268.000000	97.672024 
2267.000000	97.666772 
2266.000000	97.662389 
2265.000000	97.659188 
2264.000000	97.656863 
2263.000000	97.655162 
2262.000000	97.652802 
2261.000000	97.648378 
2260.000000	97.642464 
2259.000000	97.637403 
2258.000000	97.634613 
2257.000000	97.633722 
2256.000000	97.634004 
2255.000000	97.635081 
2254.000000	97.636237 
2253.000000	97.636223 
2252.000000	97.634457 
2251.000000	97.631452 
2250.000000	97.628007 
2249.000000	97.624588 
2248.000000	97.621652 
2247.000000	97.619631 
2246.000000	97.618389 
2245.000000	97.617261 
2244.000000	97.615736 
2243.000000	97.613908 
2242.000000	97.612080 
2241.000000	97.610414 
2240.000000	97.608886 
2239.000000	97.607414 
2238.000000	97.605925 
2237.000000	97.604385 
2236.000000	97.602812 
2235.000000	97.601230 
2234.000000	97.599650 
2233.000000	97.598076 
2232.000000	97.596506 
2231.000000	97.594934 
2230.000000	97.593347 
2229.000000	97.591729 
2228.000000	97.590066 
2227.000000	97.588358 
2226.000000	97.586618 
2225.000000	97.584861 
2224.000000	97.583071 
2223.000000	97.581203 
2222.000000	97.579274 
2221.000000	97.577399 
2220.000000	97.575603 
2219.000000	97.573782 
2218.000000	97.571841 
2217.000000	97.569817 
2216.000000	97.567865 
2215.000000	97.566099 
2214.000000	97.564425 
2213.000000	97.562586 
2212.000000	97.560501 
2211.000000	97.558446 
2210.000000	97.556745 
2209.000000	97.555390 
2208.000000	97.554101 
2207.000000	97.552642 
2206.000000	97.550969 
2205.000000	97.549196 
2204.000000	97.547561 
2203.000000	97.546416 
2202.000000	97.545996 
2201.000000	97.545975 
2200.000000	97.545402 
2199.000000	97.543359 
2198.000000	97.539718 
2197.000000	97.535428 
2196.000000	97.532008 
2195.000000	97.530275 
2194.000000	97.529600 
2193.000000	97.528824 
2192.000000	97.527841 
2191.000000	97.527280 
2190.000000	97.526690 
2189.000000	97.524581 
2188.000000	97.520647 
2187.000000	97.516255 
2186.000000	97.512058 
2185.000000	97.507045 
2184.000000	97.501497 
2183.000000	97.498888 
2182.000000	97.502226 
2181.000000	97.509616 
2180.000000	97.515077 
2179.000000	97.514674 
2178.000000	97.509607 
2177.000000	97.504041 
2176.000000	97.501130 
2175.000000	97.501222 
2174.000000	97.502887 
2173.000000	97.504971 
2172.000000	97.507965 
2171.000000	97.513037 
2170.000000	97.519292 
2169.000000	97.523040 
2168.000000	97.521377 
2167.000000	97.515972 
2166.000000	97.511535 
2165.000000	97.510099 
2164.000000	97.508602 
2163.000000	97.503179 
2162.000000	97.495018 
2161.000000	97.490733 
2160.000000	97.496589 
2159.000000	97.512929 
2158.000000	97.533431 
2157.000000	97.550255 
2156.000000	97.560471 
2155.000000	97.566213 
2154.000000	97.570570 
2153.000000	97.574929 
2152.000000	97.579137 
2151.000000	97.582104 
2150.000000	97.582306 
2149.000000	97.579754 
2148.000000	97.577681 
2147.000000	97.580058 
2146.000000	97.586833 
2145.000000	97.593682 
2144.000000	97.597530 
2143.000000	97.600181 
2142.000000	97.605092 
2141.000000	97.612679 
2140.000000	97.620620 
2139.000000	97.627577 
2138.000000	97.634728 
2137.000000	97.643712 
2136.000000	97.653959 
2135.000000	97.662060 
2134.000000	97.664169 
2133.000000	97.660385 
2132.000000	97.656346 
2131.000000	97.658124 
2130.000000	97.665688 
2129.000000	97.673399 
2128.000000	97.676650 
2127.000000	97.675856 
2126.000000	97.674107 
2125.000000	97.673722 
2124.000000	97.675525 
2123.000000	97.678723 
2122.000000	97.680467 
2121.000000	97.677786 
2120.000000	97.671000 
2119.000000	97.663500 
2118.000000	97.657744 
2117.000000	97.653688 
2116.000000	97.651081 
2115.000000	97.650163 
2114.000000	97.649315 
2113.000000	97.645418 
2112.000000	97.638648 
2111.000000	97.633993 
2110.000000	97.635583 
2109.000000	97.641645 
2108.000000	97.646885 
2107.000000	97.648107 
2106.000000	97.645720 
2105.000000	97.641861 
2104.000000	97.639281 
2103.000000	97.640103 
2102.000000	97.643263 
2101.000000	97.644511 
2100.000000	97.641236 
2099.000000	97.636215 
2098.000000	97.634801 
2097.000000	97.639283 
2096.000000	97.647586 
2095.000000	97.656063 
2094.000000	97.661832 
2093.000000	97.663298 
2092.000000	97.660469 
2091.000000	97.655146 
2090.000000	97.649912 
2089.000000	97.646467 
2088.000000	97.644997 
2087.000000	97.644397 
2086.000000	97.642773 
2085.000000	97.638811 
2084.000000	97.633251 
2083.000000	97.628140 
2082.000000	97.624298 
2081.000000	97.620743 
2080.000000	97.617140 
2079.000000	97.615094 
2078.000000	97.615688 
2077.000000	97.617041 
2076.000000	97.616241 
2075.000000	97.612913 
2074.000000	97.608936 
2073.000000	97.605308 
2072.000000	97.601098 
2071.000000	97.595569 
2070.000000	97.589546 
2069.000000	97.584499 
2068.000000	97.581390 
2067.000000	97.580355 
2066.000000	97.580518 
2065.000000	97.579979 
2064.000000	97.577105 
2063.000000	97.572248 
2062.000000	97.567581 
2061.000000	97.565118 
2060.000000	97.565115 
2059.000000	97.566273 
2058.000000	97.566760 
2057.000000	97.565323 
2056.000000	97.561850 
2055.000000	97.556989 
2054.000000	97.551548 
2053.000000	97.546224 
2052.000000	97.541689 
2051.000000	97.538309 
2050.000000	97.535738 
2049.000000	97.533203 
2048.000000	97.530348 
2047.000000	97.527497 
2046.000000	97.524957 
2045.000000	97.522555 
2044.000000	97.520067 
2043.000000	97.517613 
2042.000000	97.515397 
2041.000000	97.513527 
2040.000000	97.512353 
2039.000000	97.512464 
2038.000000	97.513804 
2037.000000	97.515140 
2036.000000	97.515058 
2035.000000	97.513308 
2034.000000	97.510885 
2033.000000	97.509248 
2032.000000	97.509367 
2031.000000	97.510839 
2030.000000	97.511560 
2029.000000	97.509390 
2028.000000	97.504572 
2027.000000	97.499983 
2026.000000	97.497827 
2025.000000	97.497361 
2024.000000	97.496912 
2023.000000	97.497031 
2022.000000	97.499745 
2021.000000	97.505068 
2020.000000	97.509963 
2019.000000	97.511245 
2018.000000	97.508079 
2017.000000	97.502016 
2016.000000	97.495949 
2015.000000	97.492412 
2014.000000	97.491416 
2013.000000	97.489790 
2012.000000	97.484737 
2011.000000	97.478531 
2010.000000	97.476953 
2009.000000	97.482466 
2008.000000	97.491290 
2007.000000	97.498139 
2006.000000	97.501935 
2005.000000	97.504861 
2004.000000	97.508359 
2003.000000	97.512192 
2002.000000	97.516166 
2001.000000	97.519740 
2000.000000	97.521012 
1999.000000	97.517342 
1998.000000	97.507401 
1997.000000	97.493174 
1996.000000	97.479559 
1995.000000	97.471357 
1994.000000	97.470060 
1993.000000	97.473400 
1992.000000	97.477517 
1991.000000	97.480287 
1990.000000	97.482288 
1989.000000	97.484799 
1988.000000	97.487670 
1987.000000	97.488724 
1986.000000	97.485106 
1985.000000	97.476146 
1984.000000	97.465022 
1983.000000	97.456265 
1982.000000	97.451349 
1981.000000	97.448026 
1980.000000	97.445212 
1979.000000	97.445568 
1978.000000	97.451032 
1977.000000	97.458610 
1976.000000	97.463222 
1975.000000	97.464188 
1974.000000	97.465635 
1973.000000	97.471337 
1972.000000	97.481181 
1971.000000	97.492031 
1970.000000	97.500145 
1969.000000	97.502957 
1968.000000	97.500159 
1967.000000	97.494175 
1966.000000	97.489264 
1965.000000	97.488892 
1964.000000	97.493829 
1963.000000	97.502479 
1962.000000	97.512242 
1961.000000	97.520514 
1960.000000	97.525193 
1959.000000	97.525457 
1958.000000	97.523002 
1957.000000	97.521869 
1956.000000	97.525153 
1955.000000	97.531856 
1954.000000	97.537816 
1953.000000	97.540353 
1952.000000	97.540367 
1951.000000	97.540041 
1950.000000	97.540370 
1949.000000	97.541558 
1948.000000	97.544437 
1947.000000	97.549256 
1946.000000	97.554050 
1945.000000	97.556327 
1944.000000	97.556008 
1943.000000	97.555246 
1942.000000	97.555570 
1941.000000	97.556673 
1940.000000	97.557985 
1939.000000	97.559530 
1938.000000	97.561451 
1937.000000	97.563864 
1936.000000	97.567005 
1935.000000	97.570716 
1934.000000	97.574037 
1933.000000	97.576351 
1932.000000	97.578423 
1931.000000	97.581554 
1930.000000	97.585575 
1929.000000	97.588481 
1928.000000	97.589449 
1927.000000	97.589753 
1926.000000	97.590774 
1925.000000	97.592152 
1924.000000	97.593068 
1923.000000	97.594369 
1922.000000	97.596700 
1921.000000	97.598767 
1920.000000	97.599330 
1919.000000	97.599251 
1918.000000	97.599770 
1917.000000	97.599952 
1916.000000	97.598725 
1915.000000	97.597282 
1914.000000	97.597081 
1913.000000	97.597729 
1912.000000	97.597717 
1911.000000	97.596907 
1910.000000	97.596507 
1909.000000	97.597188 
1908.000000	97.598865 
1907.000000	97.600823 
1906.000000	97.602036 
1905.000000	97.601638 
1904.000000	97.599757 
1903.000000	97.598050 
1902.000000	97.597781 
1901.000000	97.598472 
1900.000000	97.599062 
1899.000000	97.599220 
1898.000000	97.599255 
1897.000000	97.599350 
1896.000000	97.599441 
1895.000000	97.599616 
1894.000000	97.599843 
1893.000000	97.599809 
1892.000000	97.599423 
1891.000000	97.599176 
1890.000000	97.599534 
1889.000000	97.600301 
1888.000000	97.601037 
1887.000000	97.601718 
1886.000000	97.602456 
1885.000000	97.603152 
1884.000000	97.603695 
1883.000000	97.604171 
1882.000000	97.604753 
1881.000000	97.605498 
1880.000000	97.606364 
1879.000000	97.607284 
1878.000000	97.608219 
1877.000000	97.609176 
1876.000000	97.610179 
1875.000000	97.611259 
1874.000000	97.612427 
1873.000000	97.613641 
1872.000000	97.614841 
1871.000000	97.616008 
1870.000000	97.617179 
1869.000000	97.618394 
1868.000000	97.619675 
1867.000000	97.621092 
1866.000000	97.622655 
1865.000000	97.624212 
1864.000000	97.625616 
1863.000000	97.626935 
1862.000000	97.628461 
1861.000000	97.630305 
1860.000000	97.632236 
1859.000000	97.634107 
1858.000000	97.636068 
1857.000000	97.638221 
1856.000000	97.640463 
1855.000000	97.642708 
1854.000000	97.644913 
1853.000000	97.646778 
1852.000000	97.648188 
1851.000000	97.649549 
1850.000000	97.651254 
1849.000000	97.653316 
1848.000000	97.655515 
1847.000000	97.657907 
1846.000000	97.660556 
1845.000000	97.663132 
1844.000000	97.665034 
1843.000000	97.666415 
1842.000000	97.667990 
1841.000000	97.669463 
1840.000000	97.670571 
1839.000000	97.671966 
1838.000000	97.674182 
1837.000000	97.676274 
1836.000000	97.676881 
1835.000000	97.676614 
1834.000000	97.677155 
1833.000000	97.678610 
1832.000000	97.679777 
1831.000000	97.679899 
1830.000000	97.679422 
1829.000000	97.679471 
1828.000000	97.680607 
1827.000000	97.682755 
1826.000000	97.686013 
1825.000000	97.690305 
1824.000000	97.693862 
1823.000000	97.695263 
1822.000000	97.694951 
1821.000000	97.693913 
1820.000000	97.692687 
1819.000000	97.691756 
1818.000000	97.692724 
1817.000000	97.695625 
1816.000000	97.697368 
1815.000000	97.696354 
1814.000000	97.694267 
1813.000000	97.693611 
1812.000000	97.693731 
1811.000000	97.692187 
1810.000000	97.689755 
1809.000000	97.688536 
1808.000000	97.688523 
1807.000000	97.688671 
1806.000000	97.688604 
1805.000000	97.688041 
1804.000000	97.686550 
1803.000000	97.685361 
1802.000000	97.685764 
1801.000000	97.687121 
1800.000000	97.686867 
1799.000000	97.684004 
1798.000000	97.681242 
1797.000000	97.680194 
1796.000000	97.679933 
1795.000000	97.679721 
1794.000000	97.680363 
1793.000000	97.682698 
1792.000000	97.685237 
1791.000000	97.686691 
1790.000000	97.688298 
1789.000000	97.689822 
1788.000000	97.690248 
1787.000000	97.690288 
1786.000000	97.691663 
1785.000000	97.693973 
1784.000000	97.695077 
1783.000000	97.694864 
1782.000000	97.694178 
1781.000000	97.694179 
1780.000000	97.695401 
1779.000000	97.697062 
1778.000000	97.698692 
1777.000000	97.700013 
1776.000000	97.701334 
1775.000000	97.702608 
1774.000000	97.703385 
1773.000000	97.703820 
1772.000000	97.704448 
1771.000000	97.705482 
1770.000000	97.706961 
1769.000000	97.708678 
1768.000000	97.710386 
1767.000000	97.711853 
1766.000000	97.712974 
1765.000000	97.713915 
1764.000000	97.714868 
1763.000000	97.715924 
1762.000000	97.717012 
1761.000000	97.718071 
1760.000000	97.719098 
1759.000000	97.720112 
1758.000000	97.721131 
1757.000000	97.722150 
1756.000000	97.723156 
1755.000000	97.724127 
1754.000000	97.725060 
1753.000000	97.725957 
1752.000000	97.726830 
1751.000000	97.727692 
1750.000000	97.728540 
1749.000000	97.729362 
1748.000000	97.730147 
1747.000000	97.730887 
1746.000000	97.731573 
1745.000000	97.732214 
1744.000000	97.732865 
1743.000000	97.733563 
1742.000000	97.734247 
1741.000000	97.734807 
1740.000000	97.735192 
1739.000000	97.735484 
1738.000000	97.735824 
1737.000000	97.736127 
1736.000000	97.736205 
1735.000000	97.736234 
1734.000000	97.736312 
1733.000000	97.736104 
1732.000000	97.735950 
1731.000000	97.736163 
1730.000000	97.736712 
1729.000000	97.737273 
1728.000000	97.737475 
1727.000000	97.737256 
1726.000000	97.736776 
1725.000000	97.736491 
1724.000000	97.736490 
1723.000000	97.736584 
1722.000000	97.736897 
1721.000000	97.737229 
1720.000000	97.736986 
1719.000000	97.736063 
1718.000000	97.735437 
1717.000000	97.735377 
1716.000000	97.734895 
1715.000000	97.734000 
1714.000000	97.733543 
1713.000000	97.733367 
1712.000000	97.732512 
1711.000000	97.731000 
1710.000000	97.729592 
1709.000000	97.728407 
1708.000000	97.726957 
1707.000000	97.725093 
1706.000000	97.723371 
1705.000000	97.722033 
1704.000000	97.720696 
1703.000000	97.719068 
1702.000000	97.717291 
1701.000000	97.715764 
1700.000000	97.713880 
1699.000000	97.711441 
1698.000000	97.709338 
1697.000000	97.707486 
1696.000000	97.705577 
1695.000000	97.703509 
1694.000000	97.701435 
1693.000000	97.699306 
1692.000000	97.697043 
1691.000000	97.694711 
1690.000000	97.692333 
1689.000000	97.689907 
1688.000000	97.687440 
1687.000000	97.684939 
1686.000000	97.682414 
1685.000000	97.679875 
1684.000000	97.677322 
1683.000000	97.674751 
1682.000000	97.672163 
1681.000000	97.669559 
1680.000000	97.666942 
1679.000000	97.664319 
1678.000000	97.661685 
1677.000000	97.659037 
1676.000000	97.656368 
1675.000000	97.653679 
1674.000000	97.650968 
1673.000000	97.648249 
1672.000000	97.645542 
1671.000000	97.642866 
1670.000000	97.640233 
1669.000000	97.637642 
1668.000000	97.635092 
1667.000000	97.632577 
1666.000000	97.630091 
1665.000000	97.627626 
1664.000000	97.625179 
1663.000000	97.622765 
1662.000000	97.620381 
1661.000000	97.617988 
1660.000000	97.615596 
1659.000000	97.613228 
1658.000000	97.610885 
1657.000000	97.608576 
1656.000000	97.606340 
1655.000000	97.604208 
1654.000000	97.602302 
1653.000000	97.600321 
1652.000000	97.597631 
1651.000000	97.594995 
1650.000000	97.592807 
1649.000000	97.590545 
1648.000000	97.588462 
1647.000000	97.587262 
1646.000000	97.586593 
1645.000000	97.585737 
1644.000000	97.584597 
1643.000000	97.583485 
1642.000000	97.582468 
1641.000000	97.581354 
1640.000000	97.580340 
1639.000000	97.579484 
1638.000000	97.578763 
1637.000000	97.578437 
1636.000000	97.578971 
1635.000000	97.579175 
1634.000000	97.578764 
1633.000000	97.578854 
1632.000000	97.578840 
1631.000000	97.578942 
1630.000000	97.579392 
1629.000000	97.579563 
1628.000000	97.579198 
1627.000000	97.579559 
1626.000000	97.580866 
1625.000000	97.581921 
1624.000000	97.582749 
1623.000000	97.584611 
1622.000000	97.587223 
1621.000000	97.589253 
1620.000000	97.590833 
1619.000000	97.592538 
1618.000000	97.594873 
1617.000000	97.595733 
1616.000000	97.593975 
1615.000000	97.594330 
1614.000000	97.598162 
1613.000000	97.600584 
1612.000000	97.599866 
1611.000000	97.599632 
1610.000000	97.601872 
1609.000000	97.605645 
1608.000000	97.611671 
1607.000000	97.621332 
1606.000000	97.630180 
1605.000000	97.633740 
1604.000000	97.635056 
1603.000000	97.638195 
1602.000000	97.642763 
1601.000000	97.646572 
1600.000000	97.650384 
1599.000000	97.655187 
1598.000000	97.658913 
1597.000000	97.660045 
1596.000000	97.660661 
1595.000000	97.663729 
1594.000000	97.668655 
1593.000000	97.672690 
1592.000000	97.675650 
1591.000000	97.679389 
1590.000000	97.683817 
1589.000000	97.687549 
1588.000000	97.691374 
1587.000000	97.697021 
1586.000000	97.703006 
1585.000000	97.705520 
1584.000000	97.706720 
1583.000000	97.710708 
1582.000000	97.714673 
1581.000000	97.715180 
1580.000000	97.715458 
1579.000000	97.718837 
1578.000000	97.722746 
1577.000000	97.724721 
1576.000000	97.724173 
1575.000000	97.724420 
1574.000000	97.728331 
1573.000000	97.732308 
1572.000000	97.734369 
1571.000000	97.737703 
1570.000000	97.741748 
1569.000000	97.740483 
1568.000000	97.738226 
1567.000000	97.738949 
1566.000000	97.737520 
1565.000000	97.731518 
1564.000000	97.726695 
1563.000000	97.725761 
1562.000000	97.721488 
1561.000000	97.708573 
1560.000000	97.705827 
1559.000000	97.722539 
1558.000000	97.726731 
1557.000000	97.719809 
1556.000000	97.713598 
1555.000000	97.711353 
1554.000000	97.709623 
1553.000000	97.705207 
1552.000000	97.698986 
1551.000000	97.692269 
1550.000000	97.687690 
1549.000000	97.683584 
1548.000000	97.676405 
1547.000000	97.666156 
1546.000000	97.653989 
1545.000000	97.643492 
1544.000000	97.637172 
1543.000000	97.632566 
1542.000000	97.626969 
1541.000000	97.620418 
1540.000000	97.608968 
1539.000000	97.591367 
1538.000000	97.576063 
1537.000000	97.564229 
1536.000000	97.549561 
1535.000000	97.533991 
1534.000000	97.523277 
1533.000000	97.517385 
1532.000000	97.510472 
1531.000000	97.498318 
1530.000000	97.481893 
1529.000000	97.463482 
1528.000000	97.445428 
1527.000000	97.430787 
1526.000000	97.419678 
1525.000000	97.408639 
1524.000000	97.394444 
1523.000000	97.377292 
1522.000000	97.361735 
1521.000000	97.349023 
1520.000000	97.335323 
1519.000000	97.318101 
1518.000000	97.297922 
1517.000000	97.279648 
1516.000000	97.266188 
1515.000000	97.255131 
1514.000000	97.242762 
1513.000000	97.228094 
1512.000000	97.211165 
1511.000000	97.191980 
1510.000000	97.171849 
1509.000000	97.152760 
1508.000000	97.138094 
1507.000000	97.128696 
1506.000000	97.117368 
1505.000000	97.100083 
1504.000000	97.081253 
1503.000000	97.062666 
1502.000000	97.043931 
1501.000000	97.025521 
1500.000000	97.007678 
1499.000000	96.989731 
1498.000000	96.971808 
1497.000000	96.955912 
1496.000000	96.941726 
1495.000000	96.928308 
1494.000000	96.916240 
1493.000000	96.904736 
1492.000000	96.892333 
1491.000000	96.879954 
1490.000000	96.870344 
1489.000000	96.862227 
1488.000000	96.849288 
1487.000000	96.830971 
1486.000000	96.813193 
1485.000000	96.795013 
1484.000000	96.774273 
1483.000000	96.752583 
1482.000000	96.733851 
1481.000000	96.719655 
1480.000000	96.705359 
1479.000000	96.687851 
1478.000000	96.669361 
1477.000000	96.653932 
1476.000000	96.639861 
1475.000000	96.625253 
1474.000000	96.611751 
1473.000000	96.603613 
1472.000000	96.599818 
1471.000000	96.593299 
1470.000000	96.582348 
1469.000000	96.567664 
1468.000000	96.549886 
1467.000000	96.532199 
1466.000000	96.518815 
1465.000000	96.511227 
1464.000000	96.506783 
1463.000000	96.497777 
1462.000000	96.480963 
1461.000000	96.458571 
1460.000000	96.435604 
1459.000000	96.416486 
1458.000000	96.405672 
1457.000000	96.402587 
1456.000000	96.396365 
1455.000000	96.383877 
1454.000000	96.367169 
1453.000000	96.351091 
1452.000000	96.341968 
1451.000000	96.340471 
1450.000000	96.344844 
1449.000000	96.355536 
1448.000000	96.370419 
1447.000000	96.383249 
1446.000000	96.386769 
1445.000000	96.383392 
1444.000000	96.381405 
1443.000000	96.380489 
1442.000000	96.377716 
1441.000000	96.373557 
1440.000000	96.370593 
1439.000000	96.367107 
1438.000000	96.365407 
1437.000000	96.373295 
1436.000000	96.386677 
1435.000000	96.391696 
1434.000000	96.386549 
1433.000000	96.380425 
1432.000000	96.380548 
1431.000000	96.386139 
1430.000000	96.392513 
1429.000000	96.398973 
1428.000000	96.404195 
1427.000000	96.406287 
1426.000000	96.403926 
1425.000000	96.403039 
1424.000000	96.411306 
1423.000000	96.421866 
1422.000000	96.423970 
1421.000000	96.418576 
1420.000000	96.417005 
1419.000000	96.421002 
1418.000000	96.421534 
1417.000000	96.418617 
1416.000000	96.416936 
1415.000000	96.415365 
1414.000000	96.409485 
1413.000000	96.400215 
1412.000000	96.393886 
1411.000000	96.392709 
1410.000000	96.393903 
1409.000000	96.395917 
1408.000000	96.399051 
1407.000000	96.405974 
1406.000000	96.419514 
1405.000000	96.442492 
1404.000000	96.474413 
1403.000000	96.505749 
1402.000000	96.528905 
1401.000000	96.547631 
1400.000000	96.571943 
1399.000000	96.602123 
1398.000000	96.624367 
1397.000000	96.627298 
1396.000000	96.615343 
1395.000000	96.607172 
1394.000000	96.619029 
1393.000000	96.653051 
1392.000000	96.699380 
1391.000000	96.743655 
1390.000000	96.776544 
1389.000000	96.797791 
1388.000000	96.812642 
1387.000000	96.824852 
1386.000000	96.834265 
1385.000000	96.841956 
1384.000000	96.852504 
1383.000000	96.868195 
1382.000000	96.887237 
1381.000000	96.906730 
1380.000000	96.926574 
1379.000000	96.948827 
1378.000000	96.973198 
1377.000000	96.997077 
1376.000000	97.019724 
1375.000000	97.044000 
1374.000000	97.071978 
1373.000000	97.102167 
1372.000000	97.131422 
1371.000000	97.158613 
1370.000000	97.184245 
1369.000000	97.209631 
1368.000000	97.236021 
1367.000000	97.261116 
1366.000000	97.281671 
1365.000000	97.298325 
1364.000000	97.316124 
1363.000000	97.339102 
1362.000000	97.365388 
1361.000000	97.390157 
1360.000000	97.412213 
1359.000000	97.433513 
1358.000000	97.454361 
1357.000000	97.473167 
1356.000000	97.489469 
1355.000000	97.503860 
1354.000000	97.517212 
1353.000000	97.531057 
1352.000000	97.546163 
1351.000000	97.563060 
1350.000000	97.580287 
1349.000000	97.595126 
1348.000000	97.607136 
1347.000000	97.617340 
1346.000000	97.627326 
1345.000000	97.637073 
1344.000000	97.644699 
1343.000000	97.647772 
1342.000000	97.646703 
1341.000000	97.646177 
1340.000000	97.651671 
1339.000000	97.662988 
1338.000000	97.674517 
1337.000000	97.682743 
1336.000000	97.688680 
1335.000000	97.693424 
1334.000000	97.696378 
1333.000000	97.697797 
1332.000000	97.699581 
1331.000000	97.702789 
1330.000000	97.706610 
1329.000000	97.710493 
1328.000000	97.714851 
1327.000000	97.719405 
1326.000000	97.722383 
1325.000000	97.722856 
1324.000000	97.721738 
1323.000000	97.719125 
1322.000000	97.714558 
1321.000000	97.709834 
1320.000000	97.708633 
1319.000000	97.712151 
1318.000000	97.717828 
1317.000000	97.722791 
1316.000000	97.725938 
1315.000000	97.726658 
1314.000000	97.725180 
1313.000000	97.724455 
1312.000000	97.727692 
1311.000000	97.733349 
1310.000000	97.736311 
1309.000000	97.734879 
1308.000000	97.732850 
1307.000000	97.734213 
1306.000000	97.738247 
1305.000000	97.742028 
1304.000000	97.744613 
1303.000000	97.745877 
1302.000000	97.744807 
1301.000000	97.741226 
1300.000000	97.737599 
1299.000000	97.736615 
1298.000000	97.738209 
1297.000000	97.740127 
1296.000000	97.740536 
1295.000000	97.739140 
1294.000000	97.736991 
1293.000000	97.735941 
1292.000000	97.736853 
1291.000000	97.738332 
1290.000000	97.738773 
1289.000000	97.739102 
1288.000000	97.741060 
1287.000000	97.743277 
1286.000000	97.742257 
1285.000000	97.737641 
1284.000000	97.733336 
1283.000000	97.732478 
1282.000000	97.733664 
1281.000000	97.733385 
1280.000000	97.730448 
1279.000000	97.726408 
1278.000000	97.723286 
1277.000000	97.722309 
1276.000000	97.723237 
1275.000000	97.723984 
1274.000000	97.722216 
1273.000000	97.718129 
1272.000000	97.713981 
1271.000000	97.710372 
1270.000000	97.704958 
1269.000000	97.695930 
1268.000000	97.684762 
1267.000000	97.673995 
1266.000000	97.664252 
1265.000000	97.655099 
1264.000000	97.646975 
1263.000000	97.640279 
1262.000000	97.633630 
1261.000000	97.625071 
1260.000000	97.614979 
1259.000000	97.606059 
1258.000000	97.600176 
1257.000000	97.596018 
1256.000000	97.589937 
1255.000000	97.579297 
1254.000000	97.565210 
1253.000000	97.551327 
1252.000000	97.539491 
1251.000000	97.528295 
1250.000000	97.517364 
1249.000000	97.511050 
1248.000000	97.514449 
1247.000000	97.525673 
1246.000000	97.534945 
1245.000000	97.532282 
1244.000000	97.515066 
1243.000000	97.490128 
1242.000000	97.470810 
1241.000000	97.469011 
1240.000000	97.484781 
1239.000000	97.503499 
1238.000000	97.507834 
1237.000000	97.493208 
1236.000000	97.468461 
1235.000000	97.443011 
1234.000000	97.418747 
1233.000000	97.394463 
1232.000000	97.371174 
1231.000000	97.349706 
1230.000000	97.328177 
1229.000000	97.305569 
1228.000000	97.283985 
1227.000000	97.264185 
1226.000000	97.242182 
1225.000000	97.213574 
1224.000000	97.178572 
1223.000000	97.139939 
1222.000000	97.098582 
1221.000000	97.053988 
1220.000000	97.006733 
1219.000000	96.957588 
1218.000000	96.905796 
1217.000000	96.850357 
1216.000000	96.791054 
1215.000000	96.726782 
1214.000000	96.655924 
1213.000000	96.580613 
1212.000000	96.506901 
1211.000000	96.437254 
1210.000000	96.366032 
1209.000000	96.286624 
1208.000000	96.200524 
1207.000000	96.115064 
1206.000000	96.033957 
1205.000000	95.954443 
1204.000000	95.872667 
1203.000000	95.787442 
1202.000000	95.699387 
1201.000000	95.610101 
1200.000000	95.521968 
1199.000000	95.435952 
1198.000000	95.350195 
1197.000000	95.263116 
1196.000000	95.176264 
1195.000000	95.091470 
1194.000000	95.006981 
1193.000000	94.919473 
1192.000000	94.828299 
1191.000000	94.734649 
1190.000000	94.638363 
1189.000000	94.538952 
1188.000000	94.438016 
1187.000000	94.337043 
1186.000000	94.234364 
1185.000000	94.127666 
1184.000000	94.017711 
1183.000000	93.906133 
1182.000000	93.791772 
1181.000000	93.673045 
1180.000000	93.551536 
1179.000000	93.428605 
1178.000000	93.300753 
1177.000000	93.163698 
1176.000000	93.019274 
1175.000000	92.872973 
1174.000000	92.726267 
1173.000000	92.577186 
1172.000000	92.427002 
1171.000000	92.279635 
1170.000000	92.135250 
1169.000000	91.991374 
1168.000000	91.850562 
1167.000000	91.720832 
1166.000000	91.608959 
1165.000000	91.520052 
1164.000000	91.463023 
1163.000000	91.447898 
1162.000000	91.475140 
1161.000000	91.532137 
1160.000000	91.599843 
1159.000000	91.658191 
1158.000000	91.688166 
1157.000000	91.677691 
1156.000000	91.627161 
1155.000000	91.545206 
1154.000000	91.440006 
1153.000000	91.318784 
1152.000000	91.192395 
1151.000000	91.071653 
1150.000000	90.958517 
1149.000000	90.847821 
1148.000000	90.737584 
1147.000000	90.630348 
1146.000000	90.525003 
1145.000000	90.416117 
1144.000000	90.302827 
1143.000000	90.190685 
1142.000000	90.082976 
1141.000000	89.976997 
1140.000000	89.870140 
1139.000000	89.762862 
1138.000000	89.654743 
1137.000000	89.544355 
1136.000000	89.433645 
1135.000000	89.325757 
1134.000000	89.218348 
1133.000000	89.106241 
1132.000000	88.990444 
1131.000000	88.876587 
1130.000000	88.764511 
1129.000000	88.648162 
1128.000000	88.526348 
1127.000000	88.404617 
1126.000000	88.285217 
1125.000000	88.164075 
1124.000000	88.039497 
1123.000000	87.915341 
1122.000000	87.793498 
1121.000000	87.671264 
1120.000000	87.547962 
1119.000000	87.426170 
1118.000000	87.305022 
1117.000000	87.180677 
1116.000000	87.054546 
1115.000000	86.932597 
1114.000000	86.815844 
1113.000000	86.700408 
1112.000000	86.586849 
1111.000000	86.478789 
1110.000000	86.372945 
1109.000000	86.262032 
1108.000000	86.146606 
1107.000000	86.033651 
1106.000000	85.924241 
1105.000000	85.813457 
1104.000000	85.702013 
1103.000000	85.595906 
1102.000000	85.494808 
1101.000000	85.392906 
1100.000000	85.291450 
1099.000000	85.198192 
1098.000000	85.114110 
1097.000000	85.032638 
1096.000000	84.951664 
1095.000000	84.873528 
1094.000000	84.793032 
1093.000000	84.699591 
1092.000000	84.593396 
1091.000000	84.487188 
1090.000000	84.390291 
1089.000000	84.302146 
1088.000000	84.221330 
1087.000000	84.147632 
1086.000000	84.074754 
1085.000000	83.994849 
1084.000000	83.911599 
1083.000000	83.835901 
1082.000000	83.768400 
1081.000000	83.700210 
1080.000000	83.631102 
1079.000000	83.571529 
1078.000000	83.524797 
1077.000000	83.482039 
1076.000000	83.436818 
1075.000000	83.390008 
1074.000000	83.338749 
1073.000000	83.275312 
1072.000000	83.197318 
1071.000000	83.102757 
1070.000000	82.974537 
1069.000000	82.790502 
1068.000000	82.555359 
1067.000000	82.307990 
1066.000000	82.088799 
1065.000000	81.909418 
1064.000000	81.757660 
1063.000000	81.614024 
1062.000000	81.455852 
1061.000000	81.263631 
1060.000000	81.037581 
1059.000000	80.801173 
1058.000000	80.580395 
1057.000000	80.384890 
1056.000000	80.210590 
1055.000000	80.048385 
1054.000000	79.886157 
1053.000000	79.714893 
1052.000000	79.538812 
1051.000000	79.369755 
1050.000000	79.208804 
1049.000000	79.045533 
1048.000000	78.876122 
1047.000000	78.707096 
1046.000000	78.541096 
1045.000000	78.374582 
1044.000000	78.209258 
1043.000000	78.050570 
1042.000000	77.894556 
1041.000000	77.730800 
1040.000000	77.560041 
1039.000000	77.396110 
1038.000000	77.250237 
1037.000000	77.125680 
1036.000000	77.025119 
1035.000000	76.948369 
1034.000000	76.884663 
1033.000000	76.821537 
1032.000000	76.757842 
1031.000000	76.694221 
1030.000000	76.620213 
1029.000000	76.531817 
1028.000000	76.454250 
1027.000000	76.421144 
1026.000000	76.432352 
1025.000000	76.454566 
1024.000000	76.462727 
1023.000000	76.457809 
1022.000000	76.444921 
1021.000000	76.421156 
1020.000000	76.389101 
1019.000000	76.359080 
1018.000000	76.332686 
1017.000000	76.303031 
1016.000000	76.273231 
1015.000000	76.254724 
1014.000000	76.246024 
1013.000000	76.233803 
1012.000000	76.216508 
1011.000000	76.206323 
1010.000000	76.206643 
1009.000000	76.208770 
1008.000000	76.212360 
1007.000000	76.227975 
1006.000000	76.257575 
1005.000000	76.293127 
1004.000000	76.335477 
1003.000000	76.392926 
1002.000000	76.459779 
1001.000000	76.518959 
1000.000000	76.569116 
999.000000	 76.627386 
998.000000	 76.701721 
997.000000	 76.781520 
996.000000	 76.859178 
995.000000	 76.940532 
994.000000	 77.029692 
993.000000	 77.122780 
992.000000	 77.220248 
991.000000	 77.326906 
990.000000	 77.437444 
989.000000	 77.540820 
988.000000	 77.641073 
987.000000	 77.754428 
986.000000	 77.884422 
985.000000	 78.019974 
984.000000	 78.159056 
983.000000	 78.312396 
982.000000	 78.481053 
981.000000	 78.651793 
980.000000	 78.819129 
979.000000	 78.992255 
978.000000	 79.175337 
977.000000	 79.360714 
976.000000	 79.546775 
975.000000	 79.743554 
974.000000	 79.954588 
973.000000	 80.170439 
972.000000	 80.385607 
971.000000	 80.605666 
970.000000	 80.832428 
969.000000	 81.057452 
968.000000	 81.275492 
967.000000	 81.490906 
966.000000	 81.707015 
965.000000	 81.922048 
964.000000	 82.137837 
963.000000	 82.359179 
962.000000	 82.582552 
961.000000	 82.798537 
960.000000	 83.006525 
959.000000	 83.214035 
958.000000	 83.421164 
957.000000	 83.619468 
956.000000	 83.806791 
955.000000	 83.989655 
954.000000	 84.170650 
953.000000	 84.346650 
952.000000	 84.519130 
951.000000	 84.692226 
950.000000	 84.860960 
949.000000	 85.015860 
948.000000	 85.158938 
947.000000	 85.300695 
946.000000	 85.441476 
945.000000	 85.571001 
944.000000	 85.687093 
943.000000	 85.799964 
942.000000	 85.916325 
941.000000	 86.033302 
940.000000	 86.149968 
939.000000	 86.270644 
938.000000	 86.394438 
937.000000	 86.514745 
936.000000	 86.631403 
935.000000	 86.751162 
934.000000	 86.874794 
933.000000	 86.996134 
932.000000	 87.114865 
931.000000	 87.237711 
930.000000	 87.365687 
929.000000	 87.492034 
928.000000	 87.613875 
927.000000	 87.734371 
926.000000	 87.852617 
925.000000	 87.962528 
924.000000	 88.062326 
923.000000	 88.155155 
922.000000	 88.241286 
921.000000	 88.320373 
920.000000	 88.399352 
919.000000	 88.485846 
918.000000	 88.574816 
917.000000	 88.653834 
916.000000	 88.721265 
915.000000	 88.788167 
914.000000	 88.863335 
913.000000	 88.947946 
912.000000	 89.043510 
911.000000	 89.152735 
910.000000	 89.272922 
909.000000	 89.399993 
908.000000	 89.537884 
907.000000	 89.692934 
906.000000	 89.861648 
905.000000	 90.035581 
904.000000	 90.214595 
903.000000	 90.402233 
902.000000	 90.591871 
901.000000	 90.772031 
900.000000	 90.943224 
899.000000	 91.116143 
898.000000	 91.295152 
897.000000	 91.475612 
896.000000	 91.653734 
895.000000	 91.825770 
894.000000	 91.982119 
893.000000	 92.117533 
892.000000	 92.244384 
891.000000	 92.380711 
890.000000	 92.525721 
889.000000	 92.660243 
888.000000	 92.769018 
887.000000	 92.849596 
886.000000	 92.904462 
885.000000	 92.940077 
884.000000	 92.970001 
883.000000	 93.001875 
882.000000	 93.024076 
881.000000	 93.024173 
880.000000	 93.018772 
879.000000	 93.043441 
878.000000	 93.111460 
877.000000	 93.204057 
876.000000	 93.303232 
875.000000	 93.411702 
874.000000	 93.535694 
873.000000	 93.672163 
872.000000	 93.821756 
871.000000	 93.993470 
870.000000	 94.186061 
869.000000	 94.381002 
868.000000	 94.562645 
867.000000	 94.732195 
866.000000	 94.896032 
865.000000	 95.054301 
864.000000	 95.207823 
863.000000	 95.363551 
862.000000	 95.524488 
861.000000	 95.682922 
860.000000	 95.830278 
859.000000	 95.966873 
858.000000	 96.098028 
857.000000	 96.227313 
856.000000	 96.355994 
855.000000	 96.481789 
854.000000	 96.596328 
853.000000	 96.691165 
852.000000	 96.767782 
851.000000	 96.835717 
850.000000	 96.901898 
849.000000	 96.968788 
848.000000	 97.039653 
847.000000	 97.114991 
846.000000	 97.185661 
845.000000	 97.241245 
844.000000	 97.284542 
843.000000	 97.327015 
842.000000	 97.371234 
841.000000	 97.409225 
840.000000	 97.436501 
839.000000	 97.454989 
838.000000	 97.463511 
837.000000	 97.459545 
836.000000	 97.451154 
835.000000	 97.453104 
834.000000	 97.467943 
833.000000	 97.483267 
832.000000	 97.490680 
831.000000	 97.495252 
830.000000	 97.503381 
829.000000	 97.514754 
828.000000	 97.531718 
827.000000	 97.563334 
826.000000	 97.611745 
825.000000	 97.664819 
824.000000	 97.709513 
823.000000	 97.743278 
822.000000	 97.768047 
821.000000	 97.783835 
820.000000	 97.791848 
819.000000	 97.793327 
818.000000	 97.782161 
817.000000	 97.746894 
816.000000	 97.681446 
815.000000	 97.586536 
814.000000	 97.460334 
813.000000	 97.295615 
812.000000	 97.086128 
811.000000	 96.826565 
810.000000	 96.505330 
809.000000	 96.107579 
808.000000	 95.629471 
807.000000	 95.083265 
806.000000	 94.487657 
805.000000	 93.861651 
804.000000	 93.229045 
803.000000	 92.617604 
802.000000	 92.050189 
801.000000	 91.546780 
800.000000	 91.134962 
799.000000	 90.841924 
798.000000	 90.671747 
797.000000	 90.604282 
796.000000	 90.616872 
795.000000	 90.690866 
794.000000	 90.799200 
793.000000	 90.910982 
792.000000	 91.013213 
791.000000	 91.110191 
790.000000	 91.198572 
789.000000	 91.259285 
788.000000	 91.274972 
787.000000	 91.238390 
786.000000	 91.143302 
785.000000	 90.985692 
784.000000	 90.777297 
783.000000	 90.542436 
782.000000	 90.300096 
781.000000	 90.065165 
780.000000	 89.865409 
779.000000	 89.734493 
778.000000	 89.684427 
777.000000	 89.704943 
776.000000	 89.791366 
775.000000	 89.948906 
774.000000	 90.165161 
773.000000	 90.403857 
772.000000	 90.635297 
771.000000	 90.853985 
770.000000	 91.061005 
769.000000	 91.250243 
768.000000	 91.419088 
767.000000	 91.572816 
766.000000	 91.710320 
765.000000	 91.823205 
764.000000	 91.916199 
763.000000	 92.011074 
762.000000	 92.122464 
761.000000	 92.245196 
760.000000	 92.371109 
759.000000	 92.501302 
758.000000	 92.635487 
757.000000	 92.767126 
756.000000	 92.897500 
755.000000	 93.038442 
754.000000	 93.191522 
753.000000	 93.337773 
752.000000	 93.456458 
751.000000	 93.544387 
750.000000	 93.613779 
749.000000	 93.682557 
748.000000	 93.768101 
747.000000	 93.875906 
746.000000	 93.990296 
745.000000	 94.089954 
744.000000	 94.175592 
743.000000	 94.268305 
742.000000	 94.379678 
741.000000	 94.500751 
740.000000	 94.622494 
739.000000	 94.747939 
738.000000	 94.878450 
737.000000	 95.004444 
736.000000	 95.116806 
735.000000	 95.214710 
734.000000	 95.298973 
733.000000	 95.370741 
732.000000	 95.437540 
731.000000	 95.505765 
730.000000	 95.566855 
729.000000	 95.607757 
728.000000	 95.632366 
727.000000	 95.658004 
726.000000	 95.695990 
725.000000	 95.749017 
724.000000	 95.822680 
723.000000	 95.920676 
722.000000	 96.028904 
721.000000	 96.123385 
720.000000	 96.197139 
719.000000	 96.263356 
718.000000	 96.329538 
717.000000	 96.387550 
716.000000	 96.433305 
715.000000	 96.475347 
714.000000	 96.519512 
713.000000	 96.564772 
712.000000	 96.617394 
711.000000	 96.688889 
710.000000	 96.773547 
709.000000	 96.852149 
708.000000	 96.914740 
707.000000	 96.964476 
706.000000	 97.000435 
705.000000	 97.010819 
704.000000	 96.987394 
703.000000	 96.933277 
702.000000	 96.845414 
701.000000	 96.704531 
700.000000	 96.494714 
699.000000	 96.219245 
698.000000	 95.899493 
697.000000	 95.573123 
696.000000	 95.294445 
695.000000	 95.120514 
694.000000	 95.077062 
693.000000	 95.146348 
692.000000	 95.291815 
691.000000	 95.477656 
690.000000	 95.671258 
689.000000	 95.846654 
688.000000	 95.995794 
687.000000	 96.128173 
686.000000	 96.248592 
685.000000	 96.351555 
684.000000	 96.440434 
683.000000	 96.526997 
682.000000	 96.612240 
681.000000	 96.686357 
680.000000	 96.751096 
679.000000	 96.817561 
678.000000	 96.884989 
677.000000	 96.947629 
676.000000	 97.008776 
675.000000	 97.079374 
674.000000	 97.155131 
673.000000	 97.204120 
672.000000	 97.199584 
671.000000	 97.130915 
670.000000	 97.001890 
669.000000	 96.829365 
668.000000	 96.758898 
667.000000	 96.935367 
666.000000	 97.207745 
665.000000	 97.394872 
664.000000	 97.501249 
663.000000	 97.564947 
662.000000	 97.612241 
661.000000	 97.656020 
660.000000	 97.701498 
659.000000	 97.748267 
658.000000	 97.786816 
657.000000	 97.808380 
656.000000	 97.806723 
655.000000	 97.784965 
654.000000	 97.754379 
653.000000	 97.722325 
652.000000	 97.693100 
651.000000	 97.679946 
650.000000	 97.697997 

