4000.000000	97.747855 
3999.000000	97.746276 
3998.000000	97.743610 
3997.000000	97.740888 
3996.000000	97.738926 
3995.000000	97.737965 
3994.000000	97.737981 
3993.000000	97.738599 
3992.000000	97.739024 
3991.000000	97.738718 
3990.000000	97.737964 
3989.000000	97.737455 
3988.000000	97.737400 
3987.000000	97.737441 
3986.000000	97.737467 
3985.000000	97.737897 
3984.000000	97.738861 
3983.000000	97.739776 
3982.000000	97.740148 
3981.000000	97.740225 
3980.000000	97.740345 
3979.000000	97.740014 
3978.000000	97.738549 
3977.000000	97.736429 
3976.000000	97.734999 
3975.000000	97.734750 
3974.000000	97.734715 
3973.000000	97.733826 
3972.000000	97.732021 
3971.000000	97.729915 
3970.000000	97.728276 
3969.000000	97.727735 
3968.000000	97.728498 
3967.000000	97.729986 
3966.000000	97.731091 
3965.000000	97.730946 
3964.000000	97.729346 
3963.000000	97.726737 
3962.000000	97.724037 
3961.000000	97.722373 
3960.000000	97.722100 
3959.000000	97.722331 
3958.000000	97.722276 
3957.000000	97.722081 
3956.000000	97.722115 
3955.000000	97.721752 
3954.000000	97.719844 
3953.000000	97.716102 
3952.000000	97.711442 
3951.000000	97.707371 
3950.000000	97.704842 
3949.000000	97.703681 
3948.000000	97.703053 
3947.000000	97.702599 
3946.000000	97.702448 
3945.000000	97.702343 
3944.000000	97.701828 
3943.000000	97.701441 
3942.000000	97.702704 
3941.000000	97.706594 
3940.000000	97.711676 
3939.000000	97.714469 
3938.000000	97.713422 
3937.000000	97.710145 
3936.000000	97.706862 
3935.000000	97.703490 
3934.000000	97.699136 
3933.000000	97.695382 
3932.000000	97.694527 
3931.000000	97.695958 
3930.000000	97.696480 
3929.000000	97.694659 
3928.000000	97.692759 
3927.000000	97.692425 
3926.000000	97.692018 
3925.000000	97.690166 
3924.000000	97.688732 
3923.000000	97.689236 
3922.000000	97.689242 
3921.000000	97.686427 
3920.000000	97.683437 
3919.000000	97.684232 
3918.000000	97.688133 
3917.000000	97.691326 
3916.000000	97.692687 
3915.000000	97.694010 
3914.000000	97.695501 
3913.000000	97.695357 
3912.000000	97.693477 
3911.000000	97.690555 
3910.000000	97.687318 
3909.000000	97.683660 
3908.000000	97.679947 
3907.000000	97.676795 
3906.000000	97.674362 
3905.000000	97.672439 
3904.000000	97.671066 
3903.000000	97.670547 
3902.000000	97.670681 
3901.000000	97.670748 
3900.000000	97.670394 
3899.000000	97.669790 
3898.000000	97.669075 
3897.000000	97.668329 
3896.000000	97.667589 
3895.000000	97.666830 
3894.000000	97.666023 
3893.000000	97.665157 
3892.000000	97.664235 
3891.000000	97.663270 
3890.000000	97.662290 
3889.000000	97.661327 
3888.000000	97.660389 
3887.000000	97.659463 
3886.000000	97.658545 
3885.000000	97.657649 
3884.000000	97.656791 
3883.000000	97.655966 
3882.000000	97.655152 
3881.000000	97.654346 
3880.000000	97.653566 
3879.000000	97.652827 
3878.000000	97.652114 
3877.000000	97.651397 
3876.000000	97.650654 
3875.000000	97.649902 
3874.000000	97.649185 
3873.000000	97.648536 
3872.000000	97.647956 
3871.000000	97.647429 
3870.000000	97.646960 
3869.000000	97.646592 
3868.000000	97.646354 
3867.000000	97.646217 
3866.000000	97.646132 
3865.000000	97.646090 
3864.000000	97.646104 
3863.000000	97.646147 
3862.000000	97.646168 
3861.000000	97.646140 
3860.000000	97.646078 
3859.000000	97.646005 
3858.000000	97.645925 
3857.000000	97.645849 
3856.000000	97.645809 
3855.000000	97.645842 
3854.000000	97.645951 
3853.000000	97.646130 
3852.000000	97.646436 
3851.000000	97.646949 
3850.000000	97.647664 
3849.000000	97.648515 
3848.000000	97.649432 
3847.000000	97.650366 
3846.000000	97.651293 
3845.000000	97.652207 
3844.000000	97.653110 
3843.000000	97.654002 
3842.000000	97.654891 
3841.000000	97.655794 
3840.000000	97.656730 
3839.000000	97.657697 
3838.000000	97.658681 
3837.000000	97.659680 
3836.000000	97.660713 
3835.000000	97.661807 
3834.000000	97.662969 
3833.000000	97.664184 
3832.000000	97.665433 
3831.000000	97.666701 
3830.000000	97.667981 
3829.000000	97.669271 
3828.000000	97.670561 
3827.000000	97.671835 
3826.000000	97.673079 
3825.000000	97.674301 
3824.000000	97.675521 
3823.000000	97.676742 
3822.000000	97.677952 
3821.000000	97.679159 
3820.000000	97.680414 
3819.000000	97.681764 
3818.000000	97.683186 
3817.000000	97.684620 
3816.000000	97.686050 
3815.000000	97.687505 
3814.000000	97.689004 
3813.000000	97.690510 
3812.000000	97.691973 
3811.000000	97.693384 
3810.000000	97.694751 
3809.000000	97.696035 
3808.000000	97.697183 
3807.000000	97.698191 
3806.000000	97.699127 
3805.000000	97.700074 
3804.000000	97.701061 
3803.000000	97.702070 
3802.000000	97.703088 
3801.000000	97.704130 
3800.000000	97.705220 
3799.000000	97.706343 
3798.000000	97.707446 
3797.000000	97.708493 
3796.000000	97.709482 
3795.000000	97.710409 
3794.000000	97.711248 
3793.000000	97.711966 
3792.000000	97.712541 
3791.000000	97.712962 
3790.000000	97.713232 
3789.000000	97.713367 
3788.000000	97.713394 
3787.000000	97.713335 
3786.000000	97.713193 
3785.000000	97.712968 
3784.000000	97.712675 
3783.000000	97.712327 
3782.000000	97.711906 
3781.000000	97.711384 
3780.000000	97.710755 
3779.000000	97.710028 
3778.000000	97.709212 
3777.000000	97.708314 
3776.000000	97.707297 
3775.000000	97.706100 
3774.000000	97.704771 
3773.000000	97.703452 
3772.000000	97.702123 
3771.000000	97.700609 
3770.000000	97.698884 
3769.000000	97.697139 
3768.000000	97.695560 
3767.000000	97.694035 
3766.000000	97.692319 
3765.000000	97.690445 
3764.000000	97.688801 
3763.000000	97.687592 
3762.000000	97.686337 
3761.000000	97.684491 
3760.000000	97.682317 
3759.000000	97.680312 
3758.000000	97.678275 
3757.000000	97.675767 
3756.000000	97.673000 
3755.000000	97.670235 
3754.000000	97.667119 
3753.000000	97.663794 
3752.000000	97.661669 
3751.000000	97.660531 
3750.000000	97.657037 
3749.000000	97.651060 
3748.000000	97.647995 
3747.000000	97.650099 
3746.000000	97.654004 
3745.000000	97.655009 
3744.000000	97.650267 
3743.000000	97.646462 
3742.000000	97.649899 
3741.000000	97.651157 
3740.000000	97.643902 
3739.000000	97.635312 
3738.000000	97.632237 
3737.000000	97.631626 
3736.000000	97.628860 
3735.000000	97.628682 
3734.000000	97.635507 
3733.000000	97.641684 
3732.000000	97.639023 
3731.000000	97.633632 
3730.000000	97.636299 
3729.000000	97.644458 
3728.000000	97.646808 
3727.000000	97.641544 
3726.000000	97.637918 
3725.000000	97.642042 
3724.000000	97.647094 
3723.000000	97.645389 
3722.000000	97.639070 
3721.000000	97.633701 
3720.000000	97.630992 
3719.000000	97.626742 
3718.000000	97.617879 
3717.000000	97.608079 
3716.000000	97.602482 
3715.000000	97.599241 
3714.000000	97.593942 
3713.000000	97.590060 
3712.000000	97.592041 
3711.000000	97.593567 
3710.000000	97.587868 
3709.000000	97.575443 
3708.000000	97.558878 
3707.000000	97.540668 
3706.000000	97.523499 
3705.000000	97.508046 
3704.000000	97.492300 
3703.000000	97.474481 
3702.000000	97.453229 
3701.000000	97.428836 
3700.000000	97.407053 
3699.000000	97.391096 
3698.000000	97.374983 
3697.000000	97.355172 
3696.000000	97.337326 
3695.000000	97.325624 
3694.000000	97.314079 
3693.000000	97.295618 
3692.000000	97.273640 
3691.000000	97.256356 
3690.000000	97.244100 
3689.000000	97.228277 
3688.000000	97.208809 
3687.000000	97.199399 
3686.000000	97.203688 
3685.000000	97.208016 
3684.000000	97.204278 
3683.000000	97.197869 
3682.000000	97.192772 
3681.000000	97.182439 
3680.000000	97.160458 
3679.000000	97.133820 
3678.000000	97.112307 
3677.000000	97.096102 
3676.000000	97.077187 
3675.000000	97.053242 
3674.000000	97.039810 
3673.000000	97.041686 
3672.000000	97.039420 
3671.000000	97.025818 
3670.000000	97.012617 
3669.000000	97.006999 
3668.000000	97.007017 
3667.000000	97.005573 
3666.000000	96.998602 
3665.000000	96.989185 
3664.000000	96.981616 
3663.000000	96.975133 
3662.000000	96.965848 
3661.000000	96.952291 
3660.000000	96.937659 
3659.000000	96.926811 
3658.000000	96.920596 
3657.000000	96.914814 
3656.000000	96.904097 
3655.000000	96.891908 
3654.000000	96.882322 
3653.000000	96.867078 
3652.000000	96.840807 
3651.000000	96.818617 
3650.000000	96.817247 
3649.000000	96.829282 
3648.000000	96.836702 
3647.000000	96.839450 
3646.000000	96.848543 
3645.000000	96.864781 
3644.000000	96.879847 
3643.000000	96.888217 
3642.000000	96.893011 
3641.000000	96.898624 
3640.000000	96.903251 
3639.000000	96.901438 
3638.000000	96.893539 
3637.000000	96.886997 
3636.000000	96.883371 
3635.000000	96.874102 
3634.000000	96.853426 
3633.000000	96.828260 
3632.000000	96.807632 
3631.000000	96.793855 
3630.000000	96.791679 
3629.000000	96.798849 
3628.000000	96.805268 
3627.000000	96.815155 
3626.000000	96.824539 
3625.000000	96.817966 
3624.000000	96.798535 
3623.000000	96.779865 
3622.000000	96.765576 
3621.000000	96.752378 
3620.000000	96.743547 
3619.000000	96.744813 
3618.000000	96.756830 
3617.000000	96.777879 
3616.000000	96.802275 
3615.000000	96.823750 
3614.000000	96.842734 
3613.000000	96.863327 
3612.000000	96.886180 
3611.000000	96.906617 
3610.000000	96.920050 
3609.000000	96.929027 
3608.000000	96.940071 
3607.000000	96.954556 
3606.000000	96.967688 
3605.000000	96.975034 
3604.000000	96.978801 
3603.000000	96.985554 
3602.000000	96.996503 
3601.000000	97.005972 
3600.000000	97.010117 
3599.000000	97.010070 
3598.000000	97.008417 
3597.000000	97.009969 
3596.000000	97.018440 
3595.000000	97.032138 
3594.000000	97.043879 
3593.000000	97.047810 
3592.000000	97.043070 
3591.000000	97.032056 
3590.000000	97.019684 
3589.000000	97.014390 
3588.000000	97.022317 
3587.000000	97.040313 
3586.000000	97.060577 
3585.000000	97.077188 
3584.000000	97.087567 
3583.000000	97.093618 
3582.000000	97.099254 
3581.000000	97.105956 
3580.000000	97.111977 
3579.000000	97.115621 
3578.000000	97.116670 
3577.000000	97.116466 
3576.000000	97.116551 
3575.000000	97.117042 
3574.000000	97.116514 
3573.000000	97.112721 
3572.000000	97.104284 
3571.000000	97.091730 
3570.000000	97.077778 
3569.000000	97.067414 
3568.000000	97.066218 
3567.000000	97.075127 
3566.000000	97.088948 
3565.000000	97.101283 
3564.000000	97.108217 
3563.000000	97.109976 
3562.000000	97.110354 
3561.000000	97.112804 
3560.000000	97.117388 
3559.000000	97.121752 
3558.000000	97.123928 
3557.000000	97.123781 
3556.000000	97.122883 
3555.000000	97.122765 
3554.000000	97.123601 
3553.000000	97.124343 
3552.000000	97.123905 
3551.000000	97.121833 
3550.000000	97.117827 
3549.000000	97.112071 
3548.000000	97.106942 
3547.000000	97.105929 
3546.000000	97.109785 
3545.000000	97.115723 
3544.000000	97.120769 
3543.000000	97.124098 
3542.000000	97.126066 
3541.000000	97.126891 
3540.000000	97.127002 
3539.000000	97.127008 
3538.000000	97.127219 
3537.000000	97.127568 
3536.000000	97.127885 
3535.000000	97.127968 
3534.000000	97.127192 
3533.000000	97.125106 
3532.000000	97.122311 
3531.000000	97.120289 
3530.000000	97.119655 
3529.000000	97.119303 
3528.000000	97.117781 
3527.000000	97.115138 
3526.000000	97.112784 
3525.000000	97.112241 
3524.000000	97.114384 
3523.000000	97.118991 
3522.000000	97.124531 
3521.000000	97.128753 
3520.000000	97.130661 
3519.000000	97.131208 
3518.000000	97.131821 
3517.000000	97.132621 
3516.000000	97.132300 
3515.000000	97.129906 
3514.000000	97.126226 
3513.000000	97.123130 
3512.000000	97.121734 
3511.000000	97.121813 
3510.000000	97.122466 
3509.000000	97.123002 
3508.000000	97.123186 
3507.000000	97.122779 
3506.000000	97.121253 
3505.000000	97.118658 
3504.000000	97.116301 
3503.000000	97.115629 
3502.000000	97.116666 
3501.000000	97.118115 
3500.000000	97.118847 
3499.000000	97.118967 
3498.000000	97.119329 
3497.000000	97.120364 
3496.000000	97.121564 
3495.000000	97.122055 
3494.000000	97.121513 
3493.000000	97.120352 
3492.000000	97.119095 
3491.000000	97.117924 
3490.000000	97.116891 
3489.000000	97.116139 
3488.000000	97.115682 
3487.000000	97.115111 
3486.000000	97.113946 
3485.000000	97.112323 
3484.000000	97.110985 
3483.000000	97.110504 
3482.000000	97.110723 
3481.000000	97.111136 
3480.000000	97.111503 
3479.000000	97.111749 
3478.000000	97.111505 
3477.000000	97.110355 
3476.000000	97.108492 
3475.000000	97.106604 
3474.000000	97.105207 
3473.000000	97.104262 
3472.000000	97.103332 
3471.000000	97.101997 
3470.000000	97.100176 
3469.000000	97.098188 
3468.000000	97.096563 
3467.000000	97.095721 
3466.000000	97.095748 
3465.000000	97.096277 
3464.000000	97.096553 
3463.000000	97.095887 
3462.000000	97.094157 
3461.000000	97.091908 
3460.000000	97.089877 
3459.000000	97.088278 
3458.000000	97.086748 
3457.000000	97.084892 
3456.000000	97.082760 
3455.000000	97.080848 
3454.000000	97.079497 
3453.000000	97.078556 
3452.000000	97.077665 
3451.000000	97.076629 
3450.000000	97.075272 
3449.000000	97.073295 
3448.000000	97.070680 
3447.000000	97.068011 
3446.000000	97.065986 
3445.000000	97.064712 
3444.000000	97.063780 
3443.000000	97.062967 
3442.000000	97.062385 
3441.000000	97.061903 
3440.000000	97.060982 
3439.000000	97.059238 
3438.000000	97.056933 
3437.000000	97.054725 
3436.000000	97.053130 
3435.000000	97.052386 
3434.000000	97.052382 
3433.000000	97.052629 
3432.000000	97.052536 
3431.000000	97.051886 
3430.000000	97.050893 
3429.000000	97.049817 
3428.000000	97.048673 
3427.000000	97.047342 
3426.000000	97.045935 
3425.000000	97.044840 
3424.000000	97.044311 
3423.000000	97.044077 
3422.000000	97.043564 
3421.000000	97.042605 
3420.000000	97.041658 
3419.000000	97.041213 
3418.000000	97.041185 
3417.000000	97.041119 
3416.000000	97.040805 
3415.000000	97.040381 
3414.000000	97.039882 
3413.000000	97.039071 
3412.000000	97.037867 
3411.000000	97.036650 
3410.000000	97.035949 
3409.000000	97.035949 
3408.000000	97.036372 
3407.000000	97.036652 
3406.000000	97.036309 
3405.000000	97.035295 
3404.000000	97.034050 
3403.000000	97.033122 
3402.000000	97.032677 
3401.000000	97.032554 
3400.000000	97.032646 
3399.000000	97.032967 
3398.000000	97.033380 
3397.000000	97.033552 
3396.000000	97.033277 
3395.000000	97.032718 
3394.000000	97.032236 
3393.000000	97.032042 
3392.000000	97.032052 
3391.000000	97.032012 
3390.000000	97.031843 
3389.000000	97.031885 
3388.000000	97.032683 
3387.000000	97.034433 
3386.000000	97.036663 
3385.000000	97.038514 
3384.000000	97.039333 
3383.000000	97.039069 
3382.000000	97.038340 
3381.000000	97.038144 
3380.000000	97.039066 
3379.000000	97.040719 
3378.000000	97.042167 
3377.000000	97.043068 
3376.000000	97.043965 
3375.000000	97.045268 
3374.000000	97.046488 
3373.000000	97.046891 
3372.000000	97.046579 
3371.000000	97.046469 
3370.000000	97.047331 
3369.000000	97.049213 
3368.000000	97.051655 
3367.000000	97.054062 
3366.000000	97.055858 
3365.000000	97.056732 
3364.000000	97.056902 
3363.000000	97.057020 
3362.000000	97.057714 
3361.000000	97.059274 
3360.000000	97.061637 
3359.000000	97.064401 
3358.000000	97.066921 
3357.000000	97.068772 
3356.000000	97.070161 
3355.000000	97.071731 
3354.000000	97.073922 
3353.000000	97.076639 
3352.000000	97.079495 
3351.000000	97.082158 
3350.000000	97.084458 
3349.000000	97.086273 
3348.000000	97.087540 
3347.000000	97.088389 
3346.000000	97.089147 
3345.000000	97.090158 
3344.000000	97.091425 
3343.000000	97.092545 
3342.000000	97.093202 
3341.000000	97.093660 
3340.000000	97.094462 
3339.000000	97.095693 
3338.000000	97.096979 
3337.000000	97.098094 
3336.000000	97.099214 
3335.000000	97.100557 
3334.000000	97.102066 
3333.000000	97.103516 
3332.000000	97.104787 
3331.000000	97.105911 
3330.000000	97.106971 
3329.000000	97.108045 
3328.000000	97.109218 
3327.000000	97.110555 
3326.000000	97.112038 
3325.000000	97.113570 
3324.000000	97.115014 
3323.000000	97.116270 
3322.000000	97.117345 
3321.000000	97.118356 
3320.000000	97.119443 
3319.000000	97.120655 
3318.000000	97.121940 
3317.000000	97.123212 
3316.000000	97.124416 
3315.000000	97.125533 
3314.000000	97.126566 
3313.000000	97.127543 
3312.000000	97.128521 
3311.000000	97.129568 
3310.000000	97.130722 
3309.000000	97.131968 
3308.000000	97.133237 
3307.000000	97.134429 
3306.000000	97.135476 
3305.000000	97.136400 
3304.000000	97.137318 
3303.000000	97.138360 
3302.000000	97.139575 
3301.000000	97.140912 
3300.000000	97.142235 
3299.000000	97.143371 
3298.000000	97.144184 
3297.000000	97.144704 
3296.000000	97.145231 
3295.000000	97.146127 
3294.000000	97.147527 
3293.000000	97.149300 
3292.000000	97.151222 
3291.000000	97.153127 
3290.000000	97.154887 
3289.000000	97.156385 
3288.000000	97.157608 
3287.000000	97.158688 
3286.000000	97.159756 
3285.000000	97.160791 
3284.000000	97.161701 
3283.000000	97.162506 
3282.000000	97.163390 
3281.000000	97.164516 
3280.000000	97.165827 
3279.000000	97.167082 
3278.000000	97.168147 
3277.000000	97.169158 
3276.000000	97.170335 
3275.000000	97.171682 
3274.000000	97.173025 
3273.000000	97.174281 
3272.000000	97.175551 
3271.000000	97.176930 
3270.000000	97.178370 
3269.000000	97.179743 
3268.000000	97.180986 
3267.000000	97.182138 
3266.000000	97.183292 
3265.000000	97.184522 
3264.000000	97.185843 
3263.000000	97.187218 
3262.000000	97.188600 
3261.000000	97.189972 
3260.000000	97.191342 
3259.000000	97.192712 
3258.000000	97.194075 
3257.000000	97.195442 
3256.000000	97.196839 
3255.000000	97.198267 
3254.000000	97.199701 
3253.000000	97.201125 
3252.000000	97.202540 
3251.000000	97.203948 
3250.000000	97.205354 
3249.000000	97.206761 
3248.000000	97.208171 
3247.000000	97.209591 
3246.000000	97.211029 
3245.000000	97.212493 
3244.000000	97.213990 
3243.000000	97.215516 
3242.000000	97.217059 
3241.000000	97.218599 
3240.000000	97.220120 
3239.000000	97.221617 
3238.000000	97.223110 
3237.000000	97.224645 
3236.000000	97.226269 
3235.000000	97.227971 
3234.000000	97.229638 
3233.000000	97.231147 
3232.000000	97.232463 
3231.000000	97.233708 
3230.000000	97.235066 
3229.000000	97.236634 
3228.000000	97.238393 
3227.000000	97.240283 
3226.000000	97.242311 
3225.000000	97.244510 
3224.000000	97.246806 
3223.000000	97.248960 
3222.000000	97.250748 
3221.000000	97.252191 
3220.000000	97.253522 
3219.000000	97.254899 
3218.000000	97.256298 
3217.000000	97.257671 
3216.000000	97.259060 
3215.000000	97.260570 
3214.000000	97.262291 
3213.000000	97.264241 
3212.000000	97.266312 
3211.000000	97.268285 
3210.000000	97.270023 
3209.000000	97.271633 
3208.000000	97.273337 
3207.000000	97.275157 
3206.000000	97.276885 
3205.000000	97.278431 
3204.000000	97.280035 
3203.000000	97.282002 
3202.000000	97.284337 
3201.000000	97.286704 
3200.000000	97.288743 
3199.000000	97.290401 
3198.000000	97.291979 
3197.000000	97.293858 
3196.000000	97.296087 
3195.000000	97.298310 
3194.000000	97.300182 
3193.000000	97.301841 
3192.000000	97.303762 
3191.000000	97.306164 
3190.000000	97.308725 
3189.000000	97.310976 
3188.000000	97.312805 
3187.000000	97.314467 
3186.000000	97.316283 
3185.000000	97.318358 
3184.000000	97.320549 
3183.000000	97.322651 
3182.000000	97.324639 
3181.000000	97.326664 
3180.000000	97.328811 
3179.000000	97.330985 
3178.000000	97.333084 
3177.000000	97.335162 
3176.000000	97.337322 
3175.000000	97.339549 
3174.000000	97.341752 
3173.000000	97.343916 
3172.000000	97.346037 
3171.000000	97.347993 
3170.000000	97.349680 
3169.000000	97.351231 
3168.000000	97.352912 
3167.000000	97.354802 
3166.000000	97.356743 
3165.000000	97.358569 
3164.000000	97.360261 
3163.000000	97.361874 
3162.000000	97.363453 
3161.000000	97.365027 
3160.000000	97.366628 
3159.000000	97.368266 
3158.000000	97.369945 
3157.000000	97.371673 
3156.000000	97.373431 
3155.000000	97.375153 
3154.000000	97.376798 
3153.000000	97.378416 
3152.000000	97.380090 
3151.000000	97.381823 
3150.000000	97.383511 
3149.000000	97.385064 
3148.000000	97.386483 
3147.000000	97.387849 
3146.000000	97.389274 
3145.000000	97.390844 
3144.000000	97.392583 
3143.000000	97.394374 
3142.000000	97.395996 
3141.000000	97.397327 
3140.000000	97.398480 
3139.000000	97.399733 
3138.000000	97.401245 
3137.000000	97.402914 
3136.000000	97.404462 
3135.000000	97.405654 
3134.000000	97.406491 
3133.000000	97.407281 
3132.000000	97.408367 
3131.000000	97.409752 
3130.000000	97.411146 
3129.000000	97.412452 
3128.000000	97.413932 
3127.000000	97.415754 
3126.000000	97.417698 
3125.000000	97.419493 
3124.000000	97.421217 
3123.000000	97.423014 
3122.000000	97.424640 
3121.000000	97.425746 
3120.000000	97.426418 
3119.000000	97.427053 
3118.000000	97.427858 
3117.000000	97.428852 
3116.000000	97.430200 
3115.000000	97.432122 
3114.000000	97.434506 
3113.000000	97.436970 
3112.000000	97.439358 
3111.000000	97.441880 
3110.000000	97.444651 
3109.000000	97.447380 
3108.000000	97.449710 
3107.000000	97.451665 
3106.000000	97.453404 
3105.000000	97.454661 
3104.000000	97.454865 
3103.000000	97.453813 
3102.000000	97.452059 
3101.000000	97.450501 
3100.000000	97.449614 
3099.000000	97.449338 
3098.000000	97.449800 
3097.000000	97.451760 
3096.000000	97.455761 
3095.000000	97.460866 
3094.000000	97.465128 
3093.000000	97.467529 
3092.000000	97.468758 
3091.000000	97.469725 
3090.000000	97.470078 
3089.000000	97.468917 
3088.000000	97.466413 
3087.000000	97.464113 
3086.000000	97.463802 
3085.000000	97.466053 
3084.000000	97.469420 
3083.000000	97.471137 
3082.000000	97.469738 
3081.000000	97.467121 
3080.000000	97.466681 
3079.000000	97.469221 
3078.000000	97.472592 
3077.000000	97.475564 
3076.000000	97.479439 
3075.000000	97.484749 
3074.000000	97.488837 
3073.000000	97.488923 
3072.000000	97.485901 
3071.000000	97.482805 
3070.000000	97.480899 
3069.000000	97.479666 
3068.000000	97.479380 
3067.000000	97.480810 
3066.000000	97.482854 
3065.000000	97.483103 
3064.000000	97.480734 
3063.000000	97.476779 
3062.000000	97.472091 
3061.000000	97.467146 
3060.000000	97.463280 
3059.000000	97.461956 
3058.000000	97.463179 
3057.000000	97.466319 
3056.000000	97.471223 
3055.000000	97.476268 
3054.000000	97.476800 
3053.000000	97.469275 
3052.000000	97.457030 
3051.000000	97.448353 
3050.000000	97.447808 
3049.000000	97.452048 
3048.000000	97.454757 
3047.000000	97.452779 
3046.000000	97.446262 
3045.000000	97.436204 
3044.000000	97.424576 
3043.000000	97.415016 
3042.000000	97.410409 
3041.000000	97.409301 
3040.000000	97.406205 
3039.000000	97.396252 
3038.000000	97.379290 
3037.000000	97.359657 
3036.000000	97.341916 
3035.000000	97.326658 
3034.000000	97.310957 
3033.000000	97.292590 
3032.000000	97.272577 
3031.000000	97.253330 
3030.000000	97.235424 
3029.000000	97.217220 
3028.000000	97.196688 
3027.000000	97.172308 
3026.000000	97.143281 
3025.000000	97.110751 
3024.000000	97.078343 
3023.000000	97.049395 
3022.000000	97.023587 
3021.000000	96.997950 
3020.000000	96.970839 
3019.000000	96.942759 
3018.000000	96.913383 
3017.000000	96.880436 
3016.000000	96.842663 
3015.000000	96.802120 
3014.000000	96.762534 
3013.000000	96.726376 
3012.000000	96.693684 
3011.000000	96.662155 
3010.000000	96.628026 
3009.000000	96.588555 
3008.000000	96.544531 
3007.000000	96.499442 
3006.000000	96.455878 
3005.000000	96.413983 
3004.000000	96.373513 
3003.000000	96.335400 
3002.000000	96.300324 
3001.000000	96.267339 
3000.000000	96.235025 
2999.000000	96.202773 
2998.000000	96.170501 
2997.000000	96.138616 
2996.000000	96.108612 
2995.000000	96.081039 
2994.000000	96.050918 
2993.000000	96.007854 
2992.000000	95.945171 
2991.000000	95.869827 
2990.000000	95.800752 
2989.000000	95.755657 
2988.000000	95.740057 
2987.000000	95.747690 
2986.000000	95.767944 
2985.000000	95.791698 
2984.000000	95.812381 
2983.000000	95.825843 
2982.000000	95.831334 
2981.000000	95.831351 
2980.000000	95.828701 
2979.000000	95.823482 
2978.000000	95.813747 
2977.000000	95.799066 
2976.000000	95.782375 
2975.000000	95.767907 
2974.000000	95.758175 
2973.000000	95.753674 
2972.000000	95.754515 
2971.000000	95.761020 
2970.000000	95.772897 
2969.000000	95.789136 
2968.000000	95.808996 
2967.000000	95.832120 
2966.000000	95.857366 
2965.000000	95.882367 
2964.000000	95.904809 
2963.000000	95.923820 
2962.000000	95.940040 
2961.000000	95.954964 
2960.000000	95.970404 
2959.000000	95.987814 
2958.000000	96.007610 
2957.000000	96.029331 
2956.000000	96.052283 
2955.000000	96.075401 
2954.000000	96.096964 
2953.000000	96.116045 
2952.000000	96.134495 
2951.000000	96.155617 
2950.000000	96.179382 
2949.000000	96.200261 
2948.000000	96.211689 
2947.000000	96.212198 
2946.000000	96.206200 
2945.000000	96.199385 
2944.000000	96.194613 
2943.000000	96.192147 
2942.000000	96.191254 
2941.000000	96.189972 
2940.000000	96.185248 
2939.000000	96.175545 
2938.000000	96.162806 
2937.000000	96.150511 
2936.000000	96.139826 
2935.000000	96.128479 
2934.000000	96.113279 
2933.000000	96.092855 
2932.000000	96.068289 
2931.000000	96.042385 
2930.000000	96.018658 
2929.000000	95.999783 
2928.000000	95.985756 
2927.000000	95.973705 
2926.000000	95.960370 
2925.000000	95.945368 
2924.000000	95.931975 
2923.000000	95.924607 
2922.000000	95.925338 
2921.000000	95.932529 
2920.000000	95.942713 
2919.000000	95.953770 
2918.000000	95.965816 
2917.000000	95.978645 
2916.000000	95.989247 
2915.000000	95.993640 
2914.000000	95.991769 
2913.000000	95.989153 
2912.000000	95.992209 
2911.000000	96.002177 
2910.000000	96.014580 
2909.000000	96.024461 
2908.000000	96.030752 
2907.000000	96.034877 
2906.000000	96.036205 
2905.000000	96.030559 
2904.000000	96.014628 
2903.000000	95.992660 
2902.000000	95.977729 
2901.000000	95.983696 
2900.000000	96.014436 
2899.000000	96.060403 
2898.000000	96.105682 
2897.000000	96.139664 
2896.000000	96.161575 
2895.000000	96.175799 
2894.000000	96.186729 
2893.000000	96.198058 
2892.000000	96.212981 
2891.000000	96.231858 
2890.000000	96.250898 
2889.000000	96.265766 
2888.000000	96.276181 
2887.000000	96.285269 
2886.000000	96.295180 
2885.000000	96.305871 
2884.000000	96.318190 
2883.000000	96.335096 
2882.000000	96.358266 
2881.000000	96.385336 
2880.000000	96.412317 
2879.000000	96.437814 
2878.000000	96.463024 
2877.000000	96.488214 
2876.000000	96.511348 
2875.000000	96.530573 
2874.000000	96.546427 
2873.000000	96.560739 
2872.000000	96.574465 
2871.000000	96.587593 
2870.000000	96.600432 
2869.000000	96.613723 
2868.000000	96.627741 
2867.000000	96.642426 
2866.000000	96.658482 
2865.000000	96.677165 
2864.000000	96.698582 
2863.000000	96.721128 
2862.000000	96.743152 
2861.000000	96.764227 
2860.000000	96.784063 
2859.000000	96.801333 
2858.000000	96.815092 
2857.000000	96.826867 
2856.000000	96.839540 
2855.000000	96.854168 
2854.000000	96.869212 
2853.000000	96.883197 
2852.000000	96.897240 
2851.000000	96.914510 
2850.000000	96.937905 
2849.000000	96.968474 
2848.000000	97.004940 
2847.000000	97.043962 
2846.000000	97.081509 
2845.000000	97.114930 
2844.000000	97.143919 
2843.000000	97.169573 
2842.000000	97.192985 
2841.000000	97.214640 
2840.000000	97.234339 
2839.000000	97.251437 
2838.000000	97.265745 
2837.000000	97.278435 
2836.000000	97.291464 
2835.000000	97.305886 
2834.000000	97.321346 
2833.000000	97.337252 
2832.000000	97.353252 
2831.000000	97.368114 
2830.000000	97.379376 
2829.000000	97.385335 
2828.000000	97.387031 
2827.000000	97.387678 
2826.000000	97.390451 
2825.000000	97.396986 
2824.000000	97.406947 
2823.000000	97.418006 
2822.000000	97.426877 
2821.000000	97.431668 
2820.000000	97.433354 
2819.000000	97.434536 
2818.000000	97.437026 
2817.000000	97.441048 
2816.000000	97.446138 
2815.000000	97.451823 
2814.000000	97.457520 
2813.000000	97.462505 
2812.000000	97.466130 
2811.000000	97.467959 
2810.000000	97.468172 
2809.000000	97.468151 
2808.000000	97.469987 
2807.000000	97.474706 
2806.000000	97.481372 
2805.000000	97.488315 
2804.000000	97.494562 
2803.000000	97.499573 
2802.000000	97.502750 
2801.000000	97.504440 
2800.000000	97.506611 
2799.000000	97.510894 
2798.000000	97.516115 
2797.000000	97.519272 
2796.000000	97.519146 
2795.000000	97.517735 
2794.000000	97.517885 
2793.000000	97.520545 
2792.000000	97.524764 
2791.000000	97.529174 
2790.000000	97.532670 
2789.000000	97.534430 
2788.000000	97.534405 
2787.000000	97.533744 
2786.000000	97.534059 
2785.000000	97.536119 
2784.000000	97.539406 
2783.000000	97.542845 
2782.000000	97.545661 
2781.000000	97.547681 
2780.000000	97.549180 
2779.000000	97.550626 
2778.000000	97.552409 
2777.000000	97.554635 
2776.000000	97.557095 
2775.000000	97.559452 
2774.000000	97.561460 
2773.000000	97.563037 
2772.000000	97.564237 
2771.000000	97.565265 
2770.000000	97.566475 
2769.000000	97.568186 
2768.000000	97.570421 
2767.000000	97.572883 
2766.000000	97.575221 
2765.000000	97.577284 
2764.000000	97.579052 
2763.000000	97.580466 
2762.000000	97.581488 
2761.000000	97.582278 
2760.000000	97.583159 
2759.000000	97.584370 
2758.000000	97.585889 
2757.000000	97.587472 
2756.000000	97.588850 
2755.000000	97.589960 
2754.000000	97.591027 
2753.000000	97.592370 
2752.000000	97.594055 
2751.000000	97.595848 
2750.000000	97.597517 
2749.000000	97.599111 
2748.000000	97.600765 
2747.000000	97.602342 
2746.000000	97.603553 
2745.000000	97.604362 
2744.000000	97.605103 
2743.000000	97.606158 
2742.000000	97.607573 
2741.000000	97.609139 
2740.000000	97.610660 
2739.000000	97.612092 
2738.000000	97.613421 
2737.000000	97.614643 
2736.000000	97.615855 
2735.000000	97.617202 
2734.000000	97.618712 
2733.000000	97.620277 
2732.000000	97.621794 
2731.000000	97.623244 
2730.000000	97.624673 
2729.000000	97.626136 
2728.000000	97.627650 
2727.000000	97.629154 
2726.000000	97.630550 
2725.000000	97.631806 
2724.000000	97.633005 
2723.000000	97.634243 
2722.000000	97.635534 
2721.000000	97.636830 
2720.000000	97.638108 
2719.000000	97.639387 
2718.000000	97.640681 
2717.000000	97.641967 
2716.000000	97.643208 
2715.000000	97.644405 
2714.000000	97.645598 
2713.000000	97.646821 
2712.000000	97.648069 
2711.000000	97.649291 
2710.000000	97.650435 
2709.000000	97.651495 
2708.000000	97.652517 
2707.000000	97.653565 
2706.000000	97.654664 
2705.000000	97.655792 
2704.000000	97.656893 
2703.000000	97.657902 
2702.000000	97.658787 
2701.000000	97.659603 
2700.000000	97.660491 
2699.000000	97.661579 
2698.000000	97.662848 
2697.000000	97.664051 
2696.000000	97.664907 
2695.000000	97.665356 
2694.000000	97.665616 
2693.000000	97.665994 
2692.000000	97.666578 
2691.000000	97.667231 
2690.000000	97.667782 
2689.000000	97.668201 
2688.000000	97.668534 
2687.000000	97.668754 
2686.000000	97.668823 
2685.000000	97.668874 
2684.000000	97.669161 
2683.000000	97.669765 
2682.000000	97.670460 
2681.000000	97.670952 
2680.000000	97.671165 
2679.000000	97.671223 
2678.000000	97.671294 
2677.000000	97.671561 
2676.000000	97.672147 
2675.000000	97.672838 
2674.000000	97.673103 
2673.000000	97.672707 
2672.000000	97.672096 
2671.000000	97.671830 
2670.000000	97.671787 
2669.000000	97.671468 
2668.000000	97.670897 
2667.000000	97.670613 
2666.000000	97.670727 
2665.000000	97.670618 
2664.000000	97.669846 
2663.000000	97.668854 
2662.000000	97.668390 
2661.000000	97.668490 
2660.000000	97.668503 
2659.000000	97.667958 
2658.000000	97.666983 
2657.000000	97.665976 
2656.000000	97.665174 
2655.000000	97.664600 
2654.000000	97.664137 
2653.000000	97.663582 
2652.000000	97.662824 
2651.000000	97.662081 
2650.000000	97.661787 
2649.000000	97.662134 
2648.000000	97.662845 
2647.000000	97.663401 
2646.000000	97.663401 
2645.000000	97.662705 
2644.000000	97.661426 
2643.000000	97.659976 
2642.000000	97.658944 
2641.000000	97.658701 
2640.000000	97.659122 
2639.000000	97.659746 
2638.000000	97.660224 
2637.000000	97.660505 
2636.000000	97.660655 
2635.000000	97.660734 
2634.000000	97.660856 
2633.000000	97.661142 
2632.000000	97.661520 
2631.000000	97.661719 
2630.000000	97.661591 
2629.000000	97.661321 
2628.000000	97.661209 
2627.000000	97.661316 
2626.000000	97.661486 
2625.000000	97.661670 
2624.000000	97.662028 
2623.000000	97.662663 
2622.000000	97.663411 
2621.000000	97.663937 
2620.000000	97.664013 
2619.000000	97.663645 
2618.000000	97.663075 
2617.000000	97.662693 
2616.000000	97.662792 
2615.000000	97.663375 
2614.000000	97.664219 
2613.000000	97.665088 
2612.000000	97.665864 
2611.000000	97.666488 
2610.000000	97.666955 
2609.000000	97.667365 
2608.000000	97.667840 
2607.000000	97.668354 
2606.000000	97.668772 
2605.000000	97.669102 
2604.000000	97.669503 
2603.000000	97.669999 
2602.000000	97.670391 
2601.000000	97.670622 
2600.000000	97.670916 
2599.000000	97.671388 
2598.000000	97.671819 
2597.000000	97.672017 
2596.000000	97.672181 
2595.000000	97.672625 
2594.000000	97.673214 
2593.000000	97.673510 
2592.000000	97.673513 
2591.000000	97.673730 
2590.000000	97.674363 
2589.000000	97.674976 
2588.000000	97.675173 
2587.000000	97.675165 
2586.000000	97.675398 
2585.000000	97.675990 
2584.000000	97.676768 
2583.000000	97.677537 
2582.000000	97.678090 
2581.000000	97.678264 
2580.000000	97.678212 
2579.000000	97.678413 
2578.000000	97.679214 
2577.000000	97.680510 
2576.000000	97.681892 
2575.000000	97.682920 
2574.000000	97.683268 
2573.000000	97.682883 
2572.000000	97.682064 
2571.000000	97.681175 
2570.000000	97.680317 
2569.000000	97.679550 
2568.000000	97.679284 
2567.000000	97.679935 
2566.000000	97.681227 
2565.000000	97.682380 
2564.000000	97.683055 
2563.000000	97.683586 
2562.000000	97.684250 
2561.000000	97.684932 
2560.000000	97.685651 
2559.000000	97.686801 
2558.000000	97.688492 
2557.000000	97.690044 
2556.000000	97.690680 
2555.000000	97.690425 
2554.000000	97.689940 
2553.000000	97.689645 
2552.000000	97.689413 
2551.000000	97.689212 
2550.000000	97.689447 
2549.000000	97.690370 
2548.000000	97.691454 
2547.000000	97.691822 
2546.000000	97.691258 
2545.000000	97.690407 
2544.000000	97.689987 
2543.000000	97.689981 
2542.000000	97.689942 
2541.000000	97.689804 
2540.000000	97.689977 
2539.000000	97.690624 
2538.000000	97.691268 
2537.000000	97.691368 
2536.000000	97.691014 
2535.000000	97.690779 
2534.000000	97.690948 
2533.000000	97.691252 
2532.000000	97.691380 
2531.000000	97.691433 
2530.000000	97.691677 
2529.000000	97.692064 
2528.000000	97.692260 
2527.000000	97.692107 
2526.000000	97.691894 
2525.000000	97.692100 
2524.000000	97.692931 
2523.000000	97.694133 
2522.000000	97.695165 
2521.000000	97.695642 
2520.000000	97.695602 
2519.000000	97.695396 
2518.000000	97.695301 
2517.000000	97.695243 
2516.000000	97.694895 
2515.000000	97.694046 
2514.000000	97.692916 
2513.000000	97.692127 
2512.000000	97.692224 
2511.000000	97.693296 
2510.000000	97.695049 
2509.000000	97.697069 
2508.000000	97.698916 
2507.000000	97.700110 
2506.000000	97.700485 
2505.000000	97.700563 
2504.000000	97.701176 
2503.000000	97.702433 
2502.000000	97.703462 
2501.000000	97.703482 
2500.000000	97.702741 
2499.000000	97.702147 
2498.000000	97.702163 
2497.000000	97.702533 
2496.000000	97.702945 
2495.000000	97.703424 
2494.000000	97.704000 
2493.000000	97.704434 
2492.000000	97.704569 
2491.000000	97.704691 
2490.000000	97.705234 
2489.000000	97.706214 
2488.000000	97.707172 
2487.000000	97.707687 
2486.000000	97.707789 
2485.000000	97.707814 
2484.000000	97.707982 
2483.000000	97.708233 
2482.000000	97.708421 
2481.000000	97.708551 
2480.000000	97.708742 
2479.000000	97.709045 
2478.000000	97.709429 
2477.000000	97.709911 
2476.000000	97.710475 
2475.000000	97.710896 
2474.000000	97.710868 
2473.000000	97.710357 
2472.000000	97.709658 
2471.000000	97.709034 
2470.000000	97.708534 
2469.000000	97.708281 
2468.000000	97.708554 
2467.000000	97.709339 
2466.000000	97.710055 
2465.000000	97.710065 
2464.000000	97.709444 
2463.000000	97.708973 
2462.000000	97.709321 
2461.000000	97.710503 
2460.000000	97.712046 
2459.000000	97.713445 
2458.000000	97.714338 
2457.000000	97.714462 
2456.000000	97.713749 
2455.000000	97.712509 
2454.000000	97.711332 
2453.000000	97.710604 
2452.000000	97.710229 
2451.000000	97.709920 
2450.000000	97.709727 
2449.000000	97.710073 
2448.000000	97.711133 
2447.000000	97.712392 
2446.000000	97.713081 
2445.000000	97.712989 
2444.000000	97.712569 
2443.000000	97.712372 
2442.000000	97.712607 
2441.000000	97.713249 
2440.000000	97.714243 
2439.000000	97.715469 
2438.000000	97.716748 
2437.000000	97.718002 
2436.000000	97.719250 
2435.000000	97.720372 
2434.000000	97.721083 
2433.000000	97.721238 
2432.000000	97.721047 
2431.000000	97.720930 
2430.000000	97.721251 
2429.000000	97.722204 
2428.000000	97.723788 
2427.000000	97.725673 
2426.000000	97.726958 
2425.000000	97.726537 
2424.000000	97.724778 
2423.000000	97.723500 
2422.000000	97.723531 
2421.000000	97.724637 
2420.000000	97.726983 
2419.000000	97.730518 
2418.000000	97.733922 
2417.000000	97.735914 
2416.000000	97.736865 
2415.000000	97.737681 
2414.000000	97.738300 
2413.000000	97.738621 
2412.000000	97.739508 
2411.000000	97.741349 
2410.000000	97.742863 
2409.000000	97.743049 
2408.000000	97.743189 
2407.000000	97.745022 
2406.000000	97.747817 
2405.000000	97.749141 
2404.000000	97.747994 
2403.000000	97.745446 
2402.000000	97.742807 
2401.000000	97.740989 
2400.000000	97.741187 
2399.000000	97.744182 
2398.000000	97.748975 
2397.000000	97.753658 
2396.000000	97.757365 
2395.000000	97.760066 
2394.000000	97.761112 
2393.000000	97.760013 
2392.000000	97.758379 
2391.000000	97.759151 
2390.000000	97.763547 
2389.000000	97.770238 
2388.000000	97.777642 
2387.000000	97.785573 
2386.000000	97.794276 
2385.000000	97.803002 
2384.000000	97.810100 
2383.000000	97.813403 
2382.000000	97.810270 
2381.000000	97.798934 
2380.000000	97.780581 
2379.000000	97.759234 
2378.000000	97.738772 
2377.000000	97.721251 
2376.000000	97.708992 
2375.000000	97.705829 
2374.000000	97.713469 
2373.000000	97.727689 
2372.000000	97.740950 
2371.000000	97.749414 
2370.000000	97.754441 
2369.000000	97.757429 
2368.000000	97.757116 
2367.000000	97.752715 
2366.000000	97.746361 
2365.000000	97.740964 
2364.000000	97.737645 
2363.000000	97.736298 
2362.000000	97.737062 
2361.000000	97.739890 
2360.000000	97.744085 
2359.000000	97.748610 
2358.000000	97.751423 
2357.000000	97.750871 
2356.000000	97.747245 
2355.000000	97.742642 
2354.000000	97.737977 
2353.000000	97.734531 
2352.000000	97.734860 
2351.000000	97.739258 
2350.000000	97.744574 
2349.000000	97.747275 
2348.000000	97.746938 
2347.000000	97.745438 
2346.000000	97.745153 
2345.000000	97.747338 
2344.000000	97.751156 
2343.000000	97.754804 
2342.000000	97.756853 
2341.000000	97.757477 
2340.000000	97.757874 
2339.000000	97.758872 
2338.000000	97.760009 
2337.000000	97.760159 
2336.000000	97.759892 
2335.000000	97.760672 
2334.000000	97.762758 
2333.000000	97.764641 
2332.000000	97.767032 
2331.000000	97.771292 
2330.000000	97.777636 
2329.000000	97.783491 
2328.000000	97.788825 
2327.000000	97.794368 
2326.000000	97.799390 
2325.000000	97.801822 
2324.000000	97.802383 
2323.000000	97.803823 
2322.000000	97.805937 
2321.000000	97.805224 
2320.000000	97.801653 
2319.000000	97.798355 
2318.000000	97.798077 
2317.000000	97.797611 
2316.000000	97.795401 
2315.000000	97.792511 
2314.000000	97.793836 
2313.000000	97.800104 
2312.000000	97.811558 
2311.000000	97.825748 
2310.000000	97.839822 
2309.000000	97.848370 
2308.000000	97.850560 
2307.000000	97.849056 
2306.000000	97.847821 
2305.000000	97.847048 
2304.000000	97.846675 
2303.000000	97.845969 
2302.000000	97.846000 
2301.000000	97.846461 
2300.000000	97.847280 
2299.000000	97.845307 
2298.000000	97.838144 
2297.000000	97.824373 
2296.000000	97.808367 
2295.000000	97.795517 
2294.000000	97.787812 
2293.000000	97.781377 
2292.000000	97.772725 
2291.000000	97.762136 
2290.000000	97.751751 
2289.000000	97.742598 
2288.000000	97.734504 
2287.000000	97.727576 
2286.000000	97.721616 
2285.000000	97.716656 
2284.000000	97.713167 
2283.000000	97.711600 
2282.000000	97.710269 
2281.000000	97.706826 
2280.000000	97.701124 
2279.000000	97.695205 
2278.000000	97.690177 
2277.000000	97.685642 
2276.000000	97.682236 
2275.000000	97.681383 
2274.000000	97.683074 
2273.000000	97.686122 
2272.000000	97.690611 
2271.000000	97.696428 
2270.000000	97.700708 
2269.000000	97.700409 
2268.000000	97.697146 
2267.000000	97.695154 
2266.000000	97.695173 
2265.000000	97.694285 
2264.000000	97.691337 
2263.000000	97.688205 
2262.000000	97.685811 
2261.000000	97.682999 
2260.000000	97.679400 
2259.000000	97.676217 
2258.000000	97.673783 
2257.000000	97.671308 
2256.000000	97.669022 
2255.000000	97.668162 
2254.000000	97.668630 
2253.000000	97.668517 
2252.000000	97.666546 
2251.000000	97.663229 
2250.000000	97.659498 
2249.000000	97.655717 
2248.000000	97.652372 
2247.000000	97.650164 
2246.000000	97.649027 
2245.000000	97.648104 
2244.000000	97.646688 
2243.000000	97.644849 
2242.000000	97.642942 
2241.000000	97.641189 
2240.000000	97.639615 
2239.000000	97.638148 
2238.000000	97.636701 
2237.000000	97.635215 
2236.000000	97.633687 
2235.000000	97.632136 
2234.000000	97.630573 
2233.000000	97.629000 
2232.000000	97.627416 
2231.000000	97.625820 
2230.000000	97.624211 
2229.000000	97.622573 
2228.000000	97.620891 
2227.000000	97.619200 
2226.000000	97.617589 
2225.000000	97.616095 
2224.000000	97.614585 
2223.000000	97.612898 
2222.000000	97.611076 
2221.000000	97.609332 
2220.000000	97.607753 
2219.000000	97.606214 
2218.000000	97.604560 
2217.000000	97.602825 
2216.000000	97.601240 
2215.000000	97.599964 
2214.000000	97.598809 
2213.000000	97.597387 
2212.000000	97.595694 
2211.000000	97.594297 
2210.000000	97.593599 
2209.000000	97.593294 
2208.000000	97.592785 
2207.000000	97.591853 
2206.000000	97.590729 
2205.000000	97.589818 
2204.000000	97.589517 
2203.000000	97.590068 
2202.000000	97.591109 
2201.000000	97.591363 
2200.000000	97.589528 
2199.000000	97.585595 
2198.000000	97.580877 
2197.000000	97.576927 
2196.000000	97.574616 
2195.000000	97.573644 
2194.000000	97.572693 
2193.000000	97.570933 
2192.000000	97.569301 
2191.000000	97.568946 
2190.000000	97.568767 
2189.000000	97.566723 
2188.000000	97.563439 
2187.000000	97.561307 
2186.000000	97.559582 
2185.000000	97.554493 
2184.000000	97.546261 
2183.000000	97.541801 
2182.000000	97.546612 
2181.000000	97.557204 
2180.000000	97.564547 
2179.000000	97.564425 
2178.000000	97.560075 
2177.000000	97.556416 
2176.000000	97.555334 
2175.000000	97.556046 
2174.000000	97.556893 
2173.000000	97.556866 
2172.000000	97.557561 
2171.000000	97.562312 
2170.000000	97.570840 
2169.000000	97.576420 
2168.000000	97.572194 
2167.000000	97.559448 
2166.000000	97.546286 
2165.000000	97.538212 
2164.000000	97.533564 
2163.000000	97.528561 
2162.000000	97.523525 
2161.000000	97.523177 
2160.000000	97.532859 
2159.000000	97.554396 
2158.000000	97.583150 
2157.000000	97.609732 
2156.000000	97.627283 
2155.000000	97.635472 
2154.000000	97.637592 
2153.000000	97.637169 
2152.000000	97.637085 
2151.000000	97.638258 
2150.000000	97.638223 
2149.000000	97.634428 
2148.000000	97.630032 
2147.000000	97.632240 
2146.000000	97.643006 
2145.000000	97.655882 
2144.000000	97.665031 
2143.000000	97.672822 
2142.000000	97.684049 
2141.000000	97.696863 
2140.000000	97.705223 
2139.000000	97.708489 
2138.000000	97.712821 
2137.000000	97.722815 
2136.000000	97.735747 
2135.000000	97.744688 
2134.000000	97.745001 
2133.000000	97.738071 
2132.000000	97.730371 
2131.000000	97.727865 
2130.000000	97.730347 
2129.000000	97.732490 
2128.000000	97.730760 
2127.000000	97.727319 
2126.000000	97.726365 
2125.000000	97.729143 
2124.000000	97.733970 
2123.000000	97.738741 
2122.000000	97.741459 
2121.000000	97.740288 
2120.000000	97.735035 
2119.000000	97.727543 
2118.000000	97.719699 
2117.000000	97.712343 
2116.000000	97.706377 
2115.000000	97.702544 
2114.000000	97.699395 
2113.000000	97.694209 
2112.000000	97.687520 
2111.000000	97.684047 
2110.000000	97.687191 
2109.000000	97.694994 
2108.000000	97.702862 
2107.000000	97.707982 
2106.000000	97.709429 
2105.000000	97.707112 
2104.000000	97.703171 
2103.000000	97.701641 
2102.000000	97.703689 
2101.000000	97.705282 
2100.000000	97.702414 
2099.000000	97.697014 
2098.000000	97.694934 
2097.000000	97.699072 
2096.000000	97.707138 
2095.000000	97.714869 
2094.000000	97.719320 
2093.000000	97.719660 
2092.000000	97.716802 
2091.000000	97.712987 
2090.000000	97.710562 
2089.000000	97.710377 
2088.000000	97.711492 
2087.000000	97.712108 
2086.000000	97.710705 
2085.000000	97.706991 
2084.000000	97.702370 
2083.000000	97.698910 
2082.000000	97.697377 
2081.000000	97.696879 
2080.000000	97.696650 
2079.000000	97.697067 
2078.000000	97.698240 
2077.000000	97.698854 
2076.000000	97.697743 
2075.000000	97.695708 
2074.000000	97.694230 
2073.000000	97.693050 
2072.000000	97.690637 
2071.000000	97.686572 
2070.000000	97.681997 
2069.000000	97.678125 
2068.000000	97.675524 
2067.000000	97.674414 
2066.000000	97.674525 
2065.000000	97.674598 
2064.000000	97.673154 
2063.000000	97.670122 
2062.000000	97.666973 
2061.000000	97.665271 
2060.000000	97.665402 
2059.000000	97.666697 
2058.000000	97.667944 
2057.000000	97.667956 
2056.000000	97.666229 
2055.000000	97.663042 
2054.000000	97.659154 
2053.000000	97.655410 
2052.000000	97.652551 
2051.000000	97.650890 
2050.000000	97.650033 
2049.000000	97.649151 
2048.000000	97.647902 
2047.000000	97.646691 
2046.000000	97.645824 
2045.000000	97.644973 
2044.000000	97.643856 
2043.000000	97.642896 
2042.000000	97.642653 
2041.000000	97.643034 
2040.000000	97.643684 
2039.000000	97.644868 
2038.000000	97.646884 
2037.000000	97.648823 
2036.000000	97.649185 
2035.000000	97.647756 
2034.000000	97.646095 
2033.000000	97.646065 
2032.000000	97.648230 
2031.000000	97.651481 
2030.000000	97.653591 
2029.000000	97.652823 
2028.000000	97.649575 
2027.000000	97.646222 
2026.000000	97.644494 
2025.000000	97.644077 
2024.000000	97.644410 
2023.000000	97.646544 
2022.000000	97.651828 
2021.000000	97.659193 
2020.000000	97.665145 
2019.000000	97.666689 
2018.000000	97.663058 
2017.000000	97.655785 
2016.000000	97.648358 
2015.000000	97.644258 
2014.000000	97.643658 
2013.000000	97.642793 
2012.000000	97.638796 
2011.000000	97.634653 
2010.000000	97.635999 
2009.000000	97.643756 
2008.000000	97.653006 
2007.000000	97.659582 
2006.000000	97.664162 
2005.000000	97.668510 
2004.000000	97.671807 
2003.000000	97.672843 
2002.000000	97.673101 
2001.000000	97.674331 
2000.000000	97.675037 
1999.000000	97.671342 
1998.000000	97.661102 
1997.000000	97.646799 
1996.000000	97.634388 
1995.000000	97.628911 
1994.000000	97.630811 
1993.000000	97.635781 
1992.000000	97.638358 
1991.000000	97.637219 
1990.000000	97.635933 
1989.000000	97.638263 
1988.000000	97.643659 
1987.000000	97.647378 
1986.000000	97.644798 
1985.000000	97.635731 
1984.000000	97.624708 
1983.000000	97.616584 
1982.000000	97.612167 
1981.000000	97.608962 
1980.000000	97.606317 
1979.000000	97.607007 
1978.000000	97.612486 
1977.000000	97.619608 
1976.000000	97.623939 
1975.000000	97.625055 
1974.000000	97.625937 
1973.000000	97.628969 
1972.000000	97.634209 
1971.000000	97.640199 
1970.000000	97.644759 
1969.000000	97.645819 
1968.000000	97.642949 
1967.000000	97.638104 
1966.000000	97.634292 
1965.000000	97.633416 
1964.000000	97.635850 
1963.000000	97.641180 
1962.000000	97.648319 
1961.000000	97.655150 
1960.000000	97.659204 
1959.000000	97.659270 
1958.000000	97.656442 
1957.000000	97.653736 
1956.000000	97.653764 
1955.000000	97.656480 
1954.000000	97.659466 
1953.000000	97.660744 
1952.000000	97.660540 
1951.000000	97.660213 
1950.000000	97.660471 
1949.000000	97.661326 
1948.000000	97.663180 
1947.000000	97.666283 
1946.000000	97.669459 
1945.000000	97.670969 
1944.000000	97.670636 
1943.000000	97.669950 
1942.000000	97.670008 
1941.000000	97.670515 
1940.000000	97.671032 
1939.000000	97.671624 
1938.000000	97.672426 
1937.000000	97.673502 
1936.000000	97.675011 
1935.000000	97.676928 
1934.000000	97.678710 
1933.000000	97.679913 
1932.000000	97.680902 
1931.000000	97.682505 
1930.000000	97.684747 
1929.000000	97.686432 
1928.000000	97.686955 
1927.000000	97.686964 
1926.000000	97.687315 
1925.000000	97.687870 
1924.000000	97.688166 
1923.000000	97.688722 
1922.000000	97.689925 
1921.000000	97.690972 
1920.000000	97.691098 
1919.000000	97.690857 
1918.000000	97.691021 
1917.000000	97.690985 
1916.000000	97.690145 
1915.000000	97.689291 
1914.000000	97.689240 
1913.000000	97.689691 
1912.000000	97.689793 
1911.000000	97.689560 
1910.000000	97.689601 
1909.000000	97.690040 
1908.000000	97.690677 
1907.000000	97.691258 
1906.000000	97.691532 
1905.000000	97.691252 
1904.000000	97.690520 
1903.000000	97.689955 
1902.000000	97.689888 
1901.000000	97.690054 
1900.000000	97.690137 
1899.000000	97.690130 
1898.000000	97.690149 
1897.000000	97.690193 
1896.000000	97.690201 
1895.000000	97.690176 
1894.000000	97.690136 
1893.000000	97.690084 
1892.000000	97.690034 
1891.000000	97.690016 
1890.000000	97.690042 
1889.000000	97.690104 
1888.000000	97.690206 
1887.000000	97.690351 
1886.000000	97.690541 
1885.000000	97.690770 
1884.000000	97.691027 
1883.000000	97.691314 
1882.000000	97.691645 
1881.000000	97.692028 
1880.000000	97.692467 
1879.000000	97.692956 
1878.000000	97.693490 
1877.000000	97.694065 
1876.000000	97.694685 
1875.000000	97.695357 
1874.000000	97.696085 
1873.000000	97.696856 
1872.000000	97.697645 
1871.000000	97.698433 
1870.000000	97.699220 
1869.000000	97.700015 
1868.000000	97.700832 
1867.000000	97.701683 
1866.000000	97.702575 
1865.000000	97.703502 
1864.000000	97.704461 
1863.000000	97.705446 
1862.000000	97.706475 
1861.000000	97.707579 
1860.000000	97.708731 
1859.000000	97.709889 
1858.000000	97.711075 
1857.000000	97.712312 
1856.000000	97.713554 
1855.000000	97.714764 
1854.000000	97.715957 
1853.000000	97.717069 
1852.000000	97.718101 
1851.000000	97.719242 
1850.000000	97.720635 
1849.000000	97.722212 
1848.000000	97.723779 
1847.000000	97.725330 
1846.000000	97.726931 
1845.000000	97.728447 
1844.000000	97.729593 
1843.000000	97.730521 
1842.000000	97.731718 
1841.000000	97.732999 
1840.000000	97.734030 
1839.000000	97.735015 
1838.000000	97.736297 
1837.000000	97.737510 
1836.000000	97.737999 
1835.000000	97.738028 
1834.000000	97.738403 
1833.000000	97.739188 
1832.000000	97.739844 
1831.000000	97.739984 
1830.000000	97.739757 
1829.000000	97.739689 
1828.000000	97.740124 
1827.000000	97.741035 
1826.000000	97.742288 
1825.000000	97.743717 
1824.000000	97.744760 
1823.000000	97.745138 
1822.000000	97.745133 
1821.000000	97.744995 
1820.000000	97.744739 
1819.000000	97.744462 
1818.000000	97.744704 
1817.000000	97.745542 
1816.000000	97.746116 
1815.000000	97.746003 
1814.000000	97.745682 
1813.000000	97.745822 
1812.000000	97.746171 
1811.000000	97.746067 
1810.000000	97.745727 
1809.000000	97.745572 
1808.000000	97.745496 
1807.000000	97.745388 
1806.000000	97.745442 
1805.000000	97.745643 
1804.000000	97.745569 
1803.000000	97.745258 
1802.000000	97.745148 
1801.000000	97.745379 
1800.000000	97.745259 
1799.000000	97.744227 
1798.000000	97.743088 
1797.000000	97.742571 
1796.000000	97.742426 
1795.000000	97.742239 
1794.000000	97.742176 
1793.000000	97.742609 
1792.000000	97.742959 
1791.000000	97.742813 
1790.000000	97.743204 
1789.000000	97.744148 
1788.000000	97.744659 
1787.000000	97.744646 
1786.000000	97.745204 
1785.000000	97.746329 
1784.000000	97.746320 
1783.000000	97.744903 
1782.000000	97.742769 
1781.000000	97.741458 
1780.000000	97.742087 
1779.000000	97.743675 
1778.000000	97.745222 
1777.000000	97.746010 
1776.000000	97.746816 
1775.000000	97.747730 
1774.000000	97.747042 
1773.000000	97.744227 
1772.000000	97.741105 
1771.000000	97.739652 
1770.000000	97.741086 
1769.000000	97.744570 
1768.000000	97.748104 
1767.000000	97.749887 
1766.000000	97.749218 
1765.000000	97.747269 
1764.000000	97.745224 
1763.000000	97.743914 
1762.000000	97.743203 
1761.000000	97.742993 
1760.000000	97.743257 
1759.000000	97.743431 
1758.000000	97.743093 
1757.000000	97.742274 
1756.000000	97.742193 
1755.000000	97.741854 
1754.000000	97.738918 
1753.000000	97.733172 
1752.000000	97.728288 
1751.000000	97.726659 
1750.000000	97.726693 
1749.000000	97.725714 
1748.000000	97.723421 
1747.000000	97.721406 
1746.000000	97.719385 
1745.000000	97.718242 
1744.000000	97.719324 
1743.000000	97.721665 
1742.000000	97.723130 
1741.000000	97.722776 
1740.000000	97.721294 
1739.000000	97.720719 
1738.000000	97.722701 
1737.000000	97.725418 
1736.000000	97.726136 
1735.000000	97.725847 
1734.000000	97.725409 
1733.000000	97.723382 
1732.000000	97.722303 
1731.000000	97.723468 
1730.000000	97.726026 
1729.000000	97.728254 
1728.000000	97.728804 
1727.000000	97.727793 
1726.000000	97.726026 
1725.000000	97.724874 
1724.000000	97.724305 
1723.000000	97.723662 
1722.000000	97.723360 
1721.000000	97.723294 
1720.000000	97.722539 
1719.000000	97.720908 
1718.000000	97.719844 
1717.000000	97.719525 
1716.000000	97.718396 
1715.000000	97.716645 
1714.000000	97.715629 
1713.000000	97.715302 
1712.000000	97.714484 
1711.000000	97.713084 
1710.000000	97.711885 
1709.000000	97.711004 
1708.000000	97.709864 
1707.000000	97.708206 
1706.000000	97.706755 
1705.000000	97.705919 
1704.000000	97.705169 
1703.000000	97.703922 
1702.000000	97.702124 
1701.000000	97.700432 
1700.000000	97.698049 
1699.000000	97.694624 
1698.000000	97.692240 
1697.000000	97.690637 
1696.000000	97.688661 
1695.000000	97.685684 
1694.000000	97.682638 
1693.000000	97.679927 
1692.000000	97.676792 
1691.000000	97.673269 
1690.000000	97.669804 
1689.000000	97.666546 
1688.000000	97.663512 
1687.000000	97.660249 
1686.000000	97.656514 
1685.000000	97.652795 
1684.000000	97.649137 
1683.000000	97.645430 
1682.000000	97.642181 
1681.000000	97.638789 
1680.000000	97.635462 
1679.000000	97.632750 
1678.000000	97.630080 
1677.000000	97.626618 
1676.000000	97.622686 
1675.000000	97.618780 
1674.000000	97.614017 
1673.000000	97.608520 
1672.000000	97.602992 
1671.000000	97.598304 
1670.000000	97.594904 
1669.000000	97.591295 
1668.000000	97.587548 
1667.000000	97.584706 
1666.000000	97.581920 
1665.000000	97.577934 
1664.000000	97.572947 
1663.000000	97.568833 
1662.000000	97.565398 
1661.000000	97.560865 
1660.000000	97.556005 
1659.000000	97.551652 
1658.000000	97.547236 
1657.000000	97.542620 
1656.000000	97.538577 
1655.000000	97.535172 
1654.000000	97.535042 
1653.000000	97.532021 
1652.000000	97.517273 
1651.000000	97.507505 
1650.000000	97.504241 
1649.000000	97.499994 
1648.000000	97.496425 
1647.000000	97.497205 
1646.000000	97.498996 
1645.000000	97.497971 
1644.000000	97.495347 
1643.000000	97.493669 
1642.000000	97.493101 
1641.000000	97.492072 
1640.000000	97.490707 
1639.000000	97.489059 
1638.000000	97.487243 
1637.000000	97.486362 
1636.000000	97.488318 
1635.000000	97.488889 
1634.000000	97.487041 
1633.000000	97.486803 
1632.000000	97.486166 
1631.000000	97.485652 
1630.000000	97.486329 
1629.000000	97.487093 
1628.000000	97.487275 
1627.000000	97.489236 
1626.000000	97.492716 
1625.000000	97.494954 
1624.000000	97.496830 
1623.000000	97.501868 
1622.000000	97.509109 
1621.000000	97.515146 
1620.000000	97.520090 
1619.000000	97.524722 
1618.000000	97.529344 
1617.000000	97.530351 
1616.000000	97.527004 
1615.000000	97.527830 
1614.000000	97.535058 
1613.000000	97.541089 
1612.000000	97.542986 
1611.000000	97.544985 
1610.000000	97.548907 
1609.000000	97.553278 
1608.000000	97.559539 
1607.000000	97.569816 
1606.000000	97.579249 
1605.000000	97.583312 
1604.000000	97.585898 
1603.000000	97.591242 
1602.000000	97.598057 
1601.000000	97.603224 
1600.000000	97.607214 
1599.000000	97.611503 
1598.000000	97.615098 
1597.000000	97.617191 
1596.000000	97.619237 
1595.000000	97.622927 
1594.000000	97.627610 
1593.000000	97.631662 
1592.000000	97.635056 
1591.000000	97.638687 
1590.000000	97.642481 
1589.000000	97.645884 
1588.000000	97.649165 
1587.000000	97.652877 
1586.000000	97.656625 
1585.000000	97.659484 
1584.000000	97.662042 
1583.000000	97.665207 
1582.000000	97.668364 
1581.000000	97.670845 
1580.000000	97.673360 
1579.000000	97.676559 
1578.000000	97.679824 
1577.000000	97.682497 
1576.000000	97.684395 
1575.000000	97.686262 
1574.000000	97.688851 
1573.000000	97.691568 
1572.000000	97.693828 
1571.000000	97.695972 
1570.000000	97.697941 
1569.000000	97.698849 
1568.000000	97.699521 
1567.000000	97.700652 
1566.000000	97.701401 
1565.000000	97.701418 
1564.000000	97.701737 
1563.000000	97.702843 
1562.000000	97.703505 
1561.000000	97.702486 
1560.000000	97.702389 
1559.000000	97.705342 
1558.000000	97.706373 
1557.000000	97.705266 
1556.000000	97.704554 
1555.000000	97.704843 
1554.000000	97.705192 
1553.000000	97.704714 
1552.000000	97.703668 
1551.000000	97.702429 
1550.000000	97.701614 
1549.000000	97.700675 
1548.000000	97.698722 
1547.000000	97.696076 
1546.000000	97.693236 
1545.000000	97.690966 
1544.000000	97.689472 
1543.000000	97.687812 
1542.000000	97.685423 
1541.000000	97.682677 
1540.000000	97.678940 
1539.000000	97.673859 
1538.000000	97.669466 
1537.000000	97.666215 
1536.000000	97.662418 
1535.000000	97.658178 
1534.000000	97.654683 
1533.000000	97.652031 
1532.000000	97.648888 
1531.000000	97.644387 
1530.000000	97.638948 
1529.000000	97.633188 
1528.000000	97.627615 
1527.000000	97.622868 
1526.000000	97.618878 
1525.000000	97.614655 
1524.000000	97.609307 
1523.000000	97.602995 
1522.000000	97.597364 
1521.000000	97.592633 
1520.000000	97.586847 
1519.000000	97.579220 
1518.000000	97.570648 
1517.000000	97.563416 
1516.000000	97.558312 
1515.000000	97.553735 
1514.000000	97.548158 
1513.000000	97.541529 
1512.000000	97.533887 
1511.000000	97.524955 
1510.000000	97.515248 
1509.000000	97.505904 
1508.000000	97.499306 
1507.000000	97.496588 
1506.000000	97.492226 
1505.000000	97.482547 
1504.000000	97.471345 
1503.000000	97.460338 
1502.000000	97.449311 
1501.000000	97.438848 
1500.000000	97.429263 
1499.000000	97.419885 
1498.000000	97.410790 
1497.000000	97.403724 
1496.000000	97.397944 
1495.000000	97.392158 
1494.000000	97.386961 
1493.000000	97.382072 
1492.000000	97.376454 
1491.000000	97.371007 
1490.000000	97.368096 
1489.000000	97.366162 
1488.000000	97.359451 
1487.000000	97.347409 
1486.000000	97.334725 
1485.000000	97.321323 
1484.000000	97.306517 
1483.000000	97.292298 
1482.000000	97.281560 
1481.000000	97.274266 
1480.000000	97.265969 
1479.000000	97.254582 
1478.000000	97.242553 
1477.000000	97.232803 
1476.000000	97.223313 
1475.000000	97.211882 
1474.000000	97.199963 
1473.000000	97.191665 
1472.000000	97.186445 
1471.000000	97.178554 
1470.000000	97.166689 
1469.000000	97.152117 
1468.000000	97.135983 
1467.000000	97.121266 
1466.000000	97.111787 
1465.000000	97.108529 
1464.000000	97.107464 
1463.000000	97.101521 
1462.000000	97.089052 
1461.000000	97.072861 
1460.000000	97.057041 
1459.000000	97.044978 
1458.000000	97.040034 
1457.000000	97.039880 
1456.000000	97.032671 
1455.000000	97.016171 
1454.000000	96.996345 
1453.000000	96.979214 
1452.000000	96.969064 
1451.000000	96.965093 
1450.000000	96.965526 
1449.000000	96.971177 
1448.000000	96.980522 
1447.000000	96.987747 
1446.000000	96.986426 
1445.000000	96.979158 
1444.000000	96.973749 
1443.000000	96.969918 
1442.000000	96.964175 
1441.000000	96.956087 
1440.000000	96.947769 
1439.000000	96.938324 
1438.000000	96.931808 
1437.000000	96.937799 
1436.000000	96.950633 
1435.000000	96.951941 
1434.000000	96.939184 
1433.000000	96.924106 
1432.000000	96.915845 
1431.000000	96.913759 
1430.000000	96.912226 
1429.000000	96.909765 
1428.000000	96.905009 
1427.000000	96.896845 
1426.000000	96.884889 
1425.000000	96.875700 
1424.000000	96.876280 
1423.000000	96.877324 
1422.000000	96.866729 
1421.000000	96.846997 
1420.000000	96.832754 
1419.000000	96.826754 
1418.000000	96.815456 
1417.000000	96.795249 
1416.000000	96.772811 
1415.000000	96.750093 
1414.000000	96.724050 
1413.000000	96.696122 
1412.000000	96.673109 
1411.000000	96.656991 
1410.000000	96.644135 
1409.000000	96.632894 
1408.000000	96.624412 
1407.000000	96.622013 
1406.000000	96.627990 
1405.000000	96.644746 
1404.000000	96.672488 
1403.000000	96.701864 
1402.000000	96.724365 
1401.000000	96.743095 
1400.000000	96.768193 
1399.000000	96.798385 
1398.000000	96.815361 
1397.000000	96.804080 
1396.000000	96.770159 
1395.000000	96.739313 
1394.000000	96.736448 
1393.000000	96.767111 
1392.000000	96.818347 
1391.000000	96.869653 
1390.000000	96.906392 
1389.000000	96.926172 
1388.000000	96.935112 
1387.000000	96.938805 
1386.000000	96.938094 
1385.000000	96.935046 
1384.000000	96.936011 
1383.000000	96.944401 
1382.000000	96.957935 
1381.000000	96.972438 
1380.000000	96.987366 
1379.000000	97.005310 
1378.000000	97.026461 
1377.000000	97.048547 
1376.000000	97.071580 
1375.000000	97.098844 
1374.000000	97.130860 
1373.000000	97.163505 
1372.000000	97.193066 
1371.000000	97.219958 
1370.000000	97.245608 
1369.000000	97.270870 
1368.000000	97.296527 
1367.000000	97.320733 
1366.000000	97.340996 
1365.000000	97.358367 
1364.000000	97.378090 
1363.000000	97.403824 
1362.000000	97.431968 
1361.000000	97.455863 
1360.000000	97.474643 
1359.000000	97.492258 
1358.000000	97.510558 
1357.000000	97.528349 
1356.000000	97.545171 
1355.000000	97.561444 
1354.000000	97.576943 
1353.000000	97.591465 
1352.000000	97.604859 
1351.000000	97.618231 
1350.000000	97.631517 
1349.000000	97.643129 
1348.000000	97.653075 
1347.000000	97.662176 
1346.000000	97.671207 
1345.000000	97.679419 
1344.000000	97.685273 
1343.000000	97.687539 
1342.000000	97.687387 
1341.000000	97.689307 
1340.000000	97.698178 
1339.000000	97.712931 
1338.000000	97.726566 
1337.000000	97.734458 
1336.000000	97.737724 
1335.000000	97.738600 
1334.000000	97.737847 
1333.000000	97.736715 
1332.000000	97.737398 
1331.000000	97.740133 
1330.000000	97.742526 
1329.000000	97.743388 
1328.000000	97.744500 
1327.000000	97.747436 
1326.000000	97.750419 
1325.000000	97.750875 
1324.000000	97.748798 
1323.000000	97.744905 
1322.000000	97.739468 
1321.000000	97.734344 
1320.000000	97.733332 
1319.000000	97.737827 
1318.000000	97.744500 
1317.000000	97.749136 
1316.000000	97.750492 
1315.000000	97.749068 
1314.000000	97.745617 
1313.000000	97.742524 
1312.000000	97.743024 
1311.000000	97.746815 
1310.000000	97.749321 
1309.000000	97.747540 
1308.000000	97.743857 
1307.000000	97.742679 
1306.000000	97.744780 
1305.000000	97.747872 
1304.000000	97.750678 
1303.000000	97.752814 
1302.000000	97.753093 
1301.000000	97.750641 
1300.000000	97.747084 
1299.000000	97.745089 
1298.000000	97.745458 
1297.000000	97.746850 
1296.000000	97.747791 
1295.000000	97.747770 
1294.000000	97.747225 
1293.000000	97.747422 
1292.000000	97.749036 
1291.000000	97.750674 
1290.000000	97.750537 
1289.000000	97.749492 
1288.000000	97.750095 
1287.000000	97.752278 
1286.000000	97.752891 
1285.000000	97.750563 
1284.000000	97.747993 
1283.000000	97.747918 
1282.000000	97.748943 
1281.000000	97.747615 
1280.000000	97.743531 
1279.000000	97.739617 
1278.000000	97.738285 
1277.000000	97.739518 
1276.000000	97.741485 
1275.000000	97.741617 
1274.000000	97.738030 
1273.000000	97.731341 
1272.000000	97.724137 
1271.000000	97.717726 
1270.000000	97.710479 
1269.000000	97.700468 
1268.000000	97.688402 
1267.000000	97.676423 
1266.000000	97.665366 
1265.000000	97.655029 
1264.000000	97.646013 
1263.000000	97.639273 
1262.000000	97.634080 
1261.000000	97.628267 
1260.000000	97.621063 
1259.000000	97.614121 
1258.000000	97.609044 
1257.000000	97.605083 
1256.000000	97.599979 
1255.000000	97.592675 
1254.000000	97.584235 
1253.000000	97.575963 
1252.000000	97.567681 
1251.000000	97.559281 
1250.000000	97.553768 
1249.000000	97.556737 
1248.000000	97.571126 
1247.000000	97.592481 
1246.000000	97.610329 
1245.000000	97.614921 
1244.000000	97.603778 
1243.000000	97.585007 
1242.000000	97.574913 
1241.000000	97.587197 
1240.000000	97.619854 
1239.000000	97.653775 
1238.000000	97.669113 
1237.000000	97.662514 
1236.000000	97.645123 
1235.000000	97.626964 
1234.000000	97.609185 
1233.000000	97.590781 
1232.000000	97.574697 
1231.000000	97.563988 
1230.000000	97.557599 
1229.000000	97.553641 
1228.000000	97.552697 
1227.000000	97.554633 
1226.000000	97.555884 
1225.000000	97.553415 
1224.000000	97.548588 
1223.000000	97.544165 
1222.000000	97.540026 
1221.000000	97.534523 
1220.000000	97.527643 
1219.000000	97.520215 
1218.000000	97.512031 
1217.000000	97.502723 
1216.000000	97.492141 
1215.000000	97.478335 
1214.000000	97.458343 
1213.000000	97.433127 
1212.000000	97.408215 
1211.000000	97.386468 
1210.000000	97.363168 
1209.000000	97.331685 
1208.000000	97.291702 
1207.000000	97.248654 
1206.000000	97.206847 
1205.000000	97.166009 
1204.000000	97.123388 
1203.000000	97.076613 
1202.000000	97.025437 
1201.000000	96.972327 
1200.000000	96.920170 
1199.000000	96.868565 
1198.000000	96.814629 
1197.000000	96.758224 
1196.000000	96.703097 
1195.000000	96.651469 
1194.000000	96.600590 
1193.000000	96.546467 
1192.000000	96.488254 
1191.000000	96.427021 
1190.000000	96.363168 
1189.000000	96.297386 
1188.000000	96.231372 
1187.000000	96.165307 
1186.000000	96.097347 
1185.000000	96.027540 
1184.000000	95.958740 
1183.000000	95.891485 
1182.000000	95.822065 
1181.000000	95.748612 
1180.000000	95.674741 
1179.000000	95.603185 
1178.000000	95.530021 
1177.000000	95.450054 
1176.000000	95.364231 
1175.000000	95.276580 
1174.000000	95.187230 
1173.000000	95.094377 
1172.000000	95.000322 
1171.000000	94.908947 
1170.000000	94.819092 
1169.000000	94.727190 
1168.000000	94.635543 
1167.000000	94.551874 
1166.000000	94.481725 
1165.000000	94.427742 
1164.000000	94.395388 
1163.000000	94.391559 
1162.000000	94.415769 
1161.000000	94.457482 
1160.000000	94.502587 
1159.000000	94.538449 
1158.000000	94.554324 
1157.000000	94.543503 
1156.000000	94.506321 
1155.000000	94.447867 
1154.000000	94.373286 
1153.000000	94.288156 
1152.000000	94.200746 
1151.000000	94.117987 
1150.000000	94.039759 
1149.000000	93.962246 
1148.000000	93.885653 
1147.000000	93.812746 
1146.000000	93.741010 
1145.000000	93.663362 
1144.000000	93.577219 
1143.000000	93.487056 
1142.000000	93.397534 
1141.000000	93.309556 
1140.000000	93.223283 
1139.000000	93.139217 
1138.000000	93.055522 
1137.000000	92.969308 
1136.000000	92.880785 
1135.000000	92.791617 
1134.000000	92.699992 
1133.000000	92.602865 
1132.000000	92.502287 
1131.000000	92.403344 
1130.000000	92.306252 
1129.000000	92.206721 
1128.000000	92.103558 
1127.000000	91.999128 
1126.000000	91.892580 
1125.000000	91.779810 
1124.000000	91.660762 
1123.000000	91.540265 
1122.000000	91.421110 
1121.000000	91.302397 
1120.000000	91.184616 
1119.000000	91.069665 
1118.000000	90.956025 
1117.000000	90.840956 
1116.000000	90.727240 
1115.000000	90.620600 
1114.000000	90.520691 
1113.000000	90.421813 
1112.000000	90.321797 
1111.000000	90.222536 
1110.000000	90.122967 
1109.000000	90.020163 
1108.000000	89.916114 
1107.000000	89.815281 
1106.000000	89.716484 
1105.000000	89.615120 
1104.000000	89.512153 
1103.000000	89.412463 
1102.000000	89.315966 
1101.000000	89.218989 
1100.000000	89.123009 
1099.000000	89.032726 
1098.000000	88.947085 
1097.000000	88.861396 
1096.000000	88.775603 
1095.000000	88.690068 
1094.000000	88.595081 
1093.000000	88.477171 
1092.000000	88.336741 
1091.000000	88.189489 
1090.000000	88.049495 
1089.000000	87.919508 
1088.000000	87.796727 
1087.000000	87.676671 
1086.000000	87.551182 
1085.000000	87.414229 
1084.000000	87.271069 
1083.000000	87.132103 
1082.000000	86.998176 
1081.000000	86.862719 
1080.000000	86.727093 
1079.000000	86.600643 
1078.000000	86.485120 
1077.000000	86.372328 
1076.000000	86.258366 
1075.000000	86.147129 
1074.000000	86.038745 
1073.000000	85.927368 
1072.000000	85.809316 
1071.000000	85.677274 
1070.000000	85.507398 
1069.000000	85.274510 
1068.000000	84.988536 
1067.000000	84.701304 
1066.000000	84.465274 
1065.000000	84.292651 
1064.000000	84.158955 
1063.000000	84.028839 
1062.000000	83.869710 
1061.000000	83.658628 
1060.000000	83.395747 
1059.000000	83.109406 
1058.000000	82.836870 
1057.000000	82.597946 
1056.000000	82.387893 
1055.000000	82.187988 
1054.000000	81.979510 
1053.000000	81.756368 
1052.000000	81.529432 
1051.000000	81.312921 
1050.000000	81.105727 
1049.000000	80.894711 
1048.000000	80.674475 
1047.000000	80.451237 
1046.000000	80.229539 
1045.000000	80.009300 
1044.000000	79.794409 
1043.000000	79.590120 
1042.000000	79.391848 
1041.000000	79.189358 
1040.000000	78.982976 
1039.000000	78.784836 
1038.000000	78.605167 
1037.000000	78.447911 
1036.000000	78.315862 
1035.000000	78.206824 
1034.000000	78.108235 
1033.000000	78.008215 
1032.000000	77.905910 
1031.000000	77.798665 
1030.000000	77.672390 
1029.000000	77.526283 
1028.000000	77.395922 
1027.000000	77.323288 
1026.000000	77.306745 
1025.000000	77.304539 
1024.000000	77.285469 
1023.000000	77.250673 
1022.000000	77.207672 
1021.000000	77.154387 
1020.000000	77.093792 
1019.000000	77.037770 
1018.000000	76.988708 
1017.000000	76.937507 
1016.000000	76.883813 
1015.000000	76.838170 
1014.000000	76.801849 
1013.000000	76.765466 
1012.000000	76.729363 
1011.000000	76.703902 
1010.000000	76.688004 
1009.000000	76.669439 
1008.000000	76.648415 
1007.000000	76.638956 
1006.000000	76.645041 
1005.000000	76.657403 
1004.000000	76.675472 
1003.000000	76.709058 
1002.000000	76.755345 
1001.000000	76.797855 
1000.000000	76.833060 
999.000000	 76.875912 
998.000000	 76.933953 
997.000000	 76.997114 
996.000000	 77.058036 
995.000000	 77.122360 
994.000000	 77.193883 
993.000000	 77.268533 
992.000000	 77.347055 
991.000000	 77.435160 
990.000000	 77.528282 
989.000000	 77.615111 
988.000000	 77.698562 
987.000000	 77.793923 
986.000000	 77.904716 
985.000000	 78.020801 
984.000000	 78.141544 
983.000000	 78.278894 
982.000000	 78.435107 
981.000000	 78.598278 
980.000000	 78.763130 
979.000000	 78.936376 
978.000000	 79.118161 
977.000000	 79.299250 
976.000000	 79.480727 
975.000000	 79.675950 
974.000000	 79.888152 
973.000000	 80.105310 
972.000000	 80.321788 
971.000000	 80.546128 
970.000000	 80.782108 
969.000000	 81.019933 
968.000000	 81.251660 
967.000000	 81.479564 
966.000000	 81.705246 
965.000000	 81.926068 
964.000000	 82.145619 
963.000000	 82.372172 
962.000000	 82.603558 
961.000000	 82.828292 
960.000000	 83.043511 
959.000000	 83.256614 
958.000000	 83.468009 
957.000000	 83.668559 
956.000000	 83.856307 
955.000000	 84.039985 
954.000000	 84.223575 
953.000000	 84.402349 
952.000000	 84.575820 
951.000000	 84.748730 
950.000000	 84.917190 
949.000000	 85.069812 
948.000000	 85.205236 
947.000000	 85.333513 
946.000000	 85.457716 
945.000000	 85.569338 
944.000000	 85.665189 
943.000000	 85.754228 
942.000000	 85.844008 
941.000000	 85.933649 
940.000000	 86.023258 
939.000000	 86.116475 
938.000000	 86.210549 
937.000000	 86.297449 
936.000000	 86.378135 
935.000000	 86.463176 
934.000000	 86.556547 
933.000000	 86.651466 
932.000000	 86.744272 
931.000000	 86.839144 
930.000000	 86.936658 
929.000000	 87.030586 
928.000000	 87.119049 
927.000000	 87.207109 
926.000000	 87.295880 
925.000000	 87.379766 
924.000000	 87.455560 
923.000000	 87.523707 
922.000000	 87.581191 
921.000000	 87.625249 
920.000000	 87.663535 
919.000000	 87.707789 
918.000000	 87.757193 
917.000000	 87.800481 
916.000000	 87.834566 
915.000000	 87.868638 
914.000000	 87.910474 
913.000000	 87.962220 
912.000000	 88.029484 
911.000000	 88.120462 
910.000000	 88.235004 
909.000000	 88.367009 
908.000000	 88.516939 
907.000000	 88.688990 
906.000000	 88.877934 
905.000000	 89.073136 
904.000000	 89.273943 
903.000000	 89.486662 
902.000000	 89.708693 
901.000000	 89.930719 
900.000000	 90.152276 
899.000000	 90.379962 
898.000000	 90.612072 
897.000000	 90.839370 
896.000000	 91.058087 
895.000000	 91.267744 
894.000000	 91.460984 
893.000000	 91.632535 
892.000000	 91.795016 
891.000000	 91.968283 
890.000000	 92.153620 
889.000000	 92.333666 
888.000000	 92.495488 
887.000000	 92.637914 
886.000000	 92.760231 
885.000000	 92.862099 
884.000000	 92.952581 
883.000000	 93.040795 
882.000000	 93.119852 
881.000000	 93.180979 
880.000000	 93.241980 
879.000000	 93.336465 
878.000000	 93.470489 
877.000000	 93.613917 
876.000000	 93.741346 
875.000000	 93.859203 
874.000000	 93.985565 
873.000000	 94.126571 
872.000000	 94.282795 
871.000000	 94.457648 
870.000000	 94.646588 
869.000000	 94.833229 
868.000000	 95.006471 
867.000000	 95.169925 
866.000000	 95.328687 
865.000000	 95.479869 
864.000000	 95.622628 
863.000000	 95.765013 
862.000000	 95.912782 
861.000000	 96.060646 
860.000000	 96.200957 
859.000000	 96.333006 
858.000000	 96.459232 
857.000000	 96.579845 
856.000000	 96.694466 
855.000000	 96.801751 
854.000000	 96.895590 
853.000000	 96.969998 
852.000000	 97.029390 
851.000000	 97.086146 
850.000000	 97.147067 
849.000000	 97.210003 
848.000000	 97.272412 
847.000000	 97.332432 
846.000000	 97.382524 
845.000000	 97.414659 
844.000000	 97.432829 
843.000000	 97.448938 
842.000000	 97.465291 
841.000000	 97.472288 
840.000000	 97.463381 
839.000000	 97.439953 
838.000000	 97.401931 
837.000000	 97.348123 
836.000000	 97.288038 
835.000000	 97.238854 
834.000000	 97.205504 
833.000000	 97.176261 
832.000000	 97.142832 
831.000000	 97.112546 
830.000000	 97.095721 
829.000000	 97.093702 
828.000000	 97.106196 
827.000000	 97.138255 
826.000000	 97.191187 
825.000000	 97.255940 
824.000000	 97.322018 
823.000000	 97.383823 
822.000000	 97.435718 
821.000000	 97.473405 
820.000000	 97.502450 
819.000000	 97.532721 
818.000000	 97.561723 
817.000000	 97.573814 
816.000000	 97.557623 
815.000000	 97.515075 
814.000000	 97.452295 
813.000000	 97.370836 
812.000000	 97.268775 
811.000000	 97.139817 
810.000000	 96.968804 
809.000000	 96.738410 
808.000000	 96.444568 
807.000000	 96.099150 
806.000000	 95.717396 
805.000000	 95.311732 
804.000000	 94.898252 
803.000000	 94.497194 
802.000000	 94.124343 
801.000000	 93.793143 
800.000000	 93.525293 
799.000000	 93.343346 
798.000000	 93.249224 
797.000000	 93.223849 
796.000000	 93.249173 
795.000000	 93.315324 
794.000000	 93.407016 
793.000000	 93.503249 
792.000000	 93.594356 
791.000000	 93.682766 
790.000000	 93.764440 
789.000000	 93.825337 
788.000000	 93.857296 
787.000000	 93.860685 
786.000000	 93.830164 
785.000000	 93.754992 
784.000000	 93.636159 
783.000000	 93.488221 
782.000000	 93.324270 
781.000000	 93.156957 
780.000000	 93.013977 
779.000000	 92.929406 
778.000000	 92.913587 
777.000000	 92.950170 
776.000000	 93.025948 
775.000000	 93.141915 
774.000000	 93.289980 
773.000000	 93.443211 
772.000000	 93.580665 
771.000000	 93.704421 
770.000000	 93.823484 
769.000000	 93.937620 
768.000000	 94.043864 
767.000000	 94.141040 
766.000000	 94.219999 
765.000000	 94.266873 
764.000000	 94.285057 
763.000000	 94.298638 
762.000000	 94.325794 
761.000000	 94.363650 
760.000000	 94.406199 
759.000000	 94.459275 
758.000000	 94.527596 
757.000000	 94.602972 
756.000000	 94.676593 
755.000000	 94.749875 
754.000000	 94.823395 
753.000000	 94.887806 
752.000000	 94.936086 
751.000000	 94.975608 
750.000000	 95.021043 
749.000000	 95.083415 
748.000000	 95.168518 
747.000000	 95.273075 
746.000000	 95.378012 
745.000000	 95.460188 
744.000000	 95.518222 
743.000000	 95.575450 
742.000000	 95.653048 
741.000000	 95.752954 
740.000000	 95.869499 
739.000000	 96.000169 
738.000000	 96.137418 
737.000000	 96.264368 
736.000000	 96.367965 
735.000000	 96.446959 
734.000000	 96.503636 
733.000000	 96.540942 
732.000000	 96.571349 
731.000000	 96.612350 
730.000000	 96.666903 
729.000000	 96.723155 
728.000000	 96.772956 
727.000000	 96.816295 
726.000000	 96.851004 
725.000000	 96.873111 
724.000000	 96.890119 
723.000000	 96.919400 
722.000000	 96.968746 
721.000000	 97.030761 
720.000000	 97.098200 
719.000000	 97.170579 
718.000000	 97.241674 
717.000000	 97.296175 
716.000000	 97.326128 
715.000000	 97.336814 
714.000000	 97.333432 
713.000000	 97.319536 
712.000000	 97.311452 
711.000000	 97.333184 
710.000000	 97.387705 
709.000000	 97.453846 
708.000000	 97.507020 
707.000000	 97.534777 
706.000000	 97.533053 
705.000000	 97.498931 
704.000000	 97.435701 
703.000000	 97.357246 
702.000000	 97.274518 
701.000000	 97.185084 
700.000000	 97.082901 
699.000000	 96.964250 
698.000000	 96.826331 
697.000000	 96.672213 
696.000000	 96.520505 
695.000000	 96.404566 
694.000000	 96.349365 
693.000000	 96.357321 
692.000000	 96.419054 
691.000000	 96.519872 
690.000000	 96.638652 
689.000000	 96.751973 
688.000000	 96.844598 
687.000000	 96.912887 
686.000000	 96.954096 
685.000000	 96.967385 
684.000000	 96.967154 
683.000000	 96.975560 
682.000000	 97.001635 
681.000000	 97.039488 
680.000000	 97.085584 
679.000000	 97.139379 
678.000000	 97.190898 
677.000000	 97.228210 
676.000000	 97.249988 
675.000000	 97.265090 
674.000000	 97.278922 
673.000000	 97.282566 
672.000000	 97.264756 
671.000000	 97.217101 
670.000000	 97.141926 
669.000000	 97.059812 
668.000000	 97.052475 
667.000000	 97.172716 
666.000000	 97.326930 
665.000000	 97.419860 
664.000000	 97.462940 
663.000000	 97.486557 
662.000000	 97.511970 
661.000000	 97.547441 
660.000000	 97.593949 
659.000000	 97.649328 
658.000000	 97.704076 
657.000000	 97.745684 
656.000000	 97.763171 
655.000000	 97.753765 
654.000000	 97.727464 
653.000000	 97.702078 
652.000000	 97.693557 
651.000000	 97.710241 
650.000000	 97.748896 

