4000.000000	98.173374 
3999.000000	98.172098 
3998.000000	98.170468 
3997.000000	98.168606 
3996.000000	98.166099 
3995.000000	98.163178 
3994.000000	98.160996 
3993.000000	98.160294 
3992.000000	98.160596 
3991.000000	98.160552 
3990.000000	98.159403 
3989.000000	98.157604 
3988.000000	98.156069 
3987.000000	98.155343 
3986.000000	98.155484 
3985.000000	98.156282 
3984.000000	98.157250 
3983.000000	98.157709 
3982.000000	98.157294 
3981.000000	98.156266 
3980.000000	98.155260 
3979.000000	98.154577 
3978.000000	98.153872 
3977.000000	98.152664 
3976.000000	98.150937 
3975.000000	98.149166 
3974.000000	98.147890 
3973.000000	98.147317 
3972.000000	98.147198 
3971.000000	98.146965 
3970.000000	98.146167 
3969.000000	98.144903 
3968.000000	98.143736 
3967.000000	98.143239 
3966.000000	98.143568 
3965.000000	98.144357 
3964.000000	98.144882 
3963.000000	98.144603 
3962.000000	98.143619 
3961.000000	98.142547 
3960.000000	98.141802 
3959.000000	98.141221 
3958.000000	98.140523 
3957.000000	98.139880 
3956.000000	98.139665 
3955.000000	98.139894 
3954.000000	98.140165 
3953.000000	98.140101 
3952.000000	98.139710 
3951.000000	98.139301 
3950.000000	98.139132 
3949.000000	98.139109 
3948.000000	98.139006 
3947.000000	98.138884 
3946.000000	98.138990 
3945.000000	98.139238 
3944.000000	98.139165 
3943.000000	98.138597 
3942.000000	98.137981 
3941.000000	98.137778 
3940.000000	98.137845 
3939.000000	98.137732 
3938.000000	98.137470 
3937.000000	98.137764 
3936.000000	98.139048 
3935.000000	98.140893 
3934.000000	98.142399 
3933.000000	98.143155 
3932.000000	98.143354 
3931.000000	98.143172 
3930.000000	98.142647 
3929.000000	98.142139 
3928.000000	98.142175 
3927.000000	98.142723 
3926.000000	98.143179 
3925.000000	98.143303 
3924.000000	98.143426 
3923.000000	98.143752 
3922.000000	98.144107 
3921.000000	98.144376 
3920.000000	98.144646 
3919.000000	98.144940 
3918.000000	98.145131 
3917.000000	98.145153 
3916.000000	98.145107 
3915.000000	98.145129 
3914.000000	98.145249 
3913.000000	98.145439 
3912.000000	98.145646 
3911.000000	98.145872 
3910.000000	98.146128 
3909.000000	98.146436 
3908.000000	98.146793 
3907.000000	98.147163 
3906.000000	98.147502 
3905.000000	98.147781 
3904.000000	98.148006 
3903.000000	98.148196 
3902.000000	98.148364 
3901.000000	98.148501 
3900.000000	98.148590 
3899.000000	98.148636 
3898.000000	98.148665 
3897.000000	98.148712 
3896.000000	98.148795 
3895.000000	98.148923 
3894.000000	98.149101 
3893.000000	98.149323 
3892.000000	98.149572 
3891.000000	98.149835 
3890.000000	98.150120 
3889.000000	98.150432 
3888.000000	98.150757 
3887.000000	98.151068 
3886.000000	98.151358 
3885.000000	98.151646 
3884.000000	98.151947 
3883.000000	98.152250 
3882.000000	98.152532 
3881.000000	98.152793 
3880.000000	98.153061 
3879.000000	98.153369 
3878.000000	98.153731 
3877.000000	98.154147 
3876.000000	98.154618 
3875.000000	98.155155 
3874.000000	98.155755 
3873.000000	98.156384 
3872.000000	98.156969 
3871.000000	98.157452 
3870.000000	98.157844 
3869.000000	98.158214 
3868.000000	98.158603 
3867.000000	98.158998 
3866.000000	98.159372 
3865.000000	98.159748 
3864.000000	98.160171 
3863.000000	98.160660 
3862.000000	98.161205 
3861.000000	98.161803 
3860.000000	98.162470 
3859.000000	98.163222 
3858.000000	98.164057 
3857.000000	98.164965 
3856.000000	98.165911 
3855.000000	98.166830 
3854.000000	98.167649 
3853.000000	98.168330 
3852.000000	98.168856 
3851.000000	98.169241 
3850.000000	98.169523 
3849.000000	98.169752 
3848.000000	98.169975 
3847.000000	98.170225 
3846.000000	98.170516 
3845.000000	98.170837 
3844.000000	98.171165 
3843.000000	98.171475 
3842.000000	98.171760 
3841.000000	98.172026 
3840.000000	98.172248 
3839.000000	98.172389 
3838.000000	98.172430 
3837.000000	98.172390 
3836.000000	98.172309 
3835.000000	98.172226 
3834.000000	98.172151 
3833.000000	98.172071 
3832.000000	98.171982 
3831.000000	98.171898 
3830.000000	98.171837 
3829.000000	98.171812 
3828.000000	98.171814 
3827.000000	98.171811 
3826.000000	98.171768 
3825.000000	98.171679 
3824.000000	98.171546 
3823.000000	98.171349 
3822.000000	98.171058 
3821.000000	98.170675 
3820.000000	98.170230 
3819.000000	98.169729 
3818.000000	98.169126 
3817.000000	98.168362 
3816.000000	98.167429 
3815.000000	98.166374 
3814.000000	98.165236 
3813.000000	98.164044 
3812.000000	98.162839 
3811.000000	98.161688 
3810.000000	98.160647 
3809.000000	98.159721 
3808.000000	98.158857 
3807.000000	98.158001 
3806.000000	98.157123 
3805.000000	98.156216 
3804.000000	98.155265 
3803.000000	98.154250 
3802.000000	98.153183 
3801.000000	98.152113 
3800.000000	98.151064 
3799.000000	98.150010 
3798.000000	98.148928 
3797.000000	98.147834 
3796.000000	98.146773 
3795.000000	98.145771 
3794.000000	98.144820 
3793.000000	98.143912 
3792.000000	98.143056 
3791.000000	98.142263 
3790.000000	98.141541 
3789.000000	98.140897 
3788.000000	98.140332 
3787.000000	98.139824 
3786.000000	98.139349 
3785.000000	98.138908 
3784.000000	98.138518 
3783.000000	98.138183 
3782.000000	98.137882 
3781.000000	98.137603 
3780.000000	98.137359 
3779.000000	98.137179 
3778.000000	98.137098 
3777.000000	98.137081 
3776.000000	98.136961 
3775.000000	98.136597 
3774.000000	98.136167 
3773.000000	98.136088 
3772.000000	98.136391 
3771.000000	98.136534 
3770.000000	98.136415 
3769.000000	98.136809 
3768.000000	98.138090 
3767.000000	98.139299 
3766.000000	98.139209 
3765.000000	98.138180 
3764.000000	98.138034 
3763.000000	98.139407 
3762.000000	98.140357 
3761.000000	98.138709 
3760.000000	98.135279 
3759.000000	98.132740 
3758.000000	98.131376 
3757.000000	98.130064 
3756.000000	98.129070 
3755.000000	98.129192 
3754.000000	98.130162 
3753.000000	98.132748 
3752.000000	98.140339 
3751.000000	98.152791 
3750.000000	98.162415 
3749.000000	98.164919 
3748.000000	98.165788 
3747.000000	98.169447 
3746.000000	98.168051 
3745.000000	98.155346 
3744.000000	98.143294 
3743.000000	98.142161 
3742.000000	98.144521 
3741.000000	98.140809 
3740.000000	98.132016 
3739.000000	98.127361 
3738.000000	98.129588 
3737.000000	98.130262 
3736.000000	98.124318 
3735.000000	98.118994 
3734.000000	98.120708 
3733.000000	98.123801 
3732.000000	98.121318 
3731.000000	98.114982 
3730.000000	98.110142 
3729.000000	98.107138 
3728.000000	98.101122 
3727.000000	98.090957 
3726.000000	98.082666 
3725.000000	98.079622 
3724.000000	98.078767 
3723.000000	98.078073 
3722.000000	98.078921 
3721.000000	98.079859 
3720.000000	98.075544 
3719.000000	98.062863 
3718.000000	98.043625 
3717.000000	98.023787 
3716.000000	98.007864 
3715.000000	97.995350 
3714.000000	97.985416 
3713.000000	97.982381 
3712.000000	97.990399 
3711.000000	98.001388 
3710.000000	97.999928 
3709.000000	97.980735 
3708.000000	97.950815 
3707.000000	97.920895 
3706.000000	97.897701 
3705.000000	97.880044 
3704.000000	97.860657 
3703.000000	97.833082 
3702.000000	97.799138 
3701.000000	97.768157 
3700.000000	97.747866 
3699.000000	97.736548 
3698.000000	97.725291 
3697.000000	97.709080 
3696.000000	97.693021 
3695.000000	97.682949 
3694.000000	97.676887 
3693.000000	97.670011 
3692.000000	97.661720 
3691.000000	97.653980 
3690.000000	97.646101 
3689.000000	97.636864 
3688.000000	97.626577 
3687.000000	97.614772 
3686.000000	97.598801 
3685.000000	97.576819 
3684.000000	97.553146 
3683.000000	97.536975 
3682.000000	97.531233 
3681.000000	97.527353 
3680.000000	97.517483 
3679.000000	97.504528 
3678.000000	97.492980 
3677.000000	97.475737 
3676.000000	97.449048 
3675.000000	97.425884 
3674.000000	97.415524 
3673.000000	97.411898 
3672.000000	97.401723 
3671.000000	97.378465 
3670.000000	97.351804 
3669.000000	97.332117 
3668.000000	97.314543 
3667.000000	97.291789 
3666.000000	97.265263 
3665.000000	97.241357 
3664.000000	97.223921 
3663.000000	97.210574 
3662.000000	97.195024 
3661.000000	97.174648 
3660.000000	97.154133 
3659.000000	97.139248 
3658.000000	97.128933 
3657.000000	97.116476 
3656.000000	97.101573 
3655.000000	97.090708 
3654.000000	97.087227 
3653.000000	97.086567 
3652.000000	97.080081 
3651.000000	97.067348 
3650.000000	97.059849 
3649.000000	97.060290 
3648.000000	97.056275 
3647.000000	97.042948 
3646.000000	97.028052 
3645.000000	97.017025 
3644.000000	97.006739 
3643.000000	96.992375 
3642.000000	96.974330 
3641.000000	96.957748 
3640.000000	96.945296 
3639.000000	96.936089 
3638.000000	96.930777 
3637.000000	96.930179 
3636.000000	96.929331 
3635.000000	96.919746 
3634.000000	96.903618 
3633.000000	96.895261 
3632.000000	96.903448 
3631.000000	96.913302 
3630.000000	96.896579 
3629.000000	96.853317 
3628.000000	96.810115 
3627.000000	96.781558 
3626.000000	96.767950 
3625.000000	96.766126 
3624.000000	96.771424 
3623.000000	96.778494 
3622.000000	96.781412 
3621.000000	96.778840 
3620.000000	96.779385 
3619.000000	96.793092 
3618.000000	96.818579 
3617.000000	96.849745 
3616.000000	96.884621 
3615.000000	96.920096 
3614.000000	96.952067 
3613.000000	96.980643 
3612.000000	97.007174 
3611.000000	97.027689 
3610.000000	97.034900 
3609.000000	97.027332 
3608.000000	97.013161 
3607.000000	97.002189 
3606.000000	96.998750 
3605.000000	97.005308 
3604.000000	97.024338 
3603.000000	97.054273 
3602.000000	97.086380 
3601.000000	97.110341 
3600.000000	97.123915 
3599.000000	97.131591 
3598.000000	97.138966 
3597.000000	97.150204 
3596.000000	97.165409 
3595.000000	97.178267 
3594.000000	97.182502 
3593.000000	97.178333 
3592.000000	97.172468 
3591.000000	97.170612 
3590.000000	97.170287 
3589.000000	97.165317 
3588.000000	97.157968 
3587.000000	97.158072 
3586.000000	97.168417 
3585.000000	97.182973 
3584.000000	97.196391 
3583.000000	97.206818 
3582.000000	97.213023 
3581.000000	97.213307 
3580.000000	97.208818 
3579.000000	97.204315 
3578.000000	97.204357 
3577.000000	97.208879 
3576.000000	97.213236 
3575.000000	97.212160 
3574.000000	97.203901 
3573.000000	97.191912 
3572.000000	97.182995 
3571.000000	97.183669 
3570.000000	97.194786 
3569.000000	97.209544 
3568.000000	97.219832 
3567.000000	97.223490 
3566.000000	97.221579 
3565.000000	97.214330 
3564.000000	97.202547 
3563.000000	97.188534 
3562.000000	97.174860 
3561.000000	97.163216 
3560.000000	97.154422 
3559.000000	97.148792 
3558.000000	97.145507 
3557.000000	97.143020 
3556.000000	97.140721 
3555.000000	97.139468 
3554.000000	97.139827 
3553.000000	97.141248 
3552.000000	97.143114 
3551.000000	97.145300 
3550.000000	97.147230 
3549.000000	97.147452 
3548.000000	97.145196 
3547.000000	97.141431 
3546.000000	97.137443 
3545.000000	97.133279 
3544.000000	97.128553 
3543.000000	97.123736 
3542.000000	97.119706 
3541.000000	97.117007 
3540.000000	97.115791 
3539.000000	97.116002 
3538.000000	97.117338 
3537.000000	97.119548 
3536.000000	97.122354 
3535.000000	97.124720 
3534.000000	97.125364 
3533.000000	97.124413 
3532.000000	97.124090 
3531.000000	97.126391 
3530.000000	97.130191 
3529.000000	97.131790 
3528.000000	97.128960 
3527.000000	97.123388 
3526.000000	97.118548 
3525.000000	97.116336 
3524.000000	97.116365 
3523.000000	97.117273 
3522.000000	97.117792 
3521.000000	97.117250 
3520.000000	97.115829 
3519.000000	97.114433 
3518.000000	97.114060 
3517.000000	97.114898 
3516.000000	97.116118 
3515.000000	97.116730 
3514.000000	97.116489 
3513.000000	97.115378 
3512.000000	97.112601 
3511.000000	97.107084 
3510.000000	97.099141 
3509.000000	97.091185 
3508.000000	97.086212 
3507.000000	97.085568 
3506.000000	97.088271 
3505.000000	97.091642 
3504.000000	97.092712 
3503.000000	97.089752 
3502.000000	97.083250 
3501.000000	97.075956 
3500.000000	97.070944 
3499.000000	97.069012 
3498.000000	97.068495 
3497.000000	97.067833 
3496.000000	97.067733 
3495.000000	97.069882 
3494.000000	97.074131 
3493.000000	97.077865 
3492.000000	97.078350 
3491.000000	97.075211 
3490.000000	97.070656 
3489.000000	97.067513 
3488.000000	97.066852 
3487.000000	97.067321 
3486.000000	97.066805 
3485.000000	97.064863 
3484.000000	97.062992 
3483.000000	97.062129 
3482.000000	97.060781 
3481.000000	97.056857 
3480.000000	97.050972 
3479.000000	97.046364 
3478.000000	97.044957 
3477.000000	97.044666 
3476.000000	97.041503 
3475.000000	97.033773 
3474.000000	97.023408 
3473.000000	97.013869 
3472.000000	97.007239 
3471.000000	97.003422 
3470.000000	97.001180 
3469.000000	96.999263 
3468.000000	96.997112 
3467.000000	96.995241 
3466.000000	96.994714 
3465.000000	96.995688 
3464.000000	96.996444 
3463.000000	96.994547 
3462.000000	96.989138 
3461.000000	96.981714 
3460.000000	96.974631 
3459.000000	96.968805 
3458.000000	96.963358 
3457.000000	96.957288 
3456.000000	96.950943 
3455.000000	96.945791 
3454.000000	96.942980 
3453.000000	96.942286 
3452.000000	96.942516 
3451.000000	96.942409 
3450.000000	96.941060 
3449.000000	96.937926 
3448.000000	96.933204 
3447.000000	96.928190 
3446.000000	96.924379 
3445.000000	96.922038 
3444.000000	96.919998 
3443.000000	96.916947 
3442.000000	96.912750 
3441.000000	96.908469 
3440.000000	96.905149 
3439.000000	96.902670 
3438.000000	96.899774 
3437.000000	96.895235 
3436.000000	96.889297 
3435.000000	96.883974 
3434.000000	96.881539 
3433.000000	96.882532 
3432.000000	96.885092 
3431.000000	96.886375 
3430.000000	96.884919 
3429.000000	96.881511 
3428.000000	96.877798 
3427.000000	96.874245 
3426.000000	96.870157 
3425.000000	96.865610 
3424.000000	96.862063 
3423.000000	96.860413 
3422.000000	96.859351 
3421.000000	96.856800 
3420.000000	96.852463 
3419.000000	96.847747 
3418.000000	96.843538 
3417.000000	96.839260 
3416.000000	96.833980 
3415.000000	96.827290 
3414.000000	96.819398 
3413.000000	96.811552 
3412.000000	96.806150 
3411.000000	96.805004 
3410.000000	96.807476 
3409.000000	96.811444 
3408.000000	96.815800 
3407.000000	96.820470 
3406.000000	96.824279 
3405.000000	96.824886 
3404.000000	96.821217 
3403.000000	96.814597 
3402.000000	96.807341 
3401.000000	96.801494 
3400.000000	96.799030 
3399.000000	96.801136 
3398.000000	96.806223 
3397.000000	96.810040 
3396.000000	96.809431 
3395.000000	96.805483 
3394.000000	96.801854 
3393.000000	96.800570 
3392.000000	96.800556 
3391.000000	96.799929 
3390.000000	96.798721 
3389.000000	96.799157 
3388.000000	96.803780 
3387.000000	96.813218 
3386.000000	96.825071 
3385.000000	96.835073 
3384.000000	96.840350 
3383.000000	96.841645 
3382.000000	96.842183 
3381.000000	96.844331 
3380.000000	96.847559 
3379.000000	96.849681 
3378.000000	96.849508 
3377.000000	96.847872 
3376.000000	96.846590 
3375.000000	96.847086 
3374.000000	96.849899 
3373.000000	96.854781 
3372.000000	96.860754 
3371.000000	96.866402 
3370.000000	96.870603 
3369.000000	96.872994 
3368.000000	96.873915 
3367.000000	96.874246 
3366.000000	96.875284 
3365.000000	96.878164 
3364.000000	96.882916 
3363.000000	96.888106 
3362.000000	96.891911 
3361.000000	96.893839 
3360.000000	96.894999 
3359.000000	96.896754 
3358.000000	96.899378 
3357.000000	96.902272 
3356.000000	96.905031 
3355.000000	96.907848 
3354.000000	96.910996 
3353.000000	96.914358 
3352.000000	96.917625 
3351.000000	96.920717 
3350.000000	96.923770 
3349.000000	96.926854 
3348.000000	96.929862 
3347.000000	96.932677 
3346.000000	96.935349 
3345.000000	96.938006 
3344.000000	96.940624 
3343.000000	96.942979 
3342.000000	96.944921 
3341.000000	96.946607 
3340.000000	96.948312 
3339.000000	96.950149 
3338.000000	96.952223 
3337.000000	96.954859 
3336.000000	96.958343 
3335.000000	96.962345 
3334.000000	96.965836 
3333.000000	96.967901 
3332.000000	96.968604 
3331.000000	96.969140 
3330.000000	96.970966 
3329.000000	96.974709 
3328.000000	96.979806 
3327.000000	96.984946 
3326.000000	96.989134 
3325.000000	96.992413 
3324.000000	96.995520 
3323.000000	96.998831 
3322.000000	97.001828 
3321.000000	97.003740 
3320.000000	97.004455 
3319.000000	97.004612 
3318.000000	97.004966 
3317.000000	97.005908 
3316.000000	97.007580 
3315.000000	97.010109 
3314.000000	97.013593 
3313.000000	97.018018 
3312.000000	97.023267 
3311.000000	97.029080 
3310.000000	97.034890 
3309.000000	97.039865 
3308.000000	97.043305 
3307.000000	97.044959 
3306.000000	97.044949 
3305.000000	97.043635 
3304.000000	97.041746 
3303.000000	97.040556 
3302.000000	97.041447 
3301.000000	97.044934 
3300.000000	97.050168 
3299.000000	97.055307 
3298.000000	97.058915 
3297.000000	97.060894 
3296.000000	97.062038 
3295.000000	97.063115 
3294.000000	97.064392 
3293.000000	97.066070 
3292.000000	97.068607 
3291.000000	97.072197 
3290.000000	97.076258 
3289.000000	97.079826 
3288.000000	97.082533 
3287.000000	97.084850 
3286.000000	97.087287 
3285.000000	97.089686 
3284.000000	97.091547 
3283.000000	97.092864 
3282.000000	97.094225 
3281.000000	97.096131 
3280.000000	97.098565 
3279.000000	97.101270 
3278.000000	97.104194 
3277.000000	97.107413 
3276.000000	97.110711 
3275.000000	97.113487 
3274.000000	97.115214 
3273.000000	97.115964 
3272.000000	97.116460 
3271.000000	97.117551 
3270.000000	97.119532 
3269.000000	97.121944 
3268.000000	97.124072 
3267.000000	97.125637 
3266.000000	97.126989 
3265.000000	97.128750 
3264.000000	97.131374 
3263.000000	97.134983 
3262.000000	97.139331 
3261.000000	97.143809 
3260.000000	97.147705 
3259.000000	97.150755 
3258.000000	97.153460 
3257.000000	97.156670 
3256.000000	97.160684 
3255.000000	97.164782 
3254.000000	97.167804 
3253.000000	97.169279 
3252.000000	97.169733 
3251.000000	97.170280 
3250.000000	97.171783 
3249.000000	97.174302 
3248.000000	97.177283 
3247.000000	97.180115 
3246.000000	97.182730 
3245.000000	97.185530 
3244.000000	97.188762 
3243.000000	97.192192 
3242.000000	97.195352 
3241.000000	97.198012 
3240.000000	97.200313 
3239.000000	97.202632 
3238.000000	97.205293 
3237.000000	97.208344 
3236.000000	97.211565 
3235.000000	97.214647 
3234.000000	97.217438 
3233.000000	97.220007 
3232.000000	97.222524 
3231.000000	97.225099 
3230.000000	97.227761 
3229.000000	97.230555 
3228.000000	97.233595 
3227.000000	97.237001 
3226.000000	97.240756 
3225.000000	97.244566 
3224.000000	97.247983 
3223.000000	97.250713 
3222.000000	97.252850 
3221.000000	97.254825 
3220.000000	97.257111 
3219.000000	97.259952 
3218.000000	97.263186 
3217.000000	97.266344 
3216.000000	97.269113 
3215.000000	97.271741 
3214.000000	97.274854 
3213.000000	97.278775 
3212.000000	97.283076 
3211.000000	97.286877 
3210.000000	97.289573 
3209.000000	97.291218 
3208.000000	97.292302 
3207.000000	97.293436 
3206.000000	97.295127 
3205.000000	97.297470 
3204.000000	97.300115 
3203.000000	97.302714 
3202.000000	97.305362 
3201.000000	97.308271 
3200.000000	97.311247 
3199.000000	97.314188 
3198.000000	97.317796 
3197.000000	97.322728 
3196.000000	97.328055 
3195.000000	97.331723 
3194.000000	97.333083 
3193.000000	97.334117 
3192.000000	97.337397 
3191.000000	97.343436 
3190.000000	97.350738 
3189.000000	97.357852 
3188.000000	97.364581 
3187.000000	97.371177 
3186.000000	97.377150 
3185.000000	97.381149 
3184.000000	97.381921 
3183.000000	97.379564 
3182.000000	97.376290 
3181.000000	97.375338 
3180.000000	97.378343 
3179.000000	97.384175 
3178.000000	97.390320 
3177.000000	97.395315 
3176.000000	97.399147 
3175.000000	97.401898 
3174.000000	97.403404 
3173.000000	97.404333 
3172.000000	97.406137 
3171.000000	97.409326 
3170.000000	97.413032 
3169.000000	97.416322 
3168.000000	97.419644 
3167.000000	97.424184 
3166.000000	97.429860 
3165.000000	97.434785 
3164.000000	97.437051 
3163.000000	97.436804 
3162.000000	97.436581 
3161.000000	97.439024 
3160.000000	97.444466 
3159.000000	97.450754 
3158.000000	97.455891 
3157.000000	97.460058 
3156.000000	97.464370 
3155.000000	97.468666 
3154.000000	97.471756 
3153.000000	97.473606 
3152.000000	97.475795 
3151.000000	97.479406 
3150.000000	97.483645 
3149.000000	97.487221 
3148.000000	97.490198 
3147.000000	97.493699 
3146.000000	97.498236 
3145.000000	97.502917 
3144.000000	97.506097 
3143.000000	97.506745 
3142.000000	97.505678 
3141.000000	97.505463 
3140.000000	97.508074 
3139.000000	97.512294 
3138.000000	97.514408 
3137.000000	97.512051 
3136.000000	97.506782 
3135.000000	97.502714 
3134.000000	97.503120 
3133.000000	97.508330 
3132.000000	97.515429 
3131.000000	97.519464 
3130.000000	97.516993 
3129.000000	97.510172 
3128.000000	97.506636 
3127.000000	97.512578 
3126.000000	97.527240 
3125.000000	97.544773 
3124.000000	97.560858 
3123.000000	97.575308 
3122.000000	97.587587 
3121.000000	97.593960 
3120.000000	97.591602 
3119.000000	97.583383 
3118.000000	97.576883 
3117.000000	97.577248 
3116.000000	97.583162 
3115.000000	97.589837 
3114.000000	97.594280 
3113.000000	97.597157 
3112.000000	97.600223 
3111.000000	97.603839 
3110.000000	97.607408 
3109.000000	97.610929 
3108.000000	97.615028 
3107.000000	97.619715 
3106.000000	97.624021 
3105.000000	97.627079 
3104.000000	97.629051 
3103.000000	97.630684 
3102.000000	97.632338 
3101.000000	97.633913 
3100.000000	97.635540 
3099.000000	97.637837 
3098.000000	97.641364 
3097.000000	97.645953 
3096.000000	97.650632 
3095.000000	97.654246 
3094.000000	97.656385 
3093.000000	97.657862 
3092.000000	97.660100 
3091.000000	97.663913 
3090.000000	97.668848 
3089.000000	97.673582 
3088.000000	97.676790 
3087.000000	97.677920 
3086.000000	97.677674 
3085.000000	97.677703 
3084.000000	97.679552 
3083.000000	97.682891 
3082.000000	97.684896 
3081.000000	97.682587 
3080.000000	97.676006 
3079.000000	97.668451 
3078.000000	97.663635 
3077.000000	97.663146 
3076.000000	97.666026 
3075.000000	97.669625 
3074.000000	97.670606 
3073.000000	97.667787 
3072.000000	97.664792 
3071.000000	97.667549 
3070.000000	97.678497 
3069.000000	97.694491 
3068.000000	97.709906 
3067.000000	97.719824 
3066.000000	97.720642 
3065.000000	97.711285 
3064.000000	97.695231 
3063.000000	97.678644 
3062.000000	97.665266 
3061.000000	97.655665 
3060.000000	97.651988 
3059.000000	97.659198 
3058.000000	97.678577 
3057.000000	97.702432 
3056.000000	97.719127 
3055.000000	97.723136 
3054.000000	97.717529 
3053.000000	97.708358 
3052.000000	97.700027 
3051.000000	97.695238 
3050.000000	97.695454 
3049.000000	97.699490 
3048.000000	97.703042 
3047.000000	97.701087 
3046.000000	97.690933 
3045.000000	97.673847 
3044.000000	97.655041 
3043.000000	97.641373 
3042.000000	97.636959 
3041.000000	97.640032 
3040.000000	97.644453 
3039.000000	97.644397 
3038.000000	97.637174 
3037.000000	97.622819 
3036.000000	97.602945 
3035.000000	97.580312 
3034.000000	97.558284 
3033.000000	97.539537 
3032.000000	97.525026 
3031.000000	97.513684 
3030.000000	97.502078 
3029.000000	97.484707 
3028.000000	97.456510 
3027.000000	97.416650 
3026.000000	97.370009 
3025.000000	97.324674 
3024.000000	97.287879 
3023.000000	97.263259 
3022.000000	97.249876 
3021.000000	97.243010 
3020.000000	97.236596 
3019.000000	97.225325 
3018.000000	97.204530 
3017.000000	97.170387 
3016.000000	97.123806 
3015.000000	97.074194 
3014.000000	97.034979 
3013.000000	97.012216 
3012.000000	96.999343 
3011.000000	96.985273 
3010.000000	96.965368 
3009.000000	96.941174 
3008.000000	96.912185 
3007.000000	96.874402 
3006.000000	96.828067 
3005.000000	96.781110 
3004.000000	96.741298 
3003.000000	96.708600 
3002.000000	96.679111 
3001.000000	96.653141 
3000.000000	96.633679 
2999.000000	96.617683 
2998.000000	96.595493 
2997.000000	96.561482 
2996.000000	96.521399 
2995.000000	96.485654 
2994.000000	96.456433 
2993.000000	96.424040 
2992.000000	96.376161 
2991.000000	96.310637 
2990.000000	96.240711 
2989.000000	96.188135 
2988.000000	96.168911 
2987.000000	96.183073 
2986.000000	96.215924 
2985.000000	96.249211 
2984.000000	96.272142 
2983.000000	96.283059 
2982.000000	96.284135 
2981.000000	96.277585 
2980.000000	96.266194 
2979.000000	96.254405 
2978.000000	96.246892 
2977.000000	96.245748 
2976.000000	96.248978 
2975.000000	96.251545 
2974.000000	96.248568 
2973.000000	96.238705 
2972.000000	96.225299 
2971.000000	96.214487 
2970.000000	96.211979 
2969.000000	96.220780 
2968.000000	96.240667 
2967.000000	96.268930 
2966.000000	96.301560 
2965.000000	96.333940 
2964.000000	96.361346 
2963.000000	96.380836 
2962.000000	96.393952 
2961.000000	96.406416 
2960.000000	96.423488 
2959.000000	96.446053 
2958.000000	96.472478 
2957.000000	96.502540 
2956.000000	96.536346 
2955.000000	96.569865 
2954.000000	96.595822 
2953.000000	96.611143 
2952.000000	96.621017 
2951.000000	96.633777 
2950.000000	96.653113 
2949.000000	96.676182 
2948.000000	96.696982 
2947.000000	96.709594 
2946.000000	96.710840 
2945.000000	96.703396 
2944.000000	96.695419 
2943.000000	96.693400 
2942.000000	96.695384 
2941.000000	96.693783 
2940.000000	96.684346 
2939.000000	96.670539 
2938.000000	96.659496 
2937.000000	96.655648 
2936.000000	96.658103 
2935.000000	96.661927 
2934.000000	96.661470 
2933.000000	96.654212 
2932.000000	96.642623 
2931.000000	96.631904 
2930.000000	96.625759 
2929.000000	96.624517 
2928.000000	96.626285 
2927.000000	96.628549 
2926.000000	96.629224 
2925.000000	96.627884 
2924.000000	96.625955 
2923.000000	96.624628 
2922.000000	96.623063 
2921.000000	96.620064 
2920.000000	96.617059 
2919.000000	96.617363 
2918.000000	96.621931 
2917.000000	96.627239 
2916.000000	96.627965 
2915.000000	96.621304 
2914.000000	96.609045 
2913.000000	96.596686 
2912.000000	96.590352 
2911.000000	96.592811 
2910.000000	96.601465 
2909.000000	96.610713 
2908.000000	96.616384 
2907.000000	96.617027 
2906.000000	96.611324 
2905.000000	96.596971 
2904.000000	96.574252 
2903.000000	96.550517 
2902.000000	96.538144 
2901.000000	96.546193 
2900.000000	96.574244 
2899.000000	96.612832 
2898.000000	96.649870 
2897.000000	96.677351 
2896.000000	96.693259 
2895.000000	96.699994 
2894.000000	96.703021 
2893.000000	96.709456 
2892.000000	96.724258 
2891.000000	96.745623 
2890.000000	96.765352 
2889.000000	96.776128 
2888.000000	96.778686 
2887.000000	96.780941 
2886.000000	96.790415 
2885.000000	96.808475 
2884.000000	96.831250 
2883.000000	96.854288 
2882.000000	96.876309 
2881.000000	96.899733 
2880.000000	96.927468 
2879.000000	96.957905 
2878.000000	96.983578 
2877.000000	96.997160 
2876.000000	96.999130 
2875.000000	96.997703 
2874.000000	97.000467 
2873.000000	97.008048 
2872.000000	97.017136 
2871.000000	97.026840 
2870.000000	97.039330 
2869.000000	97.055672 
2868.000000	97.074109 
2867.000000	97.092491 
2866.000000	97.110335 
2865.000000	97.128475 
2864.000000	97.148650 
2863.000000	97.173676 
2862.000000	97.206005 
2861.000000	97.245048 
2860.000000	97.286441 
2859.000000	97.324200 
2858.000000	97.353778 
2857.000000	97.374450 
2856.000000	97.390120 
2855.000000	97.406665 
2854.000000	97.426261 
2853.000000	97.444791 
2852.000000	97.457385 
2851.000000	97.465891 
2850.000000	97.477371 
2849.000000	97.494605 
2848.000000	97.512074 
2847.000000	97.523808 
2846.000000	97.531946 
2845.000000	97.544010 
2844.000000	97.563403 
2843.000000	97.586733 
2842.000000	97.609826 
2841.000000	97.631745 
2840.000000	97.651545 
2839.000000	97.665083 
2838.000000	97.668457 
2837.000000	97.663659 
2836.000000	97.658673 
2835.000000	97.661470 
2834.000000	97.674300 
2833.000000	97.693074 
2832.000000	97.711124 
2831.000000	97.724127 
2830.000000	97.732680 
2829.000000	97.740355 
2828.000000	97.749314 
2827.000000	97.758429 
2826.000000	97.765812 
2825.000000	97.771676 
2824.000000	97.777505 
2823.000000	97.783380 
2822.000000	97.787640 
2821.000000	97.788887 
2820.000000	97.787325 
2819.000000	97.784753 
2818.000000	97.784423 
2817.000000	97.789957 
2816.000000	97.802340 
2815.000000	97.817603 
2814.000000	97.829310 
2813.000000	97.834273 
2812.000000	97.834771 
2811.000000	97.834992 
2810.000000	97.836396 
2809.000000	97.837302 
2808.000000	97.836095 
2807.000000	97.833764 
2806.000000	97.833383 
2805.000000	97.837376 
2804.000000	97.845081 
2803.000000	97.853080 
2802.000000	97.858632 
2801.000000	97.862639 
2800.000000	97.868115 
2799.000000	97.875703 
2798.000000	97.882428 
2797.000000	97.885511 
2796.000000	97.885636 
2795.000000	97.885330 
2794.000000	97.885661 
2793.000000	97.885934 
2792.000000	97.885908 
2791.000000	97.886472 
2790.000000	97.888062 
2789.000000	97.889997 
2788.000000	97.891754 
2787.000000	97.893804 
2786.000000	97.896722 
2785.000000	97.900217 
2784.000000	97.903525 
2783.000000	97.906266 
2782.000000	97.908425 
2781.000000	97.909775 
2780.000000	97.909829 
2779.000000	97.908541 
2778.000000	97.906892 
2777.000000	97.906543 
2776.000000	97.908589 
2775.000000	97.912626 
2774.000000	97.917036 
2773.000000	97.920419 
2772.000000	97.922772 
2771.000000	97.925016 
2770.000000	97.927646 
2769.000000	97.930134 
2768.000000	97.931615 
2767.000000	97.931771 
2766.000000	97.930972 
2765.000000	97.929884 
2764.000000	97.929057 
2763.000000	97.928648 
2762.000000	97.928432 
2761.000000	97.928374 
2760.000000	97.929263 
2759.000000	97.932202 
2758.000000	97.937229 
2757.000000	97.942838 
2756.000000	97.947064 
2755.000000	97.949217 
2754.000000	97.950010 
2753.000000	97.950584 
2752.000000	97.951617 
2751.000000	97.953252 
2750.000000	97.955509 
2749.000000	97.958280 
2748.000000	97.961018 
2747.000000	97.962893 
2746.000000	97.963520 
2745.000000	97.963357 
2744.000000	97.963437 
2743.000000	97.964466 
2742.000000	97.966327 
2741.000000	97.968392 
2740.000000	97.970211 
2739.000000	97.971901 
2738.000000	97.973783 
2737.000000	97.975884 
2736.000000	97.977926 
2735.000000	97.979671 
2734.000000	97.981141 
2733.000000	97.982506 
2732.000000	97.983908 
2731.000000	97.985406 
2730.000000	97.986996 
2729.000000	97.988629 
2728.000000	97.990235 
2727.000000	97.991780 
2726.000000	97.993283 
2725.000000	97.994785 
2724.000000	97.996305 
2723.000000	97.997840 
2722.000000	97.999382 
2721.000000	98.000929 
2720.000000	98.002471 
2719.000000	98.003996 
2718.000000	98.005490 
2717.000000	98.006939 
2716.000000	98.008334 
2715.000000	98.009677 
2714.000000	98.010983 
2713.000000	98.012274 
2712.000000	98.013567 
2711.000000	98.014874 
2710.000000	98.016201 
2709.000000	98.017549 
2708.000000	98.018911 
2707.000000	98.020275 
2706.000000	98.021634 
2705.000000	98.022988 
2704.000000	98.024333 
2703.000000	98.025653 
2702.000000	98.026916 
2701.000000	98.028111 
2700.000000	98.029273 
2699.000000	98.030450 
2698.000000	98.031672 
2697.000000	98.032877 
2696.000000	98.033936 
2695.000000	98.034751 
2694.000000	98.035356 
2693.000000	98.035932 
2692.000000	98.036639 
2691.000000	98.037481 
2690.000000	98.038314 
2689.000000	98.039013 
2688.000000	98.039592 
2687.000000	98.040177 
2686.000000	98.040931 
2685.000000	98.041987 
2684.000000	98.043306 
2683.000000	98.044598 
2682.000000	98.045556 
2681.000000	98.046208 
2680.000000	98.046929 
2679.000000	98.047969 
2678.000000	98.049060 
2677.000000	98.049623 
2676.000000	98.049293 
2675.000000	98.048260 
2674.000000	98.047287 
2673.000000	98.047068 
2672.000000	98.047663 
2671.000000	98.048577 
2670.000000	98.049311 
2669.000000	98.049725 
2668.000000	98.049686 
2667.000000	98.048918 
2666.000000	98.047437 
2665.000000	98.045825 
2664.000000	98.044808 
2663.000000	98.044434 
2662.000000	98.044146 
2661.000000	98.043558 
2660.000000	98.042775 
2659.000000	98.042024 
2658.000000	98.041365 
2657.000000	98.040802 
2656.000000	98.040377 
2655.000000	98.040027 
2654.000000	98.039567 
2653.000000	98.038924 
2652.000000	98.038250 
2651.000000	98.037732 
2650.000000	98.037410 
2649.000000	98.037215 
2648.000000	98.037030 
2647.000000	98.036637 
2646.000000	98.035786 
2645.000000	98.034457 
2644.000000	98.033019 
2643.000000	98.031998 
2642.000000	98.031648 
2641.000000	98.031846 
2640.000000	98.032343 
2639.000000	98.032997 
2638.000000	98.033700 
2637.000000	98.034143 
2636.000000	98.033897 
2635.000000	98.032819 
2634.000000	98.031275 
2633.000000	98.029949 
2632.000000	98.029267 
2631.000000	98.029138 
2630.000000	98.029136 
2629.000000	98.028832 
2628.000000	98.028054 
2627.000000	98.027018 
2626.000000	98.026372 
2625.000000	98.026751 
2624.000000	98.028244 
2623.000000	98.030156 
2622.000000	98.031501 
2621.000000	98.031971 
2620.000000	98.032038 
2619.000000	98.032393 
2618.000000	98.033149 
2617.000000	98.033867 
2616.000000	98.034255 
2615.000000	98.034564 
2614.000000	98.035234 
2613.000000	98.036370 
2612.000000	98.037655 
2611.000000	98.038670 
2610.000000	98.039243 
2609.000000	98.039577 
2608.000000	98.040094 
2607.000000	98.041137 
2606.000000	98.042825 
2605.000000	98.045084 
2604.000000	98.047515 
2603.000000	98.049271 
2602.000000	98.049532 
2601.000000	98.048411 
2600.000000	98.047040 
2599.000000	98.046269 
2598.000000	98.045738 
2597.000000	98.044969 
2596.000000	98.044703 
2595.000000	98.045980 
2594.000000	98.048385 
2593.000000	98.050644 
2592.000000	98.052855 
2591.000000	98.056580 
2590.000000	98.062332 
2589.000000	98.068237 
2588.000000	98.071790 
2587.000000	98.071842 
2586.000000	98.068904 
2585.000000	98.065145 
2584.000000	98.063307 
2583.000000	98.063890 
2582.000000	98.063658 
2581.000000	98.058785 
2580.000000	98.049674 
2579.000000	98.041384 
2578.000000	98.038600 
2577.000000	98.041545 
2576.000000	98.047363 
2575.000000	98.053217 
2574.000000	98.057535 
2573.000000	98.059760 
2572.000000	98.060290 
2571.000000	98.060321 
2570.000000	98.060754 
2569.000000	98.061159 
2568.000000	98.060118 
2567.000000	98.056440 
2566.000000	98.050137 
2565.000000	98.042645 
2564.000000	98.035928 
2563.000000	98.030951 
2562.000000	98.027281 
2561.000000	98.024874 
2560.000000	98.025290 
2559.000000	98.029461 
2558.000000	98.035679 
2557.000000	98.041013 
2556.000000	98.044000 
2555.000000	98.045211 
2554.000000	98.045553 
2553.000000	98.045345 
2552.000000	98.044931 
2551.000000	98.044909 
2550.000000	98.045380 
2549.000000	98.045793 
2548.000000	98.045927 
2547.000000	98.046469 
2546.000000	98.048100 
2545.000000	98.050302 
2544.000000	98.051838 
2543.000000	98.052169 
2542.000000	98.051997 
2541.000000	98.052443 
2540.000000	98.053884 
2539.000000	98.055726 
2538.000000	98.057274 
2537.000000	98.058491 
2536.000000	98.059810 
2535.000000	98.061397 
2534.000000	98.062978 
2533.000000	98.064264 
2532.000000	98.065300 
2531.000000	98.066283 
2530.000000	98.067350 
2529.000000	98.068517 
2528.000000	98.069751 
2527.000000	98.071019 
2526.000000	98.072301 
2525.000000	98.073582 
2524.000000	98.074856 
2523.000000	98.076107 
2522.000000	98.077307 
2521.000000	98.078422 
2520.000000	98.079442 
2519.000000	98.080403 
2518.000000	98.081364 
2517.000000	98.082377 
2516.000000	98.083455 
2515.000000	98.084582 
2514.000000	98.085733 
2513.000000	98.086882 
2512.000000	98.088007 
2511.000000	98.089075 
2510.000000	98.090055 
2509.000000	98.090923 
2508.000000	98.091674 
2507.000000	98.092308 
2506.000000	98.092828 
2505.000000	98.093250 
2504.000000	98.093602 
2503.000000	98.093908 
2502.000000	98.094161 
2501.000000	98.094323 
2500.000000	98.094364 
2499.000000	98.094290 
2498.000000	98.094127 
2497.000000	98.093883 
2496.000000	98.093537 
2495.000000	98.093065 
2494.000000	98.092478 
2493.000000	98.091831 
2492.000000	98.091191 
2491.000000	98.090600 
2490.000000	98.090063 
2489.000000	98.089548 
2488.000000	98.089006 
2487.000000	98.088386 
2486.000000	98.087658 
2485.000000	98.086827 
2484.000000	98.085926 
2483.000000	98.084992 
2482.000000	98.084051 
2481.000000	98.083118 
2480.000000	98.082218 
2479.000000	98.081387 
2478.000000	98.080651 
2477.000000	98.080003 
2476.000000	98.079401 
2475.000000	98.078781 
2474.000000	98.078087 
2473.000000	98.077290 
2472.000000	98.076409 
2471.000000	98.075448 
2470.000000	98.074416 
2469.000000	98.073402 
2468.000000	98.072526 
2467.000000	98.071825 
2466.000000	98.071142 
2465.000000	98.070081 
2464.000000	98.068263 
2463.000000	98.065981 
2462.000000	98.064349 
2461.000000	98.064336 
2460.000000	98.065818 
2459.000000	98.067773 
2458.000000	98.069366 
2457.000000	98.070108 
2456.000000	98.069781 
2455.000000	98.068838 
2454.000000	98.068513 
2453.000000	98.069466 
2452.000000	98.070493 
2451.000000	98.069704 
2450.000000	98.067285 
2449.000000	98.065839 
2448.000000	98.067183 
2447.000000	98.069946 
2446.000000	98.071360 
2445.000000	98.070499 
2444.000000	98.068840 
2443.000000	98.068329 
2442.000000	98.070080 
2441.000000	98.074691 
2440.000000	98.082354 
2439.000000	98.092212 
2438.000000	98.102221 
2437.000000	98.109946 
2436.000000	98.113336 
2435.000000	98.111200 
2434.000000	98.104080 
2433.000000	98.094879 
2432.000000	98.087532 
2431.000000	98.084336 
2430.000000	98.085196 
2429.000000	98.088852 
2428.000000	98.093654 
2427.000000	98.097285 
2426.000000	98.097278 
2425.000000	98.093231 
2424.000000	98.088355 
2423.000000	98.087338 
2422.000000	98.091758 
2421.000000	98.098875 
2420.000000	98.105238 
2419.000000	98.109906 
2418.000000	98.114300 
2417.000000	98.120190 
2416.000000	98.127696 
2415.000000	98.134743 
2414.000000	98.138938 
2413.000000	98.140254 
2412.000000	98.140528 
2411.000000	98.139980 
2410.000000	98.136422 
2409.000000	98.129008 
2408.000000	98.120618 
2407.000000	98.114527 
2406.000000	98.110622 
2405.000000	98.107028 
2404.000000	98.103842 
2403.000000	98.102741 
2402.000000	98.103866 
2401.000000	98.105596 
2400.000000	98.106891 
2399.000000	98.107677 
2398.000000	98.107366 
2397.000000	98.105319 
2396.000000	98.102607 
2395.000000	98.101093 
2394.000000	98.100666 
2393.000000	98.099579 
2392.000000	98.098041 
2391.000000	98.099402 
2390.000000	98.106879 
2389.000000	98.120281 
2388.000000	98.136468 
2387.000000	98.152131 
2386.000000	98.165726 
2385.000000	98.177549 
2384.000000	98.188076 
2383.000000	98.195131 
2382.000000	98.192747 
2381.000000	98.174458 
2380.000000	98.138367 
2379.000000	98.089259 
2378.000000	98.036591 
2377.000000	97.991367 
2376.000000	97.964259 
2375.000000	97.962583 
2374.000000	97.985553 
2373.000000	98.023446 
2372.000000	98.062976 
2371.000000	98.093866 
2370.000000	98.109884 
2369.000000	98.108612 
2368.000000	98.094822 
2367.000000	98.080940 
2366.000000	98.076687 
2365.000000	98.078817 
2364.000000	98.077048 
2363.000000	98.070461 
2362.000000	98.068206 
2361.000000	98.075010 
2360.000000	98.087006 
2359.000000	98.097514 
2358.000000	98.102641 
2357.000000	98.101151 
2356.000000	98.091479 
2355.000000	98.076841 
2354.000000	98.062226 
2353.000000	98.054971 
2352.000000	98.059346 
2351.000000	98.071735 
2350.000000	98.085100 
2349.000000	98.093149 
2348.000000	98.095755 
2347.000000	98.095888 
2346.000000	98.096844 
2345.000000	98.101105 
2344.000000	98.105456 
2343.000000	98.107763 
2342.000000	98.106386 
2341.000000	98.104193 
2340.000000	98.106028 
2339.000000	98.113555 
2338.000000	98.124090 
2337.000000	98.131744 
2336.000000	98.134658 
2335.000000	98.133804 
2334.000000	98.132238 
2333.000000	98.131438 
2332.000000	98.135721 
2331.000000	98.144814 
2330.000000	98.157296 
2329.000000	98.165639 
2328.000000	98.171798 
2327.000000	98.179416 
2326.000000	98.190349 
2325.000000	98.200483 
2324.000000	98.206092 
2323.000000	98.210689 
2322.000000	98.216811 
2321.000000	98.221740 
2320.000000	98.221640 
2319.000000	98.215470 
2318.000000	98.209378 
2317.000000	98.202971 
2316.000000	98.198411 
2315.000000	98.194852 
2314.000000	98.201647 
2313.000000	98.219131 
2312.000000	98.245353 
2311.000000	98.266550 
2310.000000	98.277704 
2309.000000	98.277185 
2308.000000	98.273930 
2307.000000	98.271112 
2306.000000	98.270602 
2305.000000	98.268014 
2304.000000	98.263152 
2303.000000	98.255899 
2302.000000	98.252448 
2301.000000	98.254237 
2300.000000	98.260175 
2299.000000	98.260551 
2298.000000	98.251669 
2297.000000	98.235123 
2296.000000	98.220091 
2295.000000	98.208796 
2294.000000	98.196894 
2293.000000	98.177548 
2292.000000	98.152288 
2291.000000	98.129410 
2290.000000	98.115902 
2289.000000	98.111825 
2288.000000	98.111188 
2287.000000	98.108471 
2286.000000	98.102767 
2285.000000	98.097891 
2284.000000	98.096438 
2283.000000	98.096905 
2282.000000	98.095443 
2281.000000	98.091340 
2280.000000	98.087441 
2279.000000	98.086243 
2278.000000	98.087010 
2277.000000	98.087578 
2276.000000	98.087406 
2275.000000	98.087549 
2274.000000	98.089364 
2273.000000	98.092959 
2272.000000	98.096597 
2271.000000	98.097141 
2270.000000	98.093285 
2269.000000	98.088013 
2268.000000	98.086001 
2267.000000	98.088293 
2266.000000	98.091827 
2265.000000	98.094044 
2264.000000	98.095548 
2263.000000	98.097220 
2262.000000	98.097341 
2261.000000	98.093839 
2260.000000	98.087493 
2259.000000	98.081273 
2258.000000	98.077283 
2257.000000	98.075700 
2256.000000	98.075883 
2255.000000	98.076749 
2254.000000	98.076523 
2253.000000	98.073937 
2252.000000	98.069487 
2251.000000	98.064943 
2250.000000	98.062054 
2249.000000	98.061025 
2248.000000	98.061052 
2247.000000	98.061008 
2246.000000	98.060260 
2245.000000	98.058867 
2244.000000	98.057220 
2243.000000	98.055712 
2242.000000	98.054495 
2241.000000	98.053494 
2240.000000	98.052561 
2239.000000	98.051514 
2238.000000	98.050097 
2237.000000	98.048115 
2236.000000	98.045730 
2235.000000	98.043491 
2234.000000	98.041806 
2233.000000	98.040533 
2232.000000	98.039283 
2231.000000	98.038016 
2230.000000	98.036887 
2229.000000	98.035649 
2228.000000	98.033833 
2227.000000	98.031509 
2226.000000	98.029241 
2225.000000	98.027279 
2224.000000	98.025481 
2223.000000	98.024229 
2222.000000	98.024380 
2221.000000	98.025717 
2220.000000	98.026572 
2219.000000	98.025507 
2218.000000	98.022568 
2217.000000	98.018799 
2216.000000	98.015301 
2215.000000	98.013097 
2214.000000	98.012849 
2213.000000	98.014260 
2212.000000	98.016662 
2211.000000	98.019897 
2210.000000	98.022863 
2209.000000	98.022025 
2208.000000	98.014068 
2207.000000	97.999935 
2206.000000	97.985688 
2205.000000	97.976864 
2204.000000	97.973671 
2203.000000	97.973008 
2202.000000	97.972132 
2201.000000	97.970654 
2200.000000	97.969310 
2199.000000	97.968114 
2198.000000	97.966574 
2197.000000	97.964770 
2196.000000	97.963701 
2195.000000	97.964165 
2194.000000	97.965455 
2193.000000	97.965901 
2192.000000	97.964770 
2191.000000	97.962798 
2190.000000	97.960712 
2189.000000	97.958111 
2188.000000	97.954472 
2187.000000	97.950271 
2186.000000	97.946473 
2185.000000	97.943613 
2184.000000	97.941842 
2183.000000	97.941428 
2182.000000	97.942506 
2181.000000	97.944422 
2180.000000	97.945868 
2179.000000	97.946130 
2178.000000	97.945580 
2177.000000	97.945081 
2176.000000	97.945065 
2175.000000	97.945264 
2174.000000	97.945267 
2173.000000	97.945130 
2172.000000	97.945323 
2171.000000	97.946058 
2170.000000	97.946930 
2169.000000	97.947426 
2168.000000	97.947578 
2167.000000	97.947994 
2166.000000	97.949386 
2165.000000	97.951912 
2164.000000	97.954533 
2163.000000	97.955393 
2162.000000	97.954089 
2161.000000	97.953782 
2160.000000	97.958472 
2159.000000	97.967256 
2158.000000	97.973300 
2157.000000	97.972355 
2156.000000	97.968549 
2155.000000	97.968673 
2154.000000	97.972848 
2153.000000	97.976197 
2152.000000	97.977637 
2151.000000	97.980857 
2150.000000	97.986451 
2149.000000	97.990071 
2148.000000	97.990862 
2147.000000	97.995703 
2146.000000	98.011003 
2145.000000	98.034253 
2144.000000	98.056443 
2143.000000	98.070377 
2142.000000	98.073359 
2141.000000	98.066377 
2140.000000	98.054945 
2139.000000	98.046504 
2138.000000	98.042538 
2137.000000	98.036283 
2136.000000	98.021642 
2135.000000	98.001982 
2134.000000	97.987045 
2133.000000	97.983607 
2132.000000	97.992054 
2131.000000	98.008445 
2130.000000	98.026167 
2129.000000	98.039140 
2128.000000	98.047719 
2127.000000	98.059218 
2126.000000	98.079085 
2125.000000	98.103318 
2124.000000	98.122715 
2123.000000	98.132607 
2122.000000	98.134028 
2121.000000	98.127624 
2120.000000	98.112659 
2119.000000	98.092877 
2118.000000	98.078247 
2117.000000	98.077185 
2116.000000	98.088336 
2115.000000	98.101486 
2114.000000	98.106480 
2113.000000	98.101723 
2112.000000	98.093689 
2111.000000	98.089053 
2110.000000	98.088108 
2109.000000	98.087250 
2108.000000	98.085981 
2107.000000	98.087776 
2106.000000	98.093967 
2105.000000	98.101000 
2104.000000	98.105413 
2103.000000	98.107931 
2102.000000	98.110189 
2101.000000	98.110900 
2100.000000	98.108703 
2099.000000	98.105998 
2098.000000	98.106417 
2097.000000	98.109710 
2096.000000	98.111869 
2095.000000	98.110040 
2094.000000	98.104960 
2093.000000	98.098947 
2092.000000	98.093581 
2091.000000	98.089591 
2090.000000	98.087547 
2089.000000	98.087838 
2088.000000	98.090582 
2087.000000	98.095409 
2086.000000	98.100648 
2085.000000	98.103498 
2084.000000	98.102237 
2083.000000	98.097788 
2082.000000	98.092647 
2081.000000	98.088532 
2080.000000	98.086376 
2079.000000	98.087483 
2078.000000	98.091906 
2077.000000	98.096022 
2076.000000	98.094951 
2075.000000	98.088996 
2074.000000	98.083879 
2073.000000	98.083280 
2072.000000	98.084582 
2071.000000	98.083307 
2070.000000	98.078354 
2069.000000	98.071345 
2068.000000	98.063864 
2067.000000	98.057612 
2066.000000	98.054991 
2065.000000	98.056973 
2064.000000	98.060990 
2063.000000	98.063447 
2062.000000	98.064010 
2061.000000	98.064781 
2060.000000	98.066650 
2059.000000	98.068318 
2058.000000	98.068477 
2057.000000	98.067282 
2056.000000	98.065430 
2055.000000	98.062963 
2054.000000	98.059537 
2053.000000	98.055198 
2052.000000	98.050370 
2051.000000	98.045639 
2050.000000	98.041521 
2049.000000	98.038188 
2048.000000	98.035257 
2047.000000	98.032136 
2046.000000	98.028726 
2045.000000	98.025489 
2044.000000	98.022770 
2043.000000	98.020292 
2042.000000	98.017669 
2041.000000	98.015493 
2040.000000	98.015363 
2039.000000	98.018175 
2038.000000	98.022060 
2037.000000	98.022836 
2036.000000	98.017875 
2035.000000	98.009773 
2034.000000	98.005465 
2033.000000	98.010191 
2032.000000	98.022810 
2031.000000	98.035583 
2030.000000	98.040526 
2029.000000	98.036606 
2028.000000	98.031037 
2027.000000	98.031481 
2026.000000	98.035641 
2025.000000	98.032592 
2024.000000	98.016629 
2023.000000	97.997074 
2022.000000	97.989654 
2021.000000	97.997930 
2020.000000	98.008806 
2019.000000	98.008310 
2018.000000	97.996327 
2017.000000	97.982349 
2016.000000	97.972202 
2015.000000	97.965245 
2014.000000	97.960029 
2013.000000	97.954252 
2012.000000	97.942423 
2011.000000	97.923919 
2010.000000	97.912757 
2009.000000	97.927932 
2008.000000	97.970876 
2007.000000	98.020564 
2006.000000	98.056067 
2005.000000	98.076235 
2004.000000	98.090848 
2003.000000	98.103516 
2002.000000	98.113568 
2001.000000	98.125659 
2000.000000	98.144554 
1999.000000	98.160864 
1998.000000	98.156327 
1997.000000	98.126376 
1996.000000	98.086338 
1995.000000	98.051089 
1994.000000	98.019534 
1993.000000	97.985144 
1992.000000	97.950020 
1991.000000	97.920292 
1990.000000	97.897224 
1989.000000	97.883796 
1988.000000	97.890680 
1987.000000	97.922041 
1986.000000	97.960425 
1985.000000	97.980075 
1984.000000	97.975904 
1983.000000	97.967928 
1982.000000	97.976553 
1981.000000	97.999925 
1980.000000	98.017410 
1979.000000	98.007933 
1978.000000	97.966987 
1977.000000	97.915589 
1976.000000	97.889194 
1975.000000	97.906660 
1974.000000	97.953353 
1973.000000	97.997475 
1972.000000	98.023638 
1971.000000	98.041377 
1970.000000	98.062314 
1969.000000	98.083589 
1968.000000	98.097102 
1967.000000	98.104071 
1966.000000	98.112352 
1965.000000	98.125147 
1964.000000	98.139337 
1963.000000	98.151778 
1962.000000	98.162591 
1961.000000	98.173682 
1960.000000	98.185104 
1959.000000	98.192168 
1958.000000	98.188987 
1957.000000	98.177032 
1956.000000	98.165201 
1955.000000	98.157494 
1954.000000	98.147001 
1953.000000	98.130188 
1952.000000	98.118160 
1951.000000	98.122678 
1950.000000	98.134467 
1949.000000	98.130085 
1948.000000	98.102718 
1947.000000	98.071450 
1946.000000	98.055244 
1945.000000	98.050786 
1944.000000	98.044641 
1943.000000	98.036434 
1942.000000	98.036608 
1941.000000	98.046106 
1940.000000	98.054340 
1939.000000	98.054068 
1938.000000	98.046696 
1937.000000	98.037433 
1936.000000	98.032289 
1935.000000	98.036153 
1934.000000	98.048058 
1933.000000	98.061725 
1932.000000	98.073111 
1931.000000	98.086065 
1930.000000	98.103072 
1929.000000	98.114375 
1928.000000	98.109137 
1927.000000	98.089593 
1926.000000	98.069413 
1925.000000	98.057596 
1924.000000	98.053037 
1923.000000	98.054611 
1922.000000	98.064363 
1921.000000	98.079639 
1920.000000	98.091934 
1919.000000	98.095731 
1918.000000	98.095008 
1917.000000	98.096769 
1916.000000	98.101759 
1915.000000	98.105972 
1914.000000	98.106430 
1913.000000	98.103147 
1912.000000	98.097459 
1911.000000	98.090521 
1910.000000	98.083224 
1909.000000	98.076427 
1908.000000	98.071751 
1907.000000	98.070305 
1906.000000	98.072118 
1905.000000	98.075401 
1904.000000	98.078155 
1903.000000	98.080490 
1902.000000	98.082616 
1901.000000	98.082523 
1900.000000	98.078884 
1899.000000	98.074401 
1898.000000	98.074359 
1897.000000	98.080820 
1896.000000	98.090208 
1895.000000	98.097675 
1894.000000	98.102331 
1893.000000	98.106289 
1892.000000	98.110325 
1891.000000	98.112363 
1890.000000	98.110402 
1889.000000	98.105496 
1888.000000	98.100630 
1887.000000	98.097542 
1886.000000	98.096029 
1885.000000	98.095902 
1884.000000	98.097997 
1883.000000	98.102949 
1882.000000	98.109336 
1881.000000	98.114024 
1880.000000	98.114813 
1879.000000	98.111418 
1878.000000	98.104626 
1877.000000	98.096137 
1876.000000	98.088709 
1875.000000	98.085078 
1874.000000	98.086080 
1873.000000	98.089940 
1872.000000	98.093537 
1871.000000	98.094710 
1870.000000	98.093251 
1869.000000	98.091008 
1868.000000	98.090890 
1867.000000	98.094157 
1866.000000	98.099352 
1865.000000	98.103575 
1864.000000	98.105252 
1863.000000	98.105143 
1862.000000	98.105056 
1861.000000	98.105977 
1860.000000	98.107627 
1859.000000	98.109397 
1858.000000	98.110864 
1857.000000	98.111685 
1856.000000	98.111843 
1855.000000	98.111922 
1854.000000	98.112604 
1853.000000	98.113689 
1852.000000	98.114475 
1851.000000	98.114633 
1850.000000	98.114496 
1849.000000	98.114690 
1848.000000	98.115581 
1847.000000	98.117126 
1846.000000	98.118891 
1845.000000	98.120276 
1844.000000	98.121073 
1843.000000	98.121604 
1842.000000	98.122146 
1841.000000	98.122573 
1840.000000	98.122786 
1839.000000	98.123042 
1838.000000	98.123751 
1837.000000	98.124949 
1836.000000	98.126253 
1835.000000	98.127306 
1834.000000	98.128144 
1833.000000	98.129025 
1832.000000	98.130134 
1831.000000	98.131410 
1830.000000	98.132821 
1829.000000	98.134502 
1828.000000	98.136346 
1827.000000	98.137952 
1826.000000	98.139035 
1825.000000	98.139652 
1824.000000	98.140102 
1823.000000	98.140558 
1822.000000	98.141049 
1821.000000	98.141690 
1820.000000	98.142556 
1819.000000	98.143488 
1818.000000	98.144468 
1817.000000	98.145699 
1816.000000	98.147278 
1815.000000	98.149093 
1814.000000	98.150671 
1813.000000	98.151525 
1812.000000	98.151409 
1811.000000	98.150596 
1810.000000	98.150000 
1809.000000	98.150170 
1808.000000	98.150900 
1807.000000	98.151715 
1806.000000	98.152331 
1805.000000	98.152737 
1804.000000	98.153048 
1803.000000	98.153505 
1802.000000	98.154115 
1801.000000	98.154686 
1800.000000	98.154981 
1799.000000	98.154981 
1798.000000	98.154822 
1797.000000	98.154552 
1796.000000	98.154198 
1795.000000	98.153999 
1794.000000	98.154150 
1793.000000	98.154566 
1792.000000	98.154780 
1791.000000	98.154520 
1790.000000	98.154070 
1789.000000	98.153834 
1788.000000	98.153863 
1787.000000	98.153954 
1786.000000	98.153964 
1785.000000	98.153820 
1784.000000	98.153158 
1783.000000	98.151998 
1782.000000	98.150402 
1781.000000	98.149070 
1780.000000	98.149182 
1779.000000	98.151246 
1778.000000	98.154670 
1777.000000	98.157594 
1776.000000	98.158872 
1775.000000	98.158645 
1774.000000	98.156904 
1773.000000	98.153954 
1772.000000	98.151224 
1771.000000	98.148218 
1770.000000	98.144517 
1769.000000	98.141790 
1768.000000	98.141233 
1767.000000	98.142825 
1766.000000	98.144780 
1765.000000	98.145920 
1764.000000	98.145595 
1763.000000	98.143445 
1762.000000	98.140476 
1761.000000	98.139910 
1760.000000	98.141702 
1759.000000	98.142649 
1758.000000	98.138784 
1757.000000	98.130028 
1756.000000	98.124035 
1755.000000	98.125533 
1754.000000	98.131400 
1753.000000	98.135805 
1752.000000	98.137782 
1751.000000	98.141268 
1750.000000	98.149182 
1749.000000	98.158725 
1748.000000	98.167484 
1747.000000	98.176491 
1746.000000	98.183679 
1745.000000	98.186142 
1744.000000	98.182610 
1743.000000	98.174354 
1742.000000	98.164522 
1741.000000	98.155556 
1740.000000	98.147149 
1739.000000	98.140841 
1738.000000	98.139188 
1737.000000	98.142999 
1736.000000	98.147076 
1735.000000	98.142315 
1734.000000	98.132252 
1733.000000	98.126877 
1732.000000	98.128251 
1731.000000	98.135726 
1730.000000	98.145829 
1729.000000	98.153231 
1728.000000	98.155946 
1727.000000	98.155351 
1726.000000	98.152365 
1725.000000	98.149407 
1724.000000	98.147191 
1723.000000	98.145496 
1722.000000	98.146122 
1721.000000	98.149647 
1720.000000	98.152699 
1719.000000	98.148574 
1718.000000	98.139520 
1717.000000	98.134261 
1716.000000	98.129975 
1715.000000	98.122800 
1714.000000	98.116435 
1713.000000	98.111864 
1712.000000	98.105317 
1711.000000	98.096341 
1710.000000	98.088373 
1709.000000	98.083148 
1708.000000	98.079806 
1707.000000	98.074489 
1706.000000	98.064795 
1705.000000	98.051859 
1704.000000	98.038483 
1703.000000	98.029809 
1702.000000	98.025990 
1701.000000	98.022060 
1700.000000	98.017845 
1699.000000	98.011176 
1698.000000	98.005542 
1697.000000	98.001690 
1696.000000	97.994578 
1695.000000	97.987688 
1694.000000	97.983560 
1693.000000	97.979938 
1692.000000	97.973178 
1691.000000	97.961809 
1690.000000	97.948398 
1689.000000	97.935597 
1688.000000	97.925822 
1687.000000	97.919127 
1686.000000	97.913336 
1685.000000	97.905441 
1684.000000	97.897392 
1683.000000	97.891514 
1682.000000	97.886212 
1681.000000	97.879989 
1680.000000	97.872790 
1679.000000	97.866409 
1678.000000	97.861792 
1677.000000	97.857356 
1676.000000	97.850607 
1675.000000	97.842054 
1674.000000	97.832243 
1673.000000	97.822462 
1672.000000	97.813663 
1671.000000	97.805494 
1670.000000	97.798087 
1669.000000	97.791946 
1668.000000	97.786864 
1667.000000	97.781635 
1666.000000	97.775111 
1665.000000	97.768159 
1664.000000	97.762554 
1663.000000	97.761006 
1662.000000	97.761629 
1661.000000	97.758562 
1660.000000	97.750804 
1659.000000	97.740454 
1658.000000	97.728724 
1657.000000	97.717001 
1656.000000	97.708800 
1655.000000	97.702323 
1654.000000	97.691641 
1653.000000	97.684705 
1652.000000	97.680973 
1651.000000	97.675484 
1650.000000	97.673899 
1649.000000	97.676096 
1648.000000	97.675760 
1647.000000	97.669796 
1646.000000	97.660988 
1645.000000	97.651781 
1644.000000	97.642652 
1643.000000	97.635490 
1642.000000	97.630788 
1641.000000	97.627343 
1640.000000	97.625139 
1639.000000	97.624130 
1638.000000	97.626089 
1637.000000	97.632022 
1636.000000	97.643045 
1635.000000	97.652660 
1634.000000	97.651429 
1633.000000	97.641566 
1632.000000	97.630558 
1631.000000	97.624010 
1630.000000	97.623189 
1629.000000	97.624408 
1628.000000	97.623101 
1627.000000	97.620188 
1626.000000	97.619490 
1625.000000	97.623924 
1624.000000	97.633841 
1623.000000	97.646639 
1622.000000	97.655301 
1621.000000	97.655009 
1620.000000	97.649569 
1619.000000	97.644890 
1618.000000	97.643898 
1617.000000	97.647327 
1616.000000	97.655415 
1615.000000	97.666511 
1614.000000	97.678330 
1613.000000	97.688105 
1612.000000	97.693754 
1611.000000	97.697357 
1610.000000	97.701976 
1609.000000	97.708769 
1608.000000	97.717469 
1607.000000	97.727352 
1606.000000	97.735521 
1605.000000	97.740562 
1604.000000	97.745500 
1603.000000	97.752565 
1602.000000	97.760069 
1601.000000	97.765689 
1600.000000	97.770258 
1599.000000	97.776050 
1598.000000	97.783305 
1597.000000	97.790806 
1596.000000	97.797712 
1595.000000	97.804111 
1594.000000	97.810110 
1593.000000	97.815551 
1592.000000	97.820524 
1591.000000	97.825481 
1590.000000	97.830857 
1589.000000	97.837124 
1588.000000	97.844781 
1587.000000	97.853362 
1586.000000	97.861645 
1585.000000	97.868681 
1584.000000	97.875244 
1583.000000	97.882185 
1582.000000	97.889178 
1581.000000	97.895677 
1580.000000	97.901853 
1579.000000	97.908052 
1578.000000	97.914242 
1577.000000	97.920333 
1576.000000	97.926334 
1575.000000	97.932185 
1574.000000	97.937879 
1573.000000	97.943470 
1572.000000	97.948973 
1571.000000	97.954383 
1570.000000	97.959691 
1569.000000	97.964885 
1568.000000	97.969967 
1567.000000	97.974942 
1566.000000	97.979809 
1565.000000	97.984562 
1564.000000	97.989200 
1563.000000	97.993724 
1562.000000	97.998135 
1561.000000	98.002433 
1560.000000	98.006638 
1559.000000	98.010777 
1558.000000	98.014852 
1557.000000	98.018800 
1556.000000	98.022589 
1555.000000	98.026250 
1554.000000	98.029787 
1553.000000	98.033238 
1552.000000	98.036662 
1551.000000	98.039936 
1550.000000	98.042888 
1549.000000	98.045565 
1548.000000	98.048240 
1547.000000	98.051077 
1546.000000	98.053749 
1545.000000	98.055655 
1544.000000	98.056646 
1543.000000	98.057063 
1542.000000	98.057609 
1541.000000	98.058924 
1540.000000	98.061155 
1539.000000	98.063368 
1538.000000	98.063965 
1537.000000	98.063082 
1536.000000	98.062188 
1535.000000	98.062608 
1534.000000	98.064387 
1533.000000	98.066722 
1532.000000	98.067927 
1531.000000	98.067586 
1530.000000	98.068033 
1529.000000	98.070584 
1528.000000	98.073844 
1527.000000	98.076409 
1526.000000	98.077928 
1525.000000	98.078733 
1524.000000	98.079588 
1523.000000	98.079960 
1522.000000	98.078194 
1521.000000	98.074297 
1520.000000	98.069304 
1519.000000	98.064875 
1518.000000	98.061816 
1517.000000	98.059687 
1516.000000	98.059431 
1515.000000	98.062473 
1514.000000	98.066446 
1513.000000	98.067828 
1512.000000	98.062769 
1511.000000	98.052089 
1510.000000	98.041753 
1509.000000	98.034935 
1508.000000	98.024013 
1507.000000	98.005857 
1506.000000	97.996418 
1505.000000	97.996675 
1504.000000	97.998269 
1503.000000	97.996647 
1502.000000	97.988327 
1501.000000	97.974938 
1500.000000	97.963067 
1499.000000	97.955906 
1498.000000	97.951539 
1497.000000	97.953140 
1496.000000	97.964769 
1495.000000	97.985347 
1494.000000	98.009252 
1493.000000	98.029983 
1492.000000	98.041162 
1491.000000	98.040767 
1490.000000	98.035150 
1489.000000	98.031255 
1488.000000	98.024522 
1487.000000	98.010731 
1486.000000	97.995816 
1485.000000	97.981797 
1484.000000	97.970464 
1483.000000	97.962899 
1482.000000	97.957220 
1481.000000	97.950795 
1480.000000	97.942483 
1479.000000	97.934992 
1478.000000	97.930730 
1477.000000	97.929231 
1476.000000	97.926273 
1475.000000	97.922427 
1474.000000	97.919676 
1473.000000	97.917629 
1472.000000	97.915018 
1471.000000	97.910198 
1470.000000	97.903773 
1469.000000	97.896526 
1468.000000	97.886534 
1467.000000	97.875042 
1466.000000	97.866528 
1465.000000	97.862761 
1464.000000	97.861712 
1463.000000	97.856093 
1462.000000	97.844126 
1461.000000	97.829729 
1460.000000	97.818862 
1459.000000	97.812575 
1458.000000	97.804022 
1457.000000	97.790280 
1456.000000	97.775294 
1455.000000	97.761541 
1454.000000	97.749516 
1453.000000	97.738644 
1452.000000	97.728197 
1451.000000	97.720589 
1450.000000	97.720386 
1449.000000	97.731208 
1448.000000	97.747555 
1447.000000	97.761951 
1446.000000	97.767980 
1445.000000	97.767015 
1444.000000	97.766103 
1443.000000	97.764768 
1442.000000	97.758960 
1441.000000	97.746964 
1440.000000	97.732654 
1439.000000	97.718151 
1438.000000	97.705249 
1437.000000	97.699608 
1436.000000	97.704302 
1435.000000	97.708910 
1434.000000	97.706730 
1433.000000	97.701092 
1432.000000	97.694533 
1431.000000	97.686744 
1430.000000	97.677087 
1429.000000	97.667627 
1428.000000	97.657597 
1427.000000	97.648055 
1426.000000	97.639373 
1425.000000	97.631843 
1424.000000	97.627743 
1423.000000	97.622846 
1422.000000	97.612635 
1421.000000	97.598428 
1420.000000	97.583483 
1419.000000	97.565284 
1418.000000	97.541054 
1417.000000	97.515893 
1416.000000	97.494958 
1415.000000	97.475742 
1414.000000	97.453448 
1413.000000	97.430066 
1412.000000	97.411910 
1411.000000	97.398535 
1410.000000	97.383930 
1409.000000	97.368396 
1408.000000	97.357044 
1407.000000	97.354861 
1406.000000	97.361741 
1405.000000	97.375613 
1404.000000	97.396332 
1403.000000	97.418908 
1402.000000	97.437744 
1401.000000	97.453868 
1400.000000	97.472723 
1399.000000	97.493488 
1398.000000	97.503970 
1397.000000	97.492287 
1396.000000	97.459804 
1395.000000	97.426605 
1394.000000	97.417081 
1393.000000	97.438374 
1392.000000	97.478059 
1391.000000	97.517220 
1390.000000	97.543534 
1389.000000	97.555364 
1388.000000	97.556982 
1387.000000	97.553285 
1386.000000	97.548507 
1385.000000	97.547683 
1384.000000	97.556013 
1383.000000	97.572429 
1382.000000	97.590452 
1381.000000	97.604755 
1380.000000	97.615079 
1379.000000	97.623993 
1378.000000	97.631961 
1377.000000	97.638062 
1376.000000	97.644223 
1375.000000	97.656225 
1374.000000	97.677780 
1373.000000	97.707841 
1372.000000	97.743054 
1371.000000	97.781627 
1370.000000	97.819488 
1369.000000	97.849692 
1368.000000	97.870347 
1367.000000	97.886186 
1366.000000	97.902755 
1365.000000	97.920373 
1364.000000	97.934362 
1363.000000	97.941744 
1362.000000	97.947217 
1361.000000	97.958740 
1360.000000	97.978802 
1359.000000	98.003325 
1358.000000	98.025712 
1357.000000	98.042263 
1356.000000	98.054792 
1355.000000	98.067000 
1354.000000	98.078797 
1353.000000	98.087522 
1352.000000	98.091117 
1351.000000	98.093399 
1350.000000	98.099285 
1349.000000	98.108253 
1348.000000	98.117298 
1347.000000	98.125400 
1346.000000	98.133506 
1345.000000	98.140672 
1344.000000	98.144861 
1343.000000	98.146800 
1342.000000	98.149721 
1341.000000	98.154394 
1340.000000	98.158121 
1339.000000	98.159470 
1338.000000	98.160294 
1337.000000	98.161970 
1336.000000	98.162692 
1335.000000	98.160498 
1334.000000	98.157283 
1333.000000	98.157477 
1332.000000	98.162827 
1331.000000	98.170439 
1330.000000	98.175339 
1329.000000	98.174982 
1328.000000	98.171302 
1327.000000	98.169813 
1326.000000	98.174360 
1325.000000	98.182694 
1324.000000	98.188178 
1323.000000	98.185313 
1322.000000	98.174597 
1321.000000	98.161999 
1320.000000	98.154216 
1319.000000	98.154387 
1318.000000	98.161675 
1317.000000	98.172550 
1316.000000	98.181864 
1315.000000	98.184838 
1314.000000	98.180400 
1313.000000	98.172701 
1312.000000	98.167332 
1311.000000	98.165887 
1310.000000	98.165560 
1309.000000	98.164065 
1308.000000	98.162558 
1307.000000	98.163889 
1306.000000	98.168472 
1305.000000	98.173243 
1304.000000	98.174661 
1303.000000	98.171938 
1302.000000	98.168155 
1301.000000	98.167893 
1300.000000	98.172987 
1299.000000	98.180129 
1298.000000	98.183661 
1297.000000	98.180942 
1296.000000	98.174301 
1295.000000	98.168396 
1294.000000	98.166536 
1293.000000	98.169671 
1292.000000	98.176943 
1291.000000	98.185075 
1290.000000	98.188683 
1289.000000	98.184373 
1288.000000	98.174698 
1287.000000	98.166721 
1286.000000	98.164944 
1285.000000	98.167098 
1284.000000	98.168273 
1283.000000	98.167310 
1282.000000	98.167139 
1281.000000	98.169557 
1280.000000	98.172675 
1279.000000	98.174177 
1278.000000	98.174605 
1277.000000	98.175634 
1276.000000	98.176689 
1275.000000	98.175668 
1274.000000	98.172381 
1273.000000	98.169006 
1272.000000	98.166744 
1271.000000	98.163816 
1270.000000	98.157820 
1269.000000	98.149077 
1268.000000	98.140931 
1267.000000	98.136818 
1266.000000	98.137209 
1265.000000	98.139211 
1264.000000	98.139227 
1263.000000	98.136390 
1262.000000	98.132846 
1261.000000	98.130241 
1260.000000	98.127577 
1259.000000	98.123963 
1258.000000	98.121383 
1257.000000	98.121140 
1256.000000	98.118886 
1255.000000	98.109288 
1254.000000	98.096896 
1253.000000	98.094935 
1252.000000	98.108114 
1251.000000	98.122254 
1250.000000	98.119406 
1249.000000	98.100469 
1248.000000	98.083319 
1247.000000	98.078364 
1246.000000	98.076078 
1245.000000	98.062909 
1244.000000	98.041096 
1243.000000	98.026516 
1242.000000	98.031114 
1241.000000	98.052803 
1240.000000	98.079504 
1239.000000	98.099041 
1238.000000	98.106614 
1237.000000	98.105360 
1236.000000	98.099912 
1235.000000	98.090330 
1234.000000	98.074646 
1233.000000	98.055513 
1232.000000	98.039258 
1231.000000	98.028378 
1230.000000	98.020444 
1229.000000	98.014895 
1228.000000	98.014366 
1227.000000	98.017193 
1226.000000	98.015067 
1225.000000	98.002057 
1224.000000	97.981615 
1223.000000	97.961443 
1222.000000	97.945403 
1221.000000	97.933571 
1220.000000	97.925699 
1219.000000	97.919666 
1218.000000	97.909503 
1217.000000	97.890161 
1216.000000	97.863387 
1215.000000	97.836187 
1214.000000	97.814016 
1213.000000	97.796692 
1212.000000	97.779322 
1211.000000	97.755726 
1210.000000	97.722488 
1209.000000	97.681106 
1208.000000	97.635299 
1207.000000	97.587234 
1206.000000	97.539017 
1205.000000	97.495050 
1204.000000	97.457967 
1203.000000	97.423033 
1202.000000	97.382585 
1201.000000	97.336560 
1200.000000	97.291832 
1199.000000	97.249760 
1198.000000	97.202040 
1197.000000	97.142685 
1196.000000	97.077515 
1195.000000	97.017333 
1194.000000	96.966305 
1193.000000	96.921074 
1192.000000	96.876359 
1191.000000	96.826540 
1190.000000	96.766890 
1189.000000	96.699347 
1188.000000	96.633556 
1187.000000	96.576372 
1186.000000	96.522921 
1185.000000	96.463243 
1184.000000	96.394384 
1183.000000	96.320425 
1182.000000	96.244482 
1181.000000	96.167958 
1180.000000	96.095607 
1179.000000	96.032735 
1178.000000	95.975624 
1177.000000	95.910909 
1176.000000	95.827304 
1175.000000	95.726097 
1174.000000	95.620492 
1173.000000	95.526310 
1172.000000	95.450956 
1171.000000	95.386951 
1170.000000	95.317085 
1169.000000	95.230779 
1168.000000	95.135115 
1167.000000	95.046722 
1166.000000	94.975858 
1165.000000	94.923246 
1164.000000	94.888670 
1163.000000	94.874229 
1162.000000	94.879067 
1161.000000	94.897492 
1160.000000	94.923059 
1159.000000	94.949123 
1158.000000	94.965286 
1157.000000	94.959459 
1156.000000	94.925510 
1155.000000	94.866563 
1154.000000	94.791656 
1153.000000	94.711288 
1152.000000	94.633561 
1151.000000	94.560301 
1150.000000	94.488086 
1149.000000	94.416043 
1148.000000	94.348751 
1147.000000	94.286375 
1146.000000	94.217186 
1145.000000	94.129156 
1144.000000	94.027017 
1143.000000	93.928579 
1142.000000	93.843335 
1141.000000	93.763588 
1140.000000	93.678636 
1139.000000	93.588334 
1138.000000	93.498443 
1137.000000	93.409583 
1136.000000	93.316485 
1135.000000	93.215281 
1134.000000	93.108352 
1133.000000	93.004010 
1132.000000	92.912004 
1131.000000	92.835445 
1130.000000	92.765629 
1129.000000	92.688029 
1128.000000	92.594433 
1127.000000	92.487234 
1126.000000	92.373393 
1125.000000	92.258153 
1124.000000	92.144332 
1123.000000	92.033701 
1122.000000	91.927417 
1121.000000	91.825637 
1120.000000	91.725011 
1119.000000	91.616068 
1118.000000	91.488750 
1117.000000	91.345078 
1116.000000	91.202269 
1115.000000	91.077950 
1114.000000	90.975391 
1113.000000	90.886788 
1112.000000	90.804068 
1111.000000	90.719741 
1110.000000	90.624711 
1109.000000	90.516732 
1108.000000	90.407425 
1107.000000	90.310194 
1106.000000	90.223374 
1105.000000	90.134357 
1104.000000	90.036550 
1103.000000	89.932590 
1102.000000	89.824564 
1101.000000	89.713261 
1100.000000	89.604576 
1099.000000	89.504711 
1098.000000	89.409380 
1097.000000	89.308351 
1096.000000	89.200786 
1095.000000	89.094883 
1094.000000	88.992200 
1093.000000	88.883652 
1092.000000	88.762851 
1091.000000	88.633625 
1090.000000	88.503026 
1089.000000	88.375553 
1088.000000	88.254284 
1087.000000	88.138025 
1086.000000	88.017219 
1085.000000	87.882652 
1084.000000	87.738178 
1083.000000	87.595381 
1082.000000	87.456934 
1081.000000	87.316787 
1080.000000	87.176052 
1079.000000	87.044965 
1078.000000	86.927206 
1077.000000	86.815348 
1076.000000	86.704819 
1075.000000	86.599990 
1074.000000	86.503259 
1073.000000	86.409483 
1072.000000	86.312434 
1071.000000	86.203039 
1070.000000	86.059910 
1069.000000	85.860524 
1068.000000	85.611383 
1067.000000	85.356855 
1066.000000	85.146924 
1065.000000	84.999031 
1064.000000	84.894380 
1063.000000	84.797959 
1062.000000	84.676086 
1061.000000	84.508234 
1060.000000	84.296290 
1059.000000	84.062622 
1058.000000	83.833654 
1057.000000	83.624738 
1056.000000	83.438235 
1055.000000	83.266551 
1054.000000	83.094882 
1053.000000	82.910815 
1052.000000	82.715846 
1051.000000	82.521270 
1050.000000	82.331972 
1049.000000	82.142826 
1048.000000	81.949620 
1047.000000	81.751893 
1046.000000	81.547148 
1045.000000	81.334946 
1044.000000	81.124449 
1043.000000	80.924967 
1042.000000	80.730524 
1041.000000	80.527270 
1040.000000	80.316308 
1039.000000	80.116267 
1038.000000	79.942787 
1037.000000	79.796896 
1036.000000	79.671482 
1035.000000	79.556243 
1034.000000	79.438572 
1033.000000	79.312101 
1032.000000	79.180520 
1031.000000	79.041961 
1030.000000	78.881113 
1029.000000	78.696729 
1028.000000	78.527138 
1027.000000	78.421026 
1026.000000	78.383792 
1025.000000	78.374161 
1024.000000	78.352885 
1023.000000	78.312437 
1022.000000	78.259070 
1021.000000	78.193626 
1020.000000	78.116743 
1019.000000	78.031817 
1018.000000	77.936779 
1017.000000	77.829703 
1016.000000	77.724239 
1015.000000	77.641170 
1014.000000	77.583314 
1013.000000	77.536434 
1012.000000	77.493629 
1011.000000	77.458644 
1010.000000	77.426950 
1009.000000	77.386945 
1008.000000	77.340588 
1007.000000	77.299814 
1006.000000	77.261425 
1005.000000	77.209455 
1004.000000	77.145524 
1003.000000	77.093468 
1002.000000	77.068874 
1001.000000	77.064858 
1000.000000	77.070700 
999.000000	 77.081839 
998.000000	 77.087393 
997.000000	 77.071555 
996.000000	 77.035738 
995.000000	 77.002023 
994.000000	 76.989916 
993.000000	 77.005218 
992.000000	 77.050216 
991.000000	 77.122562 
990.000000	 77.202826 
989.000000	 77.266736 
988.000000	 77.314379 
987.000000	 77.366690 
986.000000	 77.431547 
985.000000	 77.496800 
984.000000	 77.559365 
983.000000	 77.635298 
982.000000	 77.733792 
981.000000	 77.843679 
980.000000	 77.953544 
979.000000	 78.066183 
978.000000	 78.186209 
977.000000	 78.312520 
976.000000	 78.449725 
975.000000	 78.608184 
974.000000	 78.785640 
973.000000	 78.966185 
972.000000	 79.144147 
971.000000	 79.332762 
970.000000	 79.543074 
969.000000	 79.769096 
968.000000	 79.998080 
967.000000	 80.221006 
966.000000	 80.430334 
965.000000	 80.623394 
964.000000	 80.811990 
963.000000	 81.014105 
962.000000	 81.232203 
961.000000	 81.452354 
960.000000	 81.665904 
959.000000	 81.877375 
958.000000	 82.089333 
957.000000	 82.294364 
956.000000	 82.485552 
955.000000	 82.663551 
954.000000	 82.832705 
953.000000	 83.000666 
952.000000	 83.178360 
951.000000	 83.366313 
950.000000	 83.544461 
949.000000	 83.691651 
948.000000	 83.812454 
947.000000	 83.929071 
946.000000	 84.049537 
945.000000	 84.162197 
944.000000	 84.260645 
943.000000	 84.353762 
942.000000	 84.448144 
941.000000	 84.538321 
940.000000	 84.619389 
939.000000	 84.695001 
938.000000	 84.769359 
937.000000	 84.844101 
936.000000	 84.924915 
935.000000	 85.018041 
934.000000	 85.118646 
933.000000	 85.215155 
932.000000	 85.305096 
931.000000	 85.394567 
930.000000	 85.484384 
929.000000	 85.571024 
928.000000	 85.658825 
927.000000	 85.754763 
926.000000	 85.851418 
925.000000	 85.931333 
924.000000	 85.989594 
923.000000	 86.038391 
922.000000	 86.089379 
921.000000	 86.144983 
920.000000	 86.205435 
919.000000	 86.269025 
918.000000	 86.325756 
917.000000	 86.365709 
916.000000	 86.394312 
915.000000	 86.426896 
914.000000	 86.470229 
913.000000	 86.522322 
912.000000	 86.586241 
911.000000	 86.668611 
910.000000	 86.768303 
909.000000	 86.882789 
908.000000	 87.021699 
907.000000	 87.195860 
906.000000	 87.396323 
905.000000	 87.603471 
904.000000	 87.813637 
903.000000	 88.037606 
902.000000	 88.276779 
901.000000	 88.520599 
900.000000	 88.764956 
899.000000	 89.014288 
898.000000	 89.267642 
897.000000	 89.519780 
896.000000	 89.771588 
895.000000	 90.021798 
894.000000	 90.254622 
893.000000	 90.455874 
892.000000	 90.636833 
891.000000	 90.821859 
890.000000	 91.015662 
889.000000	 91.202751 
888.000000	 91.375900 
887.000000	 91.543998 
886.000000	 91.713765 
885.000000	 91.884085 
884.000000	 92.056339 
883.000000	 92.229384 
882.000000	 92.386704 
881.000000	 92.512413 
880.000000	 92.621533 
879.000000	 92.752440 
878.000000	 92.924994 
877.000000	 93.123890 
876.000000	 93.323128 
875.000000	 93.506766 
874.000000	 93.667491 
873.000000	 93.807666 
872.000000	 93.942678 
871.000000	 94.084730 
870.000000	 94.227031 
869.000000	 94.363799 
868.000000	 94.516914 
867.000000	 94.713403 
866.000000	 94.938128 
865.000000	 95.140148 
864.000000	 95.292415 
863.000000	 95.419298 
862.000000	 95.557968 
861.000000	 95.714958 
860.000000	 95.872376 
859.000000	 96.018151 
858.000000	 96.155973 
857.000000	 96.295810 
856.000000	 96.442305 
855.000000	 96.584645 
854.000000	 96.698206 
853.000000	 96.769801 
852.000000	 96.820706 
851.000000	 96.888402 
850.000000	 96.983876 
849.000000	 97.084984 
848.000000	 97.172409 
847.000000	 97.249151 
846.000000	 97.319853 
845.000000	 97.374001 
844.000000	 97.400959 
843.000000	 97.404911 
842.000000	 97.394767 
841.000000	 97.372453 
840.000000	 97.338171 
839.000000	 97.293476 
838.000000	 97.233545 
837.000000	 97.152090 
836.000000	 97.060958 
835.000000	 96.988892 
834.000000	 96.950957 
833.000000	 96.932598 
832.000000	 96.912316 
831.000000	 96.886250 
830.000000	 96.863060 
829.000000	 96.850674 
828.000000	 96.858337 
827.000000	 96.895245 
826.000000	 96.953611 
825.000000	 97.008779 
824.000000	 97.050802 
823.000000	 97.099661 
822.000000	 97.173243 
821.000000	 97.256518 
820.000000	 97.319037 
819.000000	 97.349738 
818.000000	 97.361641 
817.000000	 97.371422 
816.000000	 97.383239 
815.000000	 97.385699 
814.000000	 97.358117 
813.000000	 97.285293 
812.000000	 97.170095 
811.000000	 97.026020 
810.000000	 96.854952 
809.000000	 96.639708 
808.000000	 96.362036 
807.000000	 96.021363 
806.000000	 95.634601 
805.000000	 95.226261 
804.000000	 94.820917 
803.000000	 94.435044 
802.000000	 94.072599 
801.000000	 93.737656 
800.000000	 93.451032 
799.000000	 93.240684 
798.000000	 93.115333 
797.000000	 93.063102 
796.000000	 93.074784 
795.000000	 93.147141 
794.000000	 93.260900 
793.000000	 93.379587 
792.000000	 93.479916 
791.000000	 93.566648 
790.000000	 93.650716 
789.000000	 93.727955 
788.000000	 93.784177 
787.000000	 93.805743 
786.000000	 93.780989 
785.000000	 93.706819 
784.000000	 93.598141 
783.000000	 93.475927 
782.000000	 93.343399 
781.000000	 93.191952 
780.000000	 93.034231 
779.000000	 92.910127 
778.000000	 92.851869 
777.000000	 92.862177 
776.000000	 92.932866 
775.000000	 93.061696 
774.000000	 93.237768 
773.000000	 93.429657 
772.000000	 93.605020 
771.000000	 93.751737 
770.000000	 93.870189 
769.000000	 93.958114 
768.000000	 94.014546 
767.000000	 94.047732 
766.000000	 94.067500 
765.000000	 94.077866 
764.000000	 94.085893 
763.000000	 94.107554 
762.000000	 94.153508 
761.000000	 94.215767 
760.000000	 94.277636 
759.000000	 94.331464 
758.000000	 94.380011 
757.000000	 94.427336 
756.000000	 94.476576 
755.000000	 94.532485 
754.000000	 94.598363 
753.000000	 94.670068 
752.000000	 94.735383 
751.000000	 94.780375 
750.000000	 94.800770 
749.000000	 94.810448 
748.000000	 94.833534 
747.000000	 94.883098 
746.000000	 94.954009 
745.000000	 95.042460 
744.000000	 95.160459 
743.000000	 95.315603 
742.000000	 95.485550 
741.000000	 95.633808 
740.000000	 95.748886 
739.000000	 95.850065 
738.000000	 95.957420 
737.000000	 96.073829 
736.000000	 96.195040 
735.000000	 96.317316 
734.000000	 96.432118 
733.000000	 96.529732 
732.000000	 96.611045 
731.000000	 96.682422 
730.000000	 96.741043 
729.000000	 96.782179 
728.000000	 96.814659 
727.000000	 96.852399 
726.000000	 96.897465 
725.000000	 96.946691 
724.000000	 97.009465 
723.000000	 97.099233 
722.000000	 97.208049 
721.000000	 97.307617 
720.000000	 97.377220 
719.000000	 97.417365 
718.000000	 97.436973 
717.000000	 97.445212 
716.000000	 97.458119 
715.000000	 97.490824 
714.000000	 97.536756 
713.000000	 97.573474 
712.000000	 97.592891 
711.000000	 97.607763 
710.000000	 97.626106 
709.000000	 97.649463 
708.000000	 97.677468 
707.000000	 97.704881 
706.000000	 97.718635 
705.000000	 97.705206 
704.000000	 97.662974 
703.000000	 97.600355 
702.000000	 97.518452 
701.000000	 97.408503 
700.000000	 97.269136 
699.000000	 97.109967 
698.000000	 96.943024 
697.000000	 96.781929 
696.000000	 96.647124 
695.000000	 96.563128 
694.000000	 96.541627 
693.000000	 96.575550 
692.000000	 96.649570 
691.000000	 96.744360 
690.000000	 96.841911 
689.000000	 96.937003 
688.000000	 97.037100 
687.000000	 97.142197 
686.000000	 97.229586 
685.000000	 97.275926 
684.000000	 97.287068 
683.000000	 97.287474 
682.000000	 97.291998 
681.000000	 97.302856 
680.000000	 97.324722 
679.000000	 97.360008 
678.000000	 97.399155 
677.000000	 97.435098 
676.000000	 97.471973 
675.000000	 97.514826 
674.000000	 97.557523 
673.000000	 97.585935 
672.000000	 97.591375 
671.000000	 97.563599 
670.000000	 97.492079 
669.000000	 97.385397 
668.000000	 97.337776 
667.000000	 97.437093 
666.000000	 97.610047 
665.000000	 97.747361 
664.000000	 97.840793 
663.000000	 97.915722 
662.000000	 97.978198 
661.000000	 98.018163 
660.000000	 98.036939 
659.000000	 98.057039 
658.000000	 98.093785 
657.000000	 98.137155 
656.000000	 98.163827 
655.000000	 98.163227 
654.000000	 98.142645 
653.000000	 98.116768 
652.000000	 98.104361 
651.000000	 98.125372 
650.000000	 98.183152 

