4000.000000	97.467305 
3999.000000	97.465596 
3998.000000	97.462015 
3997.000000	97.458001 
3996.000000	97.455171 
3995.000000	97.454257 
3994.000000	97.455296 
3993.000000	97.457596 
3992.000000	97.459783 
3991.000000	97.460739 
3990.000000	97.460388 
3989.000000	97.459439 
3988.000000	97.458498 
3987.000000	97.457731 
3986.000000	97.457393 
3985.000000	97.457971 
3984.000000	97.459373 
3983.000000	97.460622 
3982.000000	97.460996 
3981.000000	97.460908 
3980.000000	97.461124 
3979.000000	97.461500 
3978.000000	97.461267 
3977.000000	97.460349 
3976.000000	97.459514 
3975.000000	97.459160 
3974.000000	97.458752 
3973.000000	97.457696 
3972.000000	97.456114 
3971.000000	97.454468 
3970.000000	97.453089 
3969.000000	97.452212 
3968.000000	97.452033 
3967.000000	97.452477 
3966.000000	97.453131 
3965.000000	97.453502 
3964.000000	97.453186 
3963.000000	97.451994 
3962.000000	97.450151 
3961.000000	97.448383 
3960.000000	97.447349 
3959.000000	97.446936 
3958.000000	97.446733 
3957.000000	97.446663 
3956.000000	97.446725 
3955.000000	97.446395 
3954.000000	97.444919 
3953.000000	97.442222 
3952.000000	97.439086 
3951.000000	97.436604 
3950.000000	97.435346 
3949.000000	97.435003 
3948.000000	97.434728 
3947.000000	97.434072 
3946.000000	97.433352 
3945.000000	97.432921 
3944.000000	97.432567 
3943.000000	97.432077 
3942.000000	97.432079 
3941.000000	97.433634 
3940.000000	97.436599 
3939.000000	97.438800 
3938.000000	97.438360 
3937.000000	97.435626 
3936.000000	97.432314 
3935.000000	97.429390 
3934.000000	97.426788 
3933.000000	97.425144 
3932.000000	97.425476 
3931.000000	97.427285 
3930.000000	97.428611 
3929.000000	97.428368 
3928.000000	97.427773 
3927.000000	97.428073 
3926.000000	97.428260 
3925.000000	97.426746 
3924.000000	97.424316 
3923.000000	97.423032 
3922.000000	97.422691 
3921.000000	97.421702 
3920.000000	97.420562 
3919.000000	97.421221 
3918.000000	97.423627 
3917.000000	97.425615 
3916.000000	97.426160 
3915.000000	97.426208 
3914.000000	97.426399 
3913.000000	97.426024 
3912.000000	97.424875 
3911.000000	97.423316 
3910.000000	97.421668 
3909.000000	97.419969 
3908.000000	97.418354 
3907.000000	97.417134 
3906.000000	97.416376 
3905.000000	97.415933 
3904.000000	97.415688 
3903.000000	97.415625 
3902.000000	97.415602 
3901.000000	97.415473 
3900.000000	97.415315 
3899.000000	97.415147 
3898.000000	97.414942 
3897.000000	97.414695 
3896.000000	97.414412 
3895.000000	97.414088 
3894.000000	97.413708 
3893.000000	97.413282 
3892.000000	97.412832 
3891.000000	97.412377 
3890.000000	97.411941 
3889.000000	97.411552 
3888.000000	97.411215 
3887.000000	97.410915 
3886.000000	97.410639 
3885.000000	97.410391 
3884.000000	97.410184 
3883.000000	97.410016 
3882.000000	97.409864 
3881.000000	97.409713 
3880.000000	97.409573 
3879.000000	97.409461 
3878.000000	97.409378 
3877.000000	97.409307 
3876.000000	97.409222 
3875.000000	97.409125 
3874.000000	97.409046 
3873.000000	97.409020 
3872.000000	97.409063 
3871.000000	97.409160 
3870.000000	97.409304 
3869.000000	97.409511 
3868.000000	97.409808 
3867.000000	97.410178 
3866.000000	97.410569 
3865.000000	97.410958 
3864.000000	97.411355 
3863.000000	97.411750 
3862.000000	97.412106 
3861.000000	97.412397 
3860.000000	97.412633 
3859.000000	97.412840 
3858.000000	97.413038 
3857.000000	97.413254 
3856.000000	97.413538 
3855.000000	97.413941 
3854.000000	97.414467 
3853.000000	97.415088 
3852.000000	97.415823 
3851.000000	97.416716 
3850.000000	97.417739 
3849.000000	97.418817 
3848.000000	97.419886 
3847.000000	97.420914 
3846.000000	97.421896 
3845.000000	97.422844 
3844.000000	97.423774 
3843.000000	97.424690 
3842.000000	97.425593 
3841.000000	97.426500 
3840.000000	97.427433 
3839.000000	97.428399 
3838.000000	97.429380 
3837.000000	97.430358 
3836.000000	97.431338 
3835.000000	97.432333 
3834.000000	97.433352 
3833.000000	97.434390 
3832.000000	97.435438 
3831.000000	97.436488 
3830.000000	97.437535 
3829.000000	97.438574 
3828.000000	97.439599 
3827.000000	97.440595 
3826.000000	97.441552 
3825.000000	97.442475 
3824.000000	97.443391 
3823.000000	97.444311 
3822.000000	97.445219 
3821.000000	97.446103 
3820.000000	97.446996 
3819.000000	97.447952 
3818.000000	97.448970 
3817.000000	97.449999 
3816.000000	97.451000 
3815.000000	97.451982 
3814.000000	97.452963 
3813.000000	97.453919 
3812.000000	97.454804 
3811.000000	97.455610 
3810.000000	97.456356 
3809.000000	97.457036 
3808.000000	97.457624 
3807.000000	97.458122 
3806.000000	97.458582 
3805.000000	97.459070 
3804.000000	97.459613 
3803.000000	97.460183 
3802.000000	97.460746 
3801.000000	97.461301 
3800.000000	97.461870 
3799.000000	97.462460 
3798.000000	97.463022 
3797.000000	97.463513 
3796.000000	97.463927 
3795.000000	97.464283 
3794.000000	97.464592 
3793.000000	97.464847 
3792.000000	97.465033 
3791.000000	97.465143 
3790.000000	97.465172 
3789.000000	97.465124 
3788.000000	97.465008 
3787.000000	97.464831 
3786.000000	97.464589 
3785.000000	97.464282 
3784.000000	97.463932 
3783.000000	97.463568 
3782.000000	97.463181 
3781.000000	97.462740 
3780.000000	97.462227 
3779.000000	97.461647 
3778.000000	97.461008 
3777.000000	97.460299 
3776.000000	97.459509 
3775.000000	97.458651 
3774.000000	97.457755 
3773.000000	97.456833 
3772.000000	97.455871 
3771.000000	97.454855 
3770.000000	97.453795 
3769.000000	97.452711 
3768.000000	97.451616 
3767.000000	97.450500 
3766.000000	97.449356 
3765.000000	97.448191 
3764.000000	97.447015 
3763.000000	97.445814 
3762.000000	97.444548 
3761.000000	97.443210 
3760.000000	97.441874 
3759.000000	97.440496 
3758.000000	97.439037 
3757.000000	97.437274 
3756.000000	97.435047 
3755.000000	97.432507 
3754.000000	97.429737 
3753.000000	97.427055 
3752.000000	97.425520 
3751.000000	97.424892 
3750.000000	97.421915 
3749.000000	97.415484 
3748.000000	97.410239 
3747.000000	97.409529 
3746.000000	97.411575 
3745.000000	97.412125 
3744.000000	97.406853 
3743.000000	97.402499 
3742.000000	97.408821 
3741.000000	97.415144 
3740.000000	97.409219 
3739.000000	97.396851 
3738.000000	97.389013 
3737.000000	97.387096 
3736.000000	97.385924 
3735.000000	97.386436 
3734.000000	97.392088 
3733.000000	97.396585 
3732.000000	97.390948 
3731.000000	97.380000 
3730.000000	97.376368 
3729.000000	97.380647 
3728.000000	97.382118 
3727.000000	97.375974 
3726.000000	97.368620 
3725.000000	97.367757 
3724.000000	97.370707 
3723.000000	97.369023 
3722.000000	97.361419 
3721.000000	97.352731 
3720.000000	97.346139 
3719.000000	97.338936 
3718.000000	97.327069 
3717.000000	97.312009 
3716.000000	97.299237 
3715.000000	97.290801 
3714.000000	97.284274 
3713.000000	97.279954 
3712.000000	97.277282 
3711.000000	97.268539 
3710.000000	97.249426 
3709.000000	97.223781 
3708.000000	97.195307 
3707.000000	97.165732 
3706.000000	97.137227 
3705.000000	97.111569 
3704.000000	97.087596 
3703.000000	97.062225 
3702.000000	97.032172 
3701.000000	96.997856 
3700.000000	96.967888 
3699.000000	96.949593 
3698.000000	96.937635 
3697.000000	96.923749 
3696.000000	96.909537 
3695.000000	96.901171 
3694.000000	96.896041 
3693.000000	96.885537 
3692.000000	96.869755 
3691.000000	96.856785 
3690.000000	96.847946 
3689.000000	96.832986 
3688.000000	96.810465 
3687.000000	96.798617 
3686.000000	96.805376 
3685.000000	96.811643 
3684.000000	96.801119 
3683.000000	96.779652 
3682.000000	96.758346 
3681.000000	96.734587 
3680.000000	96.698744 
3679.000000	96.657000 
3678.000000	96.625401 
3677.000000	96.604457 
3676.000000	96.571012 
3675.000000	96.509771 
3674.000000	96.454538 
3673.000000	96.436171 
3672.000000	96.427526 
3671.000000	96.400670 
3670.000000	96.358799 
3669.000000	96.315191 
3668.000000	96.283892 
3667.000000	96.262417 
3666.000000	96.237058 
3665.000000	96.204697 
3664.000000	96.170061 
3663.000000	96.133844 
3662.000000	96.091576 
3661.000000	96.041490 
3660.000000	95.989117 
3659.000000	95.942894 
3658.000000	95.903370 
3657.000000	95.860372 
3656.000000	95.803641 
3655.000000	95.743400 
3654.000000	95.696669 
3653.000000	95.655804 
3652.000000	95.606652 
3651.000000	95.558128 
3650.000000	95.523720 
3649.000000	95.493830 
3648.000000	95.455294 
3647.000000	95.415270 
3646.000000	95.388542 
3645.000000	95.375937 
3644.000000	95.365269 
3643.000000	95.345735 
3642.000000	95.316941 
3641.000000	95.284371 
3640.000000	95.249777 
3639.000000	95.209588 
3638.000000	95.163269 
3637.000000	95.119003 
3636.000000	95.080683 
3635.000000	95.038072 
3634.000000	94.979805 
3633.000000	94.912753 
3632.000000	94.855683 
3631.000000	94.818601 
3630.000000	94.799341 
3629.000000	94.776990 
3628.000000	94.738855 
3627.000000	94.714966 
3626.000000	94.715341 
3625.000000	94.707538 
3624.000000	94.677953 
3623.000000	94.641288 
3622.000000	94.612300 
3621.000000	94.595298 
3620.000000	94.590804 
3619.000000	94.597880 
3618.000000	94.616245 
3617.000000	94.649631 
3616.000000	94.695859 
3615.000000	94.744376 
3614.000000	94.786006 
3613.000000	94.818007 
3612.000000	94.844308 
3611.000000	94.870666 
3610.000000	94.898587 
3609.000000	94.925796 
3608.000000	94.949729 
3607.000000	94.969881 
3606.000000	94.987781 
3605.000000	95.004871 
3604.000000	95.023878 
3603.000000	95.048534 
3602.000000	95.076285 
3601.000000	95.097446 
3600.000000	95.106523 
3599.000000	95.108583 
3598.000000	95.111856 
3597.000000	95.122728 
3596.000000	95.143046 
3595.000000	95.166927 
3594.000000	95.183649 
3593.000000	95.187344 
3592.000000	95.180651 
3591.000000	95.169677 
3590.000000	95.161712 
3589.000000	95.164276 
3588.000000	95.179699 
3587.000000	95.201974 
3586.000000	95.225746 
3585.000000	95.248658 
3584.000000	95.266559 
3583.000000	95.277940 
3582.000000	95.286454 
3581.000000	95.295218 
3580.000000	95.302985 
3579.000000	95.307114 
3578.000000	95.307058 
3577.000000	95.305087 
3576.000000	95.304302 
3575.000000	95.305217 
3574.000000	95.305259 
3573.000000	95.300747 
3572.000000	95.290012 
3571.000000	95.274956 
3570.000000	95.260890 
3569.000000	95.254295 
3568.000000	95.258911 
3567.000000	95.271956 
3566.000000	95.286886 
3565.000000	95.299519 
3564.000000	95.307003 
3563.000000	95.308122 
3562.000000	95.305925 
3561.000000	95.305102 
3560.000000	95.307204 
3559.000000	95.310063 
3558.000000	95.310977 
3557.000000	95.309277 
3556.000000	95.306841 
3555.000000	95.306089 
3554.000000	95.307459 
3553.000000	95.308901 
3552.000000	95.307864 
3551.000000	95.303568 
3550.000000	95.296843 
3549.000000	95.289208 
3548.000000	95.283448 
3547.000000	95.282610 
3546.000000	95.286394 
3545.000000	95.291077 
3544.000000	95.293963 
3543.000000	95.295437 
3542.000000	95.296774 
3541.000000	95.298045 
3540.000000	95.298755 
3539.000000	95.298827 
3538.000000	95.298446 
3537.000000	95.297718 
3536.000000	95.296630 
3535.000000	95.295178 
3534.000000	95.293134 
3533.000000	95.290400 
3532.000000	95.287609 
3531.000000	95.285839 
3530.000000	95.285052 
3529.000000	95.283402 
3528.000000	95.279093 
3527.000000	95.272695 
3526.000000	95.266997 
3525.000000	95.264395 
3524.000000	95.265309 
3523.000000	95.268563 
3522.000000	95.272250 
3521.000000	95.274611 
3520.000000	95.274959 
3519.000000	95.273935 
3518.000000	95.272604 
3517.000000	95.271124 
3516.000000	95.268376 
3515.000000	95.263353 
3514.000000	95.256798 
3513.000000	95.250980 
3512.000000	95.247486 
3511.000000	95.245851 
3510.000000	95.244394 
3509.000000	95.242022 
3508.000000	95.239092 
3507.000000	95.236433 
3506.000000	95.233819 
3505.000000	95.230135 
3504.000000	95.224954 
3503.000000	95.219356 
3502.000000	95.215058 
3501.000000	95.212722 
3500.000000	95.211307 
3499.000000	95.209111 
3498.000000	95.205318 
3497.000000	95.200374 
3496.000000	95.195153 
3495.000000	95.190096 
3494.000000	95.185334 
3493.000000	95.181215 
3492.000000	95.178007 
3491.000000	95.175321 
3490.000000	95.172363 
3489.000000	95.168722 
3488.000000	95.164545 
3487.000000	95.159991 
3486.000000	95.154983 
3485.000000	95.149620 
3484.000000	95.144350 
3483.000000	95.139410 
3482.000000	95.134468 
3481.000000	95.129308 
3480.000000	95.124402 
3479.000000	95.120191 
3478.000000	95.116172 
3477.000000	95.111226 
3476.000000	95.104867 
3475.000000	95.097754 
3474.000000	95.091104 
3473.000000	95.085653 
3472.000000	95.081035 
3471.000000	95.076046 
3470.000000	95.069747 
3469.000000	95.062389 
3468.000000	95.055237 
3467.000000	95.049434 
3466.000000	95.045167 
3465.000000	95.041705 
3464.000000	95.037922 
3463.000000	95.032971 
3462.000000	95.026710 
3461.000000	95.019702 
3460.000000	95.012747 
3459.000000	95.006213 
3458.000000	94.999887 
3457.000000	94.993387 
3456.000000	94.986584 
3455.000000	94.979816 
3454.000000	94.973615 
3453.000000	94.968285 
3452.000000	94.963832 
3451.000000	94.960175 
3450.000000	94.957018 
3449.000000	94.953486 
3448.000000	94.948431 
3447.000000	94.941379 
3446.000000	94.933168 
3445.000000	94.925336 
3444.000000	94.918838 
3443.000000	94.913603 
3442.000000	94.908934 
3441.000000	94.903948 
3440.000000	94.898021 
3439.000000	94.891055 
3438.000000	94.883530 
3437.000000	94.876231 
3436.000000	94.869924 
3435.000000	94.865356 
3434.000000	94.862829 
3433.000000	94.861528 
3432.000000	94.859812 
3431.000000	94.856674 
3430.000000	94.852481 
3429.000000	94.848064 
3428.000000	94.843529 
3427.000000	94.838344 
3426.000000	94.832643 
3425.000000	94.827795 
3424.000000	94.825115 
3423.000000	94.823997 
3422.000000	94.822072 
3421.000000	94.817802 
3420.000000	94.812259 
3419.000000	94.807701 
3418.000000	94.804869 
3417.000000	94.802657 
3416.000000	94.800108 
3415.000000	94.797450 
3414.000000	94.794970 
3413.000000	94.792055 
3412.000000	94.788076 
3411.000000	94.783581 
3410.000000	94.779969 
3409.000000	94.778247 
3408.000000	94.778393 
3407.000000	94.779386 
3406.000000	94.779605 
3405.000000	94.777681 
3404.000000	94.773337 
3403.000000	94.767447 
3402.000000	94.761440 
3401.000000	94.756795 
3400.000000	94.754591 
3399.000000	94.754839 
3398.000000	94.756206 
3397.000000	94.756949 
3396.000000	94.756325 
3395.000000	94.754836 
3394.000000	94.753355 
3393.000000	94.752384 
3392.000000	94.751942 
3391.000000	94.751677 
3390.000000	94.751190 
3389.000000	94.750622 
3388.000000	94.750899 
3387.000000	94.752841 
3386.000000	94.755935 
3385.000000	94.758342 
3384.000000	94.758421 
3383.000000	94.756188 
3382.000000	94.753344 
3381.000000	94.751900 
3380.000000	94.752500 
3379.000000	94.754029 
3378.000000	94.755075 
3377.000000	94.755771 
3376.000000	94.757527 
3375.000000	94.760759 
3374.000000	94.763734 
3373.000000	94.764262 
3372.000000	94.762165 
3371.000000	94.759504 
3370.000000	94.758591 
3369.000000	94.760189 
3368.000000	94.763555 
3367.000000	94.767396 
3366.000000	94.770649 
3365.000000	94.772862 
3364.000000	94.774260 
3363.000000	94.775452 
3362.000000	94.776946 
3361.000000	94.778944 
3360.000000	94.781496 
3359.000000	94.784568 
3358.000000	94.787865 
3357.000000	94.790850 
3356.000000	94.793130 
3355.000000	94.794735 
3354.000000	94.796017 
3353.000000	94.797425 
3352.000000	94.799384 
3351.000000	94.802147 
3350.000000	94.805614 
3349.000000	94.809316 
3348.000000	94.812740 
3347.000000	94.815724 
3346.000000	94.818390 
3345.000000	94.820748 
3344.000000	94.822522 
3343.000000	94.823461 
3342.000000	94.823825 
3341.000000	94.824461 
3340.000000	94.826072 
3339.000000	94.828587 
3338.000000	94.831452 
3337.000000	94.834262 
3336.000000	94.837005 
3335.000000	94.839753 
3334.000000	94.842388 
3333.000000	94.844735 
3332.000000	94.846811 
3331.000000	94.848806 
3330.000000	94.850889 
3329.000000	94.853105 
3328.000000	94.855429 
3327.000000	94.857847 
3326.000000	94.860349 
3325.000000	94.862893 
3324.000000	94.865418 
3323.000000	94.867854 
3322.000000	94.870184 
3321.000000	94.872461 
3320.000000	94.874770 
3319.000000	94.877147 
3318.000000	94.879568 
3317.000000	94.881984 
3316.000000	94.884360 
3315.000000	94.886677 
3314.000000	94.888927 
3313.000000	94.891119 
3312.000000	94.893292 
3311.000000	94.895496 
3310.000000	94.897754 
3309.000000	94.900050 
3308.000000	94.902337 
3307.000000	94.904558 
3306.000000	94.906692 
3305.000000	94.908778 
3304.000000	94.910903 
3303.000000	94.913145 
3302.000000	94.915524 
3301.000000	94.917990 
3300.000000	94.920431 
3299.000000	94.922749 
3298.000000	94.924905 
3297.000000	94.926943 
3296.000000	94.928982 
3295.000000	94.931132 
3294.000000	94.933443 
3293.000000	94.935917 
3292.000000	94.938532 
3291.000000	94.941223 
3290.000000	94.943881 
3289.000000	94.946402 
3288.000000	94.948756 
3287.000000	94.950983 
3286.000000	94.953107 
3285.000000	94.955096 
3284.000000	94.956949 
3283.000000	94.958775 
3282.000000	94.960785 
3281.000000	94.963133 
3280.000000	94.965762 
3279.000000	94.968379 
3278.000000	94.970727 
3277.000000	94.972874 
3276.000000	94.975141 
3275.000000	94.977679 
3274.000000	94.980261 
3273.000000	94.982618 
3272.000000	94.984866 
3271.000000	94.987406 
3270.000000	94.990435 
3269.000000	94.993703 
3268.000000	94.996727 
3267.000000	94.999237 
3266.000000	95.001406 
3265.000000	95.003776 
3264.000000	95.006840 
3263.000000	95.010517 
3262.000000	95.014112 
3261.000000	95.016973 
3260.000000	95.019085 
3259.000000	95.020945 
3258.000000	95.022979 
3257.000000	95.025362 
3256.000000	95.028250 
3255.000000	95.031721 
3254.000000	95.035470 
3253.000000	95.039002 
3252.000000	95.042194 
3251.000000	95.045311 
3250.000000	95.048422 
3249.000000	95.051195 
3248.000000	95.053454 
3247.000000	95.055631 
3246.000000	95.058410 
3245.000000	95.062070 
3244.000000	95.066345 
3243.000000	95.070714 
3242.000000	95.074680 
3241.000000	95.077942 
3240.000000	95.080600 
3239.000000	95.083239 
3238.000000	95.086683 
3237.000000	95.091441 
3236.000000	95.097349 
3235.000000	95.103601 
3234.000000	95.109128 
3233.000000	95.113268 
3232.000000	95.116242 
3231.000000	95.119009 
3230.000000	95.122462 
3229.000000	95.126684 
3228.000000	95.131134 
3227.000000	95.135606 
3226.000000	95.140695 
3225.000000	95.146990 
3224.000000	95.153996 
3223.000000	95.160306 
3222.000000	95.165054 
3221.000000	95.168836 
3220.000000	95.173009 
3219.000000	95.178248 
3218.000000	95.184112 
3217.000000	95.189736 
3216.000000	95.194631 
3215.000000	95.199020 
3214.000000	95.203718 
3213.000000	95.209507 
3212.000000	95.216318 
3211.000000	95.223113 
3210.000000	95.228878 
3209.000000	95.233655 
3208.000000	95.238274 
3207.000000	95.243190 
3206.000000	95.248084 
3205.000000	95.252735 
3204.000000	95.257754 
3203.000000	95.263976 
3202.000000	95.271403 
3201.000000	95.279095 
3200.000000	95.286110 
3199.000000	95.292391 
3198.000000	95.298604 
3197.000000	95.305210 
3196.000000	95.311874 
3195.000000	95.317903 
3194.000000	95.323232 
3193.000000	95.328738 
3192.000000	95.335366 
3191.000000	95.343080 
3190.000000	95.350851 
3189.000000	95.357743 
3188.000000	95.363797 
3187.000000	95.369800 
3186.000000	95.376458 
3185.000000	95.383843 
3184.000000	95.391492 
3183.000000	95.398941 
3182.000000	95.406167 
3181.000000	95.413382 
3180.000000	95.420560 
3179.000000	95.427420 
3178.000000	95.433889 
3177.000000	95.440322 
3176.000000	95.447116 
3175.000000	95.454305 
3174.000000	95.461669 
3173.000000	95.469029 
3172.000000	95.476295 
3171.000000	95.483409 
3170.000000	95.490396 
3169.000000	95.497405 
3168.000000	95.504538 
3167.000000	95.511714 
3166.000000	95.518802 
3165.000000	95.525812 
3164.000000	95.532836 
3163.000000	95.539914 
3162.000000	95.547023 
3161.000000	95.554140 
3160.000000	95.561258 
3159.000000	95.568374 
3158.000000	95.575497 
3157.000000	95.582631 
3156.000000	95.589779 
3155.000000	95.596939 
3154.000000	95.604108 
3153.000000	95.611285 
3152.000000	95.618474 
3151.000000	95.625674 
3150.000000	95.632880 
3149.000000	95.640086 
3148.000000	95.647293 
3147.000000	95.654505 
3146.000000	95.661730 
3145.000000	95.668967 
3144.000000	95.676208 
3143.000000	95.683440 
3142.000000	95.690659 
3141.000000	95.697866 
3140.000000	95.705070 
3139.000000	95.712284 
3138.000000	95.719514 
3137.000000	95.726760 
3136.000000	95.734020 
3135.000000	95.741287 
3134.000000	95.748558 
3133.000000	95.755834 
3132.000000	95.763095 
3131.000000	95.770332 
3130.000000	95.777563 
3129.000000	95.784805 
3128.000000	95.792088 
3127.000000	95.799463 
3126.000000	95.806967 
3125.000000	95.814562 
3124.000000	95.822130 
3123.000000	95.829517 
3122.000000	95.836598 
3121.000000	95.843400 
3120.000000	95.850144 
3119.000000	95.857082 
3118.000000	95.864301 
3117.000000	95.871769 
3116.000000	95.879480 
3115.000000	95.887377 
3114.000000	95.895178 
3113.000000	95.902534 
3112.000000	95.909489 
3111.000000	95.916610 
3110.000000	95.924420 
3109.000000	95.932770 
3108.000000	95.941011 
3107.000000	95.948763 
3106.000000	95.956189 
3105.000000	95.963395 
3104.000000	95.970012 
3103.000000	95.975666 
3102.000000	95.980693 
3101.000000	95.986047 
3100.000000	95.992419 
3099.000000	95.999722 
3098.000000	96.007545 
3097.000000	96.015883 
3096.000000	96.024964 
3095.000000	96.034471 
3094.000000	96.043438 
3093.000000	96.051035 
3092.000000	96.057200 
3091.000000	96.062362 
3090.000000	96.066999 
3089.000000	96.071613 
3088.000000	96.076682 
3087.000000	96.082444 
3086.000000	96.088879 
3085.000000	96.095854 
3084.000000	96.103010 
3083.000000	96.109598 
3082.000000	96.114970 
3081.000000	96.119421 
3080.000000	96.124121 
3079.000000	96.129887 
3078.000000	96.136496 
3077.000000	96.143464 
3076.000000	96.150893 
3075.000000	96.158901 
3074.000000	96.166690 
3073.000000	96.173140 
3072.000000	96.178161 
3071.000000	96.182614 
3070.000000	96.187047 
3069.000000	96.191497 
3068.000000	96.196486 
3067.000000	96.202917 
3066.000000	96.210568 
3065.000000	96.217729 
3064.000000	96.223018 
3063.000000	96.226738 
3062.000000	96.230058 
3061.000000	96.233644 
3060.000000	96.237592 
3059.000000	96.242060 
3058.000000	96.247388 
3057.000000	96.253884 
3056.000000	96.261481 
3055.000000	96.269113 
3054.000000	96.274781 
3053.000000	96.277414 
3052.000000	96.278882 
3051.000000	96.282819 
3050.000000	96.290572 
3049.000000	96.299434 
3048.000000	96.305676 
3047.000000	96.308365 
3046.000000	96.309219 
3045.000000	96.309951 
3044.000000	96.311272 
3043.000000	96.314066 
3042.000000	96.319635 
3041.000000	96.327999 
3040.000000	96.336822 
3039.000000	96.343077 
3038.000000	96.345607 
3037.000000	96.345656 
3036.000000	96.345248 
3035.000000	96.345335 
3034.000000	96.345648 
3033.000000	96.345937 
3032.000000	96.346668 
3031.000000	96.348419 
3030.000000	96.351100 
3029.000000	96.353999 
3028.000000	96.356202 
3027.000000	96.356809 
3026.000000	96.355422 
3025.000000	96.352953 
3024.000000	96.351410 
3023.000000	96.351968 
3022.000000	96.353645 
3021.000000	96.354875 
3020.000000	96.355893 
3019.000000	96.358033 
3018.000000	96.360691 
3017.000000	96.360911 
3016.000000	96.356903 
3015.000000	96.350639 
3014.000000	96.346100 
3013.000000	96.345640 
3012.000000	96.348690 
3011.000000	96.352955 
3010.000000	96.355951 
3009.000000	96.356214 
3008.000000	96.354048 
3007.000000	96.351022 
3006.000000	96.348257 
3005.000000	96.345557 
3004.000000	96.342465 
3003.000000	96.339405 
3002.000000	96.337294 
3001.000000	96.336725 
3000.000000	96.337859 
2999.000000	96.340118 
2998.000000	96.341584 
2997.000000	96.339878 
2996.000000	96.334519 
2995.000000	96.327761 
2994.000000	96.322248 
2993.000000	96.318397 
2992.000000	96.314813 
2991.000000	96.310538 
2990.000000	96.306051 
2989.000000	96.302630 
2988.000000	96.301661 
2987.000000	96.304145 
2986.000000	96.310022 
2985.000000	96.318006 
2984.000000	96.326503 
2983.000000	96.334579 
2982.000000	96.341788 
2981.000000	96.347575 
2980.000000	96.351411 
2979.000000	96.353201 
2978.000000	96.353217 
2977.000000	96.352078 
2976.000000	96.351194 
2975.000000	96.352591 
2974.000000	96.357637 
2973.000000	96.366119 
2972.000000	96.376662 
2971.000000	96.387520 
2970.000000	96.396894 
2969.000000	96.403666 
2968.000000	96.408581 
2967.000000	96.413948 
2966.000000	96.421343 
2965.000000	96.430088 
2964.000000	96.438483 
2963.000000	96.445878 
2962.000000	96.452795 
2961.000000	96.459715 
2960.000000	96.466795 
2959.000000	96.474451 
2958.000000	96.483196 
2957.000000	96.492769 
2956.000000	96.501938 
2955.000000	96.509226 
2954.000000	96.513931 
2953.000000	96.516978 
2952.000000	96.520889 
2951.000000	96.527919 
2950.000000	96.537418 
2949.000000	96.545801 
2948.000000	96.550077 
2947.000000	96.550874 
2946.000000	96.551341 
2945.000000	96.553621 
2944.000000	96.557355 
2943.000000	96.561278 
2942.000000	96.564845 
2941.000000	96.568135 
2940.000000	96.571333 
2939.000000	96.574811 
2938.000000	96.579059 
2937.000000	96.584108 
2936.000000	96.589280 
2935.000000	96.593602 
2934.000000	96.596188 
2933.000000	96.596477 
2932.000000	96.594800 
2931.000000	96.592847 
2930.000000	96.592861 
2929.000000	96.595998 
2928.000000	96.601609 
2927.000000	96.608013 
2926.000000	96.613668 
2925.000000	96.617908 
2924.000000	96.621184 
2923.000000	96.624667 
2922.000000	96.629050 
2921.000000	96.633671 
2920.000000	96.637385 
2919.000000	96.640193 
2918.000000	96.643088 
2917.000000	96.646009 
2916.000000	96.647016 
2915.000000	96.644481 
2914.000000	96.639686 
2913.000000	96.636301 
2912.000000	96.636919 
2911.000000	96.640829 
2910.000000	96.645246 
2909.000000	96.648246 
2908.000000	96.650104 
2907.000000	96.651970 
2906.000000	96.654067 
2905.000000	96.655451 
2904.000000	96.655273 
2903.000000	96.654119 
2902.000000	96.654019 
2901.000000	96.657019 
2900.000000	96.663478 
2899.000000	96.671747 
2898.000000	96.679523 
2897.000000	96.685641 
2896.000000	96.690337 
2895.000000	96.694031 
2894.000000	96.696840 
2893.000000	96.699495 
2892.000000	96.703618 
2891.000000	96.709980 
2890.000000	96.717056 
2889.000000	96.722563 
2888.000000	96.726297 
2887.000000	96.729999 
2886.000000	96.734369 
2885.000000	96.738037 
2884.000000	96.740332 
2883.000000	96.743320 
2882.000000	96.749397 
2881.000000	96.757904 
2880.000000	96.765935 
2879.000000	96.772222 
2878.000000	96.778208 
2877.000000	96.785046 
2876.000000	96.791525 
2875.000000	96.796020 
2874.000000	96.799084 
2873.000000	96.802687 
2872.000000	96.807531 
2871.000000	96.812421 
2870.000000	96.816113 
2869.000000	96.818631 
2868.000000	96.820695 
2867.000000	96.822844 
2866.000000	96.825450 
2865.000000	96.828923 
2864.000000	96.833527 
2863.000000	96.839360 
2862.000000	96.846646 
2861.000000	96.855528 
2860.000000	96.865287 
2859.000000	96.874325 
2858.000000	96.881474 
2857.000000	96.887196 
2856.000000	96.893077 
2855.000000	96.900042 
2854.000000	96.907385 
2853.000000	96.913633 
2852.000000	96.918002 
2851.000000	96.920827 
2850.000000	96.922963 
2849.000000	96.925204 
2848.000000	96.928210 
2847.000000	96.932355 
2846.000000	96.937225 
2845.000000	96.941622 
2844.000000	96.944665 
2843.000000	96.946893 
2842.000000	96.949826 
2841.000000	96.954198 
2840.000000	96.959029 
2839.000000	96.962772 
2838.000000	96.965072 
2837.000000	96.966906 
2836.000000	96.969279 
2835.000000	96.972356 
2834.000000	96.975952 
2833.000000	96.980227 
2832.000000	96.985402 
2831.000000	96.991005 
2830.000000	96.995879 
2829.000000	96.999054 
2828.000000	97.000540 
2827.000000	97.001376 
2826.000000	97.003025 
2825.000000	97.006396 
2824.000000	97.011113 
2823.000000	97.015664 
2822.000000	97.018637 
2821.000000	97.019902 
2820.000000	97.020499 
2819.000000	97.021443 
2818.000000	97.022868 
2817.000000	97.024475 
2816.000000	97.026350 
2815.000000	97.028908 
2814.000000	97.032133 
2813.000000	97.035306 
2812.000000	97.037640 
2811.000000	97.039030 
2810.000000	97.040105 
2809.000000	97.041644 
2808.000000	97.043983 
2807.000000	97.046934 
2806.000000	97.050103 
2805.000000	97.053193 
2804.000000	97.056050 
2803.000000	97.058541 
2802.000000	97.060602 
2801.000000	97.062401 
2800.000000	97.064299 
2799.000000	97.066509 
2798.000000	97.068858 
2797.000000	97.071013 
2796.000000	97.072867 
2795.000000	97.074610 
2794.000000	97.076480 
2793.000000	97.078545 
2792.000000	97.080718 
2791.000000	97.082854 
2790.000000	97.084828 
2789.000000	97.086590 
2788.000000	97.088219 
2787.000000	97.089882 
2786.000000	97.091720 
2785.000000	97.093793 
2784.000000	97.096076 
2783.000000	97.098463 
2782.000000	97.100765 
2781.000000	97.102814 
2780.000000	97.104618 
2779.000000	97.106349 
2778.000000	97.108166 
2777.000000	97.110048 
2776.000000	97.111878 
2775.000000	97.113628 
2774.000000	97.115393 
2773.000000	97.117210 
2772.000000	97.118966 
2771.000000	97.120548 
2770.000000	97.122073 
2769.000000	97.123860 
2768.000000	97.126111 
2767.000000	97.128676 
2766.000000	97.131144 
2765.000000	97.133224 
2764.000000	97.135009 
2763.000000	97.136792 
2762.000000	97.138665 
2761.000000	97.140403 
2760.000000	97.141826 
2759.000000	97.143110 
2758.000000	97.144612 
2757.000000	97.146397 
2756.000000	97.148141 
2755.000000	97.149556 
2754.000000	97.150784 
2753.000000	97.152241 
2752.000000	97.154112 
2751.000000	97.156168 
2750.000000	97.158083 
2749.000000	97.159803 
2748.000000	97.161443 
2747.000000	97.162931 
2746.000000	97.164047 
2745.000000	97.164792 
2744.000000	97.165502 
2743.000000	97.166533 
2742.000000	97.167948 
2741.000000	97.169579 
2740.000000	97.171245 
2739.000000	97.172850 
2738.000000	97.174330 
2737.000000	97.175656 
2736.000000	97.176889 
2735.000000	97.178158 
2734.000000	97.179551 
2733.000000	97.181058 
2732.000000	97.182610 
2731.000000	97.184143 
2730.000000	97.185635 
2729.000000	97.187088 
2728.000000	97.188500 
2727.000000	97.189854 
2726.000000	97.191145 
2725.000000	97.192407 
2724.000000	97.193692 
2723.000000	97.195015 
2722.000000	97.196354 
2721.000000	97.197687 
2720.000000	97.199013 
2719.000000	97.200344 
2718.000000	97.201683 
2717.000000	97.203026 
2716.000000	97.204368 
2715.000000	97.205703 
2714.000000	97.207031 
2713.000000	97.208362 
2712.000000	97.209705 
2711.000000	97.211057 
2710.000000	97.212406 
2709.000000	97.213745 
2708.000000	97.215081 
2707.000000	97.216422 
2706.000000	97.217770 
2705.000000	97.219120 
2704.000000	97.220461 
2703.000000	97.221768 
2702.000000	97.223003 
2701.000000	97.224174 
2700.000000	97.225390 
2699.000000	97.226803 
2698.000000	97.228452 
2697.000000	97.230122 
2696.000000	97.231497 
2695.000000	97.232460 
2694.000000	97.233205 
2693.000000	97.234043 
2692.000000	97.235096 
2691.000000	97.236258 
2690.000000	97.237358 
2689.000000	97.238282 
2688.000000	97.239011 
2687.000000	97.239601 
2686.000000	97.240194 
2685.000000	97.240982 
2684.000000	97.242083 
2683.000000	97.243386 
2682.000000	97.244584 
2681.000000	97.245483 
2680.000000	97.246233 
2679.000000	97.247165 
2678.000000	97.248409 
2677.000000	97.249808 
2676.000000	97.251158 
2675.000000	97.252288 
2674.000000	97.252936 
2673.000000	97.252944 
2672.000000	97.252637 
2671.000000	97.252615 
2670.000000	97.253016 
2669.000000	97.253387 
2668.000000	97.253431 
2667.000000	97.253464 
2666.000000	97.253845 
2665.000000	97.254324 
2664.000000	97.254414 
2663.000000	97.254177 
2662.000000	97.254183 
2661.000000	97.254682 
2660.000000	97.255236 
2659.000000	97.255287 
2658.000000	97.254801 
2657.000000	97.254230 
2656.000000	97.254002 
2655.000000	97.254133 
2654.000000	97.254234 
2653.000000	97.253917 
2652.000000	97.253309 
2651.000000	97.253102 
2650.000000	97.253878 
2649.000000	97.255459 
2648.000000	97.257070 
2647.000000	97.258089 
2646.000000	97.258364 
2645.000000	97.257902 
2644.000000	97.256760 
2643.000000	97.255345 
2642.000000	97.254368 
2641.000000	97.254148 
2640.000000	97.254278 
2639.000000	97.254284 
2638.000000	97.254383 
2637.000000	97.255144 
2636.000000	97.256618 
2635.000000	97.258275 
2634.000000	97.259673 
2633.000000	97.260714 
2632.000000	97.261254 
2631.000000	97.260982 
2630.000000	97.259938 
2629.000000	97.258818 
2628.000000	97.258452 
2627.000000	97.259118 
2626.000000	97.260577 
2625.000000	97.262492 
2624.000000	97.264594 
2623.000000	97.266560 
2622.000000	97.268038 
2621.000000	97.268773 
2620.000000	97.268571 
2619.000000	97.267293 
2618.000000	97.265203 
2617.000000	97.263213 
2616.000000	97.262310 
2615.000000	97.262681 
2614.000000	97.263656 
2613.000000	97.264499 
2612.000000	97.265088 
2611.000000	97.265762 
2610.000000	97.266855 
2609.000000	97.268501 
2608.000000	97.270542 
2607.000000	97.272471 
2606.000000	97.273794 
2605.000000	97.274567 
2604.000000	97.275238 
2603.000000	97.275927 
2602.000000	97.276317 
2601.000000	97.276413 
2600.000000	97.276761 
2599.000000	97.277530 
2598.000000	97.278040 
2597.000000	97.277722 
2596.000000	97.276968 
2595.000000	97.276465 
2594.000000	97.276097 
2593.000000	97.275364 
2592.000000	97.274721 
2591.000000	97.275352 
2590.000000	97.277441 
2589.000000	97.279582 
2588.000000	97.280415 
2587.000000	97.280156 
2586.000000	97.279919 
2585.000000	97.280307 
2584.000000	97.281301 
2583.000000	97.282925 
2582.000000	97.285191 
2581.000000	97.287566 
2580.000000	97.289231 
2579.000000	97.289904 
2578.000000	97.290057 
2577.000000	97.290335 
2576.000000	97.290984 
2575.000000	97.291778 
2574.000000	97.292299 
2573.000000	97.292310 
2572.000000	97.291944 
2571.000000	97.291445 
2570.000000	97.290794 
2569.000000	97.289928 
2568.000000	97.289323 
2567.000000	97.289738 
2566.000000	97.291128 
2565.000000	97.292318 
2564.000000	97.292239 
2563.000000	97.291208 
2562.000000	97.290549 
2561.000000	97.291303 
2560.000000	97.293797 
2559.000000	97.297965 
2558.000000	97.303194 
2557.000000	97.308015 
2556.000000	97.310944 
2555.000000	97.311763 
2554.000000	97.311472 
2553.000000	97.310907 
2552.000000	97.310030 
2551.000000	97.308952 
2550.000000	97.308606 
2549.000000	97.309553 
2548.000000	97.310733 
2547.000000	97.310457 
2546.000000	97.308555 
2545.000000	97.306745 
2544.000000	97.306592 
2543.000000	97.307735 
2542.000000	97.308669 
2541.000000	97.308769 
2540.000000	97.308831 
2539.000000	97.309658 
2538.000000	97.310977 
2537.000000	97.312094 
2536.000000	97.313041 
2535.000000	97.314378 
2534.000000	97.316072 
2533.000000	97.317267 
2532.000000	97.317358 
2531.000000	97.316745 
2530.000000	97.316274 
2529.000000	97.316213 
2528.000000	97.316207 
2527.000000	97.316109 
2526.000000	97.316342 
2525.000000	97.317284 
2524.000000	97.318703 
2523.000000	97.319989 
2522.000000	97.320814 
2521.000000	97.321347 
2520.000000	97.321912 
2519.000000	97.322639 
2518.000000	97.323437 
2517.000000	97.324138 
2516.000000	97.324607 
2515.000000	97.324836 
2514.000000	97.324996 
2513.000000	97.325361 
2512.000000	97.326054 
2511.000000	97.326978 
2510.000000	97.327948 
2509.000000	97.328857 
2508.000000	97.329707 
2507.000000	97.330502 
2506.000000	97.331243 
2505.000000	97.331994 
2504.000000	97.332848 
2503.000000	97.333791 
2502.000000	97.334675 
2501.000000	97.335389 
2500.000000	97.335981 
2499.000000	97.336572 
2498.000000	97.337219 
2497.000000	97.337899 
2496.000000	97.338605 
2495.000000	97.339357 
2494.000000	97.340139 
2493.000000	97.340876 
2492.000000	97.341505 
2491.000000	97.342061 
2490.000000	97.342654 
2489.000000	97.343357 
2488.000000	97.344102 
2487.000000	97.344751 
2486.000000	97.345251 
2485.000000	97.345693 
2484.000000	97.346215 
2483.000000	97.346850 
2482.000000	97.347469 
2481.000000	97.347896 
2480.000000	97.348093 
2479.000000	97.348230 
2478.000000	97.348526 
2477.000000	97.348999 
2476.000000	97.349454 
2475.000000	97.349702 
2474.000000	97.349714 
2473.000000	97.349561 
2472.000000	97.349339 
2471.000000	97.349198 
2470.000000	97.349374 
2469.000000	97.350041 
2468.000000	97.351056 
2467.000000	97.351934 
2466.000000	97.352241 
2465.000000	97.351965 
2464.000000	97.351540 
2463.000000	97.351506 
2462.000000	97.352136 
2461.000000	97.353350 
2460.000000	97.354777 
2459.000000	97.355945 
2458.000000	97.356492 
2457.000000	97.356313 
2456.000000	97.355536 
2455.000000	97.354455 
2454.000000	97.353447 
2453.000000	97.352789 
2452.000000	97.352491 
2451.000000	97.352417 
2450.000000	97.352651 
2449.000000	97.353484 
2448.000000	97.354866 
2447.000000	97.356191 
2446.000000	97.356896 
2445.000000	97.357092 
2444.000000	97.357281 
2443.000000	97.357667 
2442.000000	97.358113 
2441.000000	97.358601 
2440.000000	97.359265 
2439.000000	97.360073 
2438.000000	97.360994 
2437.000000	97.362377 
2436.000000	97.364582 
2435.000000	97.367165 
2434.000000	97.369002 
2433.000000	97.369517 
2432.000000	97.369292 
2431.000000	97.369354 
2430.000000	97.370214 
2429.000000	97.371854 
2428.000000	97.374055 
2427.000000	97.376312 
2426.000000	97.377743 
2425.000000	97.377503 
2424.000000	97.375538 
2423.000000	97.372900 
2422.000000	97.370896 
2421.000000	97.370553 
2420.000000	97.372612 
2419.000000	97.376729 
2418.000000	97.381110 
2417.000000	97.384094 
2416.000000	97.385785 
2415.000000	97.387196 
2414.000000	97.388623 
2413.000000	97.389969 
2412.000000	97.391639 
2411.000000	97.393698 
2410.000000	97.394975 
2409.000000	97.394612 
2408.000000	97.393781 
2407.000000	97.394209 
2406.000000	97.395542 
2405.000000	97.395825 
2404.000000	97.394267 
2403.000000	97.391974 
2402.000000	97.390275 
2401.000000	97.389923 
2400.000000	97.391655 
2399.000000	97.395816 
2398.000000	97.401327 
2397.000000	97.406406 
2396.000000	97.410219 
2395.000000	97.412679 
2394.000000	97.413171 
2393.000000	97.411427 
2392.000000	97.409325 
2391.000000	97.409893 
2390.000000	97.413995 
2389.000000	97.419611 
2388.000000	97.424713 
2387.000000	97.429427 
2386.000000	97.434846 
2385.000000	97.440973 
2384.000000	97.446587 
2383.000000	97.449945 
2382.000000	97.448894 
2381.000000	97.441714 
2380.000000	97.428889 
2379.000000	97.413538 
2378.000000	97.399202 
2377.000000	97.387841 
2376.000000	97.380777 
2375.000000	97.379883 
2374.000000	97.385671 
2373.000000	97.395024 
2372.000000	97.403192 
2371.000000	97.408394 
2370.000000	97.412093 
2369.000000	97.414968 
2368.000000	97.415428 
2367.000000	97.412548 
2366.000000	97.408007 
2365.000000	97.404312 
2364.000000	97.402587 
2363.000000	97.402672 
2362.000000	97.404167 
2361.000000	97.406509 
2360.000000	97.409032 
2359.000000	97.411369 
2358.000000	97.412788 
2357.000000	97.412613 
2356.000000	97.411007 
2355.000000	97.408923 
2354.000000	97.406641 
2353.000000	97.404888 
2352.000000	97.405290 
2351.000000	97.408044 
2350.000000	97.411357 
2349.000000	97.413308 
2348.000000	97.413764 
2347.000000	97.413710 
2346.000000	97.414246 
2345.000000	97.415809 
2344.000000	97.417981 
2343.000000	97.420067 
2342.000000	97.421634 
2341.000000	97.422788 
2340.000000	97.423887 
2339.000000	97.425180 
2338.000000	97.426573 
2337.000000	97.427786 
2336.000000	97.429034 
2335.000000	97.430763 
2334.000000	97.432865 
2333.000000	97.434473 
2332.000000	97.435588 
2331.000000	97.437004 
2330.000000	97.439487 
2329.000000	97.442511 
2328.000000	97.445871 
2327.000000	97.449421 
2326.000000	97.452556 
2325.000000	97.454387 
2324.000000	97.455584 
2323.000000	97.457737 
2322.000000	97.460468 
2321.000000	97.461182 
2320.000000	97.459413 
2319.000000	97.457363 
2318.000000	97.457454 
2317.000000	97.458101 
2316.000000	97.457396 
2315.000000	97.454658 
2314.000000	97.452231 
2313.000000	97.451556 
2312.000000	97.454674 
2311.000000	97.461750 
2310.000000	97.470911 
2309.000000	97.477204 
2308.000000	97.478803 
2307.000000	97.477967 
2306.000000	97.478301 
2305.000000	97.479737 
2304.000000	97.481266 
2303.000000	97.482487 
2302.000000	97.484834 
2301.000000	97.487794 
2300.000000	97.489730 
2299.000000	97.487616 
2298.000000	97.480538 
2297.000000	97.468651 
2296.000000	97.455111 
2295.000000	97.443390 
2294.000000	97.435115 
2293.000000	97.428338 
2292.000000	97.421262 
2291.000000	97.414465 
2290.000000	97.409473 
2289.000000	97.406313 
2288.000000	97.403537 
2287.000000	97.400101 
2286.000000	97.395698 
2285.000000	97.391170 
2284.000000	97.388148 
2283.000000	97.387748 
2282.000000	97.388194 
2281.000000	97.386073 
2280.000000	97.380150 
2279.000000	97.372873 
2278.000000	97.367317 
2277.000000	97.364529 
2276.000000	97.364424 
2275.000000	97.366599 
2274.000000	97.369804 
2273.000000	97.372694 
2272.000000	97.376037 
2271.000000	97.381306 
2270.000000	97.387038 
2269.000000	97.389522 
2268.000000	97.388031 
2267.000000	97.385880 
2266.000000	97.385502 
2265.000000	97.385520 
2264.000000	97.383852 
2263.000000	97.380694 
2262.000000	97.377120 
2261.000000	97.373507 
2260.000000	97.370416 
2259.000000	97.368856 
2258.000000	97.368554 
2257.000000	97.368124 
2256.000000	97.367631 
2255.000000	97.368901 
2254.000000	97.372440 
2253.000000	97.375810 
2252.000000	97.376369 
2251.000000	97.373906 
2250.000000	97.369578 
2249.000000	97.364230 
2248.000000	97.358955 
2247.000000	97.355573 
2246.000000	97.354962 
2245.000000	97.355898 
2244.000000	97.356307 
2243.000000	97.355451 
2242.000000	97.354089 
2241.000000	97.353070 
2240.000000	97.352601 
2239.000000	97.352485 
2238.000000	97.352401 
2237.000000	97.352048 
2236.000000	97.351386 
2235.000000	97.350611 
2234.000000	97.349840 
2233.000000	97.349012 
2232.000000	97.348101 
2231.000000	97.347193 
2230.000000	97.346317 
2229.000000	97.345344 
2228.000000	97.344187 
2227.000000	97.342965 
2226.000000	97.341874 
2225.000000	97.340943 
2224.000000	97.340000 
2223.000000	97.338927 
2222.000000	97.337838 
2221.000000	97.336903 
2220.000000	97.336097 
2219.000000	97.335299 
2218.000000	97.334447 
2217.000000	97.333583 
2216.000000	97.332769 
2215.000000	97.332016 
2214.000000	97.331284 
2213.000000	97.330530 
2212.000000	97.329759 
2211.000000	97.329025 
2210.000000	97.328369 
2209.000000	97.327782 
2208.000000	97.327228 
2207.000000	97.326678 
2206.000000	97.326109 
2205.000000	97.325513 
2204.000000	97.324936 
2203.000000	97.324493 
2202.000000	97.324290 
2201.000000	97.324206 
2200.000000	97.323865 
2199.000000	97.322926 
2198.000000	97.321321 
2197.000000	97.319299 
2196.000000	97.317447 
2195.000000	97.316343 
2194.000000	97.315939 
2193.000000	97.315613 
2192.000000	97.315117 
2191.000000	97.314896 
2190.000000	97.315081 
2189.000000	97.314980 
2188.000000	97.314165 
2187.000000	97.313103 
2186.000000	97.311984 
2185.000000	97.310192 
2184.000000	97.308195 
2183.000000	97.308531 
2182.000000	97.312981 
2181.000000	97.319500 
2180.000000	97.323533 
2179.000000	97.322923 
2178.000000	97.319443 
2177.000000	97.316393 
2176.000000	97.315520 
2175.000000	97.316554 
2174.000000	97.318348 
2173.000000	97.319910 
2172.000000	97.321415 
2171.000000	97.324225 
2170.000000	97.328777 
2169.000000	97.332728 
2168.000000	97.332884 
2167.000000	97.329002 
2166.000000	97.324100 
2165.000000	97.320689 
2164.000000	97.318362 
2163.000000	97.315976 
2162.000000	97.314765 
2161.000000	97.317942 
2160.000000	97.327714 
2159.000000	97.343078 
2158.000000	97.359648 
2157.000000	97.372191 
2156.000000	97.378349 
2155.000000	97.379633 
2154.000000	97.379568 
2153.000000	97.381127 
2152.000000	97.384896 
2151.000000	97.388585 
2150.000000	97.388801 
2149.000000	97.384921 
2148.000000	97.381080 
2147.000000	97.382195 
2146.000000	97.388044 
2145.000000	97.393718 
2144.000000	97.396442 
2143.000000	97.398926 
2142.000000	97.404367 
2141.000000	97.411321 
2140.000000	97.416216 
2139.000000	97.418925 
2138.000000	97.422686 
2137.000000	97.429269 
2136.000000	97.436626 
2135.000000	97.440908 
2134.000000	97.439374 
2133.000000	97.432514 
2132.000000	97.424770 
2131.000000	97.421504 
2130.000000	97.424076 
2129.000000	97.429108 
2128.000000	97.432781 
2127.000000	97.434545 
2126.000000	97.435730 
2125.000000	97.436584 
2124.000000	97.436559 
2123.000000	97.435978 
2122.000000	97.435493 
2121.000000	97.434772 
2120.000000	97.433166 
2119.000000	97.430986 
2118.000000	97.429017 
2117.000000	97.427405 
2116.000000	97.425854 
2115.000000	97.424204 
2114.000000	97.422081 
2113.000000	97.418981 
2112.000000	97.415690 
2111.000000	97.414466 
2110.000000	97.416506 
2109.000000	97.420166 
2108.000000	97.422805 
2107.000000	97.423689 
2106.000000	97.423891 
2105.000000	97.424390 
2104.000000	97.425509 
2103.000000	97.427235 
2102.000000	97.428793 
2101.000000	97.428639 
2100.000000	97.426188 
2099.000000	97.423147 
2098.000000	97.422131 
2097.000000	97.423952 
2096.000000	97.427319 
2095.000000	97.430357 
2094.000000	97.431984 
2093.000000	97.432078 
2092.000000	97.431063 
2091.000000	97.429742 
2090.000000	97.429003 
2089.000000	97.429267 
2088.000000	97.430282 
2087.000000	97.431309 
2086.000000	97.431556 
2085.000000	97.430694 
2084.000000	97.429162 
2083.000000	97.427864 
2082.000000	97.427280 
2081.000000	97.427143 
2080.000000	97.427122 
2079.000000	97.427426 
2078.000000	97.428277 
2077.000000	97.429151 
2076.000000	97.429268 
2075.000000	97.428687 
2074.000000	97.428151 
2073.000000	97.427887 
2072.000000	97.427342 
2071.000000	97.426175 
2070.000000	97.424822 
2069.000000	97.423928 
2068.000000	97.423722 
2067.000000	97.424065 
2066.000000	97.424675 
2065.000000	97.425136 
2064.000000	97.425085 
2063.000000	97.424618 
2062.000000	97.424272 
2061.000000	97.424558 
2060.000000	97.425646 
2059.000000	97.427420 
2058.000000	97.429455 
2057.000000	97.431003 
2056.000000	97.431371 
2055.000000	97.430359 
2054.000000	97.428457 
2053.000000	97.426655 
2052.000000	97.425847 
2051.000000	97.426278 
2050.000000	97.427354 
2049.000000	97.428123 
2048.000000	97.428289 
2047.000000	97.428420 
2046.000000	97.428979 
2045.000000	97.429659 
2044.000000	97.430014 
2043.000000	97.430248 
2042.000000	97.430845 
2041.000000	97.431877 
2040.000000	97.433336 
2039.000000	97.435670 
2038.000000	97.439002 
2037.000000	97.442153 
2036.000000	97.443662 
2035.000000	97.443601 
2034.000000	97.443599 
2033.000000	97.445104 
2032.000000	97.448177 
2031.000000	97.451684 
2030.000000	97.453878 
2029.000000	97.453361 
2028.000000	97.450398 
2027.000000	97.447104 
2026.000000	97.445455 
2025.000000	97.445784 
2024.000000	97.447784 
2023.000000	97.451876 
2022.000000	97.458269 
2021.000000	97.465087 
2020.000000	97.469261 
2019.000000	97.469288 
2018.000000	97.465840 
2017.000000	97.460577 
2016.000000	97.455394 
2015.000000	97.452077 
2014.000000	97.450951 
2013.000000	97.450309 
2012.000000	97.448786 
2011.000000	97.447912 
2010.000000	97.450206 
2009.000000	97.455341 
2008.000000	97.460215 
2007.000000	97.462956 
2006.000000	97.464485 
2005.000000	97.465853 
2004.000000	97.466580 
2003.000000	97.466316 
2002.000000	97.466144 
2001.000000	97.466783 
2000.000000	97.466999 
1999.000000	97.464861 
1998.000000	97.459960 
1997.000000	97.454037 
1996.000000	97.449672 
1995.000000	97.448360 
1994.000000	97.449696 
1993.000000	97.451769 
1992.000000	97.452599 
1991.000000	97.451903 
1990.000000	97.451035 
1989.000000	97.451281 
1988.000000	97.452498 
1987.000000	97.453364 
1986.000000	97.452778 
1985.000000	97.451018 
1984.000000	97.449484 
1983.000000	97.449234 
1982.000000	97.450003 
1981.000000	97.450783 
1980.000000	97.451193 
1979.000000	97.451684 
1978.000000	97.452479 
1977.000000	97.453126 
1976.000000	97.453201 
1975.000000	97.452927 
1974.000000	97.452874 
1973.000000	97.453347 
1972.000000	97.454207 
1971.000000	97.455088 
1970.000000	97.455631 
1969.000000	97.455660 
1968.000000	97.455238 
1967.000000	97.454636 
1966.000000	97.454217 
1965.000000	97.454193 
1964.000000	97.454567 
1963.000000	97.455218 
1962.000000	97.455977 
1961.000000	97.456648 
1960.000000	97.457034 
1959.000000	97.457037 
1958.000000	97.456756 
1957.000000	97.456472 
1956.000000	97.456419 
1955.000000	97.456587 
1954.000000	97.456735 
1953.000000	97.456638 
1952.000000	97.456297 
1951.000000	97.455855 
1950.000000	97.455401 
1949.000000	97.454974 
1948.000000	97.454695 
1947.000000	97.454667 
1946.000000	97.454722 
1945.000000	97.454464 
1944.000000	97.453679 
1943.000000	97.452560 
1942.000000	97.451488 
1941.000000	97.450587 
1940.000000	97.449744 
1939.000000	97.448829 
1938.000000	97.447812 
1937.000000	97.446823 
1936.000000	97.446094 
1935.000000	97.445693 
1934.000000	97.445274 
1933.000000	97.444444 
1932.000000	97.443329 
1931.000000	97.442492 
1930.000000	97.442121 
1929.000000	97.441640 
1928.000000	97.440727 
1927.000000	97.439801 
1926.000000	97.439188 
1925.000000	97.438313 
1924.000000	97.436500 
1923.000000	97.434201 
1922.000000	97.432360 
1921.000000	97.431031 
1920.000000	97.429674 
1919.000000	97.428206 
1918.000000	97.426701 
1917.000000	97.424730 
1916.000000	97.422127 
1915.000000	97.419613 
1914.000000	97.417925 
1913.000000	97.416887 
1912.000000	97.415633 
1911.000000	97.413905 
1910.000000	97.412136 
1909.000000	97.410543 
1908.000000	97.409166 
1907.000000	97.407995 
1906.000000	97.406721 
1905.000000	97.404597 
1904.000000	97.401282 
1903.000000	97.397879 
1902.000000	97.395647 
1901.000000	97.394376 
1900.000000	97.393096 
1899.000000	97.391573 
1898.000000	97.390209 
1897.000000	97.388893 
1896.000000	97.386953 
1895.000000	97.384376 
1894.000000	97.381729 
1893.000000	97.379138 
1892.000000	97.376397 
1891.000000	97.373917 
1890.000000	97.372361 
1889.000000	97.371493 
1888.000000	97.370711 
1887.000000	97.370194 
1886.000000	97.370214 
1885.000000	97.370121 
1884.000000	97.368901 
1883.000000	97.366672 
1882.000000	97.364634 
1881.000000	97.363601 
1880.000000	97.363386 
1879.000000	97.363170 
1878.000000	97.362266 
1877.000000	97.360902 
1876.000000	97.360075 
1875.000000	97.360572 
1874.000000	97.362164 
1873.000000	97.363647 
1872.000000	97.364147 
1871.000000	97.363875 
1870.000000	97.363306 
1869.000000	97.362311 
1868.000000	97.361097 
1867.000000	97.360925 
1866.000000	97.362215 
1865.000000	97.363685 
1864.000000	97.364109 
1863.000000	97.363901 
1862.000000	97.364264 
1861.000000	97.365460 
1860.000000	97.366876 
1859.000000	97.368299 
1858.000000	97.369955 
1857.000000	97.371706 
1856.000000	97.373229 
1855.000000	97.374620 
1854.000000	97.376036 
1853.000000	97.377131 
1852.000000	97.377856 
1851.000000	97.378789 
1850.000000	97.380271 
1849.000000	97.382036 
1848.000000	97.383694 
1847.000000	97.385332 
1846.000000	97.387126 
1845.000000	97.388771 
1844.000000	97.389779 
1843.000000	97.390439 
1842.000000	97.391475 
1841.000000	97.392845 
1840.000000	97.394228 
1839.000000	97.395611 
1838.000000	97.397049 
1837.000000	97.398236 
1836.000000	97.398846 
1835.000000	97.399172 
1834.000000	97.399794 
1833.000000	97.400751 
1832.000000	97.401627 
1831.000000	97.402039 
1830.000000	97.401955 
1829.000000	97.401850 
1828.000000	97.402221 
1827.000000	97.403070 
1826.000000	97.404123 
1825.000000	97.405103 
1824.000000	97.405770 
1823.000000	97.406217 
1822.000000	97.406712 
1821.000000	97.407222 
1820.000000	97.407464 
1819.000000	97.407411 
1818.000000	97.407645 
1817.000000	97.408462 
1816.000000	97.409167 
1815.000000	97.409296 
1814.000000	97.409361 
1813.000000	97.409988 
1812.000000	97.410559 
1811.000000	97.410040 
1810.000000	97.408884 
1809.000000	97.408130 
1808.000000	97.407882 
1807.000000	97.407796 
1806.000000	97.407779 
1805.000000	97.407623 
1804.000000	97.406941 
1803.000000	97.406103 
1802.000000	97.405803 
1801.000000	97.406037 
1800.000000	97.405909 
1799.000000	97.405068 
1798.000000	97.404457 
1797.000000	97.404455 
1796.000000	97.404661 
1795.000000	97.405031 
1794.000000	97.405826 
1793.000000	97.406509 
1792.000000	97.405876 
1791.000000	97.404692 
1790.000000	97.405045 
1789.000000	97.406569 
1788.000000	97.407775 
1787.000000	97.408560 
1786.000000	97.409881 
1785.000000	97.411599 
1784.000000	97.412564 
1783.000000	97.412779 
1782.000000	97.412743 
1781.000000	97.412978 
1780.000000	97.413800 
1779.000000	97.415071 
1778.000000	97.416653 
1777.000000	97.418087 
1776.000000	97.419278 
1775.000000	97.420302 
1774.000000	97.420992 
1773.000000	97.421036 
1772.000000	97.420303 
1771.000000	97.419552 
1770.000000	97.419864 
1769.000000	97.421313 
1768.000000	97.423362 
1767.000000	97.425192 
1766.000000	97.426262 
1765.000000	97.426775 
1764.000000	97.427171 
1763.000000	97.427640 
1762.000000	97.427739 
1761.000000	97.427558 
1760.000000	97.427917 
1759.000000	97.428869 
1758.000000	97.430096 
1757.000000	97.431335 
1756.000000	97.432993 
1755.000000	97.434172 
1754.000000	97.432889 
1753.000000	97.429118 
1752.000000	97.426390 
1751.000000	97.426654 
1750.000000	97.428104 
1749.000000	97.428285 
1748.000000	97.426384 
1747.000000	97.423407 
1746.000000	97.419264 
1745.000000	97.416039 
1744.000000	97.416632 
1743.000000	97.420207 
1742.000000	97.423269 
1741.000000	97.423118 
1740.000000	97.419131 
1739.000000	97.414530 
1738.000000	97.414367 
1737.000000	97.416856 
1736.000000	97.417808 
1735.000000	97.417657 
1734.000000	97.411932 
1733.000000	97.398763 
1732.000000	97.390895 
1731.000000	97.390858 
1730.000000	97.395844 
1729.000000	97.401748 
1728.000000	97.404078 
1727.000000	97.401226 
1726.000000	97.394402 
1725.000000	97.387385 
1724.000000	97.381014 
1723.000000	97.374786 
1722.000000	97.370751 
1721.000000	97.367528 
1720.000000	97.360805 
1719.000000	97.349741 
1718.000000	97.338542 
1717.000000	97.327509 
1716.000000	97.314015 
1715.000000	97.301040 
1714.000000	97.293358 
1713.000000	97.289236 
1712.000000	97.282407 
1711.000000	97.272694 
1710.000000	97.264522 
1709.000000	97.258130 
1708.000000	97.249180 
1707.000000	97.235281 
1706.000000	97.219250 
1705.000000	97.203641 
1704.000000	97.189101 
1703.000000	97.175832 
1702.000000	97.165517 
1701.000000	97.157612 
1700.000000	97.139872 
1699.000000	97.115544 
1698.000000	97.102088 
1697.000000	97.094265 
1696.000000	97.082907 
1695.000000	97.066895 
1694.000000	97.053234 
1693.000000	97.041566 
1692.000000	97.026154 
1691.000000	97.007347 
1690.000000	96.988185 
1689.000000	96.970042 
1688.000000	96.954131 
1687.000000	96.939834 
1686.000000	96.927147 
1685.000000	96.913588 
1684.000000	96.889697 
1683.000000	96.861307 
1682.000000	96.842965 
1681.000000	96.829150 
1680.000000	96.816737 
1679.000000	96.806256 
1678.000000	96.795388 
1677.000000	96.781595 
1676.000000	96.765588 
1675.000000	96.746884 
1674.000000	96.724124 
1673.000000	96.701505 
1672.000000	96.681149 
1671.000000	96.663501 
1670.000000	96.645535 
1669.000000	96.622167 
1668.000000	96.601689 
1667.000000	96.590974 
1666.000000	96.583530 
1665.000000	96.572191 
1664.000000	96.555810 
1663.000000	96.537518 
1662.000000	96.517572 
1661.000000	96.496087 
1660.000000	96.477273 
1659.000000	96.461910 
1658.000000	96.446050 
1657.000000	96.427983 
1656.000000	96.411709 
1655.000000	96.404625 
1654.000000	96.405561 
1653.000000	96.374740 
1652.000000	96.316355 
1651.000000	96.295866 
1650.000000	96.292826 
1649.000000	96.285304 
1648.000000	96.275927 
1647.000000	96.266589 
1646.000000	96.254478 
1645.000000	96.247083 
1644.000000	96.245153 
1643.000000	96.244819 
1642.000000	96.244710 
1641.000000	96.243236 
1640.000000	96.240966 
1639.000000	96.239173 
1638.000000	96.240462 
1637.000000	96.245618 
1636.000000	96.247544 
1635.000000	96.238548 
1634.000000	96.233222 
1633.000000	96.240809 
1632.000000	96.251563 
1631.000000	96.264440 
1630.000000	96.280444 
1629.000000	96.295598 
1628.000000	96.307359 
1627.000000	96.321487 
1626.000000	96.340999 
1625.000000	96.362095 
1624.000000	96.382302 
1623.000000	96.402769 
1622.000000	96.424914 
1621.000000	96.449036 
1620.000000	96.475294 
1619.000000	96.504418 
1618.000000	96.536333 
1617.000000	96.559587 
1616.000000	96.569189 
1615.000000	96.583311 
1614.000000	96.608381 
1613.000000	96.633568 
1612.000000	96.655209 
1611.000000	96.676779 
1610.000000	96.697652 
1609.000000	96.717005 
1608.000000	96.740845 
1607.000000	96.772503 
1606.000000	96.802351 
1605.000000	96.822196 
1604.000000	96.838166 
1603.000000	96.856469 
1602.000000	96.874903 
1601.000000	96.890192 
1600.000000	96.905435 
1599.000000	96.923098 
1598.000000	96.939562 
1597.000000	96.952048 
1596.000000	96.963271 
1595.000000	96.976760 
1594.000000	96.991265 
1593.000000	97.003979 
1592.000000	97.015843 
1591.000000	97.028845 
1590.000000	97.041544 
1589.000000	97.052167 
1588.000000	97.062687 
1587.000000	97.075407 
1586.000000	97.088202 
1585.000000	97.097091 
1584.000000	97.104738 
1583.000000	97.114568 
1582.000000	97.122895 
1581.000000	97.127276 
1580.000000	97.132680 
1579.000000	97.143194 
1578.000000	97.156668 
1577.000000	97.168869 
1576.000000	97.175274 
1575.000000	97.179397 
1574.000000	97.187311 
1573.000000	97.196616 
1572.000000	97.205715 
1571.000000	97.215008 
1570.000000	97.219955 
1569.000000	97.218048 
1568.000000	97.219560 
1567.000000	97.227938 
1566.000000	97.235401 
1565.000000	97.237956 
1564.000000	97.239074 
1563.000000	97.241441 
1562.000000	97.243117 
1561.000000	97.244481 
1560.000000	97.254714 
1559.000000	97.263651 
1558.000000	97.256617 
1557.000000	97.253710 
1556.000000	97.258005 
1555.000000	97.264422 
1554.000000	97.269948 
1553.000000	97.273329 
1552.000000	97.275041 
1551.000000	97.275675 
1550.000000	97.276520 
1549.000000	97.277612 
1548.000000	97.278284 
1547.000000	97.278333 
1546.000000	97.277724 
1545.000000	97.277103 
1544.000000	97.277045 
1543.000000	97.277477 
1542.000000	97.278275 
1541.000000	97.278318 
1540.000000	97.274960 
1539.000000	97.270130 
1538.000000	97.268313 
1537.000000	97.268118 
1536.000000	97.267034 
1535.000000	97.265409 
1534.000000	97.264004 
1533.000000	97.262762 
1532.000000	97.261583 
1531.000000	97.260244 
1530.000000	97.258493 
1529.000000	97.256340 
1528.000000	97.254028 
1527.000000	97.251943 
1526.000000	97.250130 
1525.000000	97.248223 
1524.000000	97.245921 
1523.000000	97.243363 
1522.000000	97.240957 
1521.000000	97.238688 
1520.000000	97.236299 
1519.000000	97.233566 
1518.000000	97.230407 
1517.000000	97.227383 
1516.000000	97.225010 
1515.000000	97.223238 
1514.000000	97.221524 
1513.000000	97.219484 
1512.000000	97.216850 
1511.000000	97.213483 
1510.000000	97.209751 
1509.000000	97.206386 
1508.000000	97.204237 
1507.000000	97.203030 
1506.000000	97.200914 
1505.000000	97.197837 
1504.000000	97.194688 
1503.000000	97.191045 
1502.000000	97.186860 
1501.000000	97.182726 
1500.000000	97.178740 
1499.000000	97.174363 
1498.000000	97.169990 
1497.000000	97.167102 
1496.000000	97.165342 
1495.000000	97.164208 
1494.000000	97.164335 
1493.000000	97.165223 
1492.000000	97.165542 
1491.000000	97.164783 
1490.000000	97.163705 
1489.000000	97.162269 
1488.000000	97.158274 
1487.000000	97.151899 
1486.000000	97.146325 
1485.000000	97.141077 
1484.000000	97.134970 
1483.000000	97.128825 
1482.000000	97.124567 
1481.000000	97.122411 
1480.000000	97.119350 
1479.000000	97.113829 
1478.000000	97.107547 
1477.000000	97.102656 
1476.000000	97.097943 
1475.000000	97.092712 
1474.000000	97.088250 
1473.000000	97.085376 
1472.000000	97.082979 
1471.000000	97.080553 
1470.000000	97.078502 
1469.000000	97.074525 
1468.000000	97.066819 
1467.000000	97.057287 
1466.000000	97.049894 
1465.000000	97.045813 
1464.000000	97.043048 
1463.000000	97.037873 
1462.000000	97.028497 
1461.000000	97.015202 
1460.000000	97.000244 
1459.000000	96.986892 
1458.000000	96.978703 
1457.000000	96.975684 
1456.000000	96.973713 
1455.000000	96.970159 
1454.000000	96.961278 
1453.000000	96.950312 
1452.000000	96.943496 
1451.000000	96.941221 
1450.000000	96.940894 
1449.000000	96.941840 
1448.000000	96.942664 
1447.000000	96.941414 
1446.000000	96.936562 
1445.000000	96.930096 
1444.000000	96.925438 
1443.000000	96.920898 
1442.000000	96.914558 
1441.000000	96.906743 
1440.000000	96.897705 
1439.000000	96.884999 
1438.000000	96.871762 
1437.000000	96.866517 
1436.000000	96.868714 
1435.000000	96.868950 
1434.000000	96.863374 
1433.000000	96.856506 
1432.000000	96.853556 
1431.000000	96.853822 
1430.000000	96.854152 
1429.000000	96.855816 
1428.000000	96.858605 
1427.000000	96.860015 
1426.000000	96.858484 
1425.000000	96.859278 
1424.000000	96.867478 
1423.000000	96.875082 
1422.000000	96.873596 
1421.000000	96.867456 
1420.000000	96.868187 
1419.000000	96.874221 
1418.000000	96.876907 
1417.000000	96.879703 
1416.000000	96.886448 
1415.000000	96.893576 
1414.000000	96.895808 
1413.000000	96.893962 
1412.000000	96.893614 
1411.000000	96.896040 
1410.000000	96.899155 
1409.000000	96.903050 
1408.000000	96.907729 
1407.000000	96.913096 
1406.000000	96.919957 
1405.000000	96.931890 
1404.000000	96.950781 
1403.000000	96.969077 
1402.000000	96.979626 
1401.000000	96.986026 
1400.000000	96.998103 
1399.000000	97.017210 
1398.000000	97.034128 
1397.000000	97.042898 
1396.000000	97.047707 
1395.000000	97.056885 
1394.000000	97.072613 
1393.000000	97.092461 
1392.000000	97.113099 
1391.000000	97.129920 
1390.000000	97.140528 
1389.000000	97.146923 
1388.000000	97.153229 
1387.000000	97.161173 
1386.000000	97.169251 
1385.000000	97.177030 
1384.000000	97.186707 
1383.000000	97.198492 
1382.000000	97.209559 
1381.000000	97.217192 
1380.000000	97.222265 
1379.000000	97.228076 
1378.000000	97.235532 
1377.000000	97.242452 
1376.000000	97.247448 
1375.000000	97.252541 
1374.000000	97.260798 
1373.000000	97.273519 
1372.000000	97.288669 
1371.000000	97.302850 
1370.000000	97.313795 
1369.000000	97.321885 
1368.000000	97.329293 
1367.000000	97.335610 
1366.000000	97.338679 
1365.000000	97.338766 
1364.000000	97.339779 
1363.000000	97.345222 
1362.000000	97.354403 
1361.000000	97.364296 
1360.000000	97.373799 
1359.000000	97.383624 
1358.000000	97.393454 
1357.000000	97.401999 
1356.000000	97.409083 
1355.000000	97.415210 
1354.000000	97.420526 
1353.000000	97.425132 
1352.000000	97.429281 
1351.000000	97.434466 
1350.000000	97.440855 
1349.000000	97.446483 
1348.000000	97.450145 
1347.000000	97.451955 
1346.000000	97.453210 
1345.000000	97.454618 
1344.000000	97.455337 
1343.000000	97.453439 
1342.000000	97.448534 
1341.000000	97.443496 
1340.000000	97.442648 
1339.000000	97.447201 
1338.000000	97.454269 
1337.000000	97.460866 
1336.000000	97.466069 
1335.000000	97.469405 
1334.000000	97.470248 
1333.000000	97.469096 
1332.000000	97.467570 
1331.000000	97.466600 
1330.000000	97.465858 
1329.000000	97.465376 
1328.000000	97.466067 
1327.000000	97.468210 
1326.000000	97.470253 
1325.000000	97.470414 
1324.000000	97.468328 
1323.000000	97.464194 
1322.000000	97.458731 
1321.000000	97.453898 
1320.000000	97.452009 
1319.000000	97.453461 
1318.000000	97.456637 
1317.000000	97.459787 
1316.000000	97.461627 
1315.000000	97.460896 
1314.000000	97.457740 
1313.000000	97.455251 
1312.000000	97.456834 
1311.000000	97.461744 
1310.000000	97.465626 
1309.000000	97.465914 
1308.000000	97.464340 
1307.000000	97.464065 
1306.000000	97.465837 
1305.000000	97.468389 
1304.000000	97.470744 
1303.000000	97.472114 
1302.000000	97.471418 
1301.000000	97.468367 
1300.000000	97.464658 
1299.000000	97.462868 
1298.000000	97.464213 
1297.000000	97.467307 
1296.000000	97.469121 
1295.000000	97.467618 
1294.000000	97.464098 
1293.000000	97.462428 
1292.000000	97.464745 
1291.000000	97.468697 
1290.000000	97.470440 
1289.000000	97.469408 
1288.000000	97.467987 
1287.000000	97.467137 
1286.000000	97.465190 
1285.000000	97.461489 
1284.000000	97.458386 
1283.000000	97.458212 
1282.000000	97.460015 
1281.000000	97.460718 
1280.000000	97.458817 
1279.000000	97.455802 
1278.000000	97.454599 
1277.000000	97.457160 
1276.000000	97.462624 
1275.000000	97.467595 
1274.000000	97.469152 
1273.000000	97.467870 
1272.000000	97.466754 
1271.000000	97.467312 
1270.000000	97.468173 
1269.000000	97.467707 
1268.000000	97.466082 
1267.000000	97.464030 
1266.000000	97.461717 
1265.000000	97.459841 
1264.000000	97.459973 
1263.000000	97.462621 
1262.000000	97.466044 
1261.000000	97.468098 
1260.000000	97.468886 
1259.000000	97.470508 
1258.000000	97.474184 
1257.000000	97.478091 
1256.000000	97.478317 
1255.000000	97.473078 
1254.000000	97.466094 
1253.000000	97.463709 
1252.000000	97.467300 
1251.000000	97.470912 
1250.000000	97.468686 
1249.000000	97.462537 
1248.000000	97.459196 
1247.000000	97.460983 
1246.000000	97.463737 
1245.000000	97.463622 
1244.000000	97.461577 
1243.000000	97.460514 
1242.000000	97.461759 
1241.000000	97.465451 
1240.000000	97.471228 
1239.000000	97.477018 
1238.000000	97.479676 
1237.000000	97.478230 
1236.000000	97.474533 
1235.000000	97.470076 
1234.000000	97.464463 
1233.000000	97.457722 
1232.000000	97.451377 
1231.000000	97.445896 
1230.000000	97.439560 
1229.000000	97.431189 
1228.000000	97.421633 
1227.000000	97.411042 
1226.000000	97.396749 
1225.000000	97.375639 
1224.000000	97.347234 
1223.000000	97.313112 
1222.000000	97.274683 
1221.000000	97.232777 
1220.000000	97.188160 
1219.000000	97.141049 
1218.000000	97.090850 
1217.000000	97.037064 
1216.000000	96.979272 
1215.000000	96.915988 
1214.000000	96.845858 
1213.000000	96.771262 
1212.000000	96.698115 
1211.000000	96.629524 
1210.000000	96.561260 
1209.000000	96.486403 
1208.000000	96.403405 
1207.000000	96.316873 
1206.000000	96.231149 
1205.000000	96.145988 
1204.000000	96.058801 
1203.000000	95.968638 
1202.000000	95.877229 
1201.000000	95.787391 
1200.000000	95.700621 
1199.000000	95.615446 
1198.000000	95.528634 
1197.000000	95.438868 
1196.000000	95.348069 
1195.000000	95.258180 
1194.000000	95.168334 
1193.000000	95.076675 
1192.000000	94.983040 
1191.000000	94.887692 
1190.000000	94.789401 
1189.000000	94.687353 
1188.000000	94.583258 
1187.000000	94.478983 
1186.000000	94.373853 
1185.000000	94.266958 
1184.000000	94.159890 
1183.000000	94.053894 
1182.000000	93.946601 
1181.000000	93.835455 
1180.000000	93.722044 
1179.000000	93.608355 
1178.000000	93.490910 
1177.000000	93.364264 
1176.000000	93.228939 
1175.000000	93.090287 
1174.000000	92.950511 
1173.000000	92.807725 
1172.000000	92.662043 
1171.000000	92.515665 
1170.000000	92.367010 
1169.000000	92.212193 
1168.000000	92.053885 
1167.000000	91.902749 
1166.000000	91.769438 
1165.000000	91.661750 
1164.000000	91.589887 
1163.000000	91.565365 
1162.000000	91.590181 
1161.000000	91.651215 
1160.000000	91.726450 
1159.000000	91.792541 
1158.000000	91.828563 
1157.000000	91.821545 
1156.000000	91.771621 
1155.000000	91.688042 
1154.000000	91.579651 
1153.000000	91.452757 
1152.000000	91.316206 
1151.000000	91.180381 
1150.000000	91.049479 
1149.000000	90.921191 
1148.000000	90.794763 
1147.000000	90.672128 
1146.000000	90.550353 
1145.000000	90.421649 
1144.000000	90.283712 
1143.000000	90.142909 
1142.000000	90.004574 
1141.000000	89.866861 
1140.000000	89.726492 
1139.000000	89.583561 
1138.000000	89.438209 
1137.000000	89.289203 
1136.000000	89.137964 
1135.000000	88.987441 
1134.000000	88.835379 
1133.000000	88.675862 
1132.000000	88.508904 
1131.000000	88.340892 
1130.000000	88.174068 
1129.000000	88.003791 
1128.000000	87.827932 
1127.000000	87.650257 
1126.000000	87.472162 
1125.000000	87.289819 
1124.000000	87.102331 
1123.000000	86.914438 
1122.000000	86.728599 
1121.000000	86.542695 
1120.000000	86.357560 
1119.000000	86.177785 
1118.000000	86.003263 
1117.000000	85.829759 
1116.000000	85.659483 
1115.000000	85.500703 
1114.000000	85.354912 
1113.000000	85.214880 
1112.000000	85.076836 
1111.000000	84.942994 
1110.000000	84.810949 
1109.000000	84.673459 
1108.000000	84.530235 
1107.000000	84.387902 
1106.000000	84.246954 
1105.000000	84.101053 
1104.000000	83.950375 
1103.000000	83.802221 
1102.000000	83.656990 
1101.000000	83.507399 
1100.000000	83.353076 
1099.000000	83.202344 
1098.000000	83.057830 
1097.000000	82.913982 
1096.000000	82.769981 
1095.000000	82.630087 
1094.000000	82.490516 
1093.000000	82.342237 
1092.000000	82.188844 
1091.000000	82.045492 
1090.000000	81.917654 
1089.000000	81.796344 
1088.000000	81.675460 
1087.000000	81.557047 
1086.000000	81.438603 
1085.000000	81.313663 
1084.000000	81.187019 
1083.000000	81.070807 
1082.000000	80.962952 
1081.000000	80.848223 
1080.000000	80.723146 
1079.000000	80.600133 
1078.000000	80.483491 
1077.000000	80.361218 
1076.000000	80.225162 
1075.000000	80.079484 
1074.000000	79.924368 
1073.000000	79.750733 
1072.000000	79.555803 
1071.000000	79.344783 
1070.000000	79.112788 
1069.000000	78.845284 
1068.000000	78.542639 
1067.000000	78.225719 
1066.000000	77.911377 
1065.000000	77.600229 
1064.000000	77.292843 
1063.000000	76.995628 
1062.000000	76.703133 
1061.000000	76.396262 
1060.000000	76.067394 
1059.000000	75.728834 
1058.000000	75.389502 
1057.000000	75.042526 
1056.000000	74.682771 
1055.000000	74.315946 
1054.000000	73.941966 
1053.000000	73.549271 
1052.000000	73.135329 
1051.000000	72.713306 
1050.000000	72.288796 
1049.000000	71.851378 
1048.000000	71.398038 
1047.000000	70.941077 
1046.000000	70.485719 
1045.000000	70.023713 
1044.000000	69.554077 
1043.000000	69.086985 
1042.000000	68.622850 
1041.000000	68.151082 
1040.000000	67.674672 
1039.000000	67.212088 
1038.000000	66.769544 
1037.000000	66.335958 
1036.000000	65.909966 
1035.000000	65.505674 
1034.000000	65.126780 
1033.000000	64.762396 
1032.000000	64.413295 
1031.000000	64.093566 
1030.000000	63.801119 
1029.000000	63.516678 
1028.000000	63.238319 
1027.000000	62.986388 
1026.000000	62.766898 
1025.000000	62.560435 
1024.000000	62.354440 
1023.000000	62.156080 
1022.000000	61.965764 
1021.000000	61.769344 
1020.000000	61.565077 
1019.000000	61.368423 
1018.000000	61.182207 
1017.000000	60.991435 
1016.000000	60.794096 
1015.000000	60.606625 
1014.000000	60.432227 
1013.000000	60.254908 
1012.000000	60.071593 
1011.000000	59.898940 
1010.000000	59.741673 
1009.000000	59.586165 
1008.000000	59.432221 
1007.000000	59.298979 
1006.000000	59.191974 
1005.000000	59.096310 
1004.000000	59.009000 
1003.000000	58.945240 
1002.000000	58.905556 
1001.000000	58.870365 
1000.000000	58.835269 
999.000000	 58.818810 
998.000000	 58.826844 
997.000000	 58.842004 
996.000000	 58.856811 
995.000000	 58.884955 
994.000000	 58.931046 
993.000000	 58.981005 
992.000000	 59.030751 
991.000000	 59.093110 
990.000000	 59.168508 
989.000000	 59.240591 
988.000000	 59.308781 
987.000000	 59.393739 
986.000000	 59.502950 
985.000000	 59.622234 
984.000000	 59.748064 
983.000000	 59.896033 
982.000000	 60.069578 
981.000000	 60.252514 
980.000000	 60.440638 
979.000000	 60.649398 
978.000000	 60.882405 
977.000000	 61.123941 
976.000000	 61.370584 
975.000000	 61.639054 
974.000000	 61.934342 
973.000000	 62.240668 
972.000000	 62.552202 
971.000000	 62.882857 
970.000000	 63.237012 
969.000000	 63.599325 
968.000000	 63.961540 
967.000000	 64.331914 
966.000000	 64.711494 
965.000000	 65.088894 
964.000000	 65.464614 
963.000000	 65.852692 
962.000000	 66.252204 
961.000000	 66.644564 
960.000000	 67.024417 
959.000000	 67.405456 
958.000000	 67.790271 
957.000000	 68.162751 
956.000000	 68.516890 
955.000000	 68.865719 
954.000000	 69.214706 
953.000000	 69.552299 
952.000000	 69.873286 
951.000000	 70.185818 
950.000000	 70.489212 
949.000000	 70.770026 
948.000000	 71.026119 
947.000000	 71.270023 
946.000000	 71.503238 
945.000000	 71.712016 
944.000000	 71.894031 
943.000000	 72.064288 
942.000000	 72.228773 
941.000000	 72.377044 
940.000000	 72.507436 
939.000000	 72.634606 
938.000000	 72.764709 
937.000000	 72.887153 
936.000000	 72.998664 
935.000000	 73.112018 
934.000000	 73.233229 
933.000000	 73.352972 
932.000000	 73.467947 
931.000000	 73.587885 
930.000000	 73.714117 
929.000000	 73.833585 
928.000000	 73.941459 
927.000000	 74.048202 
926.000000	 74.157551 
925.000000	 74.258376 
924.000000	 74.344202 
923.000000	 74.420216 
922.000000	 74.486592 
921.000000	 74.536513 
920.000000	 74.574869 
919.000000	 74.616562 
918.000000	 74.661731 
917.000000	 74.695191 
916.000000	 74.715184 
915.000000	 74.740661 
914.000000	 74.786504 
913.000000	 74.854949 
912.000000	 74.954327 
911.000000	 75.100112 
910.000000	 75.291843 
909.000000	 75.513820 
908.000000	 75.763469 
907.000000	 76.054036 
906.000000	 76.385765 
905.000000	 76.741235 
904.000000	 77.113249 
903.000000	 77.510322 
902.000000	 77.930082 
901.000000	 78.354602 
900.000000	 78.777655 
899.000000	 79.210798 
898.000000	 79.656494 
897.000000	 80.099504 
896.000000	 80.529441 
895.000000	 80.948214 
894.000000	 81.351942 
893.000000	 81.729772 
892.000000	 82.084958 
891.000000	 82.434319 
890.000000	 82.782442 
889.000000	 83.117190 
888.000000	 83.433011 
887.000000	 83.736898 
886.000000	 84.029751 
885.000000	 84.304711 
884.000000	 84.565869 
883.000000	 84.825350 
882.000000	 85.080444 
881.000000	 85.318929 
880.000000	 85.549385 
879.000000	 85.798722 
878.000000	 86.074596 
877.000000	 86.357699 
876.000000	 86.636890 
875.000000	 86.923698 
874.000000	 87.225644 
873.000000	 87.534057 
872.000000	 87.846568 
871.000000	 88.174426 
870.000000	 88.518172 
869.000000	 88.860122 
868.000000	 89.189281 
867.000000	 89.512059 
866.000000	 89.831899 
865.000000	 90.139796 
864.000000	 90.432768 
863.000000	 90.722445 
862.000000	 91.016767 
861.000000	 91.308988 
860.000000	 91.591235 
859.000000	 91.863625 
858.000000	 92.125073 
857.000000	 92.370223 
856.000000	 92.599983 
855.000000	 92.820614 
854.000000	 93.028729 
853.000000	 93.211903 
852.000000	 93.367856 
851.000000	 93.509219 
850.000000	 93.646421 
849.000000	 93.779081 
848.000000	 93.905214 
847.000000	 94.023166 
846.000000	 94.123153 
845.000000	 94.193729 
844.000000	 94.239055 
843.000000	 94.273842 
842.000000	 94.299162 
841.000000	 94.299793 
840.000000	 94.267159 
839.000000	 94.207360 
838.000000	 94.125108 
837.000000	 94.019811 
836.000000	 93.902477 
835.000000	 93.796462 
834.000000	 93.712447 
833.000000	 93.639356 
832.000000	 93.568390 
831.000000	 93.509642 
830.000000	 93.476073 
829.000000	 93.467488 
828.000000	 93.481356 
827.000000	 93.524713 
826.000000	 93.603416 
825.000000	 93.711087 
824.000000	 93.836269 
823.000000	 93.967645 
822.000000	 94.089510 
821.000000	 94.189673 
820.000000	 94.274503 
819.000000	 94.359534 
818.000000	 94.443558 
817.000000	 94.506441 
816.000000	 94.532383 
815.000000	 94.520526 
814.000000	 94.472273 
813.000000	 94.383166 
812.000000	 94.248392 
811.000000	 94.060184 
810.000000	 93.796991 
809.000000	 93.431807 
808.000000	 92.957290 
807.000000	 92.391529 
806.000000	 91.757982 
805.000000	 91.075326 
804.000000	 90.369839 
803.000000	 89.678154 
802.000000	 89.029935 
801.000000	 88.444817 
800.000000	 87.950770 
799.000000	 87.582805 
798.000000	 87.355107 
797.000000	 87.254267 
796.000000	 87.263761 
795.000000	 87.371105 
794.000000	 87.547719 
793.000000	 87.750678 
792.000000	 87.953610 
791.000000	 88.153400 
790.000000	 88.342051 
789.000000	 88.496248 
788.000000	 88.599403 
787.000000	 88.649573 
786.000000	 88.639884 
785.000000	 88.554874 
784.000000	 88.393919 
783.000000	 88.178331 
782.000000	 87.931293 
781.000000	 87.673583 
780.000000	 87.442641 
779.000000	 87.287242 
778.000000	 87.231695 
777.000000	 87.266909 
776.000000	 87.381958 
775.000000	 87.577174 
774.000000	 87.838207 
773.000000	 88.126615 
772.000000	 88.410214 
771.000000	 88.681090 
770.000000	 88.934964 
769.000000	 89.156855 
768.000000	 89.337631 
767.000000	 89.482846 
766.000000	 89.595334 
765.000000	 89.670023 
764.000000	 89.715367 
763.000000	 89.758209 
762.000000	 89.815571 
761.000000	 89.880099 
760.000000	 89.942549 
759.000000	 90.008543 
758.000000	 90.083772 
757.000000	 90.163840 
756.000000	 90.249813 
755.000000	 90.353696 
754.000000	 90.476526 
753.000000	 90.598906 
752.000000	 90.704208 
751.000000	 90.796119 
750.000000	 90.886352 
749.000000	 90.981901 
748.000000	 91.090955 
747.000000	 91.222589 
746.000000	 91.371944 
745.000000	 91.523229 
744.000000	 91.675064 
743.000000	 91.844742 
742.000000	 92.040898 
741.000000	 92.251708 
740.000000	 92.466473 
739.000000	 92.687910 
738.000000	 92.915252 
737.000000	 93.134975 
736.000000	 93.337010 
735.000000	 93.522630 
734.000000	 93.690874 
733.000000	 93.836264 
732.000000	 93.964230 
731.000000	 94.087701 
730.000000	 94.203514 
729.000000	 94.294532 
728.000000	 94.357204 
727.000000	 94.407350 
726.000000	 94.459708 
725.000000	 94.520290 
724.000000	 94.598946 
723.000000	 94.706445 
722.000000	 94.834581 
721.000000	 94.960143 
720.000000	 95.073554 
719.000000	 95.184272 
718.000000	 95.294687 
717.000000	 95.392917 
716.000000	 95.476346 
715.000000	 95.555514 
714.000000	 95.629485 
713.000000	 95.684801 
712.000000	 95.724768 
711.000000	 95.771518 
710.000000	 95.829465 
709.000000	 95.877813 
708.000000	 95.900503 
707.000000	 95.901791 
706.000000	 95.886180 
705.000000	 95.844452 
704.000000	 95.770895 
703.000000	 95.674225 
702.000000	 95.553339 
701.000000	 95.382512 
700.000000	 95.138572 
699.000000	 94.824110 
698.000000	 94.462183 
697.000000	 94.090212 
696.000000	 93.765821 
695.000000	 93.555607 
694.000000	 93.491176 
693.000000	 93.549629 
692.000000	 93.686957 
691.000000	 93.869051 
690.000000	 94.070607 
689.000000	 94.267107 
688.000000	 94.443106 
687.000000	 94.597570 
686.000000	 94.727446 
685.000000	 94.827402 
684.000000	 94.912066 
683.000000	 95.007535 
682.000000	 95.117238 
681.000000	 95.220614 
680.000000	 95.311461 
679.000000	 95.406615 
678.000000	 95.514192 
677.000000	 95.627044 
676.000000	 95.740908 
675.000000	 95.861111 
674.000000	 95.981968 
673.000000	 96.073564 
672.000000	 96.109458 
671.000000	 96.076178 
670.000000	 95.976146 
669.000000	 95.837047 
668.000000	 95.824337 
667.000000	 96.089701 
666.000000	 96.455238 
665.000000	 96.714827 
664.000000	 96.872781 
663.000000	 96.978701 
662.000000	 97.066284 
661.000000	 97.145571 
660.000000	 97.219592 
659.000000	 97.294925 
658.000000	 97.369802 
657.000000	 97.433221 
656.000000	 97.470218 
655.000000	 97.474866 
654.000000	 97.454034 
653.000000	 97.421282 
652.000000	 97.396862 
651.000000	 97.405373 
650.000000	 97.452155 

