4000.000000	98.713716 
3999.000000	98.712708 
3998.000000	98.710579 
3997.000000	98.708157 
3996.000000	98.706249 
3995.000000	98.705349 
3994.000000	98.705606 
3993.000000	98.706588 
3992.000000	98.707372 
3991.000000	98.707295 
3990.000000	98.706631 
3989.000000	98.706226 
3988.000000	98.706492 
3987.000000	98.707203 
3986.000000	98.708109 
3985.000000	98.709269 
3984.000000	98.710613 
3983.000000	98.711657 
3982.000000	98.712136 
3981.000000	98.712361 
3980.000000	98.712675 
3979.000000	98.712839 
3978.000000	98.712453 
3977.000000	98.711751 
3976.000000	98.711458 
3975.000000	98.711807 
3974.000000	98.712216 
3973.000000	98.712013 
3972.000000	98.711031 
3971.000000	98.709539 
3970.000000	98.707996 
3969.000000	98.706954 
3968.000000	98.706759 
3967.000000	98.707307 
3966.000000	98.708111 
3965.000000	98.708602 
3964.000000	98.708439 
3963.000000	98.707632 
3962.000000	98.706552 
3961.000000	98.705756 
3960.000000	98.705477 
3959.000000	98.705508 
3958.000000	98.705561 
3957.000000	98.705597 
3956.000000	98.705639 
3955.000000	98.705577 
3954.000000	98.705321 
3953.000000	98.704938 
3952.000000	98.704577 
3951.000000	98.704317 
3950.000000	98.704142 
3949.000000	98.704015 
3948.000000	98.703911 
3947.000000	98.703823 
3946.000000	98.703736 
3945.000000	98.703625 
3944.000000	98.703492 
3943.000000	98.703364 
3942.000000	98.703252 
3941.000000	98.703156 
3940.000000	98.703078 
3939.000000	98.703010 
3938.000000	98.702944 
3937.000000	98.702880 
3936.000000	98.702817 
3935.000000	98.702757 
3934.000000	98.702696 
3933.000000	98.702632 
3932.000000	98.702567 
3931.000000	98.702510 
3930.000000	98.702473 
3929.000000	98.702458 
3928.000000	98.702459 
3927.000000	98.702462 
3926.000000	98.702460 
3925.000000	98.702456 
3924.000000	98.702456 
3923.000000	98.702459 
3922.000000	98.702452 
3921.000000	98.702430 
3920.000000	98.702404 
3919.000000	98.702382 
3918.000000	98.702362 
3917.000000	98.702329 
3916.000000	98.702272 
3915.000000	98.702200 
3914.000000	98.702128 
3913.000000	98.702066 
3912.000000	98.702008 
3911.000000	98.701948 
3910.000000	98.701893 
3909.000000	98.701851 
3908.000000	98.701820 
3907.000000	98.701780 
3906.000000	98.701715 
3905.000000	98.701624 
3904.000000	98.701521 
3903.000000	98.701421 
3902.000000	98.701330 
3901.000000	98.701240 
3900.000000	98.701144 
3899.000000	98.701045 
3898.000000	98.700955 
3897.000000	98.700877 
3896.000000	98.700800 
3895.000000	98.700715 
3894.000000	98.700632 
3893.000000	98.700560 
3892.000000	98.700496 
3891.000000	98.700437 
3890.000000	98.700383 
3889.000000	98.700340 
3888.000000	98.700304 
3887.000000	98.700259 
3886.000000	98.700203 
3885.000000	98.700153 
3884.000000	98.700121 
3883.000000	98.700099 
3882.000000	98.700071 
3881.000000	98.700040 
3880.000000	98.700036 
3879.000000	98.700083 
3878.000000	98.700180 
3877.000000	98.700302 
3876.000000	98.700427 
3875.000000	98.700552 
3874.000000	98.700688 
3873.000000	98.700847 
3872.000000	98.701016 
3871.000000	98.701171 
3870.000000	98.701312 
3869.000000	98.701471 
3868.000000	98.701662 
3867.000000	98.701864 
3866.000000	98.702048 
3865.000000	98.702224 
3864.000000	98.702418 
3863.000000	98.702633 
3862.000000	98.702849 
3861.000000	98.703057 
3860.000000	98.703268 
3859.000000	98.703492 
3858.000000	98.703717 
3857.000000	98.703931 
3856.000000	98.704125 
3855.000000	98.704295 
3854.000000	98.704448 
3853.000000	98.704606 
3852.000000	98.704780 
3851.000000	98.704960 
3850.000000	98.705136 
3849.000000	98.705306 
3848.000000	98.705473 
3847.000000	98.705643 
3846.000000	98.705818 
3845.000000	98.705999 
3844.000000	98.706178 
3843.000000	98.706350 
3842.000000	98.706515 
3841.000000	98.706684 
3840.000000	98.706859 
3839.000000	98.707034 
3838.000000	98.707191 
3837.000000	98.707317 
3836.000000	98.707414 
3835.000000	98.707492 
3834.000000	98.707564 
3833.000000	98.707636 
3832.000000	98.707713 
3831.000000	98.707795 
3830.000000	98.707883 
3829.000000	98.707978 
3828.000000	98.708077 
3827.000000	98.708165 
3826.000000	98.708232 
3825.000000	98.708282 
3824.000000	98.708327 
3823.000000	98.708362 
3822.000000	98.708374 
3821.000000	98.708371 
3820.000000	98.708385 
3819.000000	98.708433 
3818.000000	98.708495 
3817.000000	98.708538 
3816.000000	98.708563 
3815.000000	98.708600 
3814.000000	98.708664 
3813.000000	98.708738 
3812.000000	98.708805 
3811.000000	98.708869 
3810.000000	98.708945 
3809.000000	98.709033 
3808.000000	98.709114 
3807.000000	98.709179 
3806.000000	98.709245 
3805.000000	98.709332 
3804.000000	98.709438 
3803.000000	98.709542 
3802.000000	98.709639 
3801.000000	98.709753 
3800.000000	98.709902 
3799.000000	98.710064 
3798.000000	98.710209 
3797.000000	98.710332 
3796.000000	98.710451 
3795.000000	98.710576 
3794.000000	98.710692 
3793.000000	98.710782 
3792.000000	98.710849 
3791.000000	98.710899 
3790.000000	98.710933 
3789.000000	98.710954 
3788.000000	98.710973 
3787.000000	98.710994 
3786.000000	98.711018 
3785.000000	98.711055 
3784.000000	98.711119 
3783.000000	98.711211 
3782.000000	98.711310 
3781.000000	98.711403 
3780.000000	98.711499 
3779.000000	98.711612 
3778.000000	98.711730 
3777.000000	98.711822 
3776.000000	98.711872 
3775.000000	98.711892 
3774.000000	98.711901 
3773.000000	98.711903 
3772.000000	98.711893 
3771.000000	98.711876 
3770.000000	98.711871 
3769.000000	98.711892 
3768.000000	98.711924 
3767.000000	98.711949 
3766.000000	98.711964 
3765.000000	98.711984 
3764.000000	98.712021 
3763.000000	98.712060 
3762.000000	98.712076 
3761.000000	98.712057 
3760.000000	98.712011 
3759.000000	98.711942 
3758.000000	98.711836 
3757.000000	98.711688 
3756.000000	98.711520 
3755.000000	98.711356 
3754.000000	98.711209 
3753.000000	98.711084 
3752.000000	98.711001 
3751.000000	98.710972 
3750.000000	98.710979 
3749.000000	98.710988 
3748.000000	98.710985 
3747.000000	98.710958 
3746.000000	98.710904 
3745.000000	98.710783 
3744.000000	98.710468 
3743.000000	98.710487 
3742.000000	98.710795 
3741.000000	98.710196 
3740.000000	98.708074 
3739.000000	98.706198 
3738.000000	98.706370 
3737.000000	98.706871 
3736.000000	98.704869 
3735.000000	98.701513 
3734.000000	98.699807 
3733.000000	98.698723 
3732.000000	98.696149 
3731.000000	98.693936 
3730.000000	98.695233 
3729.000000	98.699190 
3728.000000	98.700902 
3727.000000	98.697839 
3726.000000	98.694168 
3725.000000	98.693779 
3724.000000	98.693903 
3723.000000	98.690560 
3722.000000	98.684982 
3721.000000	98.680357 
3720.000000	98.676492 
3719.000000	98.671668 
3718.000000	98.665024 
3717.000000	98.658959 
3716.000000	98.656768 
3715.000000	98.657327 
3714.000000	98.656783 
3713.000000	98.655345 
3712.000000	98.657889 
3711.000000	98.664202 
3710.000000	98.666031 
3709.000000	98.657875 
3708.000000	98.641012 
3707.000000	98.620306 
3706.000000	98.600991 
3705.000000	98.585740 
3704.000000	98.573797 
3703.000000	98.562963 
3702.000000	98.552021 
3701.000000	98.541008 
3700.000000	98.530592 
3699.000000	98.521008 
3698.000000	98.510592 
3697.000000	98.498746 
3696.000000	98.489524 
3695.000000	98.485741 
3694.000000	98.483178 
3693.000000	98.475951 
3692.000000	98.463755 
3691.000000	98.450493 
3690.000000	98.438096 
3689.000000	98.427305 
3688.000000	98.420379 
3687.000000	98.418733 
3686.000000	98.419463 
3685.000000	98.417159 
3684.000000	98.410746 
3683.000000	98.405537 
3682.000000	98.405042 
3681.000000	98.404079 
3680.000000	98.396813 
3679.000000	98.385949 
3678.000000	98.377443 
3677.000000	98.368115 
3676.000000	98.353765 
3675.000000	98.342240 
3674.000000	98.340366 
3673.000000	98.344104 
3672.000000	98.343745 
3671.000000	98.334795 
3670.000000	98.325626 
3669.000000	98.324534 
3668.000000	98.326528 
3667.000000	98.323853 
3666.000000	98.316688 
3665.000000	98.309731 
3664.000000	98.306037 
3663.000000	98.304907 
3662.000000	98.303367 
3661.000000	98.299899 
3660.000000	98.296522 
3659.000000	98.295592 
3658.000000	98.296680 
3657.000000	98.296529 
3656.000000	98.294842 
3655.000000	98.294908 
3654.000000	98.298199 
3653.000000	98.301773 
3652.000000	98.300843 
3651.000000	98.296245 
3650.000000	98.296389 
3649.000000	98.304388 
3648.000000	98.312537 
3647.000000	98.315789 
3646.000000	98.317270 
3645.000000	98.320448 
3644.000000	98.324710 
3643.000000	98.328347 
3642.000000	98.331487 
3641.000000	98.335527 
3640.000000	98.339724 
3639.000000	98.341604 
3638.000000	98.341736 
3637.000000	98.343605 
3636.000000	98.347960 
3635.000000	98.350057 
3634.000000	98.347147 
3633.000000	98.343889 
3632.000000	98.346236 
3631.000000	98.351695 
3630.000000	98.352153 
3629.000000	98.349203 
3628.000000	98.350525 
3627.000000	98.354142 
3626.000000	98.353572 
3625.000000	98.348208 
3624.000000	98.342944 
3623.000000	98.342312 
3622.000000	98.344569 
3621.000000	98.343759 
3620.000000	98.339081 
3619.000000	98.336897 
3618.000000	98.341044 
3617.000000	98.349802 
3616.000000	98.360515 
3615.000000	98.370581 
3614.000000	98.378727 
3613.000000	98.386478 
3612.000000	98.395516 
3611.000000	98.404297 
3610.000000	98.409631 
3609.000000	98.410809 
3608.000000	98.410467 
3607.000000	98.410547 
3606.000000	98.410046 
3605.000000	98.408900 
3604.000000	98.409775 
3603.000000	98.414983 
3602.000000	98.422988 
3601.000000	98.428993 
3600.000000	98.430838 
3599.000000	98.430081 
3598.000000	98.429285 
3597.000000	98.430369 
3596.000000	98.434257 
3595.000000	98.438844 
3594.000000	98.441228 
3593.000000	98.440554 
3592.000000	98.438522 
3591.000000	98.437226 
3590.000000	98.436309 
3589.000000	98.434110 
3588.000000	98.431907 
3587.000000	98.433015 
3586.000000	98.437224 
3585.000000	98.441334 
3584.000000	98.443701 
3583.000000	98.445148 
3582.000000	98.447003 
3581.000000	98.448954 
3580.000000	98.449752 
3579.000000	98.448748 
3578.000000	98.446550 
3577.000000	98.444372 
3576.000000	98.443032 
3575.000000	98.442336 
3574.000000	98.441404 
3573.000000	98.439953 
3572.000000	98.438480 
3571.000000	98.437965 
3570.000000	98.438381 
3569.000000	98.438242 
3568.000000	98.437107 
3567.000000	98.436707 
3566.000000	98.437630 
3565.000000	98.438264 
3564.000000	98.437472 
3563.000000	98.435682 
3562.000000	98.433982 
3561.000000	98.433017 
3560.000000	98.432546 
3559.000000	98.432059 
3558.000000	98.431335 
3557.000000	98.430598 
3556.000000	98.430171 
3555.000000	98.430064 
3554.000000	98.429863 
3553.000000	98.429284 
3552.000000	98.428517 
3551.000000	98.427833 
3550.000000	98.427232 
3549.000000	98.426575 
3548.000000	98.425855 
3547.000000	98.425167 
3546.000000	98.424502 
3545.000000	98.423790 
3544.000000	98.423075 
3543.000000	98.422451 
3542.000000	98.421908 
3541.000000	98.421370 
3540.000000	98.420796 
3539.000000	98.420186 
3538.000000	98.419557 
3537.000000	98.418919 
3536.000000	98.418283 
3535.000000	98.417648 
3534.000000	98.417018 
3533.000000	98.416396 
3532.000000	98.415789 
3531.000000	98.415197 
3530.000000	98.414615 
3529.000000	98.414030 
3528.000000	98.413434 
3527.000000	98.412825 
3526.000000	98.412212 
3525.000000	98.411610 
3524.000000	98.411030 
3523.000000	98.410479 
3522.000000	98.409953 
3521.000000	98.409444 
3520.000000	98.408938 
3519.000000	98.408426 
3518.000000	98.407900 
3517.000000	98.407353 
3516.000000	98.406786 
3515.000000	98.406200 
3514.000000	98.405603 
3513.000000	98.405005 
3512.000000	98.404408 
3511.000000	98.403811 
3510.000000	98.403210 
3509.000000	98.402608 
3508.000000	98.402012 
3507.000000	98.401426 
3506.000000	98.400852 
3505.000000	98.400282 
3504.000000	98.399710 
3503.000000	98.399132 
3502.000000	98.398546 
3501.000000	98.397954 
3500.000000	98.397357 
3499.000000	98.396755 
3498.000000	98.396147 
3497.000000	98.395533 
3496.000000	98.394913 
3495.000000	98.394290 
3494.000000	98.393668 
3493.000000	98.393052 
3492.000000	98.392448 
3491.000000	98.391855 
3490.000000	98.391269 
3489.000000	98.390680 
3488.000000	98.390084 
3487.000000	98.389481 
3486.000000	98.388869 
3485.000000	98.388250 
3484.000000	98.387635 
3483.000000	98.387034 
3482.000000	98.386437 
3481.000000	98.385813 
3480.000000	98.385143 
3479.000000	98.384450 
3478.000000	98.383777 
3477.000000	98.383102 
3476.000000	98.382331 
3475.000000	98.381407 
3474.000000	98.380390 
3473.000000	98.379419 
3472.000000	98.378607 
3471.000000	98.377963 
3470.000000	98.377398 
3469.000000	98.376820 
3468.000000	98.376242 
3467.000000	98.375799 
3466.000000	98.375625 
3465.000000	98.375650 
3464.000000	98.375502 
3463.000000	98.374731 
3462.000000	98.373226 
3461.000000	98.371423 
3460.000000	98.369998 
3459.000000	98.369197 
3458.000000	98.368613 
3457.000000	98.367625 
3456.000000	98.366071 
3455.000000	98.364434 
3454.000000	98.363390 
3453.000000	98.363238 
3452.000000	98.363891 
3451.000000	98.365068 
3450.000000	98.366276 
3449.000000	98.366818 
3448.000000	98.366172 
3447.000000	98.364413 
3446.000000	98.362081 
3445.000000	98.359729 
3444.000000	98.357751 
3443.000000	98.356446 
3442.000000	98.355843 
3441.000000	98.355469 
3440.000000	98.354622 
3439.000000	98.353024 
3438.000000	98.351056 
3437.000000	98.349336 
3436.000000	98.348308 
3435.000000	98.348226 
3434.000000	98.349117 
3433.000000	98.350516 
3432.000000	98.351633 
3431.000000	98.351973 
3430.000000	98.351647 
3429.000000	98.351081 
3428.000000	98.350493 
3427.000000	98.349785 
3426.000000	98.348903 
3425.000000	98.348142 
3424.000000	98.347875 
3423.000000	98.348005 
3422.000000	98.347941 
3421.000000	98.347250 
3420.000000	98.346140 
3419.000000	98.345162 
3418.000000	98.344572 
3417.000000	98.344238 
3416.000000	98.344013 
3415.000000	98.343883 
3414.000000	98.343742 
3413.000000	98.343352 
3412.000000	98.342634 
3411.000000	98.341810 
3410.000000	98.341192 
3409.000000	98.340912 
3408.000000	98.340884 
3407.000000	98.340912 
3406.000000	98.340828 
3405.000000	98.340592 
3404.000000	98.340283 
3403.000000	98.339996 
3402.000000	98.339765 
3401.000000	98.339581 
3400.000000	98.339440 
3399.000000	98.339343 
3398.000000	98.339257 
3397.000000	98.339136 
3396.000000	98.338969 
3395.000000	98.338788 
3394.000000	98.338627 
3393.000000	98.338495 
3392.000000	98.338379 
3391.000000	98.338263 
3390.000000	98.338153 
3389.000000	98.338098 
3388.000000	98.338160 
3387.000000	98.338358 
3386.000000	98.338638 
3385.000000	98.338881 
3384.000000	98.338978 
3383.000000	98.338901 
3382.000000	98.338791 
3381.000000	98.338887 
3380.000000	98.339304 
3379.000000	98.339900 
3378.000000	98.340425 
3377.000000	98.340853 
3376.000000	98.341400 
3375.000000	98.342185 
3374.000000	98.342992 
3373.000000	98.343504 
3372.000000	98.343668 
3371.000000	98.343774 
3370.000000	98.344163 
3369.000000	98.344925 
3368.000000	98.345897 
3367.000000	98.346834 
3366.000000	98.347547 
3365.000000	98.347977 
3364.000000	98.348227 
3363.000000	98.348496 
3362.000000	98.348914 
3361.000000	98.349479 
3360.000000	98.350176 
3359.000000	98.351085 
3358.000000	98.352269 
3357.000000	98.353596 
3356.000000	98.354761 
3355.000000	98.355535 
3354.000000	98.355990 
3353.000000	98.356523 
3352.000000	98.357565 
3351.000000	98.359237 
3350.000000	98.361236 
3349.000000	98.363044 
3348.000000	98.364341 
3347.000000	98.365228 
3346.000000	98.366050 
3345.000000	98.366985 
3344.000000	98.367814 
3343.000000	98.368161 
3342.000000	98.367981 
3341.000000	98.367768 
3340.000000	98.368071 
3339.000000	98.368884 
3338.000000	98.369748 
3337.000000	98.370347 
3336.000000	98.370834 
3335.000000	98.371532 
3334.000000	98.372494 
3333.000000	98.373480 
3332.000000	98.374257 
3331.000000	98.374800 
3330.000000	98.375213 
3329.000000	98.375610 
3328.000000	98.376083 
3327.000000	98.376706 
3326.000000	98.377489 
3325.000000	98.378326 
3324.000000	98.379052 
3323.000000	98.379567 
3322.000000	98.379918 
3321.000000	98.380270 
3320.000000	98.380769 
3319.000000	98.381443 
3318.000000	98.382234 
3317.000000	98.383067 
3316.000000	98.383871 
3315.000000	98.384569 
3314.000000	98.385108 
3313.000000	98.385514 
3312.000000	98.385886 
3311.000000	98.386316 
3310.000000	98.386832 
3309.000000	98.387417 
3308.000000	98.388012 
3307.000000	98.388536 
3306.000000	98.388947 
3305.000000	98.389290 
3304.000000	98.389650 
3303.000000	98.390083 
3302.000000	98.390597 
3301.000000	98.391175 
3300.000000	98.391775 
3299.000000	98.392338 
3298.000000	98.392815 
3297.000000	98.393208 
3296.000000	98.393601 
3295.000000	98.394092 
3294.000000	98.394714 
3293.000000	98.395429 
3292.000000	98.396175 
3291.000000	98.396899 
3290.000000	98.397557 
3289.000000	98.398138 
3288.000000	98.398682 
3287.000000	98.399242 
3286.000000	98.399814 
3285.000000	98.400331 
3284.000000	98.400745 
3283.000000	98.401092 
3282.000000	98.401470 
3281.000000	98.401963 
3280.000000	98.402571 
3279.000000	98.403211 
3278.000000	98.403825 
3277.000000	98.404450 
3276.000000	98.405134 
3275.000000	98.405836 
3274.000000	98.406463 
3273.000000	98.407003 
3272.000000	98.407562 
3271.000000	98.408239 
3270.000000	98.409027 
3269.000000	98.409825 
3268.000000	98.410528 
3267.000000	98.411107 
3266.000000	98.411621 
3265.000000	98.412185 
3264.000000	98.412883 
3263.000000	98.413704 
3262.000000	98.414523 
3261.000000	98.415217 
3260.000000	98.415758 
3259.000000	98.416196 
3258.000000	98.416594 
3257.000000	98.417022 
3256.000000	98.417577 
3255.000000	98.418295 
3254.000000	98.419077 
3253.000000	98.419777 
3252.000000	98.420378 
3251.000000	98.421008 
3250.000000	98.421763 
3249.000000	98.422592 
3248.000000	98.423364 
3247.000000	98.424039 
3246.000000	98.424695 
3245.000000	98.425409 
3244.000000	98.426151 
3243.000000	98.426818 
3242.000000	98.427346 
3241.000000	98.427788 
3240.000000	98.428268 
3239.000000	98.428889 
3238.000000	98.429698 
3237.000000	98.430696 
3236.000000	98.431835 
3235.000000	98.432972 
3234.000000	98.433900 
3233.000000	98.434497 
3232.000000	98.434868 
3231.000000	98.435279 
3230.000000	98.435892 
3229.000000	98.436637 
3228.000000	98.437388 
3227.000000	98.438170 
3226.000000	98.439156 
3225.000000	98.440439 
3224.000000	98.441862 
3223.000000	98.443136 
3222.000000	98.444130 
3221.000000	98.444998 
3220.000000	98.445996 
3219.000000	98.447178 
3218.000000	98.448366 
3217.000000	98.449366 
3216.000000	98.450156 
3215.000000	98.450884 
3214.000000	98.451750 
3213.000000	98.452846 
3212.000000	98.454066 
3211.000000	98.455182 
3210.000000	98.456058 
3209.000000	98.456794 
3208.000000	98.457595 
3207.000000	98.458528 
3206.000000	98.459487 
3205.000000	98.460373 
3204.000000	98.461236 
3203.000000	98.462216 
3202.000000	98.463373 
3201.000000	98.464632 
3200.000000	98.465855 
3199.000000	98.466976 
3198.000000	98.468042 
3197.000000	98.469131 
3196.000000	98.470258 
3195.000000	98.471378 
3194.000000	98.472485 
3193.000000	98.473649 
3192.000000	98.474935 
3191.000000	98.476302 
3190.000000	98.477619 
3189.000000	98.478795 
3188.000000	98.479846 
3187.000000	98.480878 
3186.000000	98.482006 
3185.000000	98.483259 
3184.000000	98.484579 
3183.000000	98.485873 
3182.000000	98.487110 
3181.000000	98.488323 
3180.000000	98.489528 
3179.000000	98.490692 
3178.000000	98.491795 
3177.000000	98.492891 
3176.000000	98.494064 
3175.000000	98.495339 
3174.000000	98.496689 
3173.000000	98.498073 
3172.000000	98.499438 
3171.000000	98.500693 
3170.000000	98.501773 
3169.000000	98.502731 
3168.000000	98.503718 
3167.000000	98.504809 
3166.000000	98.505937 
3165.000000	98.507003 
3164.000000	98.507981 
3163.000000	98.508913 
3162.000000	98.509843 
3161.000000	98.510798 
3160.000000	98.511798 
3159.000000	98.512841 
3158.000000	98.513909 
3157.000000	98.514999 
3156.000000	98.516116 
3155.000000	98.517223 
3154.000000	98.518255 
3153.000000	98.519216 
3152.000000	98.520191 
3151.000000	98.521225 
3150.000000	98.522217 
3149.000000	98.523025 
3148.000000	98.523631 
3147.000000	98.524175 
3146.000000	98.524862 
3145.000000	98.525805 
3144.000000	98.526962 
3143.000000	98.528122 
3142.000000	98.529041 
3141.000000	98.529659 
3140.000000	98.530160 
3139.000000	98.530817 
3138.000000	98.531729 
3137.000000	98.532763 
3136.000000	98.533672 
3135.000000	98.534276 
3134.000000	98.534552 
3133.000000	98.534662 
3132.000000	98.534854 
3131.000000	98.535289 
3130.000000	98.535990 
3129.000000	98.536963 
3128.000000	98.538209 
3127.000000	98.539638 
3126.000000	98.541094 
3125.000000	98.542473 
3124.000000	98.543735 
3123.000000	98.544777 
3122.000000	98.545415 
3121.000000	98.545624 
3120.000000	98.545672 
3119.000000	98.545908 
3118.000000	98.546506 
3117.000000	98.547468 
3116.000000	98.548708 
3115.000000	98.550041 
3114.000000	98.551200 
3113.000000	98.552052 
3112.000000	98.552784 
3111.000000	98.553719 
3110.000000	98.554943 
3109.000000	98.556205 
3108.000000	98.557257 
3107.000000	98.558147 
3106.000000	98.559079 
3105.000000	98.560018 
3104.000000	98.560612 
3103.000000	98.560547 
3102.000000	98.559916 
3101.000000	98.559200 
3100.000000	98.558841 
3099.000000	98.558941 
3098.000000	98.559510 
3097.000000	98.560804 
3096.000000	98.563041 
3095.000000	98.565755 
3094.000000	98.567988 
3093.000000	98.569263 
3092.000000	98.569976 
3091.000000	98.570483 
3090.000000	98.570298 
3089.000000	98.568774 
3088.000000	98.566288 
3087.000000	98.564325 
3086.000000	98.564418 
3085.000000	98.566998 
3084.000000	98.570837 
3083.000000	98.573572 
3082.000000	98.573578 
3081.000000	98.571781 
3080.000000	98.570784 
3079.000000	98.571751 
3078.000000	98.573370 
3077.000000	98.574396 
3076.000000	98.575471 
3075.000000	98.577330 
3074.000000	98.578861 
3073.000000	98.578671 
3072.000000	98.577419 
3071.000000	98.576624 
3070.000000	98.576138 
3069.000000	98.574931 
3068.000000	98.573611 
3067.000000	98.573816 
3066.000000	98.575343 
3065.000000	98.576122 
3064.000000	98.575027 
3063.000000	98.572617 
3062.000000	98.569192 
3061.000000	98.564324 
3060.000000	98.558623 
3059.000000	98.554204 
3058.000000	98.552926 
3057.000000	98.555230 
3056.000000	98.560215 
3055.000000	98.565186 
3054.000000	98.565915 
3053.000000	98.560030 
3052.000000	98.550801 
3051.000000	98.545162 
3050.000000	98.546635 
3049.000000	98.551774 
3048.000000	98.554290 
3047.000000	98.551001 
3046.000000	98.542830 
3045.000000	98.532322 
3044.000000	98.522319 
3043.000000	98.515863 
3042.000000	98.514733 
3041.000000	98.517223 
3040.000000	98.518505 
3039.000000	98.514292 
3038.000000	98.504065 
3037.000000	98.490697 
3036.000000	98.477217 
3035.000000	98.464237 
3034.000000	98.450744 
3033.000000	98.436454 
3032.000000	98.422249 
3031.000000	98.408719 
3030.000000	98.395466 
3029.000000	98.381943 
3028.000000	98.367614 
3027.000000	98.350821 
3026.000000	98.329231 
3025.000000	98.302832 
3024.000000	98.275509 
3023.000000	98.251841 
3022.000000	98.232680 
3021.000000	98.215418 
3020.000000	98.197901 
3019.000000	98.180007 
3018.000000	98.161485 
3017.000000	98.140619 
3016.000000	98.116093 
3015.000000	98.088904 
3014.000000	98.061746 
3013.000000	98.037012 
3012.000000	98.015193 
3011.000000	97.994105 
3010.000000	97.969835 
3009.000000	97.939886 
3008.000000	97.905679 
3007.000000	97.871077 
3006.000000	97.838511 
3005.000000	97.807666 
3004.000000	97.777717 
3003.000000	97.749045 
3002.000000	97.722366 
3001.000000	97.697722 
3000.000000	97.674843 
2999.000000	97.653064 
2998.000000	97.630702 
2997.000000	97.606324 
2996.000000	97.581047 
2995.000000	97.557290 
2994.000000	97.533656 
2993.000000	97.503231 
2992.000000	97.460121 
2991.000000	97.407842 
2990.000000	97.359255 
2989.000000	97.327289 
2988.000000	97.316423 
2987.000000	97.322181 
2986.000000	97.336387 
2985.000000	97.352339 
2984.000000	97.366431 
2983.000000	97.377235 
2982.000000	97.384342 
2981.000000	97.387782 
2980.000000	97.387687 
2979.000000	97.383988 
2978.000000	97.376611 
2977.000000	97.366310 
2976.000000	97.355175 
2975.000000	97.345940 
2974.000000	97.340734 
2973.000000	97.340617 
2972.000000	97.345790 
2971.000000	97.355529 
2970.000000	97.368228 
2969.000000	97.382579 
2968.000000	97.398938 
2967.000000	97.418629 
2966.000000	97.441529 
2965.000000	97.465168 
2964.000000	97.486702 
2963.000000	97.505111 
2962.000000	97.521027 
2961.000000	97.535361 
2960.000000	97.549168 
2959.000000	97.564230 
2958.000000	97.582287 
2957.000000	97.603038 
2956.000000	97.623459 
2955.000000	97.639764 
2954.000000	97.650598 
2953.000000	97.658716 
2952.000000	97.669394 
2951.000000	97.686137 
2950.000000	97.707005 
2949.000000	97.725456 
2948.000000	97.735637 
2947.000000	97.736937 
2946.000000	97.733694 
2945.000000	97.731234 
2944.000000	97.732432 
2943.000000	97.737289 
2942.000000	97.744001 
2941.000000	97.749817 
2940.000000	97.752320 
2939.000000	97.751429 
2938.000000	97.749824 
2937.000000	97.750485 
2936.000000	97.753674 
2935.000000	97.756647 
2934.000000	97.756152 
2933.000000	97.750854 
2932.000000	97.741895 
2931.000000	97.732088 
2930.000000	97.724661 
2929.000000	97.721702 
2928.000000	97.722775 
2927.000000	97.725022 
2926.000000	97.725275 
2925.000000	97.722655 
2924.000000	97.719119 
2923.000000	97.717320 
2922.000000	97.717890 
2921.000000	97.718971 
2920.000000	97.718543 
2919.000000	97.716849 
2918.000000	97.715740 
2917.000000	97.715300 
2916.000000	97.712066 
2915.000000	97.702111 
2914.000000	97.686144 
2913.000000	97.670271 
2912.000000	97.660542 
2911.000000	97.657238 
2910.000000	97.655470 
2909.000000	97.651107 
2908.000000	97.644866 
2907.000000	97.639995 
2906.000000	97.636876 
2905.000000	97.631142 
2904.000000	97.617753 
2903.000000	97.597852 
2902.000000	97.580992 
2901.000000	97.578898 
2900.000000	97.596252 
2899.000000	97.626614 
2898.000000	97.657453 
2897.000000	97.679746 
2896.000000	97.692453 
2895.000000	97.699151 
2894.000000	97.703652 
2893.000000	97.709188 
2892.000000	97.718492 
2891.000000	97.731681 
2890.000000	97.745020 
2889.000000	97.754292 
2888.000000	97.759244 
2887.000000	97.762935 
2886.000000	97.767227 
2885.000000	97.771558 
2884.000000	97.776571 
2883.000000	97.785938 
2882.000000	97.802465 
2881.000000	97.824032 
2880.000000	97.845697 
2879.000000	97.865283 
2878.000000	97.884539 
2877.000000	97.904818 
2876.000000	97.924002 
2875.000000	97.938879 
2874.000000	97.949047 
2873.000000	97.957019 
2872.000000	97.965218 
2871.000000	97.974237 
2870.000000	97.983867 
2869.000000	97.994420 
2868.000000	98.006530 
2867.000000	98.020387 
2866.000000	98.035702 
2865.000000	98.052073 
2864.000000	98.069259 
2863.000000	98.087533 
2862.000000	98.107837 
2861.000000	98.130788 
2860.000000	98.155147 
2859.000000	98.178110 
2858.000000	98.197934 
2857.000000	98.215918 
2856.000000	98.234754 
2855.000000	98.254960 
2854.000000	98.274147 
2853.000000	98.289857 
2852.000000	98.301931 
2851.000000	98.312011 
2850.000000	98.321845 
2849.000000	98.332524 
2848.000000	98.344469 
2847.000000	98.357193 
2846.000000	98.369346 
2845.000000	98.379731 
2844.000000	98.388317 
2843.000000	98.396025 
2842.000000	98.403710 
2841.000000	98.411538 
2840.000000	98.419089 
2839.000000	98.425758 
2838.000000	98.431220 
2837.000000	98.435779 
2836.000000	98.440300 
2835.000000	98.445786 
2834.000000	98.453154 
2833.000000	98.463181 
2832.000000	98.475762 
2831.000000	98.488807 
2830.000000	98.498647 
2829.000000	98.502646 
2828.000000	98.501671 
2827.000000	98.499750 
2826.000000	98.501061 
2825.000000	98.506994 
2824.000000	98.515667 
2823.000000	98.523614 
2822.000000	98.528071 
2821.000000	98.528452 
2820.000000	98.526274 
2819.000000	98.523807 
2818.000000	98.522648 
2817.000000	98.523351 
2816.000000	98.525861 
2815.000000	98.529777 
2814.000000	98.534192 
2813.000000	98.537773 
2812.000000	98.539441 
2811.000000	98.539129 
2810.000000	98.537916 
2809.000000	98.537372 
2808.000000	98.538637 
2807.000000	98.541972 
2806.000000	98.546936 
2805.000000	98.552666 
2804.000000	98.557903 
2803.000000	98.561279 
2802.000000	98.562312 
2801.000000	98.562154 
2800.000000	98.562793 
2799.000000	98.565107 
2798.000000	98.568040 
2797.000000	98.569944 
2796.000000	98.570384 
2795.000000	98.570256 
2794.000000	98.570523 
2793.000000	98.571407 
2792.000000	98.572782 
2791.000000	98.574646 
2790.000000	98.576856 
2789.000000	98.578813 
2788.000000	98.579937 
2787.000000	98.580412 
2786.000000	98.581070 
2785.000000	98.582492 
2784.000000	98.584435 
2783.000000	98.586236 
2782.000000	98.587553 
2781.000000	98.588614 
2780.000000	98.589809 
2779.000000	98.591274 
2778.000000	98.592893 
2777.000000	98.594494 
2776.000000	98.595969 
2775.000000	98.597307 
2774.000000	98.598581 
2773.000000	98.599848 
2772.000000	98.601085 
2771.000000	98.602248 
2770.000000	98.603380 
2769.000000	98.604592 
2768.000000	98.605942 
2767.000000	98.607348 
2766.000000	98.608650 
2765.000000	98.609781 
2764.000000	98.610812 
2763.000000	98.611834 
2762.000000	98.612854 
2761.000000	98.613835 
2760.000000	98.614784 
2759.000000	98.615760 
2758.000000	98.616818 
2757.000000	98.617941 
2756.000000	98.619033 
2755.000000	98.620007 
2754.000000	98.620879 
2753.000000	98.621763 
2752.000000	98.622742 
2751.000000	98.623783 
2750.000000	98.624801 
2749.000000	98.625771 
2748.000000	98.626704 
2747.000000	98.627539 
2746.000000	98.628193 
2745.000000	98.628699 
2744.000000	98.629226 
2743.000000	98.629924 
2742.000000	98.630803 
2741.000000	98.631761 
2740.000000	98.632700 
2739.000000	98.633589 
2738.000000	98.634423 
2737.000000	98.635215 
2736.000000	98.636002 
2735.000000	98.636824 
2734.000000	98.637679 
2733.000000	98.638539 
2732.000000	98.639386 
2731.000000	98.640221 
2730.000000	98.641049 
2729.000000	98.641878 
2728.000000	98.642705 
2727.000000	98.643506 
2726.000000	98.644255 
2725.000000	98.644963 
2724.000000	98.645672 
2723.000000	98.646410 
2722.000000	98.647174 
2721.000000	98.647942 
2720.000000	98.648706 
2719.000000	98.649473 
2718.000000	98.650250 
2717.000000	98.651033 
2716.000000	98.651810 
2715.000000	98.652572 
2714.000000	98.653317 
2713.000000	98.654054 
2712.000000	98.654789 
2711.000000	98.655520 
2710.000000	98.656244 
2709.000000	98.656963 
2708.000000	98.657680 
2707.000000	98.658400 
2706.000000	98.659122 
2705.000000	98.659841 
2704.000000	98.660557 
2703.000000	98.661256 
2702.000000	98.661914 
2701.000000	98.662535 
2700.000000	98.663169 
2699.000000	98.663877 
2698.000000	98.664656 
2697.000000	98.665373 
2696.000000	98.665876 
2695.000000	98.666133 
2694.000000	98.666286 
2693.000000	98.666518 
2692.000000	98.666878 
2691.000000	98.667281 
2690.000000	98.667607 
2689.000000	98.667838 
2688.000000	98.668037 
2687.000000	98.668226 
2686.000000	98.668374 
2685.000000	98.668511 
2684.000000	98.668736 
2683.000000	98.669061 
2682.000000	98.669316 
2681.000000	98.669319 
2680.000000	98.669084 
2679.000000	98.668801 
2678.000000	98.668676 
2677.000000	98.668864 
2676.000000	98.669396 
2675.000000	98.669948 
2674.000000	98.669924 
2673.000000	98.669066 
2672.000000	98.667897 
2671.000000	98.667240 
2670.000000	98.667253 
2669.000000	98.667368 
2668.000000	98.667150 
2667.000000	98.666779 
2666.000000	98.666527 
2665.000000	98.666167 
2664.000000	98.665312 
2663.000000	98.664077 
2662.000000	98.663022 
2661.000000	98.662447 
2660.000000	98.662005 
2659.000000	98.661098 
2658.000000	98.659552 
2657.000000	98.657896 
2656.000000	98.656926 
2655.000000	98.656900 
2654.000000	98.657190 
2653.000000	98.656857 
2652.000000	98.655687 
2651.000000	98.654409 
2650.000000	98.653817 
2649.000000	98.653931 
2648.000000	98.654198 
2647.000000	98.654191 
2646.000000	98.653731 
2645.000000	98.652591 
2644.000000	98.650638 
2643.000000	98.648356 
2642.000000	98.646721 
2641.000000	98.646260 
2640.000000	98.646629 
2639.000000	98.647215 
2638.000000	98.647850 
2637.000000	98.648603 
2636.000000	98.649261 
2635.000000	98.649538 
2634.000000	98.649608 
2633.000000	98.649891 
2632.000000	98.650349 
2631.000000	98.650450 
2630.000000	98.649931 
2629.000000	98.649175 
2628.000000	98.648700 
2627.000000	98.648578 
2626.000000	98.648596 
2625.000000	98.648720 
2624.000000	98.649099 
2623.000000	98.649739 
2622.000000	98.650417 
2621.000000	98.650822 
2620.000000	98.650695 
2619.000000	98.649965 
2618.000000	98.648915 
2617.000000	98.648139 
2616.000000	98.648038 
2615.000000	98.648448 
2614.000000	98.648850 
2613.000000	98.648945 
2612.000000	98.648859 
2611.000000	98.648832 
2610.000000	98.648970 
2609.000000	98.649287 
2608.000000	98.649727 
2607.000000	98.650078 
2606.000000	98.650127 
2605.000000	98.649953 
2604.000000	98.649847 
2603.000000	98.649880 
2602.000000	98.649855 
2601.000000	98.649813 
2600.000000	98.650164 
2599.000000	98.651030 
2598.000000	98.651888 
2597.000000	98.652237 
2596.000000	98.652176 
2595.000000	98.651920 
2594.000000	98.651162 
2593.000000	98.649671 
2592.000000	98.648212 
2591.000000	98.647879 
2590.000000	98.648561 
2589.000000	98.648925 
2588.000000	98.648243 
2587.000000	98.647434 
2586.000000	98.647823 
2585.000000	98.649663 
2584.000000	98.652142 
2583.000000	98.654222 
2582.000000	98.655234 
2581.000000	98.655139 
2580.000000	98.654631 
2579.000000	98.654727 
2578.000000	98.655926 
2577.000000	98.657842 
2576.000000	98.659624 
2575.000000	98.660511 
2574.000000	98.660103 
2573.000000	98.658543 
2572.000000	98.656440 
2571.000000	98.654278 
2570.000000	98.652058 
2569.000000	98.649893 
2568.000000	98.648581 
2567.000000	98.648852 
2566.000000	98.650163 
2565.000000	98.651026 
2564.000000	98.650729 
2563.000000	98.650036 
2562.000000	98.650066 
2561.000000	98.651231 
2560.000000	98.653461 
2559.000000	98.656625 
2558.000000	98.660193 
2557.000000	98.663037 
2556.000000	98.664319 
2555.000000	98.664327 
2554.000000	98.664027 
2553.000000	98.663908 
2552.000000	98.663771 
2551.000000	98.663615 
2550.000000	98.663944 
2549.000000	98.664823 
2548.000000	98.665253 
2547.000000	98.664245 
2546.000000	98.662263 
2545.000000	98.660975 
2544.000000	98.661272 
2543.000000	98.662234 
2542.000000	98.662395 
2541.000000	98.661648 
2540.000000	98.661185 
2539.000000	98.661735 
2538.000000	98.662690 
2537.000000	98.663131 
2536.000000	98.663071 
2535.000000	98.663161 
2534.000000	98.663598 
2533.000000	98.663930 
2532.000000	98.663854 
2531.000000	98.663664 
2530.000000	98.663764 
2529.000000	98.664062 
2528.000000	98.664110 
2527.000000	98.663725 
2526.000000	98.663273 
2525.000000	98.663280 
2524.000000	98.663904 
2523.000000	98.664853 
2522.000000	98.665701 
2521.000000	98.666226 
2520.000000	98.666458 
2519.000000	98.666499 
2518.000000	98.666415 
2517.000000	98.666199 
2516.000000	98.665731 
2515.000000	98.664873 
2514.000000	98.663795 
2513.000000	98.663106 
2512.000000	98.663314 
2511.000000	98.664305 
2510.000000	98.665501 
2509.000000	98.666524 
2508.000000	98.667394 
2507.000000	98.668080 
2506.000000	98.668428 
2505.000000	98.668641 
2504.000000	98.669315 
2503.000000	98.670630 
2502.000000	98.671832 
2501.000000	98.672049 
2500.000000	98.671305 
2499.000000	98.670373 
2498.000000	98.669824 
2497.000000	98.669602 
2496.000000	98.669572 
2495.000000	98.669860 
2494.000000	98.670513 
2493.000000	98.671239 
2492.000000	98.671739 
2491.000000	98.672112 
2490.000000	98.672673 
2489.000000	98.673434 
2488.000000	98.673969 
2487.000000	98.673872 
2486.000000	98.673248 
2485.000000	98.672673 
2484.000000	98.672611 
2483.000000	98.672942 
2482.000000	98.673185 
2481.000000	98.673184 
2480.000000	98.673336 
2479.000000	98.674026 
2478.000000	98.675131 
2477.000000	98.676228 
2476.000000	98.676969 
2475.000000	98.677043 
2474.000000	98.676152 
2473.000000	98.674511 
2472.000000	98.673035 
2471.000000	98.672450 
2470.000000	98.672534 
2469.000000	98.672617 
2468.000000	98.672509 
2467.000000	98.672457 
2466.000000	98.672409 
2465.000000	98.672016 
2464.000000	98.671375 
2463.000000	98.671188 
2462.000000	98.671983 
2461.000000	98.673541 
2460.000000	98.675201 
2459.000000	98.676394 
2458.000000	98.676683 
2457.000000	98.675683 
2456.000000	98.673305 
2455.000000	98.670160 
2454.000000	98.667469 
2453.000000	98.666178 
2452.000000	98.666166 
2451.000000	98.666483 
2450.000000	98.666534 
2449.000000	98.666758 
2448.000000	98.667750 
2447.000000	98.669066 
2446.000000	98.669535 
2445.000000	98.668723 
2444.000000	98.667450 
2443.000000	98.666765 
2442.000000	98.666971 
2441.000000	98.667816 
2440.000000	98.669060 
2439.000000	98.670608 
2438.000000	98.672484 
2437.000000	98.674842 
2436.000000	98.677566 
2435.000000	98.679812 
2434.000000	98.680532 
2433.000000	98.679646 
2432.000000	98.678333 
2431.000000	98.677917 
2430.000000	98.678799 
2429.000000	98.680667 
2428.000000	98.683002 
2427.000000	98.685124 
2426.000000	98.686057 
2425.000000	98.685000 
2424.000000	98.682456 
2423.000000	98.680003 
2422.000000	98.678658 
2421.000000	98.678842 
2420.000000	98.681072 
2419.000000	98.685020 
2418.000000	98.688845 
2417.000000	98.691054 
2416.000000	98.692290 
2415.000000	98.693817 
2414.000000	98.695376 
2413.000000	98.696125 
2412.000000	98.696564 
2411.000000	98.697699 
2410.000000	98.699152 
2409.000000	98.699994 
2408.000000	98.700759 
2407.000000	98.702638 
2406.000000	98.705055 
2405.000000	98.705899 
2404.000000	98.704123 
2403.000000	98.700678 
2402.000000	98.697161 
2401.000000	98.695003 
2400.000000	98.695564 
2399.000000	98.699305 
2398.000000	98.704852 
2397.000000	98.710104 
2396.000000	98.714026 
2395.000000	98.716355 
2394.000000	98.716444 
2393.000000	98.714341 
2392.000000	98.712469 
2391.000000	98.714114 
2390.000000	98.719936 
2389.000000	98.727610 
2388.000000	98.735059 
2387.000000	98.742480 
2386.000000	98.750801 
2385.000000	98.759572 
2384.000000	98.766966 
2383.000000	98.770452 
2382.000000	98.766849 
2381.000000	98.753685 
2380.000000	98.731764 
2379.000000	98.705707 
2378.000000	98.680796 
2377.000000	98.660201 
2376.000000	98.646463 
2375.000000	98.643253 
2374.000000	98.652189 
2373.000000	98.668789 
2372.000000	98.684765 
2371.000000	98.695445 
2370.000000	98.701843 
2369.000000	98.705418 
2368.000000	98.704973 
2367.000000	98.699751 
2366.000000	98.691875 
2365.000000	98.684182 
2364.000000	98.678157 
2363.000000	98.675201 
2362.000000	98.676834 
2361.000000	98.682326 
2360.000000	98.689167 
2359.000000	98.695151 
2358.000000	98.698101 
2357.000000	98.696776 
2356.000000	98.691863 
2355.000000	98.686209 
2354.000000	98.680363 
2353.000000	98.675532 
2352.000000	98.675426 
2351.000000	98.681098 
2350.000000	98.688812 
2349.000000	98.693462 
2348.000000	98.693844 
2347.000000	98.691938 
2346.000000	98.690775 
2345.000000	98.692612 
2344.000000	98.696520 
2343.000000	98.700140 
2342.000000	98.701245 
2341.000000	98.700066 
2340.000000	98.698521 
2339.000000	98.698013 
2338.000000	98.698192 
2337.000000	98.697758 
2336.000000	98.697576 
2335.000000	98.699106 
2334.000000	98.702056 
2333.000000	98.703902 
2332.000000	98.705201 
2331.000000	98.707409 
2330.000000	98.711774 
2329.000000	98.716202 
2328.000000	98.721252 
2327.000000	98.726916 
2326.000000	98.731545 
2325.000000	98.733009 
2324.000000	98.732773 
2323.000000	98.734446 
2322.000000	98.737259 
2321.000000	98.736947 
2320.000000	98.733568 
2319.000000	98.730616 
2318.000000	98.730918 
2317.000000	98.730272 
2316.000000	98.727247 
2315.000000	98.723030 
2314.000000	98.723246 
2313.000000	98.728070 
2312.000000	98.738014 
2311.000000	98.750412 
2310.000000	98.762726 
2309.000000	98.769053 
2308.000000	98.769080 
2307.000000	98.766295 
2306.000000	98.765906 
2305.000000	98.767558 
2304.000000	98.770185 
2303.000000	98.772742 
2302.000000	98.776939 
2301.000000	98.781372 
2300.000000	98.784001 
2299.000000	98.780576 
2298.000000	98.770381 
2297.000000	98.753774 
2296.000000	98.735381 
2295.000000	98.719865 
2294.000000	98.710057 
2293.000000	98.703699 
2292.000000	98.697463 
2291.000000	98.689976 
2290.000000	98.682144 
2289.000000	98.675199 
2288.000000	98.669183 
2287.000000	98.663587 
2286.000000	98.657582 
2285.000000	98.651613 
2284.000000	98.647066 
2283.000000	98.645195 
2282.000000	98.644802 
2281.000000	98.643299 
2280.000000	98.638883 
2279.000000	98.631564 
2278.000000	98.622296 
2277.000000	98.613095 
2276.000000	98.607452 
2275.000000	98.607427 
2274.000000	98.611135 
2273.000000	98.614834 
2272.000000	98.617930 
2271.000000	98.622172 
2270.000000	98.626931 
2269.000000	98.628970 
2268.000000	98.627625 
2267.000000	98.625967 
2266.000000	98.626121 
2265.000000	98.626597 
2264.000000	98.625323 
2263.000000	98.622083 
2262.000000	98.616946 
2261.000000	98.609572 
2260.000000	98.601006 
2259.000000	98.593952 
2258.000000	98.589860 
2257.000000	98.588040 
2256.000000	98.587955 
2255.000000	98.590193 
2254.000000	98.594331 
2253.000000	98.597672 
2252.000000	98.597758 
2251.000000	98.594335 
2250.000000	98.588233 
2249.000000	98.580068 
2248.000000	98.571522 
2247.000000	98.565559 
2246.000000	98.563619 
2245.000000	98.563730 
2244.000000	98.562514 
2243.000000	98.558726 
2242.000000	98.553744 
2241.000000	98.549489 
2240.000000	98.546913 
2239.000000	98.545999 
2238.000000	98.545926 
2237.000000	98.545404 
2236.000000	98.543817 
2235.000000	98.541757 
2234.000000	98.540008 
2233.000000	98.538546 
2232.000000	98.536917 
2231.000000	98.535038 
2230.000000	98.533010 
2229.000000	98.530582 
2228.000000	98.527534 
2227.000000	98.524392 
2226.000000	98.521954 
2225.000000	98.520146 
2224.000000	98.518040 
2223.000000	98.515152 
2222.000000	98.512055 
2221.000000	98.509523 
2220.000000	98.507491 
2219.000000	98.505322 
2218.000000	98.502671 
2217.000000	98.499772 
2216.000000	98.497036 
2215.000000	98.494577 
2214.000000	98.492164 
2213.000000	98.489542 
2212.000000	98.486752 
2211.000000	98.484118 
2210.000000	98.481859 
2209.000000	98.479855 
2208.000000	98.477828 
2207.000000	98.475615 
2206.000000	98.473289 
2205.000000	98.471218 
2204.000000	98.470056 
2203.000000	98.470263 
2202.000000	98.471321 
2201.000000	98.471691 
2200.000000	98.469703 
2199.000000	98.464452 
2198.000000	98.456335 
2197.000000	98.447617 
2196.000000	98.441723 
2195.000000	98.440427 
2194.000000	98.441770 
2193.000000	98.442117 
2192.000000	98.440374 
2191.000000	98.438180 
2190.000000	98.436210 
2189.000000	98.433274 
2188.000000	98.429401 
2187.000000	98.426129 
2186.000000	98.422421 
2185.000000	98.414500 
2184.000000	98.402791 
2183.000000	98.395285 
2182.000000	98.399204 
2181.000000	98.411432 
2180.000000	98.420923 
2179.000000	98.420920 
2178.000000	98.414530 
2177.000000	98.408708 
2176.000000	98.406631 
2175.000000	98.406750 
2174.000000	98.406597 
2173.000000	98.405921 
2172.000000	98.406938 
2171.000000	98.411629 
2170.000000	98.417982 
2169.000000	98.419901 
2168.000000	98.412773 
2167.000000	98.398512 
2166.000000	98.383235 
2165.000000	98.370468 
2164.000000	98.359085 
2163.000000	98.348225 
2162.000000	98.341826 
2161.000000	98.346640 
2160.000000	98.366313 
2159.000000	98.397494 
2158.000000	98.430876 
2157.000000	98.457139 
2156.000000	98.472567 
2155.000000	98.478961 
2154.000000	98.480741 
2153.000000	98.483133 
2152.000000	98.489798 
2151.000000	98.499121 
2150.000000	98.504642 
2149.000000	98.502551 
2148.000000	98.497694 
2147.000000	98.498257 
2146.000000	98.505540 
2145.000000	98.514004 
2144.000000	98.521121 
2143.000000	98.530759 
2142.000000	98.544853 
2141.000000	98.557916 
2140.000000	98.564016 
2139.000000	98.565378 
2138.000000	98.569676 
2137.000000	98.580607 
2136.000000	98.594357 
2135.000000	98.603998 
2134.000000	98.605173 
2133.000000	98.599340 
2132.000000	98.593434 
2131.000000	98.594237 
2130.000000	98.601614 
2129.000000	98.608952 
2128.000000	98.611032 
2127.000000	98.609289 
2126.000000	98.608428 
2125.000000	98.610512 
2124.000000	98.614122 
2123.000000	98.617111 
2122.000000	98.617925 
2121.000000	98.615699 
2120.000000	98.610958 
2119.000000	98.605439 
2118.000000	98.600313 
2117.000000	98.595558 
2116.000000	98.591299 
2115.000000	98.588031 
2114.000000	98.584971 
2113.000000	98.580369 
2112.000000	98.574728 
2111.000000	98.571476 
2110.000000	98.572814 
2109.000000	98.576798 
2108.000000	98.579990 
2107.000000	98.581322 
2106.000000	98.581792 
2105.000000	98.582338 
2104.000000	98.583775 
2103.000000	98.586825 
2102.000000	98.590152 
2101.000000	98.590046 
2100.000000	98.584432 
2099.000000	98.576244 
2098.000000	98.571207 
2097.000000	98.572244 
2096.000000	98.577695 
2095.000000	98.583670 
2094.000000	98.586914 
2093.000000	98.586293 
2092.000000	98.582765 
2091.000000	98.578596 
2090.000000	98.575792 
2089.000000	98.574724 
2088.000000	98.574342 
2087.000000	98.573320 
2086.000000	98.570778 
2085.000000	98.566550 
2084.000000	98.561489 
2083.000000	98.557065 
2082.000000	98.554062 
2081.000000	98.551981 
2080.000000	98.550194 
2079.000000	98.549015 
2078.000000	98.548752 
2077.000000	98.548369 
2076.000000	98.546459 
2075.000000	98.543221 
2074.000000	98.539984 
2073.000000	98.536857 
2072.000000	98.532557 
2071.000000	98.526767 
2070.000000	98.521006 
2069.000000	98.516776 
2068.000000	98.514099 
2067.000000	98.512095 
2066.000000	98.509973 
2065.000000	98.507046 
2064.000000	98.502689 
2063.000000	98.497035 
2062.000000	98.491412 
2061.000000	98.487596 
2060.000000	98.486447 
2059.000000	98.487447 
2058.000000	98.488806 
2057.000000	98.488253 
2056.000000	98.484598 
2055.000000	98.478318 
2054.000000	98.471049 
2053.000000	98.464381 
2052.000000	98.459008 
2051.000000	98.454692 
2050.000000	98.450732 
2049.000000	98.446696 
2048.000000	98.442946 
2047.000000	98.440190 
2046.000000	98.438451 
2045.000000	98.436982 
2044.000000	98.435289 
2043.000000	98.433593 
2042.000000	98.432086 
2041.000000	98.430472 
2040.000000	98.428825 
2039.000000	98.428188 
2038.000000	98.429249 
2037.000000	98.430804 
2036.000000	98.430678 
2035.000000	98.428177 
2034.000000	98.424872 
2033.000000	98.423044 
2032.000000	98.423622 
2031.000000	98.425500 
2030.000000	98.426269 
2029.000000	98.424121 
2028.000000	98.419562 
2027.000000	98.415139 
2026.000000	98.412809 
2025.000000	98.412332 
2024.000000	98.412808 
2023.000000	98.414786 
2022.000000	98.419514 
2021.000000	98.426315 
2020.000000	98.431879 
2019.000000	98.432836 
2018.000000	98.428282 
2017.000000	98.420459 
2016.000000	98.413604 
2015.000000	98.410794 
2014.000000	98.411481 
2013.000000	98.412071 
2012.000000	98.410230 
2011.000000	98.408399 
2010.000000	98.410892 
2009.000000	98.418180 
2008.000000	98.426126 
2007.000000	98.431224 
2006.000000	98.434055 
2005.000000	98.436676 
2004.000000	98.439471 
2003.000000	98.442038 
2002.000000	98.445065 
2001.000000	98.448646 
2000.000000	98.450312 
1999.000000	98.446720 
1998.000000	98.437200 
1997.000000	98.425398 
1996.000000	98.417006 
1995.000000	98.415426 
1994.000000	98.419336 
1993.000000	98.423688 
1992.000000	98.423895 
1991.000000	98.420083 
1990.000000	98.416689 
1989.000000	98.417622 
1988.000000	98.422095 
1987.000000	98.425039 
1986.000000	98.421723 
1985.000000	98.412201 
1984.000000	98.401313 
1983.000000	98.393866 
1982.000000	98.390426 
1981.000000	98.388506 
1980.000000	98.387554 
1979.000000	98.389992 
1978.000000	98.396316 
1977.000000	98.402475 
1976.000000	98.404392 
1975.000000	98.403304 
1974.000000	98.403890 
1973.000000	98.408926 
1972.000000	98.417527 
1971.000000	98.426939 
1970.000000	98.434067 
1969.000000	98.436169 
1968.000000	98.432482 
1967.000000	98.425857 
1966.000000	98.421461 
1965.000000	98.422746 
1964.000000	98.429576 
1963.000000	98.439744 
1962.000000	98.450875 
1961.000000	98.460735 
1960.000000	98.467075 
1959.000000	98.468708 
1958.000000	98.467047 
1957.000000	98.465864 
1956.000000	98.468196 
1955.000000	98.473649 
1954.000000	98.479228 
1953.000000	98.482762 
1952.000000	98.484460 
1951.000000	98.485490 
1950.000000	98.486760 
1949.000000	98.489279 
1948.000000	98.494262 
1947.000000	98.501493 
1946.000000	98.508361 
1945.000000	98.512162 
1944.000000	98.512773 
1943.000000	98.512200 
1942.000000	98.512088 
1941.000000	98.512596 
1940.000000	98.513607 
1939.000000	98.515279 
1938.000000	98.517573 
1937.000000	98.520476 
1936.000000	98.524257 
1935.000000	98.528753 
1934.000000	98.532863 
1933.000000	98.535888 
1932.000000	98.538701 
1931.000000	98.542653 
1930.000000	98.547562 
1929.000000	98.551521 
1928.000000	98.553781 
1927.000000	98.555664 
1926.000000	98.558457 
1925.000000	98.561483 
1924.000000	98.563411 
1923.000000	98.564579 
1922.000000	98.566009 
1921.000000	98.567487 
1920.000000	98.568338 
1919.000000	98.568688 
1918.000000	98.569064 
1917.000000	98.569200 
1916.000000	98.568919 
1915.000000	98.569366 
1914.000000	98.571373 
1913.000000	98.574084 
1912.000000	98.575999 
1911.000000	98.576970 
1910.000000	98.578023 
1909.000000	98.579706 
1908.000000	98.581934 
1907.000000	98.584274 
1906.000000	98.586102 
1905.000000	98.586801 
1904.000000	98.586461 
1903.000000	98.586222 
1902.000000	98.587017 
1901.000000	98.588577 
1900.000000	98.590197 
1899.000000	98.591611 
1898.000000	98.592968 
1897.000000	98.594257 
1896.000000	98.595228 
1895.000000	98.595849 
1894.000000	98.596312 
1893.000000	98.596740 
1892.000000	98.597180 
1891.000000	98.597757 
1890.000000	98.598595 
1889.000000	98.599645 
1888.000000	98.600764 
1887.000000	98.601892 
1886.000000	98.602993 
1885.000000	98.603997 
1884.000000	98.604898 
1883.000000	98.605773 
1882.000000	98.606709 
1881.000000	98.607724 
1880.000000	98.608799 
1879.000000	98.609910 
1878.000000	98.611034 
1877.000000	98.612171 
1876.000000	98.613346 
1875.000000	98.614588 
1874.000000	98.615893 
1873.000000	98.617220 
1872.000000	98.618515 
1871.000000	98.619755 
1870.000000	98.620948 
1869.000000	98.622109 
1868.000000	98.623263 
1867.000000	98.624433 
1866.000000	98.625621 
1865.000000	98.626811 
1864.000000	98.628001 
1863.000000	98.629212 
1862.000000	98.630470 
1861.000000	98.631778 
1860.000000	98.633110 
1859.000000	98.634450 
1858.000000	98.635799 
1857.000000	98.637158 
1856.000000	98.638523 
1855.000000	98.639898 
1854.000000	98.641286 
1853.000000	98.642688 
1852.000000	98.644102 
1851.000000	98.645527 
1850.000000	98.646960 
1849.000000	98.648388 
1848.000000	98.649794 
1847.000000	98.651170 
1846.000000	98.652516 
1845.000000	98.653836 
1844.000000	98.655125 
1843.000000	98.656384 
1842.000000	98.657628 
1841.000000	98.658859 
1840.000000	98.660073 
1839.000000	98.661266 
1838.000000	98.662435 
1837.000000	98.663538 
1836.000000	98.664538 
1835.000000	98.665474 
1834.000000	98.666429 
1833.000000	98.667409 
1832.000000	98.668335 
1831.000000	98.669102 
1830.000000	98.669726 
1829.000000	98.670393 
1828.000000	98.671230 
1827.000000	98.672255 
1826.000000	98.673388 
1825.000000	98.674495 
1824.000000	98.675418 
1823.000000	98.676114 
1822.000000	98.676777 
1821.000000	98.677488 
1820.000000	98.678069 
1819.000000	98.678423 
1818.000000	98.678998 
1817.000000	98.680113 
1816.000000	98.681146 
1815.000000	98.681645 
1814.000000	98.682059 
1813.000000	98.683021 
1812.000000	98.684091 
1811.000000	98.684298 
1810.000000	98.683921 
1809.000000	98.683769 
1808.000000	98.683725 
1807.000000	98.683573 
1806.000000	98.683764 
1805.000000	98.684515 
1804.000000	98.685032 
1803.000000	98.684815 
1802.000000	98.684177 
1801.000000	98.683810 
1800.000000	98.683724 
1799.000000	98.683580 
1798.000000	98.683692 
1797.000000	98.684136 
1796.000000	98.684323 
1795.000000	98.684074 
1794.000000	98.683750 
1793.000000	98.683733 
1792.000000	98.683764 
1791.000000	98.683490 
1790.000000	98.683508 
1789.000000	98.684283 
1788.000000	98.685380 
1787.000000	98.686196 
1786.000000	98.686682 
1785.000000	98.687027 
1784.000000	98.687239 
1783.000000	98.687508 
1782.000000	98.687856 
1781.000000	98.688231 
1780.000000	98.688653 
1779.000000	98.689122 
1778.000000	98.689629 
1777.000000	98.690090 
1776.000000	98.690480 
1775.000000	98.690837 
1774.000000	98.691197 
1773.000000	98.691564 
1772.000000	98.691946 
1771.000000	98.692351 
1770.000000	98.692775 
1769.000000	98.693220 
1768.000000	98.693687 
1767.000000	98.694174 
1766.000000	98.694678 
1765.000000	98.695197 
1764.000000	98.695731 
1763.000000	98.696279 
1762.000000	98.696845 
1761.000000	98.697434 
1760.000000	98.698044 
1759.000000	98.698669 
1758.000000	98.699299 
1757.000000	98.699922 
1756.000000	98.700538 
1755.000000	98.701144 
1754.000000	98.701735 
1753.000000	98.702307 
1752.000000	98.702863 
1751.000000	98.703408 
1750.000000	98.703954 
1749.000000	98.704516 
1748.000000	98.705078 
1747.000000	98.705624 
1746.000000	98.706094 
1745.000000	98.706447 
1744.000000	98.706735 
1743.000000	98.706955 
1742.000000	98.707050 
1741.000000	98.707141 
1740.000000	98.707442 
1739.000000	98.708030 
1738.000000	98.708768 
1737.000000	98.709560 
1736.000000	98.710038 
1735.000000	98.709618 
1734.000000	98.709036 
1733.000000	98.708814 
1732.000000	98.708722 
1731.000000	98.709265 
1730.000000	98.710624 
1729.000000	98.711966 
1728.000000	98.712577 
1727.000000	98.712496 
1726.000000	98.711920 
1725.000000	98.711500 
1724.000000	98.711576 
1723.000000	98.711877 
1722.000000	98.712493 
1721.000000	98.713401 
1720.000000	98.713953 
1719.000000	98.713204 
1718.000000	98.712157 
1717.000000	98.711944 
1716.000000	98.710578 
1715.000000	98.707880 
1714.000000	98.706206 
1713.000000	98.706000 
1712.000000	98.705624 
1711.000000	98.704612 
1710.000000	98.703890 
1709.000000	98.703546 
1708.000000	98.702882 
1707.000000	98.701749 
1706.000000	98.701005 
1705.000000	98.700672 
1704.000000	98.699223 
1703.000000	98.696557 
1702.000000	98.693260 
1701.000000	98.690219 
1700.000000	98.688721 
1699.000000	98.687289 
1698.000000	98.686112 
1697.000000	98.685615 
1696.000000	98.684552 
1695.000000	98.682772 
1694.000000	98.680934 
1693.000000	98.679465 
1692.000000	98.678004 
1691.000000	98.676035 
1690.000000	98.673637 
1689.000000	98.671059 
1688.000000	98.668710 
1687.000000	98.666707 
1686.000000	98.664692 
1685.000000	98.662533 
1684.000000	98.660582 
1683.000000	98.658303 
1682.000000	98.655444 
1681.000000	98.652434 
1680.000000	98.649701 
1679.000000	98.647383 
1678.000000	98.645157 
1677.000000	98.642537 
1676.000000	98.639570 
1675.000000	98.636967 
1674.000000	98.634224 
1673.000000	98.630989 
1672.000000	98.628026 
1671.000000	98.625790 
1670.000000	98.624025 
1669.000000	98.621836 
1668.000000	98.619235 
1667.000000	98.617032 
1666.000000	98.615089 
1665.000000	98.613030 
1664.000000	98.610889 
1663.000000	98.609801 
1662.000000	98.609207 
1661.000000	98.606707 
1660.000000	98.603246 
1659.000000	98.600947 
1658.000000	98.599521 
1657.000000	98.597871 
1656.000000	98.596550 
1655.000000	98.593538 
1654.000000	98.585985 
1653.000000	98.582101 
1652.000000	98.579227 
1651.000000	98.572999 
1650.000000	98.568589 
1649.000000	98.567562 
1648.000000	98.566661 
1647.000000	98.565465 
1646.000000	98.565206 
1645.000000	98.564653 
1644.000000	98.562920 
1643.000000	98.561752 
1642.000000	98.562075 
1641.000000	98.562514 
1640.000000	98.562837 
1639.000000	98.562698 
1638.000000	98.561700 
1637.000000	98.558611 
1636.000000	98.556344 
1635.000000	98.557617 
1634.000000	98.558555 
1633.000000	98.557515 
1632.000000	98.555183 
1631.000000	98.553188 
1630.000000	98.553018 
1629.000000	98.554512 
1628.000000	98.556275 
1627.000000	98.558053 
1626.000000	98.559415 
1625.000000	98.559849 
1624.000000	98.560523 
1623.000000	98.563493 
1622.000000	98.566877 
1621.000000	98.567310 
1620.000000	98.566738 
1619.000000	98.567907 
1618.000000	98.570117 
1617.000000	98.571181 
1616.000000	98.571034 
1615.000000	98.571376 
1614.000000	98.573273 
1613.000000	98.575461 
1612.000000	98.576478 
1611.000000	98.577609 
1610.000000	98.579864 
1609.000000	98.582764 
1608.000000	98.586609 
1607.000000	98.591975 
1606.000000	98.596692 
1605.000000	98.598759 
1604.000000	98.599939 
1603.000000	98.602101 
1602.000000	98.604443 
1601.000000	98.605867 
1600.000000	98.607298 
1599.000000	98.609839 
1598.000000	98.612836 
1597.000000	98.615399 
1596.000000	98.617732 
1595.000000	98.620405 
1594.000000	98.623273 
1593.000000	98.625851 
1592.000000	98.628163 
1591.000000	98.630498 
1590.000000	98.632792 
1589.000000	98.634883 
1588.000000	98.637042 
1587.000000	98.639567 
1586.000000	98.642255 
1585.000000	98.644489 
1584.000000	98.646355 
1583.000000	98.648415 
1582.000000	98.650584 
1581.000000	98.652459 
1580.000000	98.654334 
1579.000000	98.656781 
1578.000000	98.659518 
1577.000000	98.661919 
1576.000000	98.664125 
1575.000000	98.666188 
1574.000000	98.667655 
1573.000000	98.668817 
1572.000000	98.670337 
1571.000000	98.672394 
1570.000000	98.674542 
1569.000000	98.675724 
1568.000000	98.676138 
1567.000000	98.676745 
1566.000000	98.677558 
1565.000000	98.678002 
1564.000000	98.678429 
1563.000000	98.679174 
1562.000000	98.679966 
1561.000000	98.679504 
1560.000000	98.678440 
1559.000000	98.679573 
1558.000000	98.681225 
1557.000000	98.680782 
1556.000000	98.679914 
1555.000000	98.679855 
1554.000000	98.679921 
1553.000000	98.679637 
1552.000000	98.679307 
1551.000000	98.678620 
1550.000000	98.677268 
1549.000000	98.675684 
1548.000000	98.674657 
1547.000000	98.674409 
1546.000000	98.673915 
1545.000000	98.672181 
1544.000000	98.669806 
1543.000000	98.667802 
1542.000000	98.666604 
1541.000000	98.665919 
1540.000000	98.664802 
1539.000000	98.662344 
1538.000000	98.658009 
1537.000000	98.652800 
1536.000000	98.648044 
1535.000000	98.644579 
1534.000000	98.642633 
1533.000000	98.641720 
1532.000000	98.640162 
1531.000000	98.637321 
1530.000000	98.634442 
1529.000000	98.631873 
1528.000000	98.628486 
1527.000000	98.624153 
1526.000000	98.619894 
1525.000000	98.616372 
1524.000000	98.613824 
1523.000000	98.611837 
1522.000000	98.609669 
1521.000000	98.606092 
1520.000000	98.599743 
1519.000000	98.592533 
1518.000000	98.586762 
1517.000000	98.582103 
1516.000000	98.577318 
1515.000000	98.573174 
1514.000000	98.571238 
1513.000000	98.571578 
1512.000000	98.571221 
1511.000000	98.567240 
1510.000000	98.560736 
1509.000000	98.553813 
1508.000000	98.545934 
1507.000000	98.538468 
1506.000000	98.535793 
1505.000000	98.532325 
1504.000000	98.525024 
1503.000000	98.516268 
1502.000000	98.507211 
1501.000000	98.498604 
1500.000000	98.491493 
1499.000000	98.485271 
1498.000000	98.478624 
1497.000000	98.473875 
1496.000000	98.471928 
1495.000000	98.471717 
1494.000000	98.474380 
1493.000000	98.480957 
1492.000000	98.488769 
1491.000000	98.493693 
1490.000000	98.494361 
1489.000000	98.491716 
1488.000000	98.485127 
1487.000000	98.475296 
1486.000000	98.466019 
1485.000000	98.456578 
1484.000000	98.446622 
1483.000000	98.438921 
1482.000000	98.435201 
1481.000000	98.433795 
1480.000000	98.430666 
1479.000000	98.425107 
1478.000000	98.419515 
1477.000000	98.415344 
1476.000000	98.410016 
1475.000000	98.402327 
1474.000000	98.394787 
1473.000000	98.391202 
1472.000000	98.392219 
1471.000000	98.393491 
1470.000000	98.392799 
1469.000000	98.390429 
1468.000000	98.385333 
1467.000000	98.377884 
1466.000000	98.371498 
1465.000000	98.368932 
1464.000000	98.369383 
1463.000000	98.367955 
1462.000000	98.363482 
1461.000000	98.358618 
1460.000000	98.355452 
1459.000000	98.351729 
1458.000000	98.342573 
1457.000000	98.330108 
1456.000000	98.318366 
1455.000000	98.306621 
1454.000000	98.295133 
1453.000000	98.286093 
1452.000000	98.281252 
1451.000000	98.281643 
1450.000000	98.288162 
1449.000000	98.301149 
1448.000000	98.314702 
1447.000000	98.321921 
1446.000000	98.320904 
1445.000000	98.316982 
1444.000000	98.317067 
1443.000000	98.319417 
1442.000000	98.319798 
1441.000000	98.318171 
1440.000000	98.317076 
1439.000000	98.314147 
1438.000000	98.306223 
1437.000000	98.298829 
1436.000000	98.298998 
1435.000000	98.301273 
1434.000000	98.300468 
1433.000000	98.298832 
1432.000000	98.297970 
1431.000000	98.296553 
1430.000000	98.292896 
1429.000000	98.288447 
1428.000000	98.283323 
1427.000000	98.277849 
1426.000000	98.272425 
1425.000000	98.267987 
1424.000000	98.266236 
1423.000000	98.262634 
1422.000000	98.253037 
1421.000000	98.239992 
1420.000000	98.228934 
1419.000000	98.218262 
1418.000000	98.201125 
1417.000000	98.180227 
1416.000000	98.163219 
1415.000000	98.150078 
1414.000000	98.135252 
1413.000000	98.116716 
1412.000000	98.098163 
1411.000000	98.082273 
1410.000000	98.068787 
1409.000000	98.059019 
1408.000000	98.053990 
1407.000000	98.053314 
1406.000000	98.055887 
1405.000000	98.062620 
1404.000000	98.076093 
1403.000000	98.093183 
1402.000000	98.108829 
1401.000000	98.123302 
1400.000000	98.140113 
1399.000000	98.157159 
1398.000000	98.164148 
1397.000000	98.153048 
1396.000000	98.126329 
1395.000000	98.099364 
1394.000000	98.090872 
1393.000000	98.107687 
1392.000000	98.141952 
1391.000000	98.178533 
1390.000000	98.205111 
1389.000000	98.217671 
1388.000000	98.218836 
1387.000000	98.213796 
1386.000000	98.207531 
1385.000000	98.204209 
1384.000000	98.206701 
1383.000000	98.213975 
1382.000000	98.222712 
1381.000000	98.231130 
1380.000000	98.239976 
1379.000000	98.251184 
1378.000000	98.265660 
1377.000000	98.282754 
1376.000000	98.300763 
1375.000000	98.317848 
1374.000000	98.332896 
1373.000000	98.347673 
1372.000000	98.365096 
1371.000000	98.385835 
1370.000000	98.406841 
1369.000000	98.424537 
1368.000000	98.439591 
1367.000000	98.454604 
1366.000000	98.470598 
1365.000000	98.487078 
1364.000000	98.502652 
1363.000000	98.515186 
1362.000000	98.523687 
1361.000000	98.530486 
1360.000000	98.539765 
1359.000000	98.553631 
1358.000000	98.570083 
1357.000000	98.585516 
1356.000000	98.598284 
1355.000000	98.608673 
1354.000000	98.617149 
1353.000000	98.625289 
1352.000000	98.634436 
1351.000000	98.645587 
1350.000000	98.657538 
1349.000000	98.666945 
1348.000000	98.672736 
1347.000000	98.676571 
1346.000000	98.680667 
1345.000000	98.685754 
1344.000000	98.691646 
1343.000000	98.698145 
1342.000000	98.704494 
1341.000000	98.708709 
1340.000000	98.709018 
1339.000000	98.706089 
1338.000000	98.702742 
1337.000000	98.701592 
1336.000000	98.702899 
1335.000000	98.704683 
1334.000000	98.705241 
1333.000000	98.705106 
1332.000000	98.705808 
1331.000000	98.707798 
1330.000000	98.710061 
1329.000000	98.711866 
1328.000000	98.713361 
1327.000000	98.715017 
1326.000000	98.716505 
1325.000000	98.717041 
1324.000000	98.716449 
1323.000000	98.714136 
1322.000000	98.709575 
1321.000000	98.704394 
1320.000000	98.701931 
1319.000000	98.703519 
1318.000000	98.707250 
1317.000000	98.710969 
1316.000000	98.713877 
1315.000000	98.714800 
1314.000000	98.712274 
1313.000000	98.707897 
1312.000000	98.706024 
1311.000000	98.708312 
1310.000000	98.711208 
1309.000000	98.711131 
1308.000000	98.709015 
1307.000000	98.708352 
1306.000000	98.710168 
1305.000000	98.712717 
1304.000000	98.714926 
1303.000000	98.716584 
1302.000000	98.716893 
1301.000000	98.715331 
1300.000000	98.713419 
1299.000000	98.713210 
1298.000000	98.714528 
1297.000000	98.715247 
1296.000000	98.714008 
1295.000000	98.711497 
1294.000000	98.709357 
1293.000000	98.709100 
1292.000000	98.711231 
1291.000000	98.714457 
1290.000000	98.716652 
1289.000000	98.717018 
1288.000000	98.716204 
1287.000000	98.714222 
1286.000000	98.710146 
1285.000000	98.704671 
1284.000000	98.700732 
1283.000000	98.699746 
1282.000000	98.699031 
1281.000000	98.694858 
1280.000000	98.687347 
1279.000000	98.680328 
1278.000000	98.676793 
1277.000000	98.676289 
1276.000000	98.676123 
1275.000000	98.673706 
1274.000000	98.667984 
1273.000000	98.659909 
1272.000000	98.651347 
1271.000000	98.642850 
1270.000000	98.633101 
1269.000000	98.621163 
1268.000000	98.608355 
1267.000000	98.596621 
1266.000000	98.586081 
1265.000000	98.575853 
1264.000000	98.566339 
1263.000000	98.558712 
1262.000000	98.552441 
1261.000000	98.545167 
1260.000000	98.535780 
1259.000000	98.526060 
1258.000000	98.518252 
1257.000000	98.512125 
1256.000000	98.505418 
1255.000000	98.496817 
1254.000000	98.487422 
1253.000000	98.478893 
1252.000000	98.471166 
1251.000000	98.463333 
1250.000000	98.456616 
1249.000000	98.454795 
1248.000000	98.460462 
1247.000000	98.471098 
1246.000000	98.479690 
1245.000000	98.479674 
1244.000000	98.469447 
1243.000000	98.454002 
1242.000000	98.443271 
1241.000000	98.446042 
1240.000000	98.462221 
1239.000000	98.480894 
1238.000000	98.489169 
1237.000000	98.483382 
1236.000000	98.469543 
1235.000000	98.454469 
1234.000000	98.439958 
1233.000000	98.425608 
1232.000000	98.412513 
1231.000000	98.401800 
1230.000000	98.392968 
1229.000000	98.386105 
1228.000000	98.382935 
1227.000000	98.383292 
1226.000000	98.383056 
1225.000000	98.378150 
1224.000000	98.368810 
1223.000000	98.358024 
1222.000000	98.347757 
1221.000000	98.338594 
1220.000000	98.331123 
1219.000000	98.325267 
1218.000000	98.319514 
1217.000000	98.312408 
1216.000000	98.303240 
1215.000000	98.290491 
1214.000000	98.272452 
1213.000000	98.251069 
1212.000000	98.231904 
1211.000000	98.217451 
1210.000000	98.203154 
1209.000000	98.183160 
1208.000000	98.157730 
1207.000000	98.131880 
1206.000000	98.108504 
1205.000000	98.085936 
1204.000000	98.061192 
1203.000000	98.032702 
1202.000000	98.000785 
1201.000000	97.967817 
1200.000000	97.937079 
1199.000000	97.909555 
1198.000000	97.882831 
1197.000000	97.854647 
1196.000000	97.825556 
1195.000000	97.796637 
1194.000000	97.766902 
1193.000000	97.735029 
1192.000000	97.701899 
1191.000000	97.669202 
1190.000000	97.636955 
1189.000000	97.604292 
1188.000000	97.571113 
1187.000000	97.537118 
1186.000000	97.501133 
1185.000000	97.463181 
1184.000000	97.425171 
1183.000000	97.387767 
1182.000000	97.349097 
1181.000000	97.308466 
1180.000000	97.268395 
1179.000000	97.230267 
1178.000000	97.190766 
1177.000000	97.145987 
1176.000000	97.096616 
1175.000000	97.045802 
1174.000000	96.994406 
1173.000000	96.942077 
1172.000000	96.890637 
1171.000000	96.841794 
1170.000000	96.793259 
1169.000000	96.741902 
1168.000000	96.689641 
1167.000000	96.641782 
1166.000000	96.600841 
1165.000000	96.567000 
1164.000000	96.543608 
1163.000000	96.536285 
1162.000000	96.545643 
1161.000000	96.564958 
1160.000000	96.585598 
1159.000000	96.601346 
1158.000000	96.607619 
1157.000000	96.600903 
1156.000000	96.580208 
1155.000000	96.546888 
1154.000000	96.503354 
1153.000000	96.454053 
1152.000000	96.405967 
1151.000000	96.364139 
1150.000000	96.327116 
1149.000000	96.290335 
1148.000000	96.252819 
1147.000000	96.216304 
1146.000000	96.178971 
1145.000000	96.135696 
1144.000000	96.085171 
1143.000000	96.032141 
1142.000000	95.981352 
1141.000000	95.932949 
1140.000000	95.884776 
1139.000000	95.835602 
1138.000000	95.785069 
1137.000000	95.733541 
1136.000000	95.682646 
1135.000000	95.633332 
1134.000000	95.583428 
1133.000000	95.530101 
1132.000000	95.474138 
1131.000000	95.418371 
1130.000000	95.362644 
1129.000000	95.304443 
1128.000000	95.243983 
1127.000000	95.184162 
1126.000000	95.125360 
1125.000000	95.064563 
1124.000000	95.000076 
1123.000000	94.933375 
1122.000000	94.866218 
1121.000000	94.799557 
1120.000000	94.735048 
1119.000000	94.673552 
1118.000000	94.612238 
1117.000000	94.547302 
1116.000000	94.479513 
1115.000000	94.413325 
1114.000000	94.350830 
1113.000000	94.290409 
1112.000000	94.230696 
1111.000000	94.171679 
1110.000000	94.112194 
1109.000000	94.050595 
1108.000000	93.987375 
1107.000000	93.923724 
1106.000000	93.859055 
1105.000000	93.793296 
1104.000000	93.729509 
1103.000000	93.670444 
1102.000000	93.614035 
1101.000000	93.556399 
1100.000000	93.497150 
1099.000000	93.438841 
1098.000000	93.382935 
1097.000000	93.328922 
1096.000000	93.275976 
1095.000000	93.222009 
1094.000000	93.162501 
1093.000000	93.093926 
1092.000000	93.018323 
1091.000000	92.942006 
1090.000000	92.869573 
1089.000000	92.801147 
1088.000000	92.734599 
1087.000000	92.667219 
1086.000000	92.595965 
1085.000000	92.520113 
1084.000000	92.443875 
1083.000000	92.372523 
1082.000000	92.305719 
1081.000000	92.238946 
1080.000000	92.171564 
1079.000000	92.108263 
1078.000000	92.051870 
1077.000000	92.000311 
1076.000000	91.951628 
1075.000000	91.906235 
1074.000000	91.863354 
1073.000000	91.821012 
1072.000000	91.778939 
1071.000000	91.733382 
1070.000000	91.669381 
1069.000000	91.570051 
1068.000000	91.438819 
1067.000000	91.305804 
1066.000000	91.204847 
1065.000000	91.146922 
1064.000000	91.118231 
1063.000000	91.094734 
1062.000000	91.053636 
1061.000000	90.979447 
1060.000000	90.870751 
1059.000000	90.743326 
1058.000000	90.620902 
1057.000000	90.519124 
1056.000000	90.437976 
1055.000000	90.366728 
1054.000000	90.294177 
1053.000000	90.216789 
1052.000000	90.139315 
1051.000000	90.067380 
1050.000000	90.000525 
1049.000000	89.934332 
1048.000000	89.866565 
1047.000000	89.797410 
1046.000000	89.726900 
1045.000000	89.656721 
1044.000000	89.591454 
1043.000000	89.533076 
1042.000000	89.476630 
1041.000000	89.416183 
1040.000000	89.353026 
1039.000000	89.294304 
1038.000000	89.246984 
1037.000000	89.216699 
1036.000000	89.206727 
1035.000000	89.212261 
1034.000000	89.220985 
1033.000000	89.224801 
1032.000000	89.223853 
1031.000000	89.213828 
1030.000000	89.182073 
1029.000000	89.128984 
1028.000000	89.083016 
1027.000000	89.076758 
1026.000000	89.111525 
1025.000000	89.158974 
1024.000000	89.194583 
1023.000000	89.215022 
1022.000000	89.225190 
1021.000000	89.226704 
1020.000000	89.222371 
1019.000000	89.218143 
1018.000000	89.216258 
1017.000000	89.215403 
1016.000000	89.218300 
1015.000000	89.229412 
1014.000000	89.245418 
1013.000000	89.258474 
1012.000000	89.268777 
1011.000000	89.283611 
1010.000000	89.304639 
1009.000000	89.326873 
1008.000000	89.349685 
1007.000000	89.378040 
1006.000000	89.413000 
1005.000000	89.451408 
1004.000000	89.494208 
1003.000000	89.544181 
1002.000000	89.595935 
1001.000000	89.639665 
1000.000000	89.675616 
999.000000	 89.714233 
998.000000	 89.761209 
997.000000	 89.812314 
996.000000	 89.863460 
995.000000	 89.916161 
994.000000	 89.972221 
993.000000	 90.031790 
992.000000	 90.096519 
991.000000	 90.166057 
990.000000	 90.232828 
989.000000	 90.289975 
988.000000	 90.343164 
987.000000	 90.404273 
986.000000	 90.475150 
985.000000	 90.548767 
984.000000	 90.624343 
983.000000	 90.708230 
982.000000	 90.800438 
981.000000	 90.892699 
980.000000	 90.980966 
979.000000	 91.069087 
978.000000	 91.158701 
977.000000	 91.246672 
976.000000	 91.334315 
975.000000	 91.428410 
974.000000	 91.530415 
973.000000	 91.633839 
972.000000	 91.734460 
971.000000	 91.834766 
970.000000	 91.936720 
969.000000	 92.038309 
968.000000	 92.138601 
967.000000	 92.238642 
966.000000	 92.336653 
965.000000	 92.429785 
964.000000	 92.520778 
963.000000	 92.615243 
962.000000	 92.712417 
961.000000	 92.806400 
960.000000	 92.896014 
959.000000	 92.985119 
958.000000	 93.073378 
957.000000	 93.155292 
956.000000	 93.229075 
955.000000	 93.298895 
954.000000	 93.367990 
953.000000	 93.436503 
952.000000	 93.505668 
951.000000	 93.576258 
950.000000	 93.643237 
949.000000	 93.700233 
948.000000	 93.749357 
947.000000	 93.798974 
946.000000	 93.851536 
945.000000	 93.901268 
944.000000	 93.944136 
943.000000	 93.982318 
942.000000	 94.018435 
941.000000	 94.053121 
940.000000	 94.089192 
939.000000	 94.130733 
938.000000	 94.176669 
937.000000	 94.221621 
936.000000	 94.263893 
935.000000	 94.306600 
934.000000	 94.350907 
933.000000	 94.394676 
932.000000	 94.437814 
931.000000	 94.482621 
930.000000	 94.528638 
929.000000	 94.572877 
928.000000	 94.615143 
927.000000	 94.657786 
926.000000	 94.700535 
925.000000	 94.740352 
924.000000	 94.775251 
923.000000	 94.803995 
922.000000	 94.824838 
921.000000	 94.840139 
920.000000	 94.858842 
919.000000	 94.887486 
918.000000	 94.920864 
917.000000	 94.948142 
916.000000	 94.966639 
915.000000	 94.983554 
914.000000	 95.006390 
913.000000	 95.037904 
912.000000	 95.077882 
911.000000	 95.123301 
910.000000	 95.169009 
909.000000	 95.214513 
908.000000	 95.266920 
907.000000	 95.331175 
906.000000	 95.401832 
905.000000	 95.471062 
904.000000	 95.539683 
903.000000	 95.612113 
902.000000	 95.685975 
901.000000	 95.756487 
900.000000	 95.826975 
899.000000	 95.904879 
898.000000	 95.990024 
897.000000	 96.075324 
896.000000	 96.155657 
895.000000	 96.227639 
894.000000	 96.285767 
893.000000	 96.329566 
892.000000	 96.371354 
891.000000	 96.425829 
890.000000	 96.492797 
889.000000	 96.559512 
888.000000	 96.617512 
887.000000	 96.667281 
886.000000	 96.709824 
885.000000	 96.745222 
884.000000	 96.777584 
883.000000	 96.810028 
882.000000	 96.836934 
881.000000	 96.854172 
880.000000	 96.875196 
879.000000	 96.921062 
878.000000	 96.992715 
877.000000	 97.067693 
876.000000	 97.127356 
875.000000	 97.173377 
874.000000	 97.214399 
873.000000	 97.253344 
872.000000	 97.294089 
871.000000	 97.345251 
870.000000	 97.408155 
869.000000	 97.471982 
868.000000	 97.528099 
867.000000	 97.579729 
866.000000	 97.632063 
865.000000	 97.683210 
864.000000	 97.731831 
863.000000	 97.784521 
862.000000	 97.847234 
861.000000	 97.915559 
860.000000	 97.980514 
859.000000	 98.039102 
858.000000	 98.093928 
857.000000	 98.147158 
856.000000	 98.199278 
855.000000	 98.249410 
854.000000	 98.293343 
853.000000	 98.325818 
852.000000	 98.347721 
851.000000	 98.366953 
850.000000	 98.390471 
849.000000	 98.419947 
848.000000	 98.455238 
847.000000	 98.495002 
846.000000	 98.533156 
845.000000	 98.562679 
844.000000	 98.584605 
843.000000	 98.606191 
842.000000	 98.629086 
841.000000	 98.646774 
840.000000	 98.654504 
839.000000	 98.653383 
838.000000	 98.643902 
837.000000	 98.625040 
836.000000	 98.602505 
835.000000	 98.588480 
834.000000	 98.588121 
833.000000	 98.593486 
832.000000	 98.594978 
831.000000	 98.592022 
830.000000	 98.588993 
829.000000	 98.587886 
828.000000	 98.590057 
827.000000	 98.599150 
826.000000	 98.616968 
825.000000	 98.640826 
824.000000	 98.667763 
823.000000	 98.695606 
822.000000	 98.718889 
821.000000	 98.731748 
820.000000	 98.736071 
819.000000	 98.739096 
818.000000	 98.741698 
817.000000	 98.735583 
816.000000	 98.713172 
815.000000	 98.674832 
814.000000	 98.625901 
813.000000	 98.571424 
812.000000	 98.513221 
811.000000	 98.445575 
810.000000	 98.353711 
809.000000	 98.223740 
808.000000	 98.055876 
807.000000	 97.863472 
806.000000	 97.659895 
805.000000	 97.452564 
804.000000	 97.248533 
803.000000	 97.056233 
802.000000	 96.880440 
801.000000	 96.724514 
800.000000	 96.598593 
799.000000	 96.515833 
798.000000	 96.478676 
797.000000	 96.477226 
796.000000	 96.500808 
795.000000	 96.541294 
794.000000	 96.586722 
793.000000	 96.625041 
792.000000	 96.655652 
791.000000	 96.685830 
790.000000	 96.714882 
789.000000	 96.732916 
788.000000	 96.735124 
787.000000	 96.724566 
786.000000	 96.699486 
785.000000	 96.650574 
784.000000	 96.574364 
783.000000	 96.479542 
782.000000	 96.378565 
781.000000	 96.283603 
780.000000	 96.210722 
779.000000	 96.174205 
778.000000	 96.173498 
777.000000	 96.197298 
776.000000	 96.242023 
775.000000	 96.312878 
774.000000	 96.405046 
773.000000	 96.499581 
772.000000	 96.583075 
771.000000	 96.658288 
770.000000	 96.731079 
769.000000	 96.799914 
768.000000	 96.862423 
767.000000	 96.918890 
766.000000	 96.964376 
765.000000	 96.990905 
764.000000	 97.003494 
763.000000	 97.021317 
762.000000	 97.055840 
761.000000	 97.098730 
760.000000	 97.137391 
759.000000	 97.170837 
758.000000	 97.203846 
757.000000	 97.237721 
756.000000	 97.275415 
755.000000	 97.325029 
754.000000	 97.387974 
753.000000	 97.450773 
752.000000	 97.496794 
751.000000	 97.521570 
750.000000	 97.533376 
749.000000	 97.545443 
748.000000	 97.570246 
747.000000	 97.612367 
746.000000	 97.661687 
745.000000	 97.701673 
744.000000	 97.729088 
743.000000	 97.757328 
742.000000	 97.796688 
741.000000	 97.841409 
740.000000	 97.881423 
739.000000	 97.917040 
738.000000	 97.955016 
737.000000	 97.997144 
736.000000	 98.039302 
735.000000	 98.076800 
734.000000	 98.106802 
733.000000	 98.130434 
732.000000	 98.154049 
731.000000	 98.181647 
730.000000	 98.206252 
729.000000	 98.218869 
728.000000	 98.222139 
727.000000	 98.226403 
726.000000	 98.237725 
725.000000	 98.256888 
724.000000	 98.286744 
723.000000	 98.329782 
722.000000	 98.378386 
721.000000	 98.418078 
720.000000	 98.441948 
719.000000	 98.454265 
718.000000	 98.459767 
717.000000	 98.459892 
716.000000	 98.461571 
715.000000	 98.474970 
714.000000	 98.497897 
713.000000	 98.516593 
712.000000	 98.525714 
711.000000	 98.531967 
710.000000	 98.535508 
709.000000	 98.538181 
708.000000	 98.541912 
707.000000	 98.546390 
706.000000	 98.548534 
705.000000	 98.543191 
704.000000	 98.528501 
703.000000	 98.508508 
702.000000	 98.486190 
701.000000	 98.459130 
700.000000	 98.425163 
699.000000	 98.385693 
698.000000	 98.344796 
697.000000	 98.307768 
696.000000	 98.280109 
695.000000	 98.266889 
694.000000	 98.268737 
693.000000	 98.281659 
692.000000	 98.301996 
691.000000	 98.326767 
690.000000	 98.352249 
689.000000	 98.374704 
688.000000	 98.392323 
687.000000	 98.405487 
686.000000	 98.414140 
685.000000	 98.418728 
684.000000	 98.422834 
683.000000	 98.429702 
682.000000	 98.438191 
681.000000	 98.445250 
680.000000	 98.451184 
679.000000	 98.457931 
678.000000	 98.464956 
677.000000	 98.471551 
676.000000	 98.478619 
675.000000	 98.487253 
674.000000	 98.496231 
673.000000	 98.500920 
672.000000	 98.498022 
671.000000	 98.485476 
670.000000	 98.462131 
669.000000	 98.431289 
668.000000	 98.420905 
667.000000	 98.452025 
666.000000	 98.503716 
665.000000	 98.543614 
664.000000	 98.569418 
663.000000	 98.587177 
662.000000	 98.601260 
661.000000	 98.614222 
660.000000	 98.627016 
659.000000	 98.640013 
658.000000	 98.652681 
657.000000	 98.664611 
656.000000	 98.674876 
655.000000	 98.682847 
654.000000	 98.689114 
653.000000	 98.694359 
652.000000	 98.698764 
651.000000	 98.703516 
650.000000	 98.710682 

