4000.000000	97.719380 
3999.000000	97.717642 
3998.000000	97.714540 
3997.000000	97.711427 
3996.000000	97.709419 
3995.000000	97.708850 
3994.000000	97.709612 
3993.000000	97.711104 
3992.000000	97.712391 
3991.000000	97.712903 
3990.000000	97.712787 
3989.000000	97.712507 
3988.000000	97.712182 
3987.000000	97.711608 
3986.000000	97.710893 
3985.000000	97.710527 
3984.000000	97.710665 
3983.000000	97.710859 
3982.000000	97.710805 
3981.000000	97.710855 
3980.000000	97.711374 
3979.000000	97.712006 
3978.000000	97.712111 
3977.000000	97.711760 
3976.000000	97.711604 
3975.000000	97.711775 
3974.000000	97.711537 
3973.000000	97.710256 
3972.000000	97.708113 
3971.000000	97.705820 
3970.000000	97.704120 
3969.000000	97.703467 
3968.000000	97.703899 
3967.000000	97.704960 
3966.000000	97.705979 
3965.000000	97.706501 
3964.000000	97.706377 
3963.000000	97.705642 
3962.000000	97.704508 
3961.000000	97.703459 
3960.000000	97.702846 
3959.000000	97.702493 
3958.000000	97.702185 
3957.000000	97.701965 
3956.000000	97.701829 
3955.000000	97.701376 
3954.000000	97.700216 
3953.000000	97.698500 
3952.000000	97.696828 
3951.000000	97.695785 
3950.000000	97.695501 
3949.000000	97.695628 
3948.000000	97.695674 
3947.000000	97.695532 
3946.000000	97.695402 
3945.000000	97.695295 
3944.000000	97.694976 
3943.000000	97.694487 
3942.000000	97.694318 
3941.000000	97.694883 
3940.000000	97.695815 
3939.000000	97.696048 
3938.000000	97.695189 
3937.000000	97.693908 
3936.000000	97.693003 
3935.000000	97.692321 
3934.000000	97.691332 
3933.000000	97.690385 
3932.000000	97.690264 
3931.000000	97.690837 
3930.000000	97.691167 
3929.000000	97.690858 
3928.000000	97.690533 
3927.000000	97.690516 
3926.000000	97.690321 
3925.000000	97.689683 
3924.000000	97.689027 
3923.000000	97.688642 
3922.000000	97.688283 
3921.000000	97.687852 
3920.000000	97.687510 
3919.000000	97.687269 
3918.000000	97.687022 
3917.000000	97.686756 
3916.000000	97.686469 
3915.000000	97.686155 
3914.000000	97.685829 
3913.000000	97.685494 
3912.000000	97.685141 
3911.000000	97.684757 
3910.000000	97.684345 
3909.000000	97.683927 
3908.000000	97.683518 
3907.000000	97.683117 
3906.000000	97.682727 
3905.000000	97.682368 
3904.000000	97.682065 
3903.000000	97.681834 
3902.000000	97.681673 
3901.000000	97.681558 
3900.000000	97.681455 
3899.000000	97.681343 
3898.000000	97.681216 
3897.000000	97.681082 
3896.000000	97.680946 
3895.000000	97.680799 
3894.000000	97.680622 
3893.000000	97.680417 
3892.000000	97.680195 
3891.000000	97.679961 
3890.000000	97.679733 
3889.000000	97.679531 
3888.000000	97.679351 
3887.000000	97.679173 
3886.000000	97.678993 
3885.000000	97.678830 
3884.000000	97.678706 
3883.000000	97.678616 
3882.000000	97.678534 
3881.000000	97.678456 
3880.000000	97.678408 
3879.000000	97.678412 
3878.000000	97.678465 
3877.000000	97.678534 
3876.000000	97.678595 
3875.000000	97.678656 
3874.000000	97.678749 
3873.000000	97.678899 
3872.000000	97.679097 
3871.000000	97.679312 
3870.000000	97.679538 
3869.000000	97.679810 
3868.000000	97.680150 
3867.000000	97.680530 
3866.000000	97.680901 
3865.000000	97.681259 
3864.000000	97.681629 
3863.000000	97.682005 
3862.000000	97.682348 
3861.000000	97.682640 
3860.000000	97.682907 
3859.000000	97.683176 
3858.000000	97.683457 
3857.000000	97.683756 
3856.000000	97.684104 
3855.000000	97.684528 
3854.000000	97.685015 
3853.000000	97.685533 
3852.000000	97.686106 
3851.000000	97.686780 
3850.000000	97.687536 
3849.000000	97.688321 
3848.000000	97.689101 
3847.000000	97.689871 
3846.000000	97.690638 
3845.000000	97.691415 
3844.000000	97.692206 
3843.000000	97.693005 
3842.000000	97.693809 
3841.000000	97.694629 
3840.000000	97.695476 
3839.000000	97.696336 
3838.000000	97.697179 
3837.000000	97.697985 
3836.000000	97.698759 
3835.000000	97.699520 
3834.000000	97.700276 
3833.000000	97.701021 
3832.000000	97.701751 
3831.000000	97.702464 
3830.000000	97.703167 
3829.000000	97.703867 
3828.000000	97.704558 
3827.000000	97.705227 
3826.000000	97.705861 
3825.000000	97.706471 
3824.000000	97.707078 
3823.000000	97.707682 
3822.000000	97.708261 
3821.000000	97.708807 
3820.000000	97.709363 
3819.000000	97.709968 
3818.000000	97.710591 
3817.000000	97.711166 
3816.000000	97.711676 
3815.000000	97.712159 
3814.000000	97.712650 
3813.000000	97.713127 
3812.000000	97.713550 
3811.000000	97.713930 
3810.000000	97.714298 
3809.000000	97.714644 
3808.000000	97.714930 
3807.000000	97.715151 
3806.000000	97.715348 
3805.000000	97.715569 
3804.000000	97.715812 
3803.000000	97.716034 
3802.000000	97.716216 
3801.000000	97.716379 
3800.000000	97.716559 
3799.000000	97.716749 
3798.000000	97.716897 
3797.000000	97.716978 
3796.000000	97.717017 
3795.000000	97.717049 
3794.000000	97.717083 
3793.000000	97.717112 
3792.000000	97.717129 
3791.000000	97.717132 
3790.000000	97.717124 
3789.000000	97.717108 
3788.000000	97.717088 
3787.000000	97.717060 
3786.000000	97.717009 
3785.000000	97.716928 
3784.000000	97.716840 
3783.000000	97.716767 
3782.000000	97.716690 
3781.000000	97.716580 
3780.000000	97.716431 
3779.000000	97.716259 
3778.000000	97.716066 
3777.000000	97.715836 
3776.000000	97.715561 
3775.000000	97.715266 
3774.000000	97.714979 
3773.000000	97.714696 
3772.000000	97.714386 
3771.000000	97.714030 
3770.000000	97.713642 
3769.000000	97.713241 
3768.000000	97.712829 
3767.000000	97.712390 
3766.000000	97.711924 
3765.000000	97.711454 
3764.000000	97.711001 
3763.000000	97.710553 
3762.000000	97.710074 
3761.000000	97.709553 
3760.000000	97.709007 
3759.000000	97.708445 
3758.000000	97.707854 
3757.000000	97.707222 
3756.000000	97.706575 
3755.000000	97.705954 
3754.000000	97.705386 
3753.000000	97.704876 
3752.000000	97.704417 
3751.000000	97.703983 
3750.000000	97.703537 
3749.000000	97.703071 
3748.000000	97.702610 
3747.000000	97.702150 
3746.000000	97.701653 
3745.000000	97.701077 
3744.000000	97.700415 
3743.000000	97.699699 
3742.000000	97.698933 
3741.000000	97.698055 
3740.000000	97.697030 
3739.000000	97.695889 
3738.000000	97.694675 
3737.000000	97.693395 
3736.000000	97.692033 
3735.000000	97.690581 
3734.000000	97.689027 
3733.000000	97.687345 
3732.000000	97.685523 
3731.000000	97.683573 
3730.000000	97.681496 
3729.000000	97.679421 
3728.000000	97.677333 
3727.000000	97.674870 
3726.000000	97.672274 
3725.000000	97.670472 
3724.000000	97.669354 
3723.000000	97.667574 
3722.000000	97.664665 
3721.000000	97.661464 
3720.000000	97.658652 
3719.000000	97.655536 
3718.000000	97.651354 
3717.000000	97.647265 
3716.000000	97.645381 
3715.000000	97.645445 
3714.000000	97.645295 
3713.000000	97.645070 
3712.000000	97.645820 
3711.000000	97.644973 
3710.000000	97.639781 
3709.000000	97.630620 
3708.000000	97.619182 
3707.000000	97.607304 
3706.000000	97.596627 
3705.000000	97.587508 
3704.000000	97.578719 
3703.000000	97.568996 
3702.000000	97.557748 
3701.000000	97.545763 
3700.000000	97.535994 
3699.000000	97.529567 
3698.000000	97.523189 
3697.000000	97.514862 
3696.000000	97.507057 
3695.000000	97.502031 
3694.000000	97.497762 
3693.000000	97.491453 
3692.000000	97.483879 
3691.000000	97.477191 
3690.000000	97.471027 
3689.000000	97.463181 
3688.000000	97.454324 
3687.000000	97.447622 
3686.000000	97.442982 
3685.000000	97.437636 
3684.000000	97.430820 
3683.000000	97.423754 
3682.000000	97.416971 
3681.000000	97.410018 
3680.000000	97.402813 
3679.000000	97.395818 
3678.000000	97.389139 
3677.000000	97.382579 
3676.000000	97.376080 
3675.000000	97.369666 
3674.000000	97.363376 
3673.000000	97.357225 
3672.000000	97.351173 
3671.000000	97.345192 
3670.000000	97.339303 
3669.000000	97.333553 
3668.000000	97.327980 
3667.000000	97.322584 
3666.000000	97.317336 
3665.000000	97.312214 
3664.000000	97.307206 
3663.000000	97.302294 
3662.000000	97.297460 
3661.000000	97.292694 
3660.000000	97.287935 
3659.000000	97.283177 
3658.000000	97.278536 
3657.000000	97.273886 
3656.000000	97.268795 
3655.000000	97.263709 
3654.000000	97.259701 
3653.000000	97.255925 
3652.000000	97.250489 
3651.000000	97.244679 
3650.000000	97.241714 
3649.000000	97.241041 
3648.000000	97.238996 
3647.000000	97.235432 
3646.000000	97.233891 
3645.000000	97.235584 
3644.000000	97.237876 
3643.000000	97.238057 
3642.000000	97.236885 
3641.000000	97.236665 
3640.000000	97.237151 
3639.000000	97.235315 
3638.000000	97.230317 
3637.000000	97.225917 
3636.000000	97.223996 
3635.000000	97.220398 
3634.000000	97.211393 
3633.000000	97.201001 
3632.000000	97.195112 
3631.000000	97.193200 
3630.000000	97.192546 
3629.000000	97.188719 
3628.000000	97.182585 
3627.000000	97.186435 
3626.000000	97.197442 
3625.000000	97.198804 
3624.000000	97.189301 
3623.000000	97.179295 
3622.000000	97.172778 
3621.000000	97.165839 
3620.000000	97.157272 
3619.000000	97.151294 
3618.000000	97.153134 
3617.000000	97.165507 
3616.000000	97.184015 
3615.000000	97.200597 
3614.000000	97.212206 
3613.000000	97.221432 
3612.000000	97.231167 
3611.000000	97.240149 
3610.000000	97.244600 
3609.000000	97.244369 
3608.000000	97.243799 
3607.000000	97.246207 
3606.000000	97.250423 
3605.000000	97.253408 
3604.000000	97.255541 
3603.000000	97.260313 
3602.000000	97.267765 
3601.000000	97.273082 
3600.000000	97.273315 
3599.000000	97.270257 
3598.000000	97.266785 
3597.000000	97.266132 
3596.000000	97.270034 
3595.000000	97.276402 
3594.000000	97.280535 
3593.000000	97.280112 
3592.000000	97.276088 
3591.000000	97.269866 
3590.000000	97.262796 
3589.000000	97.258008 
3588.000000	97.258608 
3587.000000	97.264381 
3586.000000	97.273393 
3585.000000	97.282989 
3584.000000	97.289795 
3583.000000	97.292969 
3582.000000	97.294427 
3581.000000	97.295793 
3580.000000	97.296946 
3579.000000	97.297344 
3578.000000	97.296828 
3577.000000	97.295854 
3576.000000	97.295059 
3575.000000	97.294331 
3574.000000	97.292856 
3573.000000	97.289691 
3572.000000	97.284607 
3571.000000	97.278340 
3570.000000	97.272344 
3569.000000	97.268549 
3568.000000	97.268844 
3567.000000	97.273203 
3566.000000	97.279276 
3565.000000	97.284317 
3564.000000	97.286318 
3563.000000	97.285122 
3562.000000	97.282713 
3561.000000	97.281281 
3560.000000	97.281252 
3559.000000	97.281585 
3558.000000	97.281309 
3557.000000	97.280387 
3556.000000	97.279616 
3555.000000	97.279627 
3554.000000	97.280144 
3553.000000	97.280247 
3552.000000	97.279371 
3551.000000	97.277776 
3550.000000	97.275992 
3549.000000	97.274362 
3548.000000	97.273423 
3547.000000	97.273709 
3546.000000	97.274850 
3545.000000	97.275786 
3544.000000	97.276004 
3543.000000	97.275813 
3542.000000	97.275588 
3541.000000	97.275359 
3540.000000	97.275096 
3539.000000	97.274863 
3538.000000	97.274718 
3537.000000	97.274647 
3536.000000	97.274582 
3535.000000	97.274466 
3534.000000	97.274270 
3533.000000	97.274042 
3532.000000	97.273881 
3531.000000	97.273847 
3530.000000	97.273896 
3529.000000	97.273917 
3528.000000	97.273848 
3527.000000	97.273713 
3526.000000	97.273553 
3525.000000	97.273401 
3524.000000	97.273286 
3523.000000	97.273250 
3522.000000	97.273312 
3521.000000	97.273401 
3520.000000	97.273419 
3519.000000	97.273332 
3518.000000	97.273171 
3517.000000	97.272979 
3516.000000	97.272737 
3515.000000	97.272426 
3514.000000	97.272102 
3513.000000	97.271849 
3512.000000	97.271667 
3511.000000	97.271470 
3510.000000	97.271193 
3509.000000	97.270864 
3508.000000	97.270565 
3507.000000	97.270324 
3506.000000	97.270082 
3505.000000	97.269773 
3504.000000	97.269390 
3503.000000	97.268983 
3502.000000	97.268613 
3501.000000	97.268298 
3500.000000	97.268026 
3499.000000	97.267791 
3498.000000	97.267579 
3497.000000	97.267323 
3496.000000	97.266915 
3495.000000	97.266292 
3494.000000	97.265538 
3493.000000	97.264875 
3492.000000	97.264458 
3491.000000	97.264212 
3490.000000	97.263866 
3489.000000	97.263217 
3488.000000	97.262306 
3487.000000	97.261331 
3486.000000	97.260434 
3485.000000	97.259683 
3484.000000	97.259140 
3483.000000	97.258831 
3482.000000	97.258634 
3481.000000	97.258371 
3480.000000	97.257995 
3479.000000	97.257549 
3478.000000	97.256964 
3477.000000	97.256081 
3476.000000	97.254851 
3475.000000	97.253397 
3474.000000	97.251943 
3473.000000	97.250738 
3472.000000	97.249901 
3471.000000	97.249284 
3470.000000	97.248594 
3469.000000	97.247690 
3468.000000	97.246713 
3467.000000	97.245917 
3466.000000	97.245460 
3465.000000	97.245286 
3464.000000	97.245091 
3463.000000	97.244433 
3462.000000	97.243016 
3461.000000	97.240966 
3460.000000	97.238756 
3459.000000	97.236767 
3458.000000	97.235011 
3457.000000	97.233295 
3456.000000	97.231564 
3455.000000	97.230086 
3454.000000	97.229159 
3453.000000	97.228798 
3452.000000	97.228798 
3451.000000	97.228956 
3450.000000	97.228979 
3449.000000	97.228379 
3448.000000	97.226817 
3447.000000	97.224508 
3446.000000	97.222157 
3445.000000	97.220333 
3444.000000	97.219109 
3443.000000	97.218293 
3442.000000	97.217665 
3441.000000	97.216912 
3440.000000	97.215669 
3439.000000	97.213785 
3438.000000	97.211528 
3437.000000	97.209403 
3436.000000	97.207791 
3435.000000	97.206884 
3434.000000	97.206676 
3433.000000	97.206874 
3432.000000	97.206960 
3431.000000	97.206576 
3430.000000	97.205756 
3429.000000	97.204756 
3428.000000	97.203719 
3427.000000	97.202569 
3426.000000	97.201299 
3425.000000	97.200213 
3424.000000	97.199655 
3423.000000	97.199550 
3422.000000	97.199403 
3421.000000	97.198875 
3420.000000	97.198141 
3419.000000	97.197570 
3418.000000	97.197223 
3417.000000	97.196878 
3416.000000	97.196435 
3415.000000	97.196021 
3414.000000	97.195681 
3413.000000	97.195233 
3412.000000	97.194536 
3411.000000	97.193712 
3410.000000	97.193036 
3409.000000	97.192687 
3408.000000	97.192656 
3407.000000	97.192760 
3406.000000	97.192737 
3405.000000	97.192417 
3404.000000	97.191834 
3403.000000	97.191191 
3402.000000	97.190712 
3401.000000	97.190533 
3400.000000	97.190678 
3399.000000	97.191048 
3398.000000	97.191447 
3397.000000	97.191725 
3396.000000	97.191894 
3395.000000	97.192069 
3394.000000	97.192317 
3393.000000	97.192615 
3392.000000	97.192899 
3391.000000	97.193114 
3390.000000	97.193252 
3389.000000	97.193374 
3388.000000	97.193616 
3387.000000	97.194081 
3386.000000	97.194742 
3385.000000	97.195452 
3384.000000	97.196057 
3383.000000	97.196513 
3382.000000	97.196908 
3381.000000	97.197404 
3380.000000	97.198078 
3379.000000	97.198840 
3378.000000	97.199556 
3377.000000	97.200271 
3376.000000	97.201171 
3375.000000	97.202309 
3374.000000	97.203483 
3373.000000	97.204427 
3372.000000	97.205081 
3371.000000	97.205603 
3370.000000	97.206248 
3369.000000	97.207150 
3368.000000	97.208280 
3367.000000	97.209497 
3366.000000	97.210645 
3365.000000	97.211641 
3364.000000	97.212523 
3363.000000	97.213389 
3362.000000	97.214308 
3361.000000	97.215294 
3360.000000	97.216365 
3359.000000	97.217547 
3358.000000	97.218797 
3357.000000	97.220025 
3356.000000	97.221201 
3355.000000	97.222391 
3354.000000	97.223665 
3353.000000	97.225017 
3352.000000	97.226401 
3351.000000	97.227801 
3350.000000	97.229233 
3349.000000	97.230693 
3348.000000	97.232103 
3347.000000	97.233328 
3346.000000	97.234272 
3345.000000	97.235003 
3344.000000	97.235717 
3343.000000	97.236532 
3342.000000	97.237407 
3341.000000	97.238290 
3340.000000	97.239210 
3339.000000	97.240188 
3338.000000	97.241179 
3337.000000	97.242142 
3336.000000	97.243096 
3335.000000	97.244080 
3334.000000	97.245092 
3333.000000	97.246097 
3332.000000	97.247065 
3331.000000	97.247993 
3330.000000	97.248897 
3329.000000	97.249805 
3328.000000	97.250735 
3327.000000	97.251687 
3326.000000	97.252643 
3325.000000	97.253584 
3324.000000	97.254504 
3323.000000	97.255408 
3322.000000	97.256306 
3321.000000	97.257205 
3320.000000	97.258108 
3319.000000	97.259015 
3318.000000	97.259922 
3317.000000	97.260820 
3316.000000	97.261703 
3315.000000	97.262566 
3314.000000	97.263407 
3313.000000	97.264230 
3312.000000	97.265041 
3311.000000	97.265846 
3310.000000	97.266650 
3309.000000	97.267453 
3308.000000	97.268251 
3307.000000	97.269045 
3306.000000	97.269838 
3305.000000	97.270642 
3304.000000	97.271469 
3303.000000	97.272324 
3302.000000	97.273204 
3301.000000	97.274098 
3300.000000	97.274993 
3299.000000	97.275880 
3298.000000	97.276752 
3297.000000	97.277606 
3296.000000	97.278449 
3295.000000	97.279304 
3294.000000	97.280198 
3293.000000	97.281143 
3292.000000	97.282132 
3291.000000	97.283151 
3290.000000	97.284171 
3289.000000	97.285157 
3288.000000	97.286084 
3287.000000	97.286962 
3286.000000	97.287817 
3285.000000	97.288657 
3284.000000	97.289476 
3283.000000	97.290288 
3282.000000	97.291147 
3281.000000	97.292111 
3280.000000	97.293170 
3279.000000	97.294218 
3278.000000	97.295156 
3277.000000	97.295996 
3276.000000	97.296825 
3275.000000	97.297662 
3274.000000	97.298436 
3273.000000	97.299142 
3272.000000	97.299942 
3271.000000	97.301003 
3270.000000	97.302300 
3269.000000	97.303637 
3268.000000	97.304819 
3267.000000	97.305802 
3266.000000	97.306706 
3265.000000	97.307746 
3264.000000	97.309064 
3263.000000	97.310542 
3262.000000	97.311872 
3261.000000	97.312871 
3260.000000	97.313632 
3259.000000	97.314327 
3258.000000	97.314984 
3257.000000	97.315590 
3256.000000	97.316317 
3255.000000	97.317387 
3254.000000	97.318783 
3253.000000	97.320247 
3252.000000	97.321561 
3251.000000	97.322702 
3250.000000	97.323707 
3249.000000	97.324532 
3248.000000	97.325114 
3247.000000	97.325533 
3246.000000	97.326034 
3245.000000	97.326881 
3244.000000	97.328139 
3243.000000	97.329571 
3242.000000	97.330804 
3241.000000	97.331681 
3240.000000	97.332376 
3239.000000	97.333176 
3238.000000	97.334232 
3237.000000	97.335561 
3236.000000	97.337149 
3235.000000	97.338889 
3234.000000	97.340474 
3233.000000	97.341563 
3232.000000	97.342061 
3231.000000	97.342199 
3230.000000	97.342369 
3229.000000	97.342867 
3228.000000	97.343806 
3227.000000	97.345128 
3226.000000	97.346695 
3225.000000	97.348391 
3224.000000	97.350143 
3223.000000	97.351870 
3222.000000	97.353492 
3221.000000	97.354993 
3220.000000	97.356397 
3219.000000	97.357690 
3218.000000	97.358848 
3217.000000	97.359919 
3216.000000	97.361000 
3215.000000	97.362163 
3214.000000	97.363434 
3213.000000	97.364800 
3212.000000	97.366180 
3211.000000	97.367444 
3210.000000	97.368540 
3209.000000	97.369573 
3208.000000	97.370676 
3207.000000	97.371859 
3206.000000	97.373050 
3205.000000	97.374251 
3204.000000	97.375568 
3203.000000	97.377058 
3202.000000	97.378638 
3201.000000	97.380156 
3200.000000	97.381543 
3199.000000	97.382849 
3198.000000	97.384162 
3197.000000	97.385513 
3196.000000	97.386868 
3195.000000	97.388197 
3194.000000	97.389522 
3193.000000	97.390890 
3192.000000	97.392310 
3191.000000	97.393748 
3190.000000	97.395163 
3189.000000	97.396546 
3188.000000	97.397907 
3187.000000	97.399260 
3186.000000	97.400608 
3185.000000	97.401955 
3184.000000	97.403301 
3183.000000	97.404646 
3182.000000	97.405990 
3181.000000	97.407333 
3180.000000	97.408678 
3179.000000	97.410024 
3178.000000	97.411371 
3177.000000	97.412720 
3176.000000	97.414072 
3175.000000	97.415430 
3174.000000	97.416792 
3173.000000	97.418156 
3172.000000	97.419516 
3171.000000	97.420863 
3170.000000	97.422192 
3169.000000	97.423505 
3168.000000	97.424808 
3167.000000	97.426106 
3166.000000	97.427400 
3165.000000	97.428685 
3164.000000	97.429955 
3163.000000	97.431209 
3162.000000	97.432447 
3161.000000	97.433671 
3160.000000	97.434883 
3159.000000	97.436085 
3158.000000	97.437280 
3157.000000	97.438472 
3156.000000	97.439664 
3155.000000	97.440857 
3154.000000	97.442051 
3153.000000	97.443243 
3152.000000	97.444434 
3151.000000	97.445622 
3150.000000	97.446804 
3149.000000	97.447976 
3148.000000	97.449145 
3147.000000	97.450319 
3146.000000	97.451509 
3145.000000	97.452721 
3144.000000	97.453958 
3143.000000	97.455205 
3142.000000	97.456431 
3141.000000	97.457612 
3140.000000	97.458751 
3139.000000	97.459890 
3138.000000	97.461068 
3137.000000	97.462274 
3136.000000	97.463443 
3135.000000	97.464505 
3134.000000	97.465443 
3133.000000	97.466341 
3132.000000	97.467313 
3131.000000	97.468363 
3130.000000	97.469357 
3129.000000	97.470229 
3128.000000	97.471159 
3127.000000	97.472402 
3126.000000	97.474001 
3125.000000	97.475754 
3124.000000	97.477407 
3123.000000	97.478807 
3122.000000	97.479865 
3121.000000	97.480576 
3120.000000	97.481093 
3119.000000	97.481649 
3118.000000	97.482387 
3117.000000	97.483344 
3116.000000	97.484537 
3115.000000	97.485925 
3114.000000	97.487315 
3113.000000	97.488509 
3112.000000	97.489600 
3111.000000	97.490970 
3110.000000	97.492852 
3109.000000	97.494939 
3108.000000	97.496618 
3107.000000	97.497610 
3106.000000	97.498218 
3105.000000	97.498869 
3104.000000	97.499529 
3103.000000	97.499755 
3102.000000	97.499280 
3101.000000	97.498396 
3100.000000	97.497646 
3099.000000	97.497260 
3098.000000	97.497237 
3097.000000	97.497895 
3096.000000	97.499795 
3095.000000	97.502881 
3094.000000	97.506075 
3093.000000	97.508117 
3092.000000	97.508791 
3091.000000	97.508804 
3090.000000	97.508751 
3089.000000	97.508603 
3088.000000	97.508124 
3087.000000	97.507501 
3086.000000	97.507429 
3085.000000	97.508497 
3084.000000	97.510358 
3083.000000	97.511693 
3082.000000	97.511582 
3081.000000	97.510886 
3080.000000	97.511321 
3079.000000	97.512991 
3078.000000	97.514202 
3077.000000	97.514186 
3076.000000	97.514326 
3075.000000	97.515725 
3074.000000	97.517193 
3073.000000	97.517231 
3072.000000	97.516737 
3071.000000	97.517595 
3070.000000	97.519436 
3069.000000	97.520093 
3068.000000	97.518943 
3067.000000	97.517643 
3066.000000	97.517476 
3065.000000	97.517904 
3064.000000	97.517918 
3063.000000	97.517003 
3062.000000	97.514691 
3061.000000	97.510915 
3060.000000	97.507098 
3059.000000	97.505503 
3058.000000	97.507227 
3057.000000	97.511651 
3056.000000	97.517149 
3055.000000	97.521094 
3054.000000	97.520270 
3053.000000	97.513827 
3052.000000	97.505996 
3051.000000	97.503187 
3050.000000	97.507251 
3049.000000	97.513324 
3048.000000	97.515029 
3047.000000	97.510225 
3046.000000	97.501064 
3045.000000	97.490746 
3044.000000	97.481884 
3043.000000	97.476663 
3042.000000	97.476261 
3041.000000	97.479293 
3040.000000	97.481744 
3039.000000	97.479557 
3038.000000	97.471676 
3037.000000	97.460688 
3036.000000	97.450164 
3035.000000	97.441174 
3034.000000	97.432025 
3033.000000	97.421221 
3032.000000	97.409402 
3031.000000	97.398103 
3030.000000	97.387785 
3029.000000	97.377814 
3028.000000	97.367144 
3027.000000	97.354073 
3026.000000	97.336788 
3025.000000	97.315878 
3024.000000	97.295377 
3023.000000	97.279137 
3022.000000	97.266524 
3021.000000	97.253807 
3020.000000	97.239423 
3019.000000	97.225253 
3018.000000	97.212354 
3017.000000	97.198146 
3016.000000	97.179370 
3015.000000	97.156255 
3014.000000	97.132471 
3013.000000	97.111823 
3012.000000	97.095492 
3011.000000	97.081382 
3010.000000	97.065444 
3009.000000	97.044606 
3008.000000	97.019127 
3007.000000	96.991829 
3006.000000	96.965133 
3005.000000	96.939774 
3004.000000	96.916135 
3003.000000	96.895020 
3002.000000	96.876430 
3001.000000	96.859040 
3000.000000	96.841669 
2999.000000	96.824100 
2998.000000	96.806105 
2997.000000	96.787187 
2996.000000	96.767859 
2995.000000	96.749330 
2994.000000	96.730307 
2993.000000	96.705729 
2992.000000	96.671479 
2991.000000	96.630602 
2990.000000	96.593069 
2989.000000	96.568457 
2988.000000	96.559554 
2987.000000	96.562648 
2986.000000	96.572216 
2985.000000	96.584495 
2984.000000	96.597362 
2983.000000	96.608922 
2982.000000	96.617516 
2981.000000	96.622587 
2980.000000	96.624446 
2979.000000	96.622897 
2978.000000	96.617046 
2977.000000	96.607122 
2976.000000	96.595972 
2975.000000	96.587812 
2974.000000	96.585353 
2973.000000	96.588451 
2972.000000	96.595042 
2971.000000	96.602771 
2970.000000	96.610283 
2969.000000	96.618205 
2968.000000	96.628946 
2967.000000	96.644359 
2966.000000	96.663147 
2965.000000	96.681390 
2964.000000	96.696084 
2963.000000	96.707605 
2962.000000	96.718444 
2961.000000	96.730440 
2960.000000	96.743894 
2959.000000	96.758603 
2958.000000	96.774548 
2957.000000	96.791289 
2956.000000	96.807217 
2955.000000	96.820084 
2954.000000	96.828894 
2953.000000	96.835519 
2952.000000	96.843775 
2951.000000	96.855851 
2950.000000	96.869532 
2949.000000	96.879939 
2948.000000	96.884293 
2947.000000	96.884219 
2946.000000	96.883462 
2945.000000	96.884422 
2944.000000	96.887235 
2943.000000	96.890988 
2942.000000	96.894434 
2941.000000	96.896058 
2940.000000	96.895119 
2939.000000	96.892985 
2938.000000	96.892242 
2937.000000	96.894047 
2936.000000	96.896961 
2935.000000	96.898457 
2934.000000	96.896852 
2933.000000	96.891711 
2932.000000	96.883629 
2931.000000	96.874508 
2930.000000	96.867406 
2929.000000	96.864799 
2928.000000	96.866487 
2927.000000	96.869541 
2926.000000	96.870694 
2925.000000	96.868995 
2924.000000	96.866237 
2923.000000	96.864932 
2922.000000	96.865856 
2921.000000	96.867511 
2920.000000	96.868010 
2919.000000	96.867172 
2918.000000	96.866239 
2917.000000	96.865418 
2916.000000	96.862648 
2915.000000	96.855884 
2914.000000	96.846408 
2913.000000	96.838573 
2912.000000	96.835576 
2911.000000	96.836223 
2910.000000	96.836561 
2909.000000	96.834334 
2908.000000	96.830867 
2907.000000	96.828427 
2906.000000	96.826612 
2905.000000	96.821833 
2904.000000	96.810713 
2903.000000	96.794689 
2902.000000	96.781230 
2901.000000	96.779185 
2900.000000	96.791830 
2899.000000	96.814211 
2898.000000	96.837224 
2897.000000	96.854715 
2896.000000	96.866115 
2895.000000	96.873355 
2894.000000	96.878209 
2893.000000	96.882934 
2892.000000	96.890480 
2891.000000	96.901672 
2890.000000	96.913319 
2889.000000	96.921299 
2888.000000	96.925061 
2887.000000	96.927359 
2886.000000	96.930197 
2885.000000	96.933491 
2884.000000	96.937960 
2883.000000	96.946485 
2882.000000	96.960857 
2881.000000	96.978815 
2880.000000	96.996270 
2879.000000	97.011845 
2878.000000	97.027152 
2877.000000	97.042849 
2876.000000	97.056640 
2875.000000	97.066079 
2874.000000	97.071861 
2873.000000	97.077044 
2872.000000	97.083669 
2871.000000	97.091357 
2870.000000	97.099032 
2869.000000	97.106760 
2868.000000	97.115474 
2867.000000	97.125701 
2866.000000	97.137113 
2865.000000	97.149075 
2864.000000	97.161351 
2863.000000	97.174594 
2862.000000	97.190150 
2861.000000	97.208652 
2860.000000	97.228396 
2859.000000	97.245926 
2858.000000	97.259219 
2857.000000	97.270124 
2856.000000	97.282692 
2855.000000	97.298831 
2854.000000	97.316333 
2853.000000	97.331192 
2852.000000	97.341131 
2851.000000	97.346931 
2850.000000	97.351411 
2849.000000	97.357581 
2848.000000	97.366996 
2847.000000	97.378995 
2846.000000	97.391340 
2845.000000	97.401887 
2844.000000	97.409871 
2843.000000	97.415996 
2842.000000	97.421760 
2841.000000	97.428447 
2840.000000	97.436113 
2839.000000	97.443441 
2838.000000	97.449051 
2837.000000	97.453002 
2836.000000	97.456640 
2835.000000	97.461124 
2834.000000	97.466774 
2833.000000	97.473786 
2832.000000	97.482432 
2831.000000	97.491981 
2830.000000	97.500211 
2829.000000	97.504946 
2828.000000	97.506009 
2827.000000	97.505434 
2826.000000	97.506055 
2825.000000	97.509780 
2824.000000	97.516452 
2823.000000	97.523757 
2822.000000	97.528772 
2821.000000	97.530309 
2820.000000	97.529726 
2819.000000	97.529280 
2818.000000	97.530034 
2817.000000	97.531716 
2816.000000	97.533986 
2815.000000	97.536924 
2814.000000	97.540308 
2813.000000	97.543099 
2812.000000	97.544044 
2811.000000	97.542790 
2810.000000	97.540483 
2809.000000	97.539280 
2808.000000	97.540878 
2807.000000	97.545269 
2806.000000	97.550966 
2805.000000	97.556278 
2804.000000	97.560192 
2803.000000	97.562275 
2802.000000	97.562644 
2801.000000	97.562363 
2800.000000	97.563098 
2799.000000	97.565606 
2798.000000	97.568812 
2797.000000	97.570876 
2796.000000	97.571069 
2795.000000	97.570261 
2794.000000	97.569846 
2793.000000	97.570547 
2792.000000	97.572196 
2791.000000	97.574177 
2790.000000	97.575912 
2789.000000	97.577101 
2788.000000	97.577792 
2787.000000	97.578334 
2786.000000	97.579240 
2785.000000	97.580854 
2784.000000	97.582978 
2783.000000	97.584927 
2782.000000	97.586164 
2781.000000	97.586856 
2780.000000	97.587590 
2779.000000	97.588684 
2778.000000	97.589984 
2777.000000	97.591207 
2776.000000	97.592263 
2775.000000	97.593254 
2774.000000	97.594317 
2773.000000	97.595511 
2772.000000	97.596810 
2771.000000	97.598131 
2770.000000	97.599415 
2769.000000	97.600689 
2768.000000	97.602024 
2767.000000	97.603376 
2766.000000	97.604564 
2765.000000	97.605496 
2764.000000	97.606328 
2763.000000	97.607258 
2762.000000	97.608261 
2761.000000	97.609156 
2760.000000	97.609883 
2759.000000	97.610568 
2758.000000	97.611347 
2757.000000	97.612194 
2756.000000	97.612968 
2755.000000	97.613604 
2754.000000	97.614212 
2753.000000	97.614961 
2752.000000	97.615884 
2751.000000	97.616872 
2750.000000	97.617854 
2749.000000	97.618886 
2748.000000	97.619995 
2747.000000	97.621042 
2746.000000	97.621868 
2745.000000	97.622492 
2744.000000	97.623102 
2743.000000	97.623864 
2742.000000	97.624762 
2741.000000	97.625669 
2740.000000	97.626515 
2739.000000	97.627324 
2738.000000	97.628125 
2737.000000	97.628913 
2736.000000	97.629704 
2735.000000	97.630546 
2734.000000	97.631456 
2733.000000	97.632396 
2732.000000	97.633319 
2731.000000	97.634212 
2730.000000	97.635095 
2729.000000	97.635986 
2728.000000	97.636874 
2727.000000	97.637715 
2726.000000	97.638471 
2725.000000	97.639161 
2724.000000	97.639849 
2723.000000	97.640575 
2722.000000	97.641316 
2721.000000	97.642039 
2720.000000	97.642748 
2719.000000	97.643472 
2718.000000	97.644219 
2717.000000	97.644967 
2716.000000	97.645689 
2715.000000	97.646384 
2714.000000	97.647079 
2713.000000	97.647800 
2712.000000	97.648550 
2711.000000	97.649303 
2710.000000	97.650031 
2709.000000	97.650721 
2708.000000	97.651387 
2707.000000	97.652050 
2706.000000	97.652726 
2705.000000	97.653402 
2704.000000	97.654039 
2703.000000	97.654599 
2702.000000	97.655084 
2701.000000	97.655563 
2700.000000	97.656144 
2699.000000	97.656897 
2698.000000	97.657801 
2697.000000	97.658700 
2696.000000	97.659399 
2695.000000	97.659822 
2694.000000	97.660078 
2693.000000	97.660373 
2692.000000	97.660781 
2691.000000	97.661192 
2690.000000	97.661489 
2689.000000	97.661684 
2688.000000	97.661863 
2687.000000	97.662035 
2686.000000	97.662160 
2685.000000	97.662280 
2684.000000	97.662515 
2683.000000	97.662875 
2682.000000	97.663196 
2681.000000	97.663310 
2680.000000	97.663263 
2679.000000	97.663268 
2678.000000	97.663463 
2677.000000	97.663815 
2676.000000	97.664226 
2675.000000	97.664618 
2674.000000	97.664910 
2673.000000	97.665063 
2672.000000	97.665159 
2671.000000	97.665261 
2670.000000	97.665241 
2669.000000	97.664980 
2668.000000	97.664635 
2667.000000	97.664505 
2666.000000	97.664596 
2665.000000	97.664570 
2664.000000	97.664207 
2663.000000	97.663718 
2662.000000	97.663479 
2661.000000	97.663538 
2660.000000	97.663599 
2659.000000	97.663392 
2658.000000	97.662902 
2657.000000	97.662290 
2656.000000	97.661726 
2655.000000	97.661294 
2654.000000	97.660946 
2653.000000	97.660576 
2652.000000	97.660161 
2651.000000	97.659839 
2650.000000	97.659763 
2649.000000	97.659892 
2648.000000	97.659990 
2647.000000	97.659837 
2646.000000	97.659386 
2645.000000	97.658734 
2644.000000	97.658025 
2643.000000	97.657403 
2642.000000	97.656975 
2641.000000	97.656748 
2640.000000	97.656620 
2639.000000	97.656495 
2638.000000	97.656382 
2637.000000	97.656325 
2636.000000	97.656318 
2635.000000	97.656353 
2634.000000	97.656487 
2633.000000	97.656725 
2632.000000	97.656836 
2631.000000	97.656499 
2630.000000	97.655672 
2629.000000	97.654679 
2628.000000	97.653928 
2627.000000	97.653527 
2626.000000	97.653348 
2625.000000	97.653304 
2624.000000	97.653449 
2623.000000	97.653793 
2622.000000	97.654180 
2621.000000	97.654358 
2620.000000	97.654133 
2619.000000	97.653440 
2618.000000	97.652437 
2617.000000	97.651555 
2616.000000	97.651226 
2615.000000	97.651507 
2614.000000	97.652017 
2613.000000	97.652333 
2612.000000	97.652416 
2611.000000	97.652519 
2610.000000	97.652860 
2609.000000	97.653448 
2608.000000	97.654081 
2607.000000	97.654458 
2606.000000	97.654452 
2605.000000	97.654305 
2604.000000	97.654395 
2603.000000	97.654762 
2602.000000	97.655085 
2601.000000	97.655216 
2600.000000	97.655373 
2599.000000	97.655603 
2598.000000	97.655478 
2597.000000	97.654713 
2596.000000	97.653731 
2595.000000	97.653199 
2594.000000	97.653209 
2593.000000	97.653435 
2592.000000	97.653882 
2591.000000	97.654788 
2590.000000	97.655794 
2589.000000	97.656028 
2588.000000	97.655266 
2587.000000	97.654385 
2586.000000	97.654369 
2585.000000	97.655354 
2584.000000	97.656892 
2583.000000	97.658513 
2582.000000	97.659782 
2581.000000	97.660323 
2580.000000	97.660248 
2579.000000	97.660186 
2578.000000	97.660543 
2577.000000	97.661026 
2576.000000	97.661138 
2575.000000	97.660719 
2574.000000	97.659836 
2573.000000	97.658559 
2572.000000	97.657072 
2571.000000	97.655630 
2570.000000	97.654341 
2569.000000	97.653294 
2568.000000	97.652893 
2567.000000	97.653484 
2566.000000	97.654604 
2565.000000	97.655204 
2564.000000	97.654880 
2563.000000	97.654315 
2562.000000	97.654292 
2561.000000	97.654885 
2560.000000	97.655945 
2559.000000	97.657679 
2558.000000	97.660121 
2557.000000	97.662438 
2556.000000	97.663529 
2555.000000	97.663208 
2554.000000	97.662292 
2553.000000	97.661592 
2552.000000	97.661196 
2551.000000	97.660992 
2550.000000	97.661169 
2549.000000	97.661745 
2548.000000	97.662012 
2547.000000	97.661146 
2546.000000	97.659326 
2545.000000	97.657747 
2544.000000	97.657309 
2543.000000	97.657705 
2542.000000	97.658061 
2541.000000	97.658115 
2540.000000	97.658280 
2539.000000	97.658745 
2538.000000	97.659130 
2537.000000	97.659094 
2536.000000	97.658847 
2535.000000	97.658797 
2534.000000	97.658960 
2533.000000	97.658993 
2532.000000	97.658719 
2531.000000	97.658319 
2530.000000	97.658045 
2529.000000	97.657931 
2528.000000	97.657873 
2527.000000	97.657840 
2526.000000	97.657908 
2525.000000	97.658113 
2524.000000	97.658381 
2523.000000	97.658593 
2522.000000	97.658698 
2521.000000	97.658732 
2520.000000	97.658761 
2519.000000	97.658810 
2518.000000	97.658868 
2517.000000	97.658915 
2516.000000	97.658942 
2515.000000	97.658957 
2514.000000	97.658991 
2513.000000	97.659104 
2512.000000	97.659331 
2511.000000	97.659644 
2510.000000	97.659980 
2509.000000	97.660298 
2508.000000	97.660599 
2507.000000	97.660899 
2506.000000	97.661213 
2505.000000	97.661551 
2504.000000	97.661914 
2503.000000	97.662294 
2502.000000	97.662680 
2501.000000	97.663068 
2500.000000	97.663464 
2499.000000	97.663880 
2498.000000	97.664317 
2497.000000	97.664775 
2496.000000	97.665249 
2495.000000	97.665738 
2494.000000	97.666239 
2493.000000	97.666729 
2492.000000	97.667170 
2491.000000	97.667557 
2490.000000	97.667956 
2489.000000	97.668449 
2488.000000	97.669022 
2487.000000	97.669560 
2486.000000	97.669974 
2485.000000	97.670300 
2484.000000	97.670645 
2483.000000	97.671075 
2482.000000	97.671558 
2481.000000	97.672010 
2480.000000	97.672371 
2479.000000	97.672663 
2478.000000	97.673026 
2477.000000	97.673653 
2476.000000	97.674515 
2475.000000	97.675134 
2474.000000	97.674894 
2473.000000	97.673694 
2472.000000	97.672217 
2471.000000	97.671334 
2470.000000	97.671381 
2469.000000	97.672164 
2468.000000	97.673300 
2467.000000	97.674321 
2466.000000	97.674652 
2465.000000	97.674019 
2464.000000	97.672946 
2463.000000	97.672493 
2462.000000	97.673392 
2461.000000	97.675647 
2460.000000	97.678767 
2459.000000	97.681965 
2458.000000	97.684131 
2457.000000	97.684240 
2456.000000	97.682048 
2455.000000	97.678393 
2454.000000	97.674639 
2453.000000	97.671680 
2452.000000	97.669626 
2451.000000	97.668309 
2450.000000	97.667851 
2449.000000	97.668535 
2448.000000	97.670133 
2447.000000	97.671724 
2446.000000	97.672429 
2445.000000	97.672168 
2444.000000	97.671434 
2443.000000	97.670582 
2442.000000	97.669804 
2441.000000	97.669516 
2440.000000	97.670138 
2439.000000	97.671555 
2438.000000	97.673394 
2437.000000	97.675747 
2436.000000	97.678858 
2435.000000	97.682091 
2434.000000	97.684055 
2433.000000	97.684129 
2432.000000	97.683267 
2431.000000	97.682974 
2430.000000	97.683925 
2429.000000	97.685840 
2428.000000	97.688032 
2427.000000	97.689668 
2426.000000	97.689922 
2425.000000	97.688404 
2424.000000	97.685692 
2423.000000	97.683089 
2422.000000	97.681738 
2421.000000	97.682341 
2420.000000	97.684986 
2419.000000	97.688553 
2418.000000	97.691182 
2417.000000	97.692151 
2416.000000	97.692462 
2415.000000	97.692952 
2414.000000	97.693344 
2413.000000	97.693759 
2412.000000	97.695440 
2411.000000	97.698700 
2410.000000	97.701529 
2409.000000	97.701859 
2408.000000	97.700394 
2407.000000	97.699578 
2406.000000	97.700317 
2405.000000	97.701296 
2404.000000	97.701162 
2403.000000	97.699880 
2402.000000	97.698181 
2401.000000	97.697128 
2400.000000	97.698059 
2399.000000	97.701582 
2398.000000	97.706613 
2397.000000	97.711336 
2396.000000	97.714803 
2395.000000	97.716672 
2394.000000	97.716162 
2393.000000	97.713203 
2392.000000	97.709948 
2391.000000	97.709526 
2390.000000	97.712970 
2389.000000	97.718503 
2388.000000	97.723997 
2387.000000	97.728831 
2386.000000	97.733272 
2385.000000	97.737048 
2384.000000	97.739260 
2383.000000	97.738732 
2382.000000	97.733871 
2381.000000	97.723347 
2380.000000	97.707709 
2379.000000	97.689941 
2378.000000	97.673750 
2377.000000	97.661921 
2376.000000	97.656850 
2375.000000	97.660786 
2374.000000	97.673595 
2373.000000	97.690564 
2372.000000	97.705022 
2371.000000	97.713788 
2370.000000	97.718063 
2369.000000	97.719345 
2368.000000	97.717309 
2367.000000	97.711737 
2366.000000	97.704013 
2365.000000	97.696046 
2364.000000	97.689508 
2363.000000	97.685541 
2362.000000	97.684808 
2361.000000	97.687049 
2360.000000	97.690492 
2359.000000	97.693695 
2358.000000	97.695399 
2357.000000	97.694684 
2356.000000	97.692105 
2355.000000	97.688457 
2354.000000	97.683413 
2353.000000	97.677983 
2352.000000	97.676266 
2351.000000	97.680338 
2350.000000	97.687054 
2349.000000	97.691663 
2348.000000	97.692459 
2347.000000	97.690897 
2346.000000	97.689869 
2345.000000	97.691268 
2344.000000	97.694849 
2343.000000	97.698419 
2342.000000	97.700374 
2341.000000	97.700932 
2340.000000	97.701112 
2339.000000	97.701611 
2338.000000	97.702196 
2337.000000	97.702656 
2336.000000	97.703366 
2335.000000	97.704708 
2334.000000	97.706102 
2333.000000	97.706777 
2332.000000	97.706866 
2331.000000	97.707382 
2330.000000	97.708610 
2329.000000	97.710337 
2328.000000	97.712365 
2327.000000	97.714738 
2326.000000	97.716915 
2325.000000	97.718013 
2324.000000	97.718318 
2323.000000	97.718520 
2322.000000	97.718599 
2321.000000	97.717570 
2320.000000	97.715638 
2319.000000	97.714324 
2318.000000	97.714194 
2317.000000	97.714046 
2316.000000	97.712097 
2315.000000	97.708504 
2314.000000	97.704475 
2313.000000	97.701648 
2312.000000	97.700685 
2311.000000	97.702114 
2310.000000	97.704677 
2309.000000	97.706794 
2308.000000	97.707225 
2307.000000	97.707057 
2306.000000	97.707205 
2305.000000	97.707937 
2304.000000	97.709099 
2303.000000	97.711969 
2302.000000	97.716895 
2301.000000	97.722798 
2300.000000	97.727085 
2299.000000	97.727595 
2298.000000	97.723331 
2297.000000	97.715155 
2296.000000	97.705231 
2295.000000	97.696512 
2294.000000	97.690362 
2293.000000	97.685855 
2292.000000	97.681671 
2291.000000	97.677707 
2290.000000	97.674661 
2289.000000	97.672763 
2288.000000	97.671726 
2287.000000	97.670972 
2286.000000	97.669899 
2285.000000	97.668344 
2284.000000	97.666778 
2283.000000	97.665477 
2282.000000	97.663871 
2281.000000	97.661329 
2280.000000	97.658091 
2279.000000	97.654627 
2278.000000	97.650682 
2277.000000	97.646080 
2276.000000	97.641964 
2275.000000	97.639771 
2274.000000	97.639261 
2273.000000	97.639077 
2272.000000	97.638671 
2271.000000	97.638244 
2270.000000	97.637402 
2269.000000	97.635682 
2268.000000	97.633947 
2267.000000	97.633415 
2266.000000	97.633711 
2265.000000	97.633330 
2264.000000	97.631683 
2263.000000	97.629294 
2262.000000	97.626463 
2261.000000	97.623117 
2260.000000	97.619690 
2259.000000	97.616814 
2258.000000	97.614448 
2257.000000	97.612178 
2256.000000	97.610058 
2255.000000	97.608465 
2254.000000	97.607372 
2253.000000	97.606238 
2252.000000	97.604566 
2251.000000	97.602333 
2250.000000	97.599721 
2249.000000	97.596898 
2248.000000	97.594114 
2247.000000	97.591661 
2246.000000	97.589569 
2245.000000	97.587619 
2244.000000	97.585596 
2243.000000	97.583490 
2242.000000	97.581400 
2241.000000	97.579395 
2240.000000	97.577481 
2239.000000	97.575626 
2238.000000	97.573771 
2237.000000	97.571869 
2236.000000	97.569909 
2235.000000	97.567906 
2234.000000	97.565873 
2233.000000	97.563818 
2232.000000	97.561751 
2231.000000	97.559682 
2230.000000	97.557611 
2229.000000	97.555529 
2228.000000	97.553429 
2227.000000	97.551313 
2226.000000	97.549186 
2225.000000	97.547037 
2224.000000	97.544855 
2223.000000	97.542655 
2222.000000	97.540473 
2221.000000	97.538334 
2220.000000	97.536232 
2219.000000	97.534151 
2218.000000	97.532080 
2217.000000	97.530022 
2216.000000	97.527985 
2215.000000	97.525969 
2214.000000	97.523962 
2213.000000	97.521955 
2212.000000	97.519949 
2211.000000	97.517967 
2210.000000	97.516023 
2209.000000	97.514117 
2208.000000	97.512234 
2207.000000	97.510360 
2206.000000	97.508479 
2205.000000	97.506577 
2204.000000	97.504645 
2203.000000	97.502760 
2202.000000	97.501075 
2201.000000	97.499549 
2200.000000	97.497861 
2199.000000	97.495738 
2198.000000	97.493094 
2197.000000	97.489988 
2196.000000	97.486785 
2195.000000	97.484034 
2194.000000	97.481835 
2193.000000	97.479776 
2192.000000	97.477836 
2191.000000	97.476664 
2190.000000	97.476447 
2189.000000	97.476324 
2188.000000	97.475562 
2187.000000	97.474260 
2186.000000	97.472096 
2185.000000	97.467922 
2184.000000	97.462132 
2183.000000	97.458184 
2182.000000	97.459264 
2181.000000	97.464271 
2180.000000	97.468120 
2179.000000	97.467170 
2178.000000	97.462245 
2177.000000	97.456831 
2176.000000	97.453587 
2175.000000	97.452803 
2174.000000	97.453115 
2173.000000	97.453234 
2172.000000	97.453687 
2171.000000	97.456346 
2170.000000	97.461263 
2169.000000	97.465035 
2168.000000	97.464204 
2167.000000	97.459516 
2166.000000	97.454652 
2165.000000	97.451034 
2164.000000	97.446465 
2163.000000	97.439549 
2162.000000	97.433250 
2161.000000	97.432695 
2160.000000	97.440523 
2159.000000	97.454821 
2158.000000	97.470619 
2157.000000	97.483746 
2156.000000	97.493374 
2155.000000	97.500427 
2154.000000	97.505050 
2153.000000	97.507285 
2152.000000	97.508822 
2151.000000	97.511123 
2150.000000	97.512454 
2149.000000	97.510362 
2148.000000	97.507249 
2147.000000	97.509133 
2146.000000	97.517586 
2145.000000	97.527183 
2144.000000	97.533211 
2143.000000	97.537894 
2142.000000	97.545453 
2141.000000	97.554838 
2140.000000	97.561803 
2139.000000	97.566083 
2138.000000	97.571806 
2137.000000	97.581132 
2136.000000	97.590999 
2135.000000	97.596465 
2134.000000	97.595179 
2133.000000	97.589382 
2132.000000	97.585130 
2131.000000	97.587776 
2130.000000	97.596988 
2129.000000	97.606963 
2128.000000	97.612500 
2127.000000	97.613780 
2126.000000	97.614234 
2125.000000	97.615693 
2124.000000	97.617336 
2123.000000	97.617989 
2122.000000	97.617308 
2121.000000	97.615269 
2120.000000	97.612153 
2119.000000	97.609001 
2118.000000	97.607216 
2117.000000	97.607529 
2116.000000	97.609285 
2115.000000	97.610376 
2114.000000	97.608414 
2113.000000	97.603210 
2112.000000	97.598005 
2111.000000	97.596662 
2110.000000	97.599522 
2109.000000	97.603430 
2108.000000	97.605728 
2107.000000	97.606609 
2106.000000	97.607143 
2105.000000	97.607459 
2104.000000	97.607792 
2103.000000	97.609011 
2102.000000	97.610644 
2101.000000	97.610287 
2100.000000	97.606680 
2099.000000	97.601995 
2098.000000	97.599715 
2097.000000	97.600835 
2096.000000	97.603609 
2095.000000	97.605893 
2094.000000	97.606734 
2093.000000	97.606086 
2092.000000	97.604318 
2091.000000	97.602269 
2090.000000	97.600901 
2089.000000	97.600506 
2088.000000	97.600519 
2087.000000	97.599979 
2086.000000	97.598092 
2085.000000	97.594698 
2084.000000	97.590609 
2083.000000	97.587143 
2082.000000	97.584905 
2081.000000	97.583380 
2080.000000	97.581955 
2079.000000	97.580833 
2078.000000	97.580274 
2077.000000	97.579468 
2076.000000	97.577376 
2075.000000	97.574378 
2074.000000	97.571756 
2073.000000	97.569541 
2072.000000	97.566341 
2071.000000	97.561586 
2070.000000	97.556472 
2069.000000	97.552327 
2068.000000	97.549375 
2067.000000	97.547214 
2066.000000	97.545430 
2065.000000	97.543317 
2064.000000	97.539961 
2063.000000	97.535305 
2062.000000	97.530674 
2061.000000	97.527703 
2060.000000	97.526831 
2059.000000	97.527186 
2058.000000	97.527276 
2057.000000	97.525888 
2056.000000	97.522620 
2055.000000	97.517766 
2054.000000	97.512202 
2053.000000	97.507039 
2052.000000	97.503036 
2051.000000	97.500084 
2050.000000	97.497270 
2049.000000	97.493729 
2048.000000	97.489540 
2047.000000	97.485531 
2046.000000	97.482252 
2045.000000	97.479578 
2044.000000	97.477294 
2043.000000	97.475421 
2042.000000	97.473812 
2041.000000	97.471990 
2040.000000	97.469827 
2039.000000	97.467987 
2038.000000	97.467097 
2037.000000	97.466770 
2036.000000	97.465955 
2035.000000	97.464141 
2034.000000	97.461845 
2033.000000	97.460134 
2032.000000	97.459718 
2031.000000	97.460349 
2030.000000	97.460798 
2029.000000	97.459855 
2028.000000	97.457475 
2027.000000	97.454790 
2026.000000	97.452818 
2025.000000	97.451578 
2024.000000	97.450856 
2023.000000	97.451070 
2022.000000	97.452726 
2021.000000	97.455245 
2020.000000	97.456944 
2019.000000	97.456450 
2018.000000	97.453539 
2017.000000	97.449242 
2016.000000	97.445430 
2015.000000	97.443577 
2014.000000	97.443531 
2013.000000	97.443374 
2012.000000	97.441578 
2011.000000	97.439262 
2010.000000	97.438853 
2009.000000	97.440814 
2008.000000	97.443303 
2007.000000	97.445144 
2006.000000	97.447142 
2005.000000	97.449879 
2004.000000	97.452323 
2003.000000	97.453610 
2002.000000	97.454657 
2001.000000	97.456304 
2000.000000	97.457271 
1999.000000	97.455151 
1998.000000	97.449044 
1997.000000	97.440969 
1996.000000	97.434520 
1995.000000	97.432105 
1994.000000	97.433298 
1993.000000	97.435339 
1992.000000	97.435403 
1991.000000	97.433180 
1990.000000	97.430958 
1989.000000	97.431160 
1988.000000	97.433900 
1987.000000	97.436609 
1986.000000	97.436173 
1985.000000	97.432003 
1984.000000	97.426719 
1983.000000	97.423177 
1982.000000	97.421412 
1981.000000	97.419458 
1980.000000	97.417159 
1979.000000	97.416684 
1978.000000	97.418673 
1977.000000	97.420746 
1976.000000	97.420955 
1975.000000	97.420808 
1974.000000	97.422959 
1973.000000	97.427980 
1972.000000	97.434524 
1971.000000	97.441078 
1970.000000	97.446233 
1969.000000	97.448409 
1968.000000	97.446932 
1967.000000	97.443328 
1966.000000	97.440832 
1965.000000	97.441932 
1964.000000	97.446818 
1963.000000	97.453967 
1962.000000	97.461342 
1961.000000	97.467288 
1960.000000	97.470913 
1959.000000	97.472161 
1958.000000	97.472026 
1957.000000	97.472419 
1956.000000	97.474859 
1955.000000	97.479158 
1954.000000	97.483601 
1953.000000	97.486759 
1952.000000	97.488688 
1951.000000	97.490291 
1950.000000	97.492273 
1949.000000	97.495012 
1948.000000	97.498935 
1947.000000	97.503948 
1946.000000	97.508781 
1945.000000	97.511962 
1944.000000	97.513373 
1943.000000	97.514169 
1942.000000	97.515374 
1941.000000	97.517112 
1940.000000	97.519209 
1939.000000	97.521567 
1938.000000	97.524079 
1937.000000	97.526743 
1936.000000	97.529762 
1935.000000	97.533123 
1934.000000	97.536289 
1933.000000	97.538863 
1932.000000	97.541222 
1931.000000	97.544138 
1930.000000	97.547712 
1929.000000	97.550956 
1928.000000	97.553199 
1927.000000	97.554838 
1926.000000	97.556509 
1925.000000	97.557995 
1924.000000	97.558890 
1923.000000	97.559793 
1922.000000	97.561352 
1921.000000	97.563172 
1920.000000	97.564583 
1919.000000	97.565748 
1918.000000	97.567049 
1917.000000	97.568034 
1916.000000	97.568329 
1915.000000	97.568590 
1914.000000	97.569537 
1913.000000	97.570979 
1912.000000	97.572126 
1911.000000	97.572789 
1910.000000	97.573406 
1909.000000	97.574276 
1908.000000	97.575493 
1907.000000	97.576881 
1906.000000	97.577997 
1905.000000	97.578445 
1904.000000	97.578354 
1903.000000	97.578414 
1902.000000	97.578991 
1901.000000	97.579808 
1900.000000	97.580516 
1899.000000	97.581102 
1898.000000	97.581715 
1897.000000	97.582355 
1896.000000	97.582904 
1895.000000	97.583355 
1894.000000	97.583747 
1893.000000	97.584059 
1892.000000	97.584295 
1891.000000	97.584592 
1890.000000	97.585075 
1889.000000	97.585702 
1888.000000	97.586367 
1887.000000	97.587055 
1886.000000	97.587767 
1885.000000	97.588477 
1884.000000	97.589178 
1883.000000	97.589887 
1882.000000	97.590637 
1881.000000	97.591461 
1880.000000	97.592379 
1879.000000	97.593380 
1878.000000	97.594420 
1877.000000	97.595474 
1876.000000	97.596553 
1875.000000	97.597710 
1874.000000	97.598984 
1873.000000	97.600313 
1872.000000	97.601590 
1871.000000	97.602818 
1870.000000	97.604078 
1869.000000	97.605290 
1868.000000	97.606333 
1867.000000	97.607429 
1866.000000	97.608802 
1865.000000	97.610194 
1864.000000	97.611217 
1863.000000	97.612044 
1862.000000	97.613298 
1861.000000	97.615149 
1860.000000	97.617133 
1859.000000	97.618982 
1858.000000	97.620909 
1857.000000	97.622975 
1856.000000	97.624947 
1855.000000	97.626752 
1854.000000	97.628478 
1853.000000	97.629950 
1852.000000	97.631215 
1851.000000	97.632742 
1850.000000	97.634756 
1849.000000	97.637025 
1848.000000	97.639179 
1847.000000	97.641250 
1846.000000	97.643397 
1845.000000	97.645476 
1844.000000	97.647137 
1843.000000	97.648606 
1842.000000	97.650337 
1841.000000	97.651959 
1840.000000	97.653241 
1839.000000	97.654572 
1838.000000	97.656241 
1837.000000	97.657819 
1836.000000	97.658796 
1835.000000	97.659462 
1834.000000	97.660426 
1833.000000	97.661730 
1832.000000	97.662998 
1831.000000	97.663923 
1830.000000	97.664482 
1829.000000	97.664973 
1828.000000	97.665683 
1827.000000	97.666621 
1826.000000	97.667729 
1825.000000	97.668950 
1824.000000	97.670043 
1823.000000	97.670867 
1822.000000	97.671477 
1821.000000	97.671926 
1820.000000	97.672252 
1819.000000	97.672580 
1818.000000	97.673165 
1817.000000	97.674007 
1816.000000	97.674692 
1815.000000	97.675018 
1814.000000	97.675245 
1813.000000	97.675746 
1812.000000	97.676378 
1811.000000	97.676686 
1810.000000	97.676705 
1809.000000	97.676717 
1808.000000	97.676776 
1807.000000	97.676853 
1806.000000	97.677008 
1805.000000	97.677196 
1804.000000	97.677264 
1803.000000	97.677342 
1802.000000	97.677645 
1801.000000	97.678103 
1800.000000	97.678307 
1799.000000	97.678093 
1798.000000	97.677923 
1797.000000	97.678100 
1796.000000	97.678414 
1795.000000	97.678665 
1794.000000	97.679050 
1793.000000	97.679797 
1792.000000	97.680636 
1791.000000	97.681405 
1790.000000	97.682353 
1789.000000	97.683286 
1788.000000	97.683960 
1787.000000	97.684547 
1786.000000	97.685362 
1785.000000	97.686316 
1784.000000	97.687085 
1783.000000	97.687702 
1782.000000	97.688295 
1781.000000	97.688991 
1780.000000	97.689836 
1779.000000	97.690732 
1778.000000	97.691624 
1777.000000	97.692462 
1776.000000	97.693274 
1775.000000	97.694061 
1774.000000	97.694796 
1773.000000	97.695509 
1772.000000	97.696256 
1771.000000	97.697081 
1770.000000	97.697985 
1769.000000	97.698935 
1768.000000	97.699894 
1767.000000	97.700829 
1766.000000	97.701724 
1765.000000	97.702587 
1764.000000	97.703439 
1763.000000	97.704293 
1762.000000	97.705147 
1761.000000	97.705991 
1760.000000	97.706822 
1759.000000	97.707634 
1758.000000	97.708427 
1757.000000	97.709200 
1756.000000	97.709950 
1755.000000	97.710651 
1754.000000	97.711283 
1753.000000	97.711848 
1752.000000	97.712390 
1751.000000	97.712940 
1750.000000	97.713484 
1749.000000	97.713960 
1748.000000	97.714313 
1747.000000	97.714558 
1746.000000	97.714696 
1745.000000	97.714817 
1744.000000	97.715095 
1743.000000	97.715543 
1742.000000	97.715967 
1741.000000	97.716179 
1740.000000	97.716159 
1739.000000	97.716131 
1738.000000	97.716383 
1737.000000	97.716640 
1736.000000	97.716559 
1735.000000	97.716700 
1734.000000	97.717105 
1733.000000	97.716934 
1732.000000	97.716813 
1731.000000	97.717070 
1730.000000	97.717730 
1729.000000	97.718465 
1728.000000	97.718701 
1727.000000	97.718270 
1726.000000	97.717501 
1725.000000	97.717188 
1724.000000	97.717252 
1723.000000	97.717098 
1722.000000	97.716902 
1721.000000	97.716627 
1720.000000	97.715850 
1719.000000	97.714812 
1718.000000	97.714656 
1717.000000	97.715088 
1716.000000	97.714580 
1715.000000	97.713230 
1714.000000	97.712210 
1713.000000	97.711526 
1712.000000	97.710215 
1711.000000	97.708439 
1710.000000	97.707064 
1709.000000	97.706022 
1708.000000	97.704531 
1707.000000	97.702400 
1706.000000	97.700397 
1705.000000	97.698898 
1704.000000	97.697458 
1703.000000	97.695685 
1702.000000	97.693853 
1701.000000	97.692460 
1700.000000	97.690604 
1699.000000	97.688071 
1698.000000	97.685834 
1697.000000	97.683654 
1696.000000	97.681332 
1695.000000	97.678973 
1694.000000	97.676664 
1693.000000	97.674235 
1692.000000	97.671704 
1691.000000	97.669129 
1690.000000	97.666495 
1689.000000	97.663814 
1688.000000	97.661098 
1687.000000	97.658356 
1686.000000	97.655600 
1685.000000	97.652839 
1684.000000	97.650070 
1683.000000	97.647295 
1682.000000	97.644523 
1681.000000	97.641749 
1680.000000	97.638975 
1679.000000	97.636202 
1678.000000	97.633424 
1677.000000	97.630633 
1676.000000	97.627826 
1675.000000	97.625006 
1674.000000	97.622177 
1673.000000	97.619352 
1672.000000	97.616545 
1671.000000	97.613770 
1670.000000	97.611030 
1669.000000	97.608317 
1668.000000	97.605629 
1667.000000	97.602964 
1666.000000	97.600313 
1665.000000	97.597670 
1664.000000	97.595036 
1663.000000	97.592415 
1662.000000	97.589808 
1661.000000	97.587218 
1660.000000	97.584658 
1659.000000	97.582133 
1658.000000	97.579642 
1657.000000	97.577193 
1656.000000	97.574792 
1655.000000	97.572441 
1654.000000	97.570136 
1653.000000	97.567849 
1652.000000	97.565584 
1651.000000	97.563391 
1650.000000	97.561287 
1649.000000	97.559278 
1648.000000	97.557376 
1647.000000	97.555579 
1646.000000	97.553865 
1645.000000	97.552240 
1644.000000	97.550703 
1643.000000	97.549248 
1642.000000	97.547880 
1641.000000	97.546586 
1640.000000	97.545383 
1639.000000	97.544246 
1638.000000	97.543146 
1637.000000	97.542134 
1636.000000	97.541282 
1635.000000	97.540325 
1634.000000	97.539511 
1633.000000	97.539121 
1632.000000	97.538569 
1631.000000	97.538042 
1630.000000	97.537876 
1629.000000	97.537742 
1628.000000	97.537273 
1627.000000	97.537065 
1626.000000	97.537299 
1625.000000	97.537240 
1624.000000	97.536802 
1623.000000	97.536888 
1622.000000	97.537851 
1621.000000	97.539079 
1620.000000	97.540217 
1619.000000	97.541404 
1618.000000	97.542998 
1617.000000	97.542959 
1616.000000	97.540346 
1615.000000	97.539609 
1614.000000	97.541849 
1613.000000	97.543249 
1612.000000	97.543035 
1611.000000	97.543866 
1610.000000	97.545859 
1609.000000	97.547361 
1608.000000	97.550159 
1607.000000	97.556413 
1606.000000	97.562731 
1605.000000	97.565522 
1604.000000	97.567328 
1603.000000	97.570920 
1602.000000	97.575075 
1601.000000	97.577778 
1600.000000	97.579968 
1599.000000	97.582851 
1598.000000	97.585416 
1597.000000	97.586920 
1596.000000	97.588534 
1595.000000	97.591513 
1594.000000	97.595097 
1593.000000	97.597884 
1592.000000	97.600208 
1591.000000	97.603196 
1590.000000	97.606566 
1589.000000	97.609400 
1588.000000	97.612216 
1587.000000	97.616140 
1586.000000	97.620497 
1585.000000	97.623264 
1584.000000	97.625332 
1583.000000	97.628570 
1582.000000	97.631499 
1581.000000	97.632488 
1580.000000	97.633304 
1579.000000	97.635771 
1578.000000	97.639074 
1577.000000	97.642372 
1576.000000	97.645005 
1575.000000	97.648262 
1574.000000	97.652839 
1573.000000	97.656039 
1572.000000	97.657634 
1571.000000	97.660200 
1570.000000	97.662910 
1569.000000	97.662382 
1568.000000	97.662033 
1567.000000	97.664048 
1566.000000	97.665093 
1565.000000	97.663623 
1564.000000	97.662155 
1563.000000	97.661616 
1562.000000	97.658897 
1561.000000	97.653582 
1560.000000	97.656770 
1559.000000	97.666762 
1558.000000	97.665547 
1557.000000	97.662314 
1556.000000	97.661139 
1555.000000	97.661049 
1554.000000	97.660587 
1553.000000	97.658914 
1552.000000	97.656624 
1551.000000	97.654163 
1550.000000	97.652739 
1549.000000	97.651122 
1548.000000	97.647464 
1547.000000	97.642119 
1546.000000	97.636063 
1545.000000	97.630981 
1544.000000	97.627567 
1543.000000	97.624725 
1542.000000	97.621845 
1541.000000	97.617894 
1540.000000	97.608607 
1539.000000	97.596500 
1538.000000	97.589672 
1537.000000	97.585524 
1536.000000	97.578382 
1535.000000	97.569964 
1534.000000	97.563945 
1533.000000	97.560340 
1532.000000	97.556603 
1531.000000	97.550548 
1530.000000	97.542226 
1529.000000	97.532879 
1528.000000	97.523889 
1527.000000	97.516740 
1526.000000	97.511077 
1525.000000	97.504662 
1524.000000	97.495740 
1523.000000	97.484965 
1522.000000	97.475311 
1521.000000	97.467602 
1520.000000	97.459962 
1519.000000	97.450281 
1518.000000	97.437994 
1517.000000	97.426270 
1516.000000	97.417720 
1515.000000	97.411553 
1514.000000	97.405140 
1513.000000	97.397207 
1512.000000	97.387264 
1511.000000	97.375119 
1510.000000	97.362256 
1509.000000	97.350932 
1508.000000	97.343767 
1507.000000	97.339154 
1506.000000	97.330690 
1505.000000	97.318358 
1504.000000	97.305966 
1503.000000	97.293235 
1502.000000	97.279935 
1501.000000	97.267265 
1500.000000	97.255681 
1499.000000	97.244315 
1498.000000	97.233343 
1497.000000	97.224560 
1496.000000	97.217278 
1495.000000	97.211033 
1494.000000	97.206560 
1493.000000	97.202634 
1492.000000	97.197678 
1491.000000	97.192250 
1490.000000	97.188122 
1489.000000	97.183892 
1488.000000	97.174724 
1487.000000	97.160697 
1486.000000	97.146940 
1485.000000	97.133346 
1484.000000	97.119067 
1483.000000	97.105758 
1482.000000	97.095861 
1481.000000	97.089096 
1480.000000	97.080919 
1479.000000	97.069490 
1478.000000	97.057701 
1477.000000	97.048873 
1476.000000	97.041014 
1475.000000	97.032382 
1474.000000	97.024162 
1473.000000	97.018470 
1472.000000	97.014688 
1471.000000	97.010396 
1470.000000	97.004786 
1469.000000	96.995910 
1468.000000	96.983023 
1467.000000	96.969403 
1466.000000	96.959893 
1465.000000	96.955843 
1464.000000	96.954598 
1463.000000	96.950697 
1462.000000	96.941903 
1461.000000	96.929462 
1460.000000	96.916575 
1459.000000	96.906107 
1458.000000	96.899976 
1457.000000	96.896258 
1456.000000	96.890104 
1455.000000	96.881293 
1454.000000	96.868301 
1453.000000	96.854754 
1452.000000	96.847124 
1451.000000	96.846464 
1450.000000	96.850805 
1449.000000	96.859130 
1448.000000	96.868521 
1447.000000	96.874847 
1446.000000	96.874787 
1445.000000	96.871067 
1444.000000	96.869215 
1443.000000	96.868026 
1442.000000	96.865281 
1441.000000	96.861406 
1440.000000	96.857549 
1439.000000	96.851533 
1438.000000	96.846232 
1437.000000	96.849352 
1436.000000	96.858244 
1435.000000	96.861895 
1434.000000	96.857554 
1433.000000	96.851563 
1432.000000	96.849838 
1431.000000	96.851564 
1430.000000	96.852894 
1429.000000	96.854271 
1428.000000	96.855497 
1427.000000	96.855393 
1426.000000	96.852789 
1425.000000	96.852275 
1424.000000	96.858606 
1423.000000	96.863800 
1422.000000	96.859324 
1421.000000	96.848862 
1420.000000	96.843991 
1419.000000	96.844353 
1418.000000	96.840645 
1417.000000	96.833631 
1416.000000	96.827083 
1415.000000	96.820427 
1414.000000	96.811129 
1413.000000	96.800286 
1412.000000	96.791944 
1411.000000	96.786317 
1410.000000	96.781437 
1409.000000	96.777940 
1408.000000	96.776912 
1407.000000	96.780193 
1406.000000	96.789366 
1405.000000	96.806309 
1404.000000	96.830314 
1403.000000	96.852754 
1402.000000	96.867445 
1401.000000	96.878956 
1400.000000	96.897116 
1399.000000	96.921845 
1398.000000	96.940249 
1397.000000	96.941896 
1396.000000	96.929906 
1395.000000	96.919388 
1394.000000	96.924076 
1393.000000	96.947240 
1392.000000	96.981654 
1391.000000	97.015130 
1390.000000	97.039754 
1389.000000	97.055326 
1388.000000	97.065718 
1387.000000	97.073319 
1386.000000	97.078104 
1385.000000	97.081753 
1384.000000	97.088491 
1383.000000	97.099773 
1382.000000	97.113400 
1381.000000	97.126724 
1380.000000	97.140154 
1379.000000	97.155953 
1378.000000	97.173734 
1377.000000	97.190991 
1376.000000	97.207368 
1375.000000	97.225645 
1374.000000	97.247109 
1373.000000	97.269845 
1372.000000	97.291102 
1371.000000	97.310337 
1370.000000	97.328562 
1369.000000	97.347257 
1368.000000	97.367343 
1367.000000	97.386248 
1366.000000	97.400942 
1365.000000	97.412481 
1364.000000	97.425856 
1363.000000	97.444138 
1362.000000	97.464469 
1361.000000	97.482242 
1360.000000	97.497305 
1359.000000	97.512439 
1358.000000	97.528157 
1357.000000	97.542709 
1356.000000	97.555678 
1355.000000	97.567814 
1354.000000	97.579218 
1353.000000	97.589583 
1352.000000	97.598832 
1351.000000	97.608986 
1350.000000	97.620859 
1349.000000	97.632280 
1348.000000	97.641334 
1347.000000	97.647698 
1346.000000	97.653505 
1345.000000	97.660596 
1344.000000	97.668309 
1343.000000	97.673766 
1342.000000	97.675839 
1341.000000	97.677544 
1340.000000	97.683297 
1339.000000	97.693083 
1338.000000	97.702507 
1337.000000	97.708826 
1336.000000	97.712516 
1335.000000	97.713762 
1334.000000	97.712058 
1333.000000	97.709020 
1332.000000	97.708000 
1331.000000	97.710055 
1330.000000	97.712865 
1329.000000	97.714610 
1328.000000	97.716123 
1327.000000	97.718484 
1326.000000	97.720566 
1325.000000	97.721082 
1324.000000	97.720480 
1323.000000	97.718530 
1322.000000	97.713980 
1321.000000	97.707677 
1320.000000	97.703682 
1319.000000	97.705139 
1318.000000	97.710816 
1317.000000	97.716823 
1316.000000	97.720134 
1315.000000	97.719646 
1314.000000	97.716184 
1313.000000	97.712641 
1312.000000	97.711851 
1311.000000	97.713388 
1310.000000	97.714239 
1309.000000	97.713134 
1308.000000	97.711980 
1307.000000	97.713018 
1306.000000	97.715945 
1305.000000	97.719267 
1304.000000	97.722403 
1303.000000	97.724584 
1302.000000	97.724390 
1301.000000	97.721637 
1300.000000	97.718548 
1299.000000	97.717481 
1298.000000	97.718563 
1297.000000	97.720055 
1296.000000	97.720346 
1295.000000	97.719108 
1294.000000	97.717451 
1293.000000	97.717204 
1292.000000	97.718840 
1291.000000	97.720508 
1290.000000	97.720460 
1289.000000	97.719695 
1288.000000	97.720225 
1287.000000	97.721449 
1286.000000	97.720859 
1285.000000	97.718252 
1284.000000	97.716407 
1283.000000	97.717011 
1282.000000	97.718164 
1281.000000	97.716850 
1280.000000	97.712631 
1279.000000	97.707784 
1278.000000	97.704989 
1277.000000	97.705645 
1276.000000	97.708862 
1275.000000	97.711554 
1274.000000	97.710788 
1273.000000	97.706687 
1272.000000	97.701791 
1271.000000	97.697431 
1270.000000	97.692311 
1269.000000	97.685140 
1268.000000	97.676785 
1267.000000	97.668724 
1266.000000	97.661144 
1265.000000	97.653801 
1264.000000	97.647201 
1263.000000	97.641655 
1262.000000	97.636198 
1261.000000	97.629728 
1260.000000	97.622919 
1259.000000	97.617639 
1258.000000	97.614441 
1257.000000	97.611334 
1256.000000	97.605095 
1255.000000	97.594347 
1254.000000	97.581452 
1253.000000	97.570352 
1252.000000	97.562055 
1251.000000	97.554075 
1250.000000	97.545586 
1249.000000	97.540951 
1248.000000	97.545148 
1247.000000	97.556298 
1246.000000	97.565540 
1245.000000	97.564523 
1244.000000	97.551553 
1243.000000	97.532524 
1242.000000	97.518410 
1241.000000	97.519069 
1240.000000	97.534501 
1239.000000	97.552208 
1238.000000	97.557464 
1237.000000	97.546712 
1236.000000	97.527793 
1235.000000	97.508541 
1234.000000	97.490073 
1233.000000	97.471316 
1232.000000	97.453794 
1231.000000	97.438979 
1230.000000	97.425398 
1229.000000	97.411478 
1228.000000	97.397967 
1227.000000	97.384844 
1226.000000	97.368786 
1225.000000	97.346696 
1224.000000	97.319763 
1223.000000	97.291581 
1222.000000	97.263664 
1221.000000	97.234691 
1220.000000	97.202776 
1219.000000	97.166871 
1218.000000	97.127220 
1217.000000	97.085374 
1216.000000	97.042229 
1215.000000	96.995811 
1214.000000	96.943587 
1213.000000	96.887733 
1212.000000	96.834555 
1211.000000	96.786621 
1210.000000	96.738531 
1209.000000	96.683382 
1208.000000	96.621177 
1207.000000	96.558063 
1206.000000	96.498834 
1205.000000	96.442660 
1204.000000	96.385338 
1203.000000	96.323588 
1202.000000	96.257909 
1201.000000	96.192569 
1200.000000	96.131652 
1199.000000	96.074259 
1198.000000	96.015342 
1197.000000	95.952135 
1196.000000	95.887292 
1195.000000	95.824634 
1194.000000	95.764450 
1193.000000	95.704534 
1192.000000	95.643222 
1191.000000	95.579313 
1190.000000	95.511426 
1189.000000	95.439738 
1188.000000	95.366488 
1187.000000	95.293066 
1186.000000	95.218700 
1185.000000	95.143188 
1184.000000	95.067772 
1183.000000	94.991581 
1182.000000	94.910942 
1181.000000	94.824836 
1180.000000	94.737357 
1179.000000	94.651381 
1178.000000	94.563326 
1177.000000	94.468177 
1176.000000	94.366457 
1175.000000	94.262056 
1174.000000	94.156358 
1173.000000	94.049421 
1172.000000	93.944025 
1171.000000	93.842604 
1170.000000	93.742230 
1169.000000	93.638759 
1168.000000	93.534942 
1167.000000	93.439105 
1166.000000	93.357456 
1165.000000	93.293679 
1164.000000	93.254168 
1163.000000	93.245598 
1162.000000	93.265939 
1161.000000	93.302986 
1160.000000	93.342172 
1159.000000	93.371597 
1158.000000	93.381210 
1157.000000	93.364096 
1156.000000	93.319917 
1155.000000	93.253517 
1154.000000	93.170397 
1153.000000	93.076541 
1152.000000	92.980417 
1151.000000	92.889361 
1150.000000	92.804018 
1149.000000	92.720984 
1148.000000	92.639865 
1147.000000	92.562445 
1146.000000	92.486307 
1145.000000	92.405946 
1144.000000	92.320318 
1143.000000	92.233447 
1142.000000	92.147516 
1141.000000	92.061026 
1140.000000	91.973770 
1139.000000	91.887692 
1138.000000	91.802558 
1137.000000	91.716318 
1136.000000	91.629796 
1135.000000	91.545512 
1134.000000	91.462068 
1133.000000	91.375466 
1132.000000	91.285573 
1131.000000	91.195281 
1130.000000	91.103969 
1129.000000	91.008517 
1128.000000	90.910445 
1127.000000	90.814975 
1126.000000	90.722612 
1125.000000	90.628519 
1124.000000	90.530752 
1123.000000	90.432322 
1122.000000	90.334580 
1121.000000	90.235411 
1120.000000	90.134774 
1119.000000	90.035332 
1118.000000	89.937015 
1117.000000	89.837640 
1116.000000	89.739058 
1115.000000	89.645742 
1114.000000	89.557219 
1113.000000	89.468985 
1112.000000	89.380475 
1111.000000	89.294320 
1110.000000	89.208878 
1109.000000	89.120063 
1108.000000	89.028890 
1107.000000	88.939433 
1106.000000	88.850989 
1105.000000	88.760457 
1104.000000	88.670784 
1103.000000	88.587368 
1102.000000	88.507528 
1101.000000	88.423822 
1100.000000	88.337024 
1099.000000	88.255780 
1098.000000	88.183633 
1097.000000	88.116043 
1096.000000	88.049544 
1095.000000	87.983152 
1094.000000	87.911188 
1093.000000	87.826525 
1092.000000	87.732681 
1091.000000	87.642540 
1090.000000	87.563304 
1089.000000	87.491451 
1088.000000	87.422391 
1087.000000	87.354999 
1086.000000	87.286618 
1085.000000	87.214504 
1084.000000	87.143110 
1083.000000	87.079790 
1082.000000	87.022956 
1081.000000	86.964761 
1080.000000	86.905267 
1079.000000	86.852640 
1078.000000	86.809228 
1077.000000	86.768960 
1076.000000	86.728661 
1075.000000	86.689876 
1074.000000	86.649357 
1073.000000	86.599943 
1072.000000	86.539914 
1071.000000	86.467623 
1070.000000	86.367876 
1069.000000	86.221684 
1068.000000	86.034293 
1067.000000	85.840280 
1066.000000	85.673920 
1065.000000	85.543477 
1064.000000	85.437288 
1063.000000	85.338660 
1062.000000	85.228053 
1061.000000	85.087065 
1060.000000	84.913670 
1059.000000	84.727600 
1058.000000	84.552686 
1057.000000	84.397809 
1056.000000	84.257633 
1055.000000	84.122506 
1054.000000	83.982930 
1053.000000	83.833515 
1052.000000	83.678697 
1051.000000	83.528402 
1050.000000	83.384958 
1049.000000	83.241841 
1048.000000	83.095836 
1047.000000	82.950029 
1046.000000	82.804866 
1045.000000	82.657408 
1044.000000	82.509242 
1043.000000	82.364690 
1042.000000	82.221615 
1041.000000	82.074269 
1040.000000	81.925031 
1039.000000	81.783575 
1038.000000	81.655681 
1037.000000	81.542677 
1036.000000	81.448685 
1035.000000	81.376336 
1034.000000	81.318057 
1033.000000	81.263378 
1032.000000	81.210556 
1031.000000	81.158798 
1030.000000	81.097603 
1029.000000	81.022288 
1028.000000	80.953910 
1027.000000	80.921696 
1026.000000	80.926883 
1025.000000	80.942749 
1024.000000	80.949180 
1023.000000	80.947067 
1022.000000	80.939251 
1021.000000	80.920875 
1020.000000	80.892965 
1019.000000	80.866021 
1018.000000	80.844678 
1017.000000	80.824203 
1016.000000	80.804492 
1015.000000	80.791565 
1014.000000	80.783560 
1013.000000	80.771915 
1012.000000	80.758072 
1011.000000	80.752662 
1010.000000	80.757150 
1009.000000	80.763138 
1008.000000	80.770739 
1007.000000	80.790286 
1006.000000	80.824447 
1005.000000	80.865744 
1004.000000	80.912605 
1003.000000	80.969911 
1002.000000	81.032358 
1001.000000	81.086290 
1000.000000	81.131473 
999.000000	 81.183376 
998.000000	 81.250169 
997.000000	 81.324061 
996.000000	 81.398411 
995.000000	 81.476991 
994.000000	 81.562426 
993.000000	 81.650960 
992.000000	 81.742278 
991.000000	 81.840207 
990.000000	 81.941458 
989.000000	 82.038156 
988.000000	 82.133163 
987.000000	 82.238053 
986.000000	 82.355048 
985.000000	 82.476655 
984.000000	 82.603546 
983.000000	 82.745278 
982.000000	 82.901479 
981.000000	 83.059459 
980.000000	 83.213590 
979.000000	 83.371170 
978.000000	 83.535758 
977.000000	 83.701174 
976.000000	 83.866073 
975.000000	 84.038608 
974.000000	 84.221478 
973.000000	 84.406531 
972.000000	 84.589193 
971.000000	 84.775339 
970.000000	 84.968986 
969.000000	 85.164874 
968.000000	 85.357304 
967.000000	 85.545834 
966.000000	 85.729679 
965.000000	 85.907182 
964.000000	 86.082845 
963.000000	 86.264114 
962.000000	 86.449301 
961.000000	 86.629040 
960.000000	 86.800405 
959.000000	 86.968547 
958.000000	 87.133914 
957.000000	 87.289935 
956.000000	 87.435162 
955.000000	 87.576475 
954.000000	 87.718307 
953.000000	 87.858639 
952.000000	 87.996531 
951.000000	 88.132787 
950.000000	 88.262518 
949.000000	 88.378483 
948.000000	 88.483134 
947.000000	 88.586662 
946.000000	 88.691727 
945.000000	 88.790989 
944.000000	 88.881207 
943.000000	 88.968472 
942.000000	 89.057183 
941.000000	 89.144587 
940.000000	 89.229304 
939.000000	 89.315341 
938.000000	 89.404382 
937.000000	 89.492775 
936.000000	 89.578822 
935.000000	 89.665211 
934.000000	 89.752756 
933.000000	 89.839621 
932.000000	 89.927546 
931.000000	 90.020511 
930.000000	 90.116278 
929.000000	 90.207304 
928.000000	 90.290895 
927.000000	 90.371038 
926.000000	 90.450064 
925.000000	 90.525825 
924.000000	 90.596789 
923.000000	 90.662894 
922.000000	 90.722596 
921.000000	 90.776419 
920.000000	 90.830963 
919.000000	 90.890890 
918.000000	 90.949386 
917.000000	 90.996130 
916.000000	 91.033291 
915.000000	 91.074237 
914.000000	 91.127634 
913.000000	 91.192278 
912.000000	 91.266052 
911.000000	 91.349648 
910.000000	 91.441769 
909.000000	 91.540334 
908.000000	 91.648107 
907.000000	 91.768590 
906.000000	 91.897977 
905.000000	 92.029803 
904.000000	 92.164816 
903.000000	 92.306794 
902.000000	 92.451900 
901.000000	 92.592834 
900.000000	 92.730761 
899.000000	 92.872528 
898.000000	 93.017948 
897.000000	 93.159744 
896.000000	 93.293435 
895.000000	 93.417586 
894.000000	 93.528558 
893.000000	 93.626228 
892.000000	 93.721487 
891.000000	 93.825795 
890.000000	 93.934648 
889.000000	 94.032293 
888.000000	 94.110302 
887.000000	 94.171088 
886.000000	 94.217658 
885.000000	 94.252494 
884.000000	 94.283055 
883.000000	 94.314222 
882.000000	 94.338081 
881.000000	 94.347224 
880.000000	 94.356580 
879.000000	 94.393536 
878.000000	 94.464369 
877.000000	 94.547962 
876.000000	 94.625597 
875.000000	 94.700206 
874.000000	 94.782320 
873.000000	 94.875495 
872.000000	 94.981938 
871.000000	 95.105493 
870.000000	 95.240820 
869.000000	 95.372747 
868.000000	 95.493256 
867.000000	 95.608398 
866.000000	 95.724089 
865.000000	 95.836628 
864.000000	 95.942631 
863.000000	 96.047569 
862.000000	 96.157560 
861.000000	 96.270324 
860.000000	 96.379630 
859.000000	 96.482229 
858.000000	 96.576841 
857.000000	 96.662877 
856.000000	 96.743127 
855.000000	 96.821496 
854.000000	 96.895906 
853.000000	 96.959594 
852.000000	 97.010665 
851.000000	 97.054272 
850.000000	 97.095734 
849.000000	 97.138716 
848.000000	 97.188634 
847.000000	 97.247690 
846.000000	 97.306532 
845.000000	 97.351691 
844.000000	 97.382407 
843.000000	 97.410182 
842.000000	 97.440823 
841.000000	 97.467471 
840.000000	 97.482893 
839.000000	 97.487568 
838.000000	 97.483411 
837.000000	 97.470866 
836.000000	 97.456190 
835.000000	 97.451167 
834.000000	 97.459641 
833.000000	 97.472266 
832.000000	 97.479370 
831.000000	 97.481637 
830.000000	 97.484464 
829.000000	 97.490195 
828.000000	 97.501240 
827.000000	 97.523239 
826.000000	 97.558738 
825.000000	 97.602994 
824.000000	 97.649555 
823.000000	 97.693663 
822.000000	 97.729109 
821.000000	 97.750903 
820.000000	 97.762408 
819.000000	 97.770796 
818.000000	 97.773962 
817.000000	 97.759583 
816.000000	 97.718593 
815.000000	 97.653049 
814.000000	 97.569344 
813.000000	 97.469170 
812.000000	 97.347489 
811.000000	 97.192471 
810.000000	 96.986773 
809.000000	 96.717038 
808.000000	 96.385621 
807.000000	 96.009026 
806.000000	 95.605086 
805.000000	 95.188153 
804.000000	 94.775575 
803.000000	 94.387370 
802.000000	 94.036697 
801.000000	 93.731122 
800.000000	 93.484970 
799.000000	 93.317221 
798.000000	 93.232988 
797.000000	 93.218308 
796.000000	 93.255228 
795.000000	 93.329750 
794.000000	 93.424610 
793.000000	 93.520133 
792.000000	 93.606258 
791.000000	 93.681795 
790.000000	 93.740560 
789.000000	 93.770650 
788.000000	 93.767754 
787.000000	 93.735720 
786.000000	 93.672989 
785.000000	 93.572117 
784.000000	 93.434876 
783.000000	 93.275590 
782.000000	 93.109203 
781.000000	 92.950089 
780.000000	 92.822070 
779.000000	 92.750883 
778.000000	 92.742051 
777.000000	 92.781455 
776.000000	 92.859950 
775.000000	 92.979391 
774.000000	 93.130918 
773.000000	 93.288005 
772.000000	 93.429939 
771.000000	 93.556958 
770.000000	 93.675704 
769.000000	 93.784972 
768.000000	 93.882024 
767.000000	 93.967424 
766.000000	 94.036503 
765.000000	 94.081213 
764.000000	 94.108707 
763.000000	 94.143881 
762.000000	 94.203772 
761.000000	 94.280708 
760.000000	 94.358143 
759.000000	 94.430922 
758.000000	 94.502422 
757.000000	 94.574999 
756.000000	 94.653618 
755.000000	 94.747774 
754.000000	 94.857752 
753.000000	 94.965384 
752.000000	 95.047701 
751.000000	 95.097022 
750.000000	 95.125292 
749.000000	 95.154377 
748.000000	 95.203117 
747.000000	 95.275102 
746.000000	 95.355202 
745.000000	 95.425259 
744.000000	 95.484870 
743.000000	 95.548556 
742.000000	 95.623558 
741.000000	 95.702973 
740.000000	 95.781442 
739.000000	 95.863206 
738.000000	 95.950563 
737.000000	 96.036195 
736.000000	 96.111894 
735.000000	 96.175297 
734.000000	 96.225878 
733.000000	 96.264868 
732.000000	 96.300269 
731.000000	 96.339911 
730.000000	 96.378597 
729.000000	 96.406031 
728.000000	 96.423923 
727.000000	 96.442927 
726.000000	 96.468679 
725.000000	 96.501399 
724.000000	 96.545917 
723.000000	 96.607902 
722.000000	 96.679895 
721.000000	 96.744966 
720.000000	 96.796052 
719.000000	 96.840078 
718.000000	 96.881823 
717.000000	 96.918120 
716.000000	 96.951040 
715.000000	 96.989418 
714.000000	 97.033076 
713.000000	 97.072589 
712.000000	 97.108083 
711.000000	 97.151057 
710.000000	 97.200634 
709.000000	 97.246132 
708.000000	 97.280141 
707.000000	 97.303407 
706.000000	 97.317992 
705.000000	 97.320966 
704.000000	 97.308974 
703.000000	 97.282998 
702.000000	 97.239767 
701.000000	 97.167264 
700.000000	 97.057709 
699.000000	 96.915252 
698.000000	 96.754023 
697.000000	 96.595596 
696.000000	 96.466621 
695.000000	 96.392935 
694.000000	 96.383671 
693.000000	 96.427003 
692.000000	 96.504738 
691.000000	 96.599808 
690.000000	 96.696472 
689.000000	 96.782593 
688.000000	 96.853997 
687.000000	 96.913526 
686.000000	 96.961373 
685.000000	 96.996546 
684.000000	 97.026984 
683.000000	 97.062803 
682.000000	 97.103123 
681.000000	 97.139819 
680.000000	 97.172441 
679.000000	 97.205520 
678.000000	 97.236920 
677.000000	 97.264295 
676.000000	 97.291427 
675.000000	 97.323667 
674.000000	 97.358081 
673.000000	 97.379584 
672.000000	 97.377781 
671.000000	 97.348219 
670.000000	 97.290067 
669.000000	 97.206975 
668.000000	 97.174080 
667.000000	 97.259243 
666.000000	 97.387418 
665.000000	 97.472986 
664.000000	 97.524470 
663.000000	 97.559844 
662.000000	 97.587647 
661.000000	 97.609996 
660.000000	 97.628599 
659.000000	 97.646735 
658.000000	 97.665965 
657.000000	 97.685874 
656.000000	 97.701312 
655.000000	 97.707348 
654.000000	 97.705560 
653.000000	 97.701053 
652.000000	 97.697169 
651.000000	 97.696850 
650.000000	 97.703403 

