4000.000000	97.638147 
3999.000000	97.636541 
3998.000000	97.633238 
3997.000000	97.629571 
3996.000000	97.626800 
3995.000000	97.625345 
3994.000000	97.625105 
3993.000000	97.625713 
3992.000000	97.626510 
3991.000000	97.626816 
3990.000000	97.626498 
3989.000000	97.625977 
3988.000000	97.625547 
3987.000000	97.625085 
3986.000000	97.624558 
3985.000000	97.624330 
3984.000000	97.624603 
3983.000000	97.625073 
3982.000000	97.625530 
3981.000000	97.626262 
3980.000000	97.627329 
3979.000000	97.627939 
3978.000000	97.627291 
3977.000000	97.625878 
3976.000000	97.625091 
3975.000000	97.625368 
3974.000000	97.625501 
3973.000000	97.624131 
3972.000000	97.621216 
3971.000000	97.617793 
3970.000000	97.615089 
3969.000000	97.613900 
3968.000000	97.614351 
3967.000000	97.615789 
3966.000000	97.617171 
3965.000000	97.617805 
3964.000000	97.617541 
3963.000000	97.616516 
3962.000000	97.615050 
3961.000000	97.613774 
3960.000000	97.613206 
3959.000000	97.613063 
3958.000000	97.612806 
3957.000000	97.612446 
3956.000000	97.612261 
3955.000000	97.611911 
3954.000000	97.610597 
3953.000000	97.608135 
3952.000000	97.605155 
3951.000000	97.602555 
3950.000000	97.600836 
3949.000000	97.599887 
3948.000000	97.599247 
3947.000000	97.598719 
3946.000000	97.598547 
3945.000000	97.598797 
3944.000000	97.599022 
3943.000000	97.598970 
3942.000000	97.599292 
3941.000000	97.600982 
3940.000000	97.603769 
3939.000000	97.605549 
3938.000000	97.604849 
3937.000000	97.602416 
3936.000000	97.599997 
3935.000000	97.598207 
3934.000000	97.596581 
3933.000000	97.595531 
3932.000000	97.596025 
3931.000000	97.597694 
3930.000000	97.598850 
3929.000000	97.598592 
3928.000000	97.598050 
3927.000000	97.598260 
3926.000000	97.598259 
3925.000000	97.596712 
3924.000000	97.594389 
3923.000000	97.593093 
3922.000000	97.592695 
3921.000000	97.592002 
3920.000000	97.591299 
3919.000000	97.591701 
3918.000000	97.592987 
3917.000000	97.593907 
3916.000000	97.594104 
3915.000000	97.594153 
3914.000000	97.594221 
3913.000000	97.593880 
3912.000000	97.593168 
3911.000000	97.592393 
3910.000000	97.591764 
3909.000000	97.591296 
3908.000000	97.590975 
3907.000000	97.590751 
3906.000000	97.590543 
3905.000000	97.590374 
3904.000000	97.590262 
3903.000000	97.590221 
3902.000000	97.590250 
3901.000000	97.590331 
3900.000000	97.590426 
3899.000000	97.590501 
3898.000000	97.590533 
3897.000000	97.590527 
3896.000000	97.590495 
3895.000000	97.590436 
3894.000000	97.590337 
3893.000000	97.590203 
3892.000000	97.590054 
3891.000000	97.589900 
3890.000000	97.589762 
3889.000000	97.589663 
3888.000000	97.589608 
3887.000000	97.589582 
3886.000000	97.589573 
3885.000000	97.589586 
3884.000000	97.589633 
3883.000000	97.589709 
3882.000000	97.589787 
3881.000000	97.589852 
3880.000000	97.589916 
3879.000000	97.589997 
3878.000000	97.590102 
3877.000000	97.590215 
3876.000000	97.590312 
3875.000000	97.590395 
3874.000000	97.590487 
3873.000000	97.590617 
3872.000000	97.590795 
3871.000000	97.591006 
3870.000000	97.591243 
3869.000000	97.591526 
3868.000000	97.591882 
3867.000000	97.592289 
3866.000000	97.592698 
3865.000000	97.593092 
3864.000000	97.593485 
3863.000000	97.593875 
3862.000000	97.594229 
3861.000000	97.594524 
3860.000000	97.594775 
3859.000000	97.595008 
3858.000000	97.595244 
3857.000000	97.595511 
3856.000000	97.595858 
3855.000000	97.596332 
3854.000000	97.596925 
3853.000000	97.597589 
3852.000000	97.598330 
3851.000000	97.599187 
3850.000000	97.600140 
3849.000000	97.601128 
3848.000000	97.602105 
3847.000000	97.603052 
3846.000000	97.603967 
3845.000000	97.604859 
3844.000000	97.605734 
3843.000000	97.606593 
3842.000000	97.607437 
3841.000000	97.608280 
3840.000000	97.609148 
3839.000000	97.610045 
3838.000000	97.610958 
3837.000000	97.611868 
3836.000000	97.612776 
3835.000000	97.613690 
3834.000000	97.614611 
3833.000000	97.615531 
3832.000000	97.616442 
3831.000000	97.617338 
3830.000000	97.618217 
3829.000000	97.619081 
3828.000000	97.619927 
3827.000000	97.620745 
3826.000000	97.621524 
3825.000000	97.622272 
3824.000000	97.623010 
3823.000000	97.623747 
3822.000000	97.624466 
3821.000000	97.625147 
3820.000000	97.625821 
3819.000000	97.626538 
3818.000000	97.627297 
3817.000000	97.628048 
3816.000000	97.628758 
3815.000000	97.629436 
3814.000000	97.630100 
3813.000000	97.630724 
3812.000000	97.631267 
3811.000000	97.631733 
3810.000000	97.632158 
3809.000000	97.632544 
3808.000000	97.632861 
3807.000000	97.633102 
3806.000000	97.633305 
3805.000000	97.633524 
3804.000000	97.633777 
3803.000000	97.634041 
3802.000000	97.634292 
3801.000000	97.634535 
3800.000000	97.634797 
3799.000000	97.635079 
3798.000000	97.635333 
3797.000000	97.635516 
3796.000000	97.635630 
3795.000000	97.635696 
3794.000000	97.635731 
3793.000000	97.635731 
3792.000000	97.635689 
3791.000000	97.635597 
3790.000000	97.635452 
3789.000000	97.635257 
3788.000000	97.635017 
3787.000000	97.634739 
3786.000000	97.634420 
3785.000000	97.634056 
3784.000000	97.633669 
3783.000000	97.633283 
3782.000000	97.632885 
3781.000000	97.632441 
3780.000000	97.631934 
3779.000000	97.631375 
3778.000000	97.630773 
3777.000000	97.630113 
3776.000000	97.629376 
3775.000000	97.628570 
3774.000000	97.627718 
3773.000000	97.626830 
3772.000000	97.625894 
3771.000000	97.624894 
3770.000000	97.623836 
3769.000000	97.622738 
3768.000000	97.621605 
3767.000000	97.620428 
3766.000000	97.619203 
3765.000000	97.617948 
3764.000000	97.616683 
3763.000000	97.615398 
3762.000000	97.614058 
3761.000000	97.612641 
3760.000000	97.611159 
3759.000000	97.609628 
3758.000000	97.608048 
3757.000000	97.606414 
3756.000000	97.604746 
3755.000000	97.603093 
3754.000000	97.601495 
3753.000000	97.599970 
3752.000000	97.598509 
3751.000000	97.597081 
3750.000000	97.595648 
3749.000000	97.594204 
3748.000000	97.592772 
3747.000000	97.591363 
3746.000000	97.589953 
3745.000000	97.588505 
3744.000000	97.586994 
3743.000000	97.585432 
3742.000000	97.583821 
3741.000000	97.582108 
3740.000000	97.580256 
3739.000000	97.578301 
3738.000000	97.576304 
3737.000000	97.574288 
3736.000000	97.572248 
3735.000000	97.570173 
3734.000000	97.568060 
3733.000000	97.565893 
3732.000000	97.563658 
3731.000000	97.561331 
3730.000000	97.558913 
3729.000000	97.556559 
3728.000000	97.554198 
3727.000000	97.551588 
3726.000000	97.548938 
3725.000000	97.546913 
3724.000000	97.545558 
3723.000000	97.543880 
3722.000000	97.541307 
3721.000000	97.538380 
3720.000000	97.535856 
3719.000000	97.533537 
3718.000000	97.530703 
3717.000000	97.527639 
3716.000000	97.525528 
3715.000000	97.524637 
3714.000000	97.524206 
3713.000000	97.524727 
3712.000000	97.526190 
3711.000000	97.525160 
3710.000000	97.519333 
3709.000000	97.510126 
3708.000000	97.499297 
3707.000000	97.487975 
3706.000000	97.477396 
3705.000000	97.468510 
3704.000000	97.460993 
3703.000000	97.453685 
3702.000000	97.445220 
3701.000000	97.435516 
3700.000000	97.427377 
3699.000000	97.422819 
3698.000000	97.419289 
3697.000000	97.413848 
3696.000000	97.407585 
3695.000000	97.402951 
3694.000000	97.399056 
3693.000000	97.393052 
3692.000000	97.384917 
3691.000000	97.376858 
3690.000000	97.369299 
3689.000000	97.360241 
3688.000000	97.350280 
3687.000000	97.343736 
3686.000000	97.341241 
3685.000000	97.337841 
3684.000000	97.330463 
3683.000000	97.321060 
3682.000000	97.312051 
3681.000000	97.302630 
3680.000000	97.291000 
3679.000000	97.278630 
3678.000000	97.268319 
3677.000000	97.259870 
3676.000000	97.249844 
3675.000000	97.236644 
3674.000000	97.224156 
3673.000000	97.215002 
3672.000000	97.206230 
3671.000000	97.195459 
3670.000000	97.183221 
3669.000000	97.170808 
3668.000000	97.159860 
3667.000000	97.150347 
3666.000000	97.140457 
3665.000000	97.129567 
3664.000000	97.118465 
3663.000000	97.107439 
3662.000000	97.095488 
3661.000000	97.081659 
3660.000000	97.066722 
3659.000000	97.053072 
3658.000000	97.041648 
3657.000000	97.029639 
3656.000000	97.012799 
3655.000000	96.994292 
3654.000000	96.980736 
3653.000000	96.968107 
3652.000000	96.949761 
3651.000000	96.931491 
3650.000000	96.921301 
3649.000000	96.913410 
3648.000000	96.899994 
3647.000000	96.885665 
3646.000000	96.879270 
3645.000000	96.881045 
3644.000000	96.883481 
3643.000000	96.880312 
3642.000000	96.872066 
3641.000000	96.862596 
3640.000000	96.852628 
3639.000000	96.838979 
3638.000000	96.820809 
3637.000000	96.803952 
3636.000000	96.791498 
3635.000000	96.776217 
3634.000000	96.749589 
3633.000000	96.716064 
3632.000000	96.688790 
3631.000000	96.674561 
3630.000000	96.672082 
3629.000000	96.666005 
3628.000000	96.647460 
3627.000000	96.640331 
3626.000000	96.650710 
3625.000000	96.652652 
3624.000000	96.638427 
3623.000000	96.621260 
3622.000000	96.609792 
3621.000000	96.601752 
3620.000000	96.593976 
3619.000000	96.587789 
3618.000000	96.588849 
3617.000000	96.603786 
3616.000000	96.629820 
3615.000000	96.656292 
3614.000000	96.675945 
3613.000000	96.688659 
3612.000000	96.698887 
3611.000000	96.709584 
3610.000000	96.718827 
3609.000000	96.723736 
3608.000000	96.724461 
3607.000000	96.723910 
3606.000000	96.724606 
3605.000000	96.726612 
3604.000000	96.730773 
3603.000000	96.739999 
3602.000000	96.752879 
3601.000000	96.762010 
3600.000000	96.762908 
3599.000000	96.759031 
3598.000000	96.755850 
3597.000000	96.757267 
3596.000000	96.764606 
3595.000000	96.774543 
3594.000000	96.780792 
3593.000000	96.780158 
3592.000000	96.774197 
3591.000000	96.765644 
3590.000000	96.758023 
3589.000000	96.755594 
3588.000000	96.759460 
3587.000000	96.766490 
3586.000000	96.776151 
3585.000000	96.789198 
3584.000000	96.801993 
3583.000000	96.811512 
3582.000000	96.818665 
3581.000000	96.824520 
3580.000000	96.828050 
3579.000000	96.828138 
3578.000000	96.825407 
3577.000000	96.821885 
3576.000000	96.819576 
3575.000000	96.818520 
3574.000000	96.817100 
3573.000000	96.813482 
3572.000000	96.807113 
3571.000000	96.799042 
3570.000000	96.791656 
3569.000000	96.787732 
3568.000000	96.788868 
3567.000000	96.793935 
3566.000000	96.800678 
3565.000000	96.807719 
3564.000000	96.812474 
3563.000000	96.812994 
3562.000000	96.811309 
3561.000000	96.811162 
3560.000000	96.813661 
3559.000000	96.816751 
3558.000000	96.818079 
3557.000000	96.817252 
3556.000000	96.815971 
3555.000000	96.816089 
3554.000000	96.817675 
3553.000000	96.819032 
3552.000000	96.818510 
3551.000000	96.815948 
3550.000000	96.812051 
3549.000000	96.807624 
3548.000000	96.804223 
3547.000000	96.803667 
3546.000000	96.805743 
3545.000000	96.808261 
3544.000000	96.809811 
3543.000000	96.810800 
3542.000000	96.811906 
3541.000000	96.812933 
3540.000000	96.813424 
3539.000000	96.813341 
3538.000000	96.812953 
3537.000000	96.812579 
3536.000000	96.812425 
3535.000000	96.812489 
3534.000000	96.812395 
3533.000000	96.811806 
3532.000000	96.810970 
3531.000000	96.810594 
3530.000000	96.810853 
3529.000000	96.810897 
3528.000000	96.809801 
3527.000000	96.807673 
3526.000000	96.805534 
3525.000000	96.804243 
3524.000000	96.803991 
3523.000000	96.804597 
3522.000000	96.805749 
3521.000000	96.807013 
3520.000000	96.807956 
3519.000000	96.808400 
3518.000000	96.808406 
3517.000000	96.808001 
3516.000000	96.807028 
3515.000000	96.805435 
3514.000000	96.803673 
3513.000000	96.802483 
3512.000000	96.802147 
3511.000000	96.802225 
3510.000000	96.802065 
3509.000000	96.801467 
3508.000000	96.800781 
3507.000000	96.800328 
3506.000000	96.799925 
3505.000000	96.799166 
3504.000000	96.797951 
3503.000000	96.796555 
3502.000000	96.795339 
3501.000000	96.794460 
3500.000000	96.793831 
3499.000000	96.793273 
3498.000000	96.792668 
3497.000000	96.791939 
3496.000000	96.790992 
3495.000000	96.789749 
3494.000000	96.788282 
3493.000000	96.786864 
3492.000000	96.785745 
3491.000000	96.784889 
3490.000000	96.784023 
3489.000000	96.782935 
3488.000000	96.781654 
3487.000000	96.780339 
3486.000000	96.779083 
3485.000000	96.777882 
3484.000000	96.776698 
3483.000000	96.775485 
3482.000000	96.774193 
3481.000000	96.772862 
3480.000000	96.771634 
3479.000000	96.770566 
3478.000000	96.769474 
3477.000000	96.768061 
3476.000000	96.766213 
3475.000000	96.764115 
3474.000000	96.762093 
3473.000000	96.760341 
3472.000000	96.758762 
3471.000000	96.757051 
3470.000000	96.754989 
3469.000000	96.752722 
3468.000000	96.750710 
3467.000000	96.749367 
3466.000000	96.748754 
3465.000000	96.748461 
3464.000000	96.747784 
3463.000000	96.746206 
3462.000000	96.743743 
3461.000000	96.740940 
3460.000000	96.738407 
3459.000000	96.736276 
3458.000000	96.734216 
3457.000000	96.731892 
3456.000000	96.729308 
3455.000000	96.726801 
3454.000000	96.724718 
3453.000000	96.723181 
3452.000000	96.722126 
3451.000000	96.721404 
3450.000000	96.720680 
3449.000000	96.719414 
3448.000000	96.717239 
3447.000000	96.714377 
3446.000000	96.711534 
3445.000000	96.709244 
3444.000000	96.707502 
3443.000000	96.706098 
3442.000000	96.704933 
3441.000000	96.703807 
3440.000000	96.702235 
3439.000000	96.699769 
3438.000000	96.696494 
3437.000000	96.693070 
3436.000000	96.690264 
3435.000000	96.688617 
3434.000000	96.688297 
3433.000000	96.688932 
3432.000000	96.689676 
3431.000000	96.689799 
3430.000000	96.689159 
3429.000000	96.688047 
3428.000000	96.686689 
3427.000000	96.685031 
3426.000000	96.683098 
3425.000000	96.681349 
3424.000000	96.680352 
3423.000000	96.680081 
3422.000000	96.679821 
3421.000000	96.678982 
3420.000000	96.677720 
3419.000000	96.676587 
3418.000000	96.675798 
3417.000000	96.675172 
3416.000000	96.674583 
3415.000000	96.674062 
3414.000000	96.673480 
3413.000000	96.672514 
3412.000000	96.671085 
3411.000000	96.669563 
3410.000000	96.668433 
3409.000000	96.667875 
3408.000000	96.667731 
3407.000000	96.667676 
3406.000000	96.667415 
3405.000000	96.666840 
3404.000000	96.666059 
3403.000000	96.665252 
3402.000000	96.664496 
3401.000000	96.663821 
3400.000000	96.663325 
3399.000000	96.663086 
3398.000000	96.663010 
3397.000000	96.662905 
3396.000000	96.662725 
3395.000000	96.662579 
3394.000000	96.662528 
3393.000000	96.662495 
3392.000000	96.662368 
3391.000000	96.662120 
3390.000000	96.661832 
3389.000000	96.661647 
3388.000000	96.661703 
3387.000000	96.662035 
3386.000000	96.662527 
3385.000000	96.662948 
3384.000000	96.663091 
3383.000000	96.662909 
3382.000000	96.662613 
3381.000000	96.662579 
3380.000000	96.663014 
3379.000000	96.663758 
3378.000000	96.664430 
3377.000000	96.664890 
3376.000000	96.665370 
3375.000000	96.666055 
3374.000000	96.666707 
3373.000000	96.666916 
3372.000000	96.666624 
3371.000000	96.666285 
3370.000000	96.666442 
3369.000000	96.667247 
3368.000000	96.668446 
3367.000000	96.669650 
3366.000000	96.670608 
3365.000000	96.671305 
3364.000000	96.671945 
3363.000000	96.672757 
3362.000000	96.673770 
3361.000000	96.674824 
3360.000000	96.675836 
3359.000000	96.676918 
3358.000000	96.678193 
3357.000000	96.679606 
3356.000000	96.680963 
3355.000000	96.682117 
3354.000000	96.683071 
3353.000000	96.683969 
3352.000000	96.685003 
3351.000000	96.686247 
3350.000000	96.687583 
3349.000000	96.688812 
3348.000000	96.689885 
3347.000000	96.690986 
3346.000000	96.692320 
3345.000000	96.693867 
3344.000000	96.695349 
3343.000000	96.696481 
3342.000000	96.697196 
3341.000000	96.697708 
3340.000000	96.698322 
3339.000000	96.699134 
3338.000000	96.700065 
3337.000000	96.701054 
3336.000000	96.702109 
3335.000000	96.703240 
3334.000000	96.704392 
3333.000000	96.705476 
3332.000000	96.706445 
3331.000000	96.707324 
3330.000000	96.708164 
3329.000000	96.709016 
3328.000000	96.709904 
3327.000000	96.710835 
3326.000000	96.711791 
3325.000000	96.712743 
3324.000000	96.713656 
3323.000000	96.714510 
3322.000000	96.715315 
3321.000000	96.716100 
3320.000000	96.716890 
3319.000000	96.717692 
3318.000000	96.718501 
3317.000000	96.719309 
3316.000000	96.720112 
3315.000000	96.720903 
3314.000000	96.721675 
3313.000000	96.722424 
3312.000000	96.723154 
3311.000000	96.723871 
3310.000000	96.724586 
3309.000000	96.725308 
3308.000000	96.726044 
3307.000000	96.726788 
3306.000000	96.727532 
3305.000000	96.728272 
3304.000000	96.729026 
3303.000000	96.729817 
3302.000000	96.730660 
3301.000000	96.731548 
3300.000000	96.732444 
3299.000000	96.733300 
3298.000000	96.734080 
3297.000000	96.734775 
3296.000000	96.735435 
3295.000000	96.736151 
3294.000000	96.736989 
3293.000000	96.737957 
3292.000000	96.739011 
3291.000000	96.740100 
3290.000000	96.741183 
3289.000000	96.742221 
3288.000000	96.743196 
3287.000000	96.744114 
3286.000000	96.744990 
3285.000000	96.745828 
3284.000000	96.746634 
3283.000000	96.747457 
3282.000000	96.748374 
3281.000000	96.749431 
3280.000000	96.750589 
3279.000000	96.751726 
3278.000000	96.752754 
3277.000000	96.753695 
3276.000000	96.754650 
3275.000000	96.755656 
3274.000000	96.756649 
3273.000000	96.757585 
3272.000000	96.758555 
3271.000000	96.759704 
3270.000000	96.761075 
3269.000000	96.762559 
3268.000000	96.763986 
3267.000000	96.765255 
3266.000000	96.766388 
3265.000000	96.767516 
3264.000000	96.768776 
3263.000000	96.770174 
3262.000000	96.771574 
3261.000000	96.772830 
3260.000000	96.773888 
3259.000000	96.774780 
3258.000000	96.775580 
3257.000000	96.776442 
3256.000000	96.777574 
3255.000000	96.779055 
3254.000000	96.780715 
3253.000000	96.782296 
3252.000000	96.783719 
3251.000000	96.785090 
3250.000000	96.786492 
3249.000000	96.787873 
3248.000000	96.789142 
3247.000000	96.790314 
3246.000000	96.791532 
3245.000000	96.792927 
3244.000000	96.794505 
3243.000000	96.796151 
3242.000000	96.797717 
3241.000000	96.799140 
3240.000000	96.800480 
3239.000000	96.801868 
3238.000000	96.803428 
3237.000000	96.805217 
3236.000000	96.807188 
3235.000000	96.809175 
3234.000000	96.810970 
3233.000000	96.812477 
3232.000000	96.813786 
3231.000000	96.815120 
3230.000000	96.816633 
3229.000000	96.818316 
3228.000000	96.820083 
3227.000000	96.821911 
3226.000000	96.823864 
3225.000000	96.825987 
3224.000000	96.828204 
3223.000000	96.830359 
3222.000000	96.832341 
3221.000000	96.834143 
3220.000000	96.835839 
3219.000000	96.837509 
3218.000000	96.839219 
3217.000000	96.841022 
3216.000000	96.842921 
3215.000000	96.844888 
3214.000000	96.846941 
3213.000000	96.849135 
3212.000000	96.851423 
3211.000000	96.853628 
3210.000000	96.855613 
3209.000000	96.857439 
3208.000000	96.859295 
3207.000000	96.861259 
3206.000000	96.863239 
3205.000000	96.865173 
3204.000000	96.867181 
3203.000000	96.869447 
3202.000000	96.871984 
3201.000000	96.874583 
3200.000000	96.876971 
3199.000000	96.879055 
3198.000000	96.881006 
3197.000000	96.883095 
3196.000000	96.885395 
3195.000000	96.887728 
3194.000000	96.889937 
3193.000000	96.892130 
3192.000000	96.894535 
3191.000000	96.897181 
3190.000000	96.899823 
3189.000000	96.902202 
3188.000000	96.904272 
3187.000000	96.906209 
3186.000000	96.908292 
3185.000000	96.910714 
3184.000000	96.913452 
3183.000000	96.916297 
3182.000000	96.919071 
3181.000000	96.921732 
3180.000000	96.924272 
3179.000000	96.926627 
3178.000000	96.928773 
3177.000000	96.930834 
3176.000000	96.932992 
3175.000000	96.935321 
3174.000000	96.937790 
3173.000000	96.940344 
3172.000000	96.942905 
3171.000000	96.945366 
3170.000000	96.947680 
3169.000000	96.949924 
3168.000000	96.952214 
3167.000000	96.954548 
3166.000000	96.956840 
3165.000000	96.959066 
3164.000000	96.961284 
3163.000000	96.963551 
3162.000000	96.965862 
3161.000000	96.968188 
3160.000000	96.970514 
3159.000000	96.972841 
3158.000000	96.975177 
3157.000000	96.977532 
3156.000000	96.979904 
3155.000000	96.982270 
3154.000000	96.984611 
3153.000000	96.986930 
3152.000000	96.989249 
3151.000000	96.991582 
3150.000000	96.993927 
3149.000000	96.996268 
3148.000000	96.998599 
3147.000000	97.000931 
3146.000000	97.003287 
3145.000000	97.005686 
3144.000000	97.008121 
3143.000000	97.010548 
3142.000000	97.012909 
3141.000000	97.015186 
3140.000000	97.017429 
3139.000000	97.019728 
3138.000000	97.022134 
3137.000000	97.024622 
3136.000000	97.027113 
3135.000000	97.029526 
3134.000000	97.031800 
3133.000000	97.033932 
3132.000000	97.036009 
3131.000000	97.038147 
3130.000000	97.040416 
3129.000000	97.042855 
3128.000000	97.045521 
3127.000000	97.048433 
3126.000000	97.051498 
3125.000000	97.054550 
3124.000000	97.057418 
3123.000000	97.059925 
3122.000000	97.061894 
3121.000000	97.063341 
3120.000000	97.064640 
3119.000000	97.066304 
3118.000000	97.068568 
3117.000000	97.071311 
3116.000000	97.074273 
3115.000000	97.077263 
3114.000000	97.080179 
3113.000000	97.083019 
3112.000000	97.085910 
3111.000000	97.088990 
3110.000000	97.092177 
3109.000000	97.095160 
3108.000000	97.097724 
3107.000000	97.100018 
3106.000000	97.102388 
3105.000000	97.104942 
3104.000000	97.107383 
3103.000000	97.109277 
3102.000000	97.110453 
3101.000000	97.111206 
3100.000000	97.112095 
3099.000000	97.113535 
3098.000000	97.115670 
3097.000000	97.118649 
3096.000000	97.122623 
3095.000000	97.127262 
3094.000000	97.131633 
3093.000000	97.134843 
3092.000000	97.136746 
3091.000000	97.137787 
3090.000000	97.138432 
3089.000000	97.139001 
3088.000000	97.139808 
3087.000000	97.141123 
3086.000000	97.143031 
3085.000000	97.145397 
3084.000000	97.147848 
3083.000000	97.149835 
3082.000000	97.151033 
3081.000000	97.151835 
3080.000000	97.153128 
3079.000000	97.155343 
3078.000000	97.158077 
3077.000000	97.160849 
3076.000000	97.163795 
3075.000000	97.167061 
3074.000000	97.170001 
3073.000000	97.171796 
3072.000000	97.172676 
3071.000000	97.173674 
3070.000000	97.175203 
3069.000000	97.176749 
3068.000000	97.178010 
3067.000000	97.179366 
3066.000000	97.181004 
3065.000000	97.182495 
3064.000000	97.183567 
3063.000000	97.184473 
3062.000000	97.185317 
3061.000000	97.185842 
3060.000000	97.186146 
3059.000000	97.186893 
3058.000000	97.188519 
3057.000000	97.190825 
3056.000000	97.193302 
3055.000000	97.195183 
3054.000000	97.195321 
3053.000000	97.193211 
3052.000000	97.190442 
3051.000000	97.189885 
3050.000000	97.192720 
3049.000000	97.197133 
3048.000000	97.200330 
3047.000000	97.201081 
3046.000000	97.199697 
3045.000000	97.196818 
3044.000000	97.193466 
3043.000000	97.191599 
3042.000000	97.193089 
3041.000000	97.197712 
3040.000000	97.202736 
3039.000000	97.205096 
3038.000000	97.203765 
3037.000000	97.199957 
3036.000000	97.195610 
3035.000000	97.191810 
3034.000000	97.188630 
3033.000000	97.186011 
3032.000000	97.184165 
3031.000000	97.183141 
3030.000000	97.182573 
3029.000000	97.181992 
3028.000000	97.180845 
3027.000000	97.178118 
3026.000000	97.172870 
3025.000000	97.165807 
3024.000000	97.159541 
3023.000000	97.156057 
3022.000000	97.154405 
3021.000000	97.152235 
3020.000000	97.149168 
3019.000000	97.146811 
3018.000000	97.145316 
3017.000000	97.142108 
3016.000000	97.135181 
3015.000000	97.126190 
3014.000000	97.119120 
3013.000000	97.116516 
3012.000000	97.117671 
3011.000000	97.119534 
3010.000000	97.118760 
3009.000000	97.113818 
3008.000000	97.106004 
3007.000000	97.098054 
3006.000000	97.091333 
3005.000000	97.085108 
3004.000000	97.078760 
3003.000000	97.073313 
3002.000000	97.069893 
3001.000000	97.067808 
3000.000000	97.065260 
2999.000000	97.061164 
2998.000000	97.055379 
2997.000000	97.047963 
2996.000000	97.039321 
2995.000000	97.030728 
2994.000000	97.023563 
2993.000000	97.017896 
2992.000000	97.012331 
2991.000000	97.005341 
2990.000000	96.996794 
2989.000000	96.988544 
2988.000000	96.983473 
2987.000000	96.983280 
2986.000000	96.987006 
2985.000000	96.992125 
2984.000000	96.997058 
2983.000000	97.002000 
2982.000000	97.007423 
2981.000000	97.012845 
2980.000000	97.017274 
2979.000000	97.019847 
2978.000000	97.019790 
2977.000000	97.016922 
2976.000000	97.012743 
2975.000000	97.009992 
2974.000000	97.010441 
2973.000000	97.013848 
2972.000000	97.019247 
2971.000000	97.026154 
2970.000000	97.033947 
2969.000000	97.041391 
2968.000000	97.047781 
2967.000000	97.053592 
2966.000000	97.059270 
2965.000000	97.064341 
2964.000000	97.068557 
2963.000000	97.072976 
2962.000000	97.078851 
2961.000000	97.086039 
2960.000000	97.093419 
2959.000000	97.100333 
2958.000000	97.106828 
2957.000000	97.112960 
2956.000000	97.118529 
2955.000000	97.123123 
2954.000000	97.126150 
2953.000000	97.127674 
2952.000000	97.129487 
2951.000000	97.133983 
2950.000000	97.141019 
2949.000000	97.147138 
2948.000000	97.149243 
2947.000000	97.148060 
2946.000000	97.146872 
2945.000000	97.147630 
2944.000000	97.149798 
2943.000000	97.152318 
2942.000000	97.154698 
2941.000000	97.156323 
2940.000000	97.156609 
2939.000000	97.156366 
2938.000000	97.157551 
2937.000000	97.160948 
2936.000000	97.164970 
2935.000000	97.167306 
2934.000000	97.167043 
2933.000000	97.164898 
2932.000000	97.162280 
2931.000000	97.160591 
2930.000000	97.160718 
2929.000000	97.162542 
2928.000000	97.165144 
2927.000000	97.167744 
2926.000000	97.170213 
2925.000000	97.172751 
2924.000000	97.175591 
2923.000000	97.178929 
2922.000000	97.182415 
2921.000000	97.184770 
2920.000000	97.184835 
2919.000000	97.183240 
2918.000000	97.181999 
2917.000000	97.181819 
2916.000000	97.180742 
2915.000000	97.176534 
2914.000000	97.169927 
2913.000000	97.164352 
2912.000000	97.162280 
2911.000000	97.162838 
2910.000000	97.163366 
2909.000000	97.162703 
2908.000000	97.162142 
2907.000000	97.163198 
2906.000000	97.165291 
2905.000000	97.165986 
2904.000000	97.163399 
2903.000000	97.158361 
2902.000000	97.154152 
2901.000000	97.154027 
2900.000000	97.158698 
2899.000000	97.166134 
2898.000000	97.173526 
2897.000000	97.179478 
2896.000000	97.184162 
2895.000000	97.187764 
2894.000000	97.189997 
2893.000000	97.191327 
2892.000000	97.193415 
2891.000000	97.197268 
2890.000000	97.201749 
2889.000000	97.205179 
2888.000000	97.207883 
2887.000000	97.211413 
2886.000000	97.215452 
2885.000000	97.217672 
2884.000000	97.217505 
2883.000000	97.217994 
2882.000000	97.222212 
2881.000000	97.229287 
2880.000000	97.235901 
2879.000000	97.240974 
2878.000000	97.246441 
2877.000000	97.253352 
2876.000000	97.259718 
2875.000000	97.263236 
2874.000000	97.264385 
2873.000000	97.265490 
2872.000000	97.267783 
2871.000000	97.270678 
2870.000000	97.273287 
2869.000000	97.275324 
2868.000000	97.276815 
2867.000000	97.278145 
2866.000000	97.280323 
2865.000000	97.284238 
2864.000000	97.289644 
2863.000000	97.295643 
2862.000000	97.302110 
2861.000000	97.309665 
2860.000000	97.318212 
2859.000000	97.326589 
2858.000000	97.334086 
2857.000000	97.341455 
2856.000000	97.349783 
2855.000000	97.358750 
2854.000000	97.366604 
2853.000000	97.371679 
2852.000000	97.373475 
2851.000000	97.372709 
2850.000000	97.370937 
2849.000000	97.369956 
2848.000000	97.370935 
2847.000000	97.373728 
2846.000000	97.377097 
2845.000000	97.379769 
2844.000000	97.381411 
2843.000000	97.382665 
2842.000000	97.384322 
2841.000000	97.386479 
2840.000000	97.388474 
2839.000000	97.389738 
2838.000000	97.390625 
2837.000000	97.392171 
2836.000000	97.394996 
2835.000000	97.398746 
2834.000000	97.402757 
2833.000000	97.406905 
2832.000000	97.411357 
2831.000000	97.415643 
2830.000000	97.418587 
2829.000000	97.419416 
2828.000000	97.418714 
2827.000000	97.418094 
2826.000000	97.418996 
2825.000000	97.421783 
2824.000000	97.425686 
2823.000000	97.429321 
2822.000000	97.431510 
2821.000000	97.431996 
2820.000000	97.431508 
2819.000000	97.431095 
2818.000000	97.431335 
2817.000000	97.432202 
2816.000000	97.433506 
2815.000000	97.435146 
2814.000000	97.436923 
2813.000000	97.438421 
2812.000000	97.439338 
2811.000000	97.439834 
2810.000000	97.440405 
2809.000000	97.441427 
2808.000000	97.442896 
2807.000000	97.444578 
2806.000000	97.446262 
2805.000000	97.447864 
2804.000000	97.449352 
2803.000000	97.450657 
2802.000000	97.451741 
2801.000000	97.452702 
2800.000000	97.453733 
2799.000000	97.454935 
2798.000000	97.456239 
2797.000000	97.457492 
2796.000000	97.458616 
2795.000000	97.459652 
2794.000000	97.460686 
2793.000000	97.461757 
2792.000000	97.462847 
2791.000000	97.463933 
2790.000000	97.465009 
2789.000000	97.466077 
2788.000000	97.467142 
2787.000000	97.468209 
2786.000000	97.469282 
2785.000000	97.470358 
2784.000000	97.471431 
2783.000000	97.472489 
2782.000000	97.473526 
2781.000000	97.474548 
2780.000000	97.475564 
2779.000000	97.476587 
2778.000000	97.477624 
2777.000000	97.478677 
2776.000000	97.479730 
2775.000000	97.480763 
2774.000000	97.481773 
2773.000000	97.482778 
2772.000000	97.483787 
2771.000000	97.484789 
2770.000000	97.485787 
2769.000000	97.486829 
2768.000000	97.487951 
2767.000000	97.489112 
2766.000000	97.490205 
2765.000000	97.491159 
2764.000000	97.492001 
2763.000000	97.492802 
2762.000000	97.493603 
2761.000000	97.494402 
2760.000000	97.495196 
2759.000000	97.496014 
2758.000000	97.496882 
2757.000000	97.497762 
2756.000000	97.498550 
2755.000000	97.499199 
2754.000000	97.499785 
2753.000000	97.500446 
2752.000000	97.501237 
2751.000000	97.502098 
2750.000000	97.502955 
2749.000000	97.503798 
2748.000000	97.504628 
2747.000000	97.505370 
2746.000000	97.505953 
2745.000000	97.506413 
2744.000000	97.506877 
2743.000000	97.507446 
2742.000000	97.508116 
2741.000000	97.508830 
2740.000000	97.509537 
2739.000000	97.510223 
2738.000000	97.510887 
2737.000000	97.511524 
2736.000000	97.512143 
2735.000000	97.512762 
2734.000000	97.513396 
2733.000000	97.514043 
2732.000000	97.514696 
2731.000000	97.515352 
2730.000000	97.516007 
2729.000000	97.516658 
2728.000000	97.517299 
2727.000000	97.517920 
2726.000000	97.518515 
2725.000000	97.519091 
2724.000000	97.519662 
2723.000000	97.520239 
2722.000000	97.520822 
2721.000000	97.521412 
2720.000000	97.522008 
2719.000000	97.522610 
2718.000000	97.523221 
2717.000000	97.523835 
2716.000000	97.524451 
2715.000000	97.525065 
2714.000000	97.525677 
2713.000000	97.526290 
2712.000000	97.526908 
2711.000000	97.527525 
2710.000000	97.528127 
2709.000000	97.528707 
2708.000000	97.529272 
2707.000000	97.529832 
2706.000000	97.530387 
2705.000000	97.530939 
2704.000000	97.531489 
2703.000000	97.532021 
2702.000000	97.532507 
2701.000000	97.532961 
2700.000000	97.533469 
2699.000000	97.534111 
2698.000000	97.534857 
2697.000000	97.535548 
2696.000000	97.536036 
2695.000000	97.536317 
2694.000000	97.536530 
2693.000000	97.536807 
2692.000000	97.537168 
2691.000000	97.537541 
2690.000000	97.537849 
2689.000000	97.538061 
2688.000000	97.538187 
2687.000000	97.538245 
2686.000000	97.538274 
2685.000000	97.538366 
2684.000000	97.538602 
2683.000000	97.538929 
2682.000000	97.539165 
2681.000000	97.539198 
2680.000000	97.539158 
2679.000000	97.539297 
2678.000000	97.539719 
2677.000000	97.540289 
2676.000000	97.540766 
2675.000000	97.540950 
2674.000000	97.540724 
2673.000000	97.540160 
2672.000000	97.539574 
2671.000000	97.539232 
2670.000000	97.539057 
2669.000000	97.538811 
2668.000000	97.538500 
2667.000000	97.538347 
2666.000000	97.538350 
2665.000000	97.538185 
2664.000000	97.537675 
2663.000000	97.537097 
2662.000000	97.536835 
2661.000000	97.536858 
2660.000000	97.536787 
2659.000000	97.536385 
2658.000000	97.535776 
2657.000000	97.535213 
2656.000000	97.534816 
2655.000000	97.534540 
2654.000000	97.534228 
2653.000000	97.533680 
2652.000000	97.532840 
2651.000000	97.531978 
2650.000000	97.531522 
2649.000000	97.531632 
2648.000000	97.532043 
2647.000000	97.532315 
2646.000000	97.532159 
2645.000000	97.531488 
2644.000000	97.530357 
2643.000000	97.529056 
2642.000000	97.528060 
2641.000000	97.527669 
2640.000000	97.527736 
2639.000000	97.527870 
2638.000000	97.527875 
2637.000000	97.527855 
2636.000000	97.527942 
2635.000000	97.528165 
2634.000000	97.528551 
2633.000000	97.529096 
2632.000000	97.529599 
2631.000000	97.529718 
2630.000000	97.529329 
2629.000000	97.528728 
2628.000000	97.528350 
2627.000000	97.528338 
2626.000000	97.528527 
2625.000000	97.528803 
2624.000000	97.529255 
2623.000000	97.529943 
2622.000000	97.530627 
2621.000000	97.530884 
2620.000000	97.530441 
2619.000000	97.529329 
2618.000000	97.527878 
2617.000000	97.526641 
2616.000000	97.526156 
2615.000000	97.526601 
2614.000000	97.527628 
2613.000000	97.528583 
2612.000000	97.529081 
2611.000000	97.529266 
2610.000000	97.529531 
2609.000000	97.530077 
2608.000000	97.530749 
2607.000000	97.531262 
2606.000000	97.531566 
2605.000000	97.531924 
2604.000000	97.532543 
2603.000000	97.533211 
2602.000000	97.533534 
2601.000000	97.533529 
2600.000000	97.533660 
2599.000000	97.534176 
2598.000000	97.534745 
2597.000000	97.534971 
2596.000000	97.534957 
2595.000000	97.535036 
2594.000000	97.535193 
2593.000000	97.535212 
2592.000000	97.535334 
2591.000000	97.536095 
2590.000000	97.537398 
2589.000000	97.538323 
2588.000000	97.538292 
2587.000000	97.537860 
2586.000000	97.537973 
2585.000000	97.538832 
2584.000000	97.540009 
2583.000000	97.541206 
2582.000000	97.542366 
2581.000000	97.543295 
2580.000000	97.543782 
2579.000000	97.544043 
2578.000000	97.544562 
2577.000000	97.545489 
2576.000000	97.546479 
2575.000000	97.547097 
2574.000000	97.547136 
2573.000000	97.546618 
2572.000000	97.545710 
2571.000000	97.544573 
2570.000000	97.543242 
2569.000000	97.541865 
2568.000000	97.541065 
2567.000000	97.541574 
2566.000000	97.543289 
2565.000000	97.545034 
2564.000000	97.545682 
2563.000000	97.545314 
2562.000000	97.544889 
2561.000000	97.545131 
2560.000000	97.546204 
2559.000000	97.548110 
2558.000000	97.550658 
2557.000000	97.553080 
2556.000000	97.554454 
2555.000000	97.554699 
2554.000000	97.554625 
2553.000000	97.554801 
2552.000000	97.554871 
2551.000000	97.554444 
2550.000000	97.553924 
2549.000000	97.553819 
2548.000000	97.553697 
2547.000000	97.552751 
2546.000000	97.551239 
2545.000000	97.550483 
2544.000000	97.551166 
2543.000000	97.552438 
2542.000000	97.553002 
2541.000000	97.552816 
2540.000000	97.552908 
2539.000000	97.553793 
2538.000000	97.554849 
2537.000000	97.555347 
2536.000000	97.555474 
2535.000000	97.555895 
2534.000000	97.556666 
2533.000000	97.557152 
2532.000000	97.556965 
2531.000000	97.556448 
2530.000000	97.556103 
2529.000000	97.555933 
2528.000000	97.555636 
2527.000000	97.555217 
2526.000000	97.555081 
2525.000000	97.555522 
2524.000000	97.556411 
2523.000000	97.557370 
2522.000000	97.558121 
2521.000000	97.558588 
2520.000000	97.558783 
2519.000000	97.558758 
2518.000000	97.558629 
2517.000000	97.558512 
2516.000000	97.558415 
2515.000000	97.558275 
2514.000000	97.558156 
2513.000000	97.558286 
2512.000000	97.558808 
2511.000000	97.559588 
2510.000000	97.560373 
2509.000000	97.561029 
2508.000000	97.561564 
2507.000000	97.561992 
2506.000000	97.562341 
2505.000000	97.562713 
2504.000000	97.563224 
2503.000000	97.563847 
2502.000000	97.564413 
2501.000000	97.564803 
2500.000000	97.565059 
2499.000000	97.565292 
2498.000000	97.565587 
2497.000000	97.565949 
2496.000000	97.566359 
2495.000000	97.566795 
2494.000000	97.567225 
2493.000000	97.567613 
2492.000000	97.567946 
2491.000000	97.568256 
2490.000000	97.568605 
2489.000000	97.569021 
2488.000000	97.569457 
2487.000000	97.569830 
2486.000000	97.570109 
2485.000000	97.570346 
2484.000000	97.570613 
2483.000000	97.570926 
2482.000000	97.571224 
2481.000000	97.571416 
2480.000000	97.571484 
2479.000000	97.571528 
2478.000000	97.571683 
2477.000000	97.571988 
2476.000000	97.572339 
2475.000000	97.572576 
2474.000000	97.572564 
2473.000000	97.572254 
2472.000000	97.571715 
2471.000000	97.571153 
2470.000000	97.570851 
2469.000000	97.571027 
2468.000000	97.571633 
2467.000000	97.572283 
2466.000000	97.572465 
2465.000000	97.571932 
2464.000000	97.570966 
2463.000000	97.570255 
2462.000000	97.570430 
2461.000000	97.571678 
2460.000000	97.573648 
2459.000000	97.575620 
2458.000000	97.576819 
2457.000000	97.576706 
2456.000000	97.575202 
2455.000000	97.572781 
2454.000000	97.570338 
2453.000000	97.568614 
2452.000000	97.567705 
2451.000000	97.567278 
2450.000000	97.567295 
2449.000000	97.568176 
2448.000000	97.569988 
2447.000000	97.571799 
2446.000000	97.572370 
2445.000000	97.571449 
2444.000000	97.569916 
2443.000000	97.568726 
2442.000000	97.568114 
2441.000000	97.567937 
2440.000000	97.568248 
2439.000000	97.569288 
2438.000000	97.571227 
2437.000000	97.574049 
2436.000000	97.577376 
2435.000000	97.580319 
2434.000000	97.581964 
2433.000000	97.582210 
2432.000000	97.581898 
2431.000000	97.582008 
2430.000000	97.582981 
2429.000000	97.584780 
2428.000000	97.587015 
2427.000000	97.588818 
2426.000000	97.589135 
2425.000000	97.587681 
2424.000000	97.585591 
2423.000000	97.584487 
2422.000000	97.584983 
2421.000000	97.586787 
2420.000000	97.589413 
2419.000000	97.592212 
2418.000000	97.594447 
2417.000000	97.596021 
2416.000000	97.597574 
2415.000000	97.599481 
2414.000000	97.601378 
2413.000000	97.602842 
2412.000000	97.604083 
2411.000000	97.605461 
2410.000000	97.606546 
2409.000000	97.606918 
2408.000000	97.607583 
2407.000000	97.609876 
2406.000000	97.613095 
2405.000000	97.614832 
2404.000000	97.613658 
2403.000000	97.610352 
2402.000000	97.606725 
2401.000000	97.604494 
2400.000000	97.604988 
2399.000000	97.608438 
2398.000000	97.613460 
2397.000000	97.618325 
2396.000000	97.622442 
2395.000000	97.625540 
2394.000000	97.626304 
2393.000000	97.624047 
2392.000000	97.621149 
2391.000000	97.621407 
2390.000000	97.625751 
2389.000000	97.631364 
2388.000000	97.635461 
2387.000000	97.638158 
2386.000000	97.640957 
2385.000000	97.643905 
2384.000000	97.645205 
2383.000000	97.642304 
2382.000000	97.632677 
2381.000000	97.615348 
2380.000000	97.593274 
2379.000000	97.573335 
2378.000000	97.562090 
2377.000000	97.562304 
2376.000000	97.574678 
2375.000000	97.600138 
2374.000000	97.636997 
2373.000000	97.675868 
2372.000000	97.703489 
2371.000000	97.712703 
2370.000000	97.705320 
2369.000000	97.685230 
2368.000000	97.654221 
2367.000000	97.614867 
2366.000000	97.572338 
2365.000000	97.531839 
2364.000000	97.498320 
2363.000000	97.475121 
2362.000000	97.463918 
2361.000000	97.465466 
2360.000000	97.477065 
2359.000000	97.496723 
2358.000000	97.519539 
2357.000000	97.537045 
2356.000000	97.546638 
2355.000000	97.547522 
2354.000000	97.535311 
2353.000000	97.510341 
2352.000000	97.490470 
2351.000000	97.493856 
2350.000000	97.514328 
2349.000000	97.533706 
2348.000000	97.539797 
2347.000000	97.533775 
2346.000000	97.528676 
2345.000000	97.536317 
2344.000000	97.558162 
2343.000000	97.577691 
2342.000000	97.582964 
2341.000000	97.576446 
2340.000000	97.566198 
2339.000000	97.557650 
2338.000000	97.548834 
2337.000000	97.539758 
2336.000000	97.534322 
2335.000000	97.536927 
2334.000000	97.541794 
2333.000000	97.542512 
2332.000000	97.539721 
2331.000000	97.543577 
2330.000000	97.553867 
2329.000000	97.567863 
2328.000000	97.581430 
2327.000000	97.594706 
2326.000000	97.605353 
2325.000000	97.609700 
2324.000000	97.610902 
2323.000000	97.612900 
2322.000000	97.616979 
2321.000000	97.619700 
2320.000000	97.620746 
2319.000000	97.624397 
2318.000000	97.629705 
2317.000000	97.631560 
2316.000000	97.622487 
2315.000000	97.604575 
2314.000000	97.582403 
2313.000000	97.564024 
2312.000000	97.551667 
2311.000000	97.547304 
2310.000000	97.546342 
2309.000000	97.545873 
2308.000000	97.543846 
2307.000000	97.543826 
2306.000000	97.546762 
2305.000000	97.552248 
2304.000000	97.557294 
2303.000000	97.562683 
2302.000000	97.568612 
2301.000000	97.575288 
2300.000000	97.579600 
2299.000000	97.580056 
2298.000000	97.575410 
2297.000000	97.567238 
2296.000000	97.557944 
2295.000000	97.551431 
2294.000000	97.548921 
2293.000000	97.548341 
2292.000000	97.546757 
2291.000000	97.543745 
2290.000000	97.541051 
2289.000000	97.539873 
2288.000000	97.540347 
2287.000000	97.541931 
2286.000000	97.544039 
2285.000000	97.545744 
2284.000000	97.546452 
2283.000000	97.545758 
2282.000000	97.543191 
2281.000000	97.538363 
2280.000000	97.532020 
2279.000000	97.525873 
2278.000000	97.521096 
2277.000000	97.517806 
2276.000000	97.515936 
2275.000000	97.515690 
2274.000000	97.516680 
2273.000000	97.518098 
2272.000000	97.519709 
2271.000000	97.521860 
2270.000000	97.524014 
2269.000000	97.524898 
2268.000000	97.524480 
2267.000000	97.524176 
2266.000000	97.524765 
2265.000000	97.525483 
2264.000000	97.525318 
2263.000000	97.524167 
2262.000000	97.522334 
2261.000000	97.519959 
2260.000000	97.517533 
2259.000000	97.515785 
2258.000000	97.514831 
2257.000000	97.514206 
2256.000000	97.514058 
2255.000000	97.515254 
2254.000000	97.517778 
2253.000000	97.519972 
2252.000000	97.520145 
2251.000000	97.518255 
2250.000000	97.515241 
2249.000000	97.511845 
2248.000000	97.508618 
2247.000000	97.506342 
2246.000000	97.505403 
2245.000000	97.505210 
2244.000000	97.504722 
2243.000000	97.503554 
2242.000000	97.502128 
2241.000000	97.500974 
2240.000000	97.500240 
2239.000000	97.499754 
2238.000000	97.499225 
2237.000000	97.498437 
2236.000000	97.497399 
2235.000000	97.496257 
2234.000000	97.495119 
2233.000000	97.493996 
2232.000000	97.492877 
2231.000000	97.491749 
2230.000000	97.490586 
2229.000000	97.489363 
2228.000000	97.488085 
2227.000000	97.486761 
2226.000000	97.485395 
2225.000000	97.483985 
2224.000000	97.482539 
2223.000000	97.481073 
2222.000000	97.479613 
2221.000000	97.478166 
2220.000000	97.476719 
2219.000000	97.475242 
2218.000000	97.473719 
2217.000000	97.472150 
2216.000000	97.470545 
2215.000000	97.468914 
2214.000000	97.467259 
2213.000000	97.465581 
2212.000000	97.463890 
2211.000000	97.462209 
2210.000000	97.460557 
2209.000000	97.458938 
2208.000000	97.457337 
2207.000000	97.455736 
2206.000000	97.454117 
2205.000000	97.452459 
2204.000000	97.450742 
2203.000000	97.448970 
2202.000000	97.447473 
2201.000000	97.446579 
2200.000000	97.445816 
2199.000000	97.444235 
2198.000000	97.441206 
2197.000000	97.437044 
2196.000000	97.433165 
2195.000000	97.431078 
2194.000000	97.430823 
2193.000000	97.430948 
2192.000000	97.430481 
2191.000000	97.429743 
2190.000000	97.428737 
2189.000000	97.426649 
2188.000000	97.423892 
2187.000000	97.422194 
2186.000000	97.421097 
2185.000000	97.417269 
2184.000000	97.410028 
2183.000000	97.404961 
2182.000000	97.407846 
2181.000000	97.416514 
2180.000000	97.422182 
2179.000000	97.419469 
2178.000000	97.411148 
2177.000000	97.403526 
2176.000000	97.400250 
2175.000000	97.401289 
2174.000000	97.404889 
2173.000000	97.409085 
2172.000000	97.413101 
2171.000000	97.417628 
2170.000000	97.422280 
2169.000000	97.423810 
2168.000000	97.419485 
2167.000000	97.411426 
2166.000000	97.404255 
2165.000000	97.398591 
2164.000000	97.390637 
2163.000000	97.379224 
2162.000000	97.369983 
2161.000000	97.370612 
2160.000000	97.384185 
2159.000000	97.407672 
2158.000000	97.434459 
2157.000000	97.457971 
2156.000000	97.474487 
2155.000000	97.483537 
2154.000000	97.486837 
2153.000000	97.487942 
2152.000000	97.491112 
2151.000000	97.497291 
2150.000000	97.501656 
2149.000000	97.498848 
2148.000000	97.491244 
2147.000000	97.487983 
2146.000000	97.494241 
2145.000000	97.505882 
2144.000000	97.516758 
2143.000000	97.526590 
2142.000000	97.537638 
2141.000000	97.547978 
2140.000000	97.553768 
2139.000000	97.556132 
2138.000000	97.560485 
2137.000000	97.569272 
2136.000000	97.579179 
2135.000000	97.585134 
2134.000000	97.584275 
2133.000000	97.577498 
2132.000000	97.569904 
2131.000000	97.567954 
2130.000000	97.573407 
2129.000000	97.581193 
2128.000000	97.585361 
2127.000000	97.585857 
2126.000000	97.587043 
2125.000000	97.590914 
2124.000000	97.594711 
2123.000000	97.594889 
2122.000000	97.590786 
2121.000000	97.584287 
2120.000000	97.577780 
2119.000000	97.572738 
2118.000000	97.569385 
2117.000000	97.567292 
2116.000000	97.566121 
2115.000000	97.565199 
2114.000000	97.562692 
2113.000000	97.557090 
2112.000000	97.550106 
2111.000000	97.546023 
2110.000000	97.547071 
2109.000000	97.551194 
2108.000000	97.555117 
2107.000000	97.557658 
2106.000000	97.558914 
2105.000000	97.558711 
2104.000000	97.557703 
2103.000000	97.557707 
2102.000000	97.558811 
2101.000000	97.558113 
2100.000000	97.553550 
2099.000000	97.547579 
2098.000000	97.544973 
2097.000000	97.547753 
2096.000000	97.554168 
2095.000000	97.561193 
2094.000000	97.566257 
2093.000000	97.567605 
2092.000000	97.564898 
2091.000000	97.559867 
2090.000000	97.555459 
2089.000000	97.553582 
2088.000000	97.553943 
2087.000000	97.554760 
2086.000000	97.554181 
2085.000000	97.551475 
2084.000000	97.547493 
2083.000000	97.543780 
2082.000000	97.540865 
2081.000000	97.538041 
2080.000000	97.535185 
2079.000000	97.533592 
2078.000000	97.534051 
2077.000000	97.535040 
2076.000000	97.534403 
2075.000000	97.532145 
2074.000000	97.529833 
2073.000000	97.527701 
2072.000000	97.524263 
2071.000000	97.518910 
2070.000000	97.513076 
2069.000000	97.508584 
2068.000000	97.506191 
2067.000000	97.505460 
2066.000000	97.505048 
2065.000000	97.503198 
2064.000000	97.499102 
2063.000000	97.493842 
2062.000000	97.489468 
2061.000000	97.487113 
2060.000000	97.486518 
2059.000000	97.486937 
2058.000000	97.487488 
2057.000000	97.487023 
2056.000000	97.484626 
2055.000000	97.480260 
2054.000000	97.474776 
2053.000000	97.469361 
2052.000000	97.465040 
2051.000000	97.462202 
2050.000000	97.460348 
2049.000000	97.458498 
2048.000000	97.456372 
2047.000000	97.454699 
2046.000000	97.453949 
2045.000000	97.453538 
2044.000000	97.452807 
2043.000000	97.451974 
2042.000000	97.451485 
2041.000000	97.451136 
2040.000000	97.450627 
2039.000000	97.450467 
2038.000000	97.451265 
2037.000000	97.452409 
2036.000000	97.452507 
2035.000000	97.451147 
2034.000000	97.449428 
2033.000000	97.448803 
2032.000000	97.449809 
2031.000000	97.451774 
2030.000000	97.453074 
2029.000000	97.452179 
2028.000000	97.448958 
2027.000000	97.445083 
2026.000000	97.442465 
2025.000000	97.441519 
2024.000000	97.441780 
2023.000000	97.443446 
2022.000000	97.447135 
2021.000000	97.452014 
2020.000000	97.455556 
2019.000000	97.455814 
2018.000000	97.452855 
2017.000000	97.448263 
2016.000000	97.443964 
2015.000000	97.441411 
2014.000000	97.440655 
2013.000000	97.439868 
2012.000000	97.437382 
2011.000000	97.434695 
2010.000000	97.435293 
2009.000000	97.440057 
2008.000000	97.445766 
2007.000000	97.449158 
2006.000000	97.450492 
2005.000000	97.451491 
2004.000000	97.452189 
2003.000000	97.451972 
2002.000000	97.452008 
2001.000000	97.453592 
2000.000000	97.455141 
1999.000000	97.453122 
1998.000000	97.445926 
1997.000000	97.435794 
1996.000000	97.427023 
1995.000000	97.422784 
1994.000000	97.423542 
1993.000000	97.427000 
1992.000000	97.429341 
1991.000000	97.428467 
1990.000000	97.425983 
1989.000000	97.425082 
1988.000000	97.426559 
1987.000000	97.427596 
1986.000000	97.424806 
1985.000000	97.418065 
1984.000000	97.410585 
1983.000000	97.405256 
1982.000000	97.401987 
1981.000000	97.399272 
1980.000000	97.397942 
1979.000000	97.400753 
1978.000000	97.407679 
1977.000000	97.414122 
1976.000000	97.415646 
1975.000000	97.413410 
1974.000000	97.412382 
1973.000000	97.415596 
1972.000000	97.421843 
1971.000000	97.428073 
1970.000000	97.432175 
1969.000000	97.433376 
1968.000000	97.431758 
1967.000000	97.428586 
1966.000000	97.426357 
1965.000000	97.427253 
1964.000000	97.431697 
1963.000000	97.438486 
1962.000000	97.445809 
1961.000000	97.451915 
1960.000000	97.455473 
1959.000000	97.456123 
1958.000000	97.455080 
1957.000000	97.454761 
1956.000000	97.456869 
1955.000000	97.460870 
1954.000000	97.464609 
1953.000000	97.466565 
1952.000000	97.466845 
1951.000000	97.466398 
1950.000000	97.466179 
1949.000000	97.467166 
1948.000000	97.470316 
1947.000000	97.475405 
1946.000000	97.480394 
1945.000000	97.483099 
1944.000000	97.483311 
1943.000000	97.482608 
1942.000000	97.482501 
1941.000000	97.483263 
1940.000000	97.484567 
1939.000000	97.486142 
1938.000000	97.487818 
1937.000000	97.489616 
1936.000000	97.491831 
1935.000000	97.494517 
1934.000000	97.497029 
1933.000000	97.498836 
1932.000000	97.500525 
1931.000000	97.503233 
1930.000000	97.506811 
1929.000000	97.509478 
1928.000000	97.510382 
1927.000000	97.510557 
1926.000000	97.511195 
1925.000000	97.511824 
1924.000000	97.511589 
1923.000000	97.511292 
1922.000000	97.511952 
1921.000000	97.512869 
1920.000000	97.512859 
1919.000000	97.512197 
1918.000000	97.511719 
1917.000000	97.511088 
1916.000000	97.509952 
1915.000000	97.509309 
1914.000000	97.510085 
1913.000000	97.511528 
1912.000000	97.511982 
1911.000000	97.511293 
1910.000000	97.510629 
1909.000000	97.510522 
1908.000000	97.510853 
1907.000000	97.511397 
1906.000000	97.511714 
1905.000000	97.510703 
1904.000000	97.507889 
1903.000000	97.505039 
1902.000000	97.504113 
1901.000000	97.504730 
1900.000000	97.505208 
1899.000000	97.504932 
1898.000000	97.504577 
1897.000000	97.504377 
1896.000000	97.503639 
1895.000000	97.502168 
1894.000000	97.500423 
1893.000000	97.498562 
1892.000000	97.496596 
1891.000000	97.495221 
1890.000000	97.495136 
1889.000000	97.495841 
1888.000000	97.496477 
1887.000000	97.497166 
1886.000000	97.498170 
1885.000000	97.498715 
1884.000000	97.497744 
1883.000000	97.495708 
1882.000000	97.494293 
1881.000000	97.494359 
1880.000000	97.495437 
1879.000000	97.496455 
1878.000000	97.496610 
1877.000000	97.495942 
1876.000000	97.495257 
1875.000000	97.495704 
1874.000000	97.497796 
1873.000000	97.500618 
1872.000000	97.502892 
1871.000000	97.504402 
1870.000000	97.505311 
1869.000000	97.504979 
1868.000000	97.503622 
1867.000000	97.503566 
1866.000000	97.505655 
1865.000000	97.507598 
1864.000000	97.507370 
1863.000000	97.506214 
1862.000000	97.506884 
1861.000000	97.509873 
1860.000000	97.513501 
1859.000000	97.516921 
1858.000000	97.520521 
1857.000000	97.524057 
1856.000000	97.526900 
1855.000000	97.529509 
1854.000000	97.532492 
1853.000000	97.534794 
1852.000000	97.535824 
1851.000000	97.536857 
1850.000000	97.539200 
1849.000000	97.542618 
1848.000000	97.545834 
1847.000000	97.548445 
1846.000000	97.550787 
1845.000000	97.552699 
1844.000000	97.553601 
1843.000000	97.554290 
1842.000000	97.555878 
1841.000000	97.557810 
1840.000000	97.559786 
1839.000000	97.562269 
1838.000000	97.565204 
1837.000000	97.567347 
1836.000000	97.567892 
1835.000000	97.567899 
1834.000000	97.568803 
1833.000000	97.570455 
1832.000000	97.571822 
1831.000000	97.572319 
1830.000000	97.572305 
1829.000000	97.572762 
1828.000000	97.574090 
1827.000000	97.575838 
1826.000000	97.577569 
1825.000000	97.579109 
1824.000000	97.580232 
1823.000000	97.580981 
1822.000000	97.581614 
1821.000000	97.582237 
1820.000000	97.582778 
1819.000000	97.583266 
1818.000000	97.584001 
1817.000000	97.584950 
1816.000000	97.585579 
1815.000000	97.585750 
1814.000000	97.585913 
1813.000000	97.586444 
1812.000000	97.586978 
1811.000000	97.587015 
1810.000000	97.586780 
1809.000000	97.586674 
1808.000000	97.586742 
1807.000000	97.586972 
1806.000000	97.587421 
1805.000000	97.587943 
1804.000000	97.588270 
1803.000000	97.588497 
1802.000000	97.588872 
1801.000000	97.589336 
1800.000000	97.589476 
1799.000000	97.589199 
1798.000000	97.589023 
1797.000000	97.589231 
1796.000000	97.589617 
1795.000000	97.590014 
1794.000000	97.590557 
1793.000000	97.591276 
1792.000000	97.591805 
1791.000000	97.592158 
1790.000000	97.592761 
1789.000000	97.593506 
1788.000000	97.594134 
1787.000000	97.594759 
1786.000000	97.595650 
1785.000000	97.596698 
1784.000000	97.597561 
1783.000000	97.598223 
1782.000000	97.598813 
1781.000000	97.599513 
1780.000000	97.600397 
1779.000000	97.601395 
1778.000000	97.602435 
1777.000000	97.603458 
1776.000000	97.604463 
1775.000000	97.605440 
1774.000000	97.606384 
1773.000000	97.607314 
1772.000000	97.608258 
1771.000000	97.609246 
1770.000000	97.610283 
1769.000000	97.611365 
1768.000000	97.612478 
1767.000000	97.613598 
1766.000000	97.614692 
1765.000000	97.615744 
1764.000000	97.616759 
1763.000000	97.617755 
1762.000000	97.618743 
1761.000000	97.619740 
1760.000000	97.620761 
1759.000000	97.621770 
1758.000000	97.622725 
1757.000000	97.623672 
1756.000000	97.624770 
1755.000000	97.625921 
1754.000000	97.626737 
1753.000000	97.627117 
1752.000000	97.627690 
1751.000000	97.628919 
1750.000000	97.630357 
1749.000000	97.631177 
1748.000000	97.631114 
1747.000000	97.630604 
1746.000000	97.629786 
1745.000000	97.629401 
1744.000000	97.630361 
1743.000000	97.632241 
1742.000000	97.633730 
1741.000000	97.634126 
1740.000000	97.633585 
1739.000000	97.633243 
1738.000000	97.634297 
1737.000000	97.635416 
1736.000000	97.635663 
1735.000000	97.637042 
1734.000000	97.638114 
1733.000000	97.636087 
1732.000000	97.634213 
1731.000000	97.633294 
1730.000000	97.634118 
1729.000000	97.636319 
1728.000000	97.637876 
1727.000000	97.637261 
1726.000000	97.634762 
1725.000000	97.632652 
1724.000000	97.631133 
1723.000000	97.629495 
1722.000000	97.628742 
1721.000000	97.628306 
1720.000000	97.626423 
1719.000000	97.623489 
1718.000000	97.622105 
1717.000000	97.620896 
1716.000000	97.616366 
1715.000000	97.610158 
1714.000000	97.606473 
1713.000000	97.605056 
1712.000000	97.602243 
1711.000000	97.597820 
1710.000000	97.594233 
1709.000000	97.591479 
1708.000000	97.587087 
1707.000000	97.580390 
1706.000000	97.574137 
1705.000000	97.569909 
1704.000000	97.566293 
1703.000000	97.561794 
1702.000000	97.557766 
1701.000000	97.555735 
1700.000000	97.551666 
1699.000000	97.545190 
1698.000000	97.540476 
1697.000000	97.536229 
1696.000000	97.531395 
1695.000000	97.526425 
1694.000000	97.522100 
1693.000000	97.517399 
1692.000000	97.511749 
1691.000000	97.505914 
1690.000000	97.500418 
1689.000000	97.495178 
1688.000000	97.490049 
1687.000000	97.484837 
1686.000000	97.479600 
1685.000000	97.474364 
1684.000000	97.468837 
1683.000000	97.463243 
1682.000000	97.457947 
1681.000000	97.452614 
1680.000000	97.447335 
1679.000000	97.442288 
1678.000000	97.437300 
1677.000000	97.432156 
1676.000000	97.427027 
1675.000000	97.422043 
1674.000000	97.416871 
1673.000000	97.411412 
1672.000000	97.405712 
1671.000000	97.400146 
1670.000000	97.394700 
1669.000000	97.388826 
1668.000000	97.383757 
1667.000000	97.380350 
1666.000000	97.377303 
1665.000000	97.373385 
1664.000000	97.368650 
1663.000000	97.364109 
1662.000000	97.359694 
1661.000000	97.354893 
1660.000000	97.350407 
1659.000000	97.346444 
1658.000000	97.341996 
1657.000000	97.336636 
1656.000000	97.331433 
1655.000000	97.328782 
1654.000000	97.328965 
1653.000000	97.321387 
1652.000000	97.307650 
1651.000000	97.304484 
1650.000000	97.302429 
1649.000000	97.296811 
1648.000000	97.291571 
1647.000000	97.289277 
1646.000000	97.288303 
1645.000000	97.289357 
1644.000000	97.290481 
1643.000000	97.290390 
1642.000000	97.289694 
1641.000000	97.288842 
1640.000000	97.288647 
1639.000000	97.288817 
1638.000000	97.289130 
1637.000000	97.289186 
1636.000000	97.286796 
1635.000000	97.280711 
1634.000000	97.277826 
1633.000000	97.279789 
1632.000000	97.281586 
1631.000000	97.284076 
1630.000000	97.287693 
1629.000000	97.289813 
1628.000000	97.289851 
1627.000000	97.291961 
1626.000000	97.296858 
1625.000000	97.300976 
1624.000000	97.302909 
1623.000000	97.304883 
1622.000000	97.308635 
1621.000000	97.313484 
1620.000000	97.318695 
1619.000000	97.324981 
1618.000000	97.332715 
1617.000000	97.335906 
1616.000000	97.333303 
1615.000000	97.334607 
1614.000000	97.340583 
1613.000000	97.344824 
1612.000000	97.347552 
1611.000000	97.352315 
1610.000000	97.357712 
1609.000000	97.361601 
1608.000000	97.367900 
1607.000000	97.379406 
1606.000000	97.390426 
1605.000000	97.396170 
1604.000000	97.400522 
1603.000000	97.406819 
1602.000000	97.413128 
1601.000000	97.417661 
1600.000000	97.422920 
1599.000000	97.430446 
1598.000000	97.437517 
1597.000000	97.442074 
1596.000000	97.445756 
1595.000000	97.450841 
1594.000000	97.456745 
1593.000000	97.461955 
1592.000000	97.467004 
1591.000000	97.472831 
1590.000000	97.478453 
1589.000000	97.482931 
1588.000000	97.487540 
1587.000000	97.493673 
1586.000000	97.500046 
1585.000000	97.504363 
1584.000000	97.508010 
1583.000000	97.512859 
1582.000000	97.517064 
1581.000000	97.519102 
1580.000000	97.521184 
1579.000000	97.525233 
1578.000000	97.530452 
1577.000000	97.535472 
1576.000000	97.539278 
1575.000000	97.543453 
1574.000000	97.548436 
1573.000000	97.551817 
1572.000000	97.554234 
1571.000000	97.557735 
1570.000000	97.560505 
1569.000000	97.560319 
1568.000000	97.561264 
1567.000000	97.564279 
1566.000000	97.565789 
1565.000000	97.565047 
1564.000000	97.564814 
1563.000000	97.566010 
1562.000000	97.566309 
1561.000000	97.565892 
1560.000000	97.571251 
1559.000000	97.576496 
1558.000000	97.572352 
1557.000000	97.569977 
1556.000000	97.570262 
1555.000000	97.571925 
1554.000000	97.573644 
1553.000000	97.574196 
1552.000000	97.573203 
1551.000000	97.571207 
1550.000000	97.569751 
1549.000000	97.568712 
1548.000000	97.567143 
1547.000000	97.564912 
1546.000000	97.562314 
1545.000000	97.559873 
1544.000000	97.557740 
1543.000000	97.555754 
1542.000000	97.554202 
1541.000000	97.552077 
1540.000000	97.546674 
1539.000000	97.540149 
1538.000000	97.536486 
1537.000000	97.533531 
1536.000000	97.529148 
1535.000000	97.524544 
1534.000000	97.520935 
1533.000000	97.518014 
1532.000000	97.515072 
1531.000000	97.511570 
1530.000000	97.507434 
1529.000000	97.502867 
1528.000000	97.498203 
1527.000000	97.494084 
1526.000000	97.490720 
1525.000000	97.487460 
1524.000000	97.483501 
1523.000000	97.478946 
1522.000000	97.474650 
1521.000000	97.470745 
1520.000000	97.466614 
1519.000000	97.461594 
1518.000000	97.455797 
1517.000000	97.450625 
1516.000000	97.446891 
1515.000000	97.444117 
1514.000000	97.441269 
1513.000000	97.437996 
1512.000000	97.433945 
1511.000000	97.428720 
1510.000000	97.422824 
1509.000000	97.417511 
1508.000000	97.414093 
1507.000000	97.411793 
1506.000000	97.408248 
1505.000000	97.403607 
1504.000000	97.398466 
1503.000000	97.392440 
1502.000000	97.386088 
1501.000000	97.380376 
1500.000000	97.375156 
1499.000000	97.369392 
1498.000000	97.363561 
1497.000000	97.359625 
1496.000000	97.357438 
1495.000000	97.356269 
1494.000000	97.356022 
1493.000000	97.355940 
1492.000000	97.355216 
1491.000000	97.353923 
1490.000000	97.352726 
1489.000000	97.350911 
1488.000000	97.346213 
1487.000000	97.339398 
1486.000000	97.333585 
1485.000000	97.328297 
1484.000000	97.322500 
1483.000000	97.316870 
1482.000000	97.313047 
1481.000000	97.311016 
1480.000000	97.308239 
1479.000000	97.303635 
1478.000000	97.298842 
1477.000000	97.295431 
1476.000000	97.292188 
1475.000000	97.288463 
1474.000000	97.285251 
1473.000000	97.283294 
1472.000000	97.281717 
1471.000000	97.279678 
1470.000000	97.277153 
1469.000000	97.273351 
1468.000000	97.267840 
1467.000000	97.261858 
1466.000000	97.257573 
1465.000000	97.255869 
1464.000000	97.255624 
1463.000000	97.254259 
1462.000000	97.250531 
1461.000000	97.244906 
1460.000000	97.238801 
1459.000000	97.233760 
1458.000000	97.231440 
1457.000000	97.232329 
1456.000000	97.234262 
1455.000000	97.234241 
1454.000000	97.230686 
1453.000000	97.226236 
1452.000000	97.223839 
1451.000000	97.223628 
1450.000000	97.224554 
1449.000000	97.226214 
1448.000000	97.227806 
1447.000000	97.228411 
1446.000000	97.227541 
1445.000000	97.226209 
1444.000000	97.225701 
1443.000000	97.225343 
1442.000000	97.224510 
1441.000000	97.223463 
1440.000000	97.222244 
1439.000000	97.219895 
1438.000000	97.217880 
1437.000000	97.219463 
1436.000000	97.223746 
1435.000000	97.226018 
1434.000000	97.224774 
1433.000000	97.222820 
1432.000000	97.222898 
1431.000000	97.224570 
1430.000000	97.226441 
1429.000000	97.229239 
1428.000000	97.232736 
1427.000000	97.235322 
1426.000000	97.236069 
1425.000000	97.237855 
1424.000000	97.243315 
1423.000000	97.248438 
1422.000000	97.249089 
1421.000000	97.247887 
1420.000000	97.250785 
1419.000000	97.256250 
1418.000000	97.258868 
1417.000000	97.259826 
1416.000000	97.261594 
1415.000000	97.263565 
1414.000000	97.263674 
1413.000000	97.262179 
1412.000000	97.261440 
1411.000000	97.261678 
1410.000000	97.261979 
1409.000000	97.262957 
1408.000000	97.264889 
1407.000000	97.267909 
1406.000000	97.272517 
1405.000000	97.280635 
1404.000000	97.292647 
1403.000000	97.303282 
1402.000000	97.308553 
1401.000000	97.311518 
1400.000000	97.318405 
1399.000000	97.329653 
1398.000000	97.339397 
1397.000000	97.343924 
1396.000000	97.345639 
1395.000000	97.349401 
1394.000000	97.356549 
1393.000000	97.365981 
1392.000000	97.376008 
1391.000000	97.384269 
1390.000000	97.389953 
1389.000000	97.394675 
1388.000000	97.400583 
1387.000000	97.407482 
1386.000000	97.413067 
1385.000000	97.416906 
1384.000000	97.421552 
1383.000000	97.428290 
1382.000000	97.435479 
1381.000000	97.440781 
1380.000000	97.444490 
1379.000000	97.448963 
1378.000000	97.454759 
1377.000000	97.460201 
1376.000000	97.464581 
1375.000000	97.469622 
1374.000000	97.476924 
1373.000000	97.486371 
1372.000000	97.496137 
1371.000000	97.504629 
1370.000000	97.511373 
1369.000000	97.517440 
1368.000000	97.524619 
1367.000000	97.531889 
1366.000000	97.536777 
1365.000000	97.539346 
1364.000000	97.542910 
1363.000000	97.549830 
1362.000000	97.558309 
1361.000000	97.565211 
1360.000000	97.570691 
1359.000000	97.577137 
1358.000000	97.584840 
1357.000000	97.591696 
1356.000000	97.596514 
1355.000000	97.599740 
1354.000000	97.602397 
1353.000000	97.605263 
1352.000000	97.608529 
1351.000000	97.613434 
1350.000000	97.619932 
1349.000000	97.626136 
1348.000000	97.630843 
1347.000000	97.633818 
1346.000000	97.635998 
1345.000000	97.638099 
1344.000000	97.639502 
1343.000000	97.638275 
1342.000000	97.633873 
1341.000000	97.629205 
1340.000000	97.628656 
1339.000000	97.632847 
1338.000000	97.637755 
1337.000000	97.640010 
1336.000000	97.639772 
1335.000000	97.638342 
1334.000000	97.636404 
1333.000000	97.634877 
1332.000000	97.635019 
1331.000000	97.636671 
1330.000000	97.638063 
1329.000000	97.638323 
1328.000000	97.638522 
1327.000000	97.639629 
1326.000000	97.640565 
1325.000000	97.639903 
1324.000000	97.637699 
1323.000000	97.634278 
1322.000000	97.629952 
1321.000000	97.626176 
1320.000000	97.625112 
1319.000000	97.627092 
1318.000000	97.630164 
1317.000000	97.632360 
1316.000000	97.632929 
1315.000000	97.631606 
1314.000000	97.629052 
1313.000000	97.627917 
1312.000000	97.630662 
1311.000000	97.635776 
1310.000000	97.638733 
1309.000000	97.637414 
1308.000000	97.634359 
1307.000000	97.633424 
1306.000000	97.635424 
1305.000000	97.638660 
1304.000000	97.641683 
1303.000000	97.643434 
1302.000000	97.642873 
1301.000000	97.640049 
1300.000000	97.636962 
1299.000000	97.635881 
1298.000000	97.637166 
1297.000000	97.639094 
1296.000000	97.639674 
1295.000000	97.638360 
1294.000000	97.636479 
1293.000000	97.635918 
1292.000000	97.636794 
1291.000000	97.637178 
1290.000000	97.636004 
1289.000000	97.635033 
1288.000000	97.636207 
1287.000000	97.638131 
1286.000000	97.637674 
1285.000000	97.634691 
1284.000000	97.632326 
1283.000000	97.632453 
1282.000000	97.633350 
1281.000000	97.632583 
1280.000000	97.630348 
1279.000000	97.628760 
1278.000000	97.629472 
1277.000000	97.632752 
1276.000000	97.637212 
1275.000000	97.640042 
1274.000000	97.639296 
1273.000000	97.636608 
1272.000000	97.635698 
1271.000000	97.637604 
1270.000000	97.639400 
1269.000000	97.638423 
1268.000000	97.635511 
1267.000000	97.632871 
1266.000000	97.631231 
1265.000000	97.630621 
1264.000000	97.631748 
1263.000000	97.634809 
1262.000000	97.638193 
1261.000000	97.640026 
1260.000000	97.640607 
1259.000000	97.641765 
1258.000000	97.643983 
1257.000000	97.644997 
1256.000000	97.641249 
1255.000000	97.631405 
1254.000000	97.618819 
1253.000000	97.609135 
1252.000000	97.604181 
1251.000000	97.599871 
1250.000000	97.592064 
1249.000000	97.582722 
1248.000000	97.577114 
1247.000000	97.575912 
1246.000000	97.574159 
1245.000000	97.568046 
1244.000000	97.558753 
1243.000000	97.549255 
1242.000000	97.541035 
1241.000000	97.534847 
1240.000000	97.531032 
1239.000000	97.527350 
1238.000000	97.519535 
1237.000000	97.505973 
1236.000000	97.489595 
1235.000000	97.473783 
1234.000000	97.458597 
1233.000000	97.442299 
1232.000000	97.424057 
1231.000000	97.403433 
1230.000000	97.379713 
1229.000000	97.353542 
1228.000000	97.326938 
1227.000000	97.299650 
1226.000000	97.267383 
1225.000000	97.225919 
1224.000000	97.175694 
1223.000000	97.120452 
1222.000000	97.062463 
1221.000000	97.000954 
1220.000000	96.934422 
1219.000000	96.862476 
1218.000000	96.785658 
1217.000000	96.704783 
1216.000000	96.620142 
1215.000000	96.530698 
1214.000000	96.435302 
1213.000000	96.335835 
1212.000000	96.237266 
1211.000000	96.142436 
1210.000000	96.048247 
1209.000000	95.949714 
1208.000000	95.846776 
1207.000000	95.744044 
1206.000000	95.644277 
1205.000000	95.545298 
1204.000000	95.443742 
1203.000000	95.339045 
1202.000000	95.233130 
1201.000000	95.128096 
1200.000000	95.024720 
1199.000000	94.921925 
1198.000000	94.817801 
1197.000000	94.712301 
1196.000000	94.608039 
1195.000000	94.506947 
1194.000000	94.407242 
1193.000000	94.305478 
1192.000000	94.200245 
1191.000000	94.091865 
1190.000000	93.980298 
1189.000000	93.866008 
1188.000000	93.751235 
1187.000000	93.637368 
1186.000000	93.522407 
1185.000000	93.403798 
1184.000000	93.281970 
1183.000000	93.158093 
1182.000000	93.030775 
1181.000000	92.898897 
1180.000000	92.765268 
1179.000000	92.632384 
1178.000000	92.496424 
1177.000000	92.351068 
1176.000000	92.196079 
1175.000000	92.036734 
1174.000000	91.876058 
1173.000000	91.713711 
1172.000000	91.551355 
1171.000000	91.391778 
1170.000000	91.232720 
1169.000000	91.069188 
1168.000000	90.903258 
1167.000000	90.745330 
1166.000000	90.605450 
1165.000000	90.490769 
1164.000000	90.411674 
1163.000000	90.380529 
1162.000000	90.399680 
1161.000000	90.455417 
1160.000000	90.525059 
1159.000000	90.585392 
1158.000000	90.615964 
1157.000000	90.603523 
1156.000000	90.546970 
1155.000000	90.454529 
1154.000000	90.335654 
1153.000000	90.199094 
1152.000000	90.056389 
1151.000000	89.918670 
1150.000000	89.788186 
1149.000000	89.659629 
1148.000000	89.530709 
1147.000000	89.404286 
1146.000000	89.279726 
1145.000000	89.151158 
1144.000000	89.016913 
1143.000000	88.882759 
1142.000000	88.752783 
1141.000000	88.624168 
1140.000000	88.493738 
1139.000000	88.362610 
1138.000000	88.231709 
1137.000000	88.099480 
1136.000000	87.966538 
1135.000000	87.835989 
1134.000000	87.706979 
1133.000000	87.574695 
1132.000000	87.438407 
1131.000000	87.302380 
1130.000000	87.167469 
1129.000000	87.029754 
1128.000000	86.889164 
1127.000000	86.750932 
1126.000000	86.616008 
1125.000000	86.478300 
1124.000000	86.334103 
1123.000000	86.186513 
1122.000000	86.038424 
1121.000000	85.889473 
1120.000000	85.741945 
1119.000000	85.600734 
1118.000000	85.465137 
1117.000000	85.329734 
1116.000000	85.194978 
1115.000000	85.067114 
1114.000000	84.946205 
1113.000000	84.825034 
1112.000000	84.701848 
1111.000000	84.582606 
1110.000000	84.468586 
1109.000000	84.353642 
1108.000000	84.235285 
1107.000000	84.117266 
1106.000000	83.999746 
1105.000000	83.878400 
1104.000000	83.755041 
1103.000000	83.637201 
1102.000000	83.525477 
1101.000000	83.413287 
1100.000000	83.300106 
1099.000000	83.192980 
1098.000000	83.093744 
1097.000000	82.997149 
1096.000000	82.902710 
1095.000000	82.814801 
1094.000000	82.730504 
1093.000000	82.641649 
1092.000000	82.550406 
1091.000000	82.468683 
1090.000000	82.400590 
1089.000000	82.339336 
1088.000000	82.281744 
1087.000000	82.230540 
1086.000000	82.181886 
1085.000000	82.127531 
1084.000000	82.071118 
1083.000000	82.025555 
1082.000000	81.991625 
1081.000000	81.955801 
1080.000000	81.912255 
1079.000000	81.870077 
1078.000000	81.834640 
1077.000000	81.797887 
1076.000000	81.751719 
1075.000000	81.695713 
1074.000000	81.627348 
1073.000000	81.539109 
1072.000000	81.428777 
1071.000000	81.298609 
1070.000000	81.142004 
1069.000000	80.946452 
1068.000000	80.713420 
1067.000000	80.461305 
1066.000000	80.205416 
1065.000000	79.949078 
1064.000000	79.696555 
1063.000000	79.456216 
1062.000000	79.225065 
1061.000000	78.987605 
1060.000000	78.737396 
1059.000000	78.485458 
1058.000000	78.242321 
1057.000000	78.006517 
1056.000000	77.775043 
1055.000000	77.548909 
1054.000000	77.323234 
1053.000000	77.088042 
1052.000000	76.844832 
1051.000000	76.606235 
1050.000000	76.373730 
1049.000000	76.134198 
1048.000000	75.883446 
1047.000000	75.632587 
1046.000000	75.387060 
1045.000000	75.139690 
1044.000000	74.887616 
1043.000000	74.637132 
1042.000000	74.388796 
1041.000000	74.135937 
1040.000000	73.881277 
1039.000000	73.637429 
1038.000000	73.408355 
1037.000000	73.188489 
1036.000000	72.981538 
1035.000000	72.800003 
1034.000000	72.643953 
1033.000000	72.500641 
1032.000000	72.366887 
1031.000000	72.250808 
1030.000000	72.150406 
1029.000000	72.053703 
1028.000000	71.962538 
1027.000000	71.892415 
1026.000000	71.844967 
1025.000000	71.803461 
1024.000000	71.759133 
1023.000000	71.719052 
1022.000000	71.684265 
1021.000000	71.643843 
1020.000000	71.595236 
1019.000000	71.548318 
1018.000000	71.505007 
1017.000000	71.456515 
1016.000000	71.403895 
1015.000000	71.359075 
1014.000000	71.322376 
1013.000000	71.281587 
1012.000000	71.236480 
1011.000000	71.201518 
1010.000000	71.181281 
1009.000000	71.166403 
1008.000000	71.156924 
1007.000000	71.165947 
1006.000000	71.196344 
1005.000000	71.237065 
1004.000000	71.285828 
1003.000000	71.351719 
1002.000000	71.431729 
1001.000000	71.509424 
1000.000000	71.582122 
999.000000	 71.665772 
998.000000	 71.767443 
997.000000	 71.875834 
996.000000	 71.984218 
995.000000	 72.100381 
994.000000	 72.228025 
993.000000	 72.359736 
992.000000	 72.493671 
991.000000	 72.636696 
990.000000	 72.786911 
989.000000	 72.934057 
988.000000	 73.081150 
987.000000	 73.244411 
986.000000	 73.427851 
985.000000	 73.619118 
984.000000	 73.813883 
983.000000	 74.022314 
982.000000	 74.246933 
981.000000	 74.476254 
980.000000	 74.706031 
979.000000	 74.945881 
978.000000	 75.198948 
977.000000	 75.455305 
976.000000	 75.711574 
975.000000	 75.977866 
974.000000	 76.258875 
973.000000	 76.545849 
972.000000	 76.832930 
971.000000	 77.124802 
970.000000	 77.423120 
969.000000	 77.721206 
968.000000	 78.016410 
967.000000	 78.312832 
966.000000	 78.609081 
965.000000	 78.898373 
964.000000	 79.182630 
963.000000	 79.471019 
962.000000	 79.762795 
961.000000	 80.046939 
960.000000	 80.319774 
959.000000	 80.587099 
958.000000	 80.848346 
957.000000	 81.095592 
956.000000	 81.330151 
955.000000	 81.563609 
954.000000	 81.799642 
953.000000	 82.030109 
952.000000	 82.251112 
951.000000	 82.466984 
950.000000	 82.676402 
949.000000	 82.870772 
948.000000	 83.049622 
947.000000	 83.222513 
946.000000	 83.392377 
945.000000	 83.551308 
944.000000	 83.696238 
943.000000	 83.834929 
942.000000	 83.973196 
941.000000	 84.109340 
940.000000	 84.244175 
939.000000	 84.383056 
938.000000	 84.524897 
937.000000	 84.662117 
936.000000	 84.794252 
935.000000	 84.929123 
934.000000	 85.068380 
933.000000	 85.204761 
932.000000	 85.335851 
931.000000	 85.467471 
930.000000	 85.600852 
929.000000	 85.729225 
928.000000	 85.850134 
927.000000	 85.969132 
926.000000	 86.088207 
925.000000	 86.201407 
924.000000	 86.304385 
923.000000	 86.398431 
922.000000	 86.484393 
921.000000	 86.563269 
920.000000	 86.642776 
919.000000	 86.731361 
918.000000	 86.824604 
917.000000	 86.909085 
916.000000	 86.981221 
915.000000	 87.052135 
914.000000	 87.134053 
913.000000	 87.232904 
912.000000	 87.353337 
911.000000	 87.498039 
910.000000	 87.661208 
909.000000	 87.834259 
908.000000	 88.017993 
907.000000	 88.218413 
906.000000	 88.433060 
905.000000	 88.653889 
904.000000	 88.880546 
903.000000	 89.116663 
902.000000	 89.355707 
901.000000	 89.585924 
900.000000	 89.808015 
899.000000	 90.033066 
898.000000	 90.263088 
897.000000	 90.487549 
896.000000	 90.698976 
895.000000	 90.898580 
894.000000	 91.087310 
893.000000	 91.264410 
892.000000	 91.434414 
891.000000	 91.602843 
890.000000	 91.765236 
889.000000	 91.912202 
888.000000	 92.044037 
887.000000	 92.168937 
886.000000	 92.289544 
885.000000	 92.404111 
884.000000	 92.517549 
883.000000	 92.636235 
882.000000	 92.754814 
881.000000	 92.865171 
880.000000	 92.976481 
879.000000	 93.107240 
878.000000	 93.257047 
877.000000	 93.406127 
876.000000	 93.544810 
875.000000	 93.683553 
874.000000	 93.831023 
873.000000	 93.982778 
872.000000	 94.136405 
871.000000	 94.298006 
870.000000	 94.466756 
869.000000	 94.629920 
868.000000	 94.780195 
867.000000	 94.923922 
866.000000	 95.066898 
865.000000	 95.205834 
864.000000	 95.339736 
863.000000	 95.476619 
862.000000	 95.621405 
861.000000	 95.767373 
860.000000	 95.906145 
859.000000	 96.037276 
858.000000	 96.162752 
857.000000	 96.280530 
856.000000	 96.388703 
855.000000	 96.488946 
854.000000	 96.581675 
853.000000	 96.664334 
852.000000	 96.737652 
851.000000	 96.807339 
850.000000	 96.877606 
849.000000	 96.948953 
848.000000	 97.022139 
847.000000	 97.096384 
846.000000	 97.164211 
845.000000	 97.217549 
844.000000	 97.259363 
843.000000	 97.299953 
842.000000	 97.341369 
841.000000	 97.375156 
840.000000	 97.395602 
839.000000	 97.404402 
838.000000	 97.401892 
837.000000	 97.386050 
836.000000	 97.363206 
835.000000	 97.348226 
834.000000	 97.348831 
833.000000	 97.358639 
832.000000	 97.369568 
831.000000	 97.381532 
830.000000	 97.395876 
829.000000	 97.409764 
828.000000	 97.423830 
827.000000	 97.446900 
826.000000	 97.485657 
825.000000	 97.535789 
824.000000	 97.588081 
823.000000	 97.635745 
822.000000	 97.672729 
821.000000	 97.694281 
820.000000	 97.702209 
819.000000	 97.700750 
818.000000	 97.684827 
817.000000	 97.640262 
816.000000	 97.557796 
815.000000	 97.440094 
814.000000	 97.292524 
813.000000	 97.112581 
812.000000	 96.889318 
811.000000	 96.605893 
810.000000	 96.241249 
809.000000	 95.778661 
808.000000	 95.218721 
807.000000	 94.580382 
806.000000	 93.887732 
805.000000	 93.162416 
804.000000	 92.430381 
803.000000	 91.724228 
802.000000	 91.072519 
801.000000	 90.496622 
800.000000	 90.021822 
799.000000	 89.676631 
798.000000	 89.472850 
797.000000	 89.396985 
796.000000	 89.424026 
795.000000	 89.526019 
794.000000	 89.667717 
793.000000	 89.814320 
792.000000	 89.949684 
791.000000	 90.073131 
790.000000	 90.176783 
789.000000	 90.240887 
788.000000	 90.251779 
787.000000	 90.207453 
786.000000	 90.103446 
785.000000	 89.930599 
784.000000	 89.692133 
783.000000	 89.410024 
782.000000	 89.112466 
781.000000	 88.829337 
780.000000	 88.599251 
779.000000	 88.459231 
778.000000	 88.420132 
777.000000	 88.468307 
776.000000	 88.593791 
775.000000	 88.796362 
774.000000	 89.060706 
773.000000	 89.349902 
772.000000	 89.633320 
771.000000	 89.903593 
770.000000	 90.160180 
769.000000	 90.394917 
768.000000	 90.601247 
767.000000	 90.780913 
766.000000	 90.934253 
765.000000	 91.059198 
764.000000	 91.166107 
763.000000	 91.277683 
762.000000	 91.406379 
761.000000	 91.545353 
760.000000	 91.687042 
759.000000	 91.835072 
758.000000	 91.991635 
757.000000	 92.149727 
756.000000	 92.306772 
755.000000	 92.471266 
754.000000	 92.645579 
753.000000	 92.813325 
752.000000	 92.953017 
751.000000	 93.057307 
750.000000	 93.135782 
749.000000	 93.207866 
748.000000	 93.294419 
747.000000	 93.404151 
746.000000	 93.524237 
745.000000	 93.635305 
744.000000	 93.737872 
743.000000	 93.851493 
742.000000	 93.986807 
741.000000	 94.133972 
740.000000	 94.281214 
739.000000	 94.427902 
738.000000	 94.573714 
737.000000	 94.709539 
736.000000	 94.826535 
735.000000	 94.923262 
734.000000	 95.000521 
733.000000	 95.060780 
732.000000	 95.113792 
731.000000	 95.169024 
730.000000	 95.221150 
729.000000	 95.258485 
728.000000	 95.283294 
727.000000	 95.310285 
726.000000	 95.349829 
725.000000	 95.403808 
724.000000	 95.474767 
723.000000	 95.564257 
722.000000	 95.662474 
721.000000	 95.755193 
720.000000	 95.842309 
719.000000	 95.935188 
718.000000	 96.034722 
717.000000	 96.128622 
716.000000	 96.212172 
715.000000	 96.292756 
714.000000	 96.371265 
713.000000	 96.438566 
712.000000	 96.494369 
711.000000	 96.551719 
710.000000	 96.615549 
709.000000	 96.675436 
708.000000	 96.721333 
707.000000	 96.752953 
706.000000	 96.769659 
705.000000	 96.763310 
704.000000	 96.724907 
703.000000	 96.650495 
702.000000	 96.530573 
701.000000	 96.344872 
700.000000	 96.079914 
699.000000	 95.740966 
698.000000	 95.351877 
697.000000	 94.956424 
696.000000	 94.618454 
695.000000	 94.405796 
694.000000	 94.352015 
693.000000	 94.439513 
692.000000	 94.623406 
691.000000	 94.856313 
690.000000	 95.099587 
689.000000	 95.328059 
688.000000	 95.532734 
687.000000	 95.715578 
686.000000	 95.872902 
685.000000	 95.998443 
684.000000	 96.103480 
683.000000	 96.208260 
682.000000	 96.315949 
681.000000	 96.413285 
680.000000	 96.498988 
679.000000	 96.584806 
678.000000	 96.672804 
677.000000	 96.759430 
676.000000	 96.846093 
675.000000	 96.942779 
674.000000	 97.042439 
673.000000	 97.106116 
672.000000	 97.115219 
671.000000	 97.085948 
670.000000	 97.035192 
669.000000	 96.938434 
668.000000	 96.945817 
667.000000	 97.202559 
666.000000	 97.433991 
665.000000	 97.500051 
664.000000	 97.526955 
663.000000	 97.567409 
662.000000	 97.614846 
661.000000	 97.653349 
660.000000	 97.683641 
659.000000	 97.709462 
658.000000	 97.729035 
657.000000	 97.741405 
656.000000	 97.735598 
655.000000	 97.703530 
654.000000	 97.653957 
653.000000	 97.600543 
652.000000	 97.554621 
651.000000	 97.534553 
650.000000	 97.557774 

