4000.000000	98.013388 
3999.000000	98.011219 
3998.000000	98.007943 
3997.000000	98.004695 
3996.000000	98.002587 
3995.000000	98.002051 
3994.000000	98.002877 
3993.000000	98.004155 
3992.000000	98.004793 
3991.000000	98.004468 
3990.000000	98.003866 
3989.000000	98.003940 
3988.000000	98.004900 
3987.000000	98.006089 
3986.000000	98.006809 
3985.000000	98.006976 
3984.000000	98.006823 
3983.000000	98.006467 
3982.000000	98.006043 
3981.000000	98.005877 
3980.000000	98.006047 
3979.000000	98.005990 
3978.000000	98.005089 
3977.000000	98.003594 
3976.000000	98.002432 
3975.000000	98.002031 
3974.000000	98.001806 
3973.000000	98.000959 
3972.000000	97.999351 
3971.000000	97.997407 
3970.000000	97.995741 
3969.000000	97.994921 
3968.000000	97.995242 
3967.000000	97.996420 
3966.000000	97.997626 
3965.000000	97.998014 
3964.000000	97.997202 
3963.000000	97.995412 
3962.000000	97.993383 
3961.000000	97.992024 
3960.000000	97.991724 
3959.000000	97.991944 
3958.000000	97.991932 
3957.000000	97.991509 
3956.000000	97.990872 
3955.000000	97.989889 
3954.000000	97.988119 
3953.000000	97.985540 
3952.000000	97.982787 
3951.000000	97.980765 
3950.000000	97.979974 
3949.000000	97.980171 
3948.000000	97.980574 
3947.000000	97.980634 
3946.000000	97.980400 
3945.000000	97.980038 
3944.000000	97.979489 
3943.000000	97.978846 
3942.000000	97.978777 
3941.000000	97.980071 
3940.000000	97.982423 
3939.000000	97.983970 
3938.000000	97.983345 
3937.000000	97.981126 
3936.000000	97.978884 
3935.000000	97.977266 
3934.000000	97.975853 
3933.000000	97.974853 
3932.000000	97.974933 
3931.000000	97.975708 
3930.000000	97.975839 
3929.000000	97.974830 
3928.000000	97.973958 
3927.000000	97.974185 
3926.000000	97.974432 
3925.000000	97.973261 
3924.000000	97.971407 
3923.000000	97.970626 
3922.000000	97.970699 
3921.000000	97.970252 
3920.000000	97.969557 
3919.000000	97.969960 
3918.000000	97.971368 
3917.000000	97.972395 
3916.000000	97.972584 
3915.000000	97.972647 
3914.000000	97.972875 
3913.000000	97.972715 
3912.000000	97.972063 
3911.000000	97.971168 
3910.000000	97.970273 
3909.000000	97.969471 
3908.000000	97.968840 
3907.000000	97.968425 
3906.000000	97.968125 
3905.000000	97.967832 
3904.000000	97.967568 
3903.000000	97.967366 
3902.000000	97.967232 
3901.000000	97.967153 
3900.000000	97.967097 
3899.000000	97.967026 
3898.000000	97.966917 
3897.000000	97.966768 
3896.000000	97.966589 
3895.000000	97.966376 
3894.000000	97.966118 
3893.000000	97.965818 
3892.000000	97.965493 
3891.000000	97.965158 
3890.000000	97.964837 
3889.000000	97.964555 
3888.000000	97.964320 
3887.000000	97.964115 
3886.000000	97.963926 
3885.000000	97.963751 
3884.000000	97.963603 
3883.000000	97.963476 
3882.000000	97.963352 
3881.000000	97.963220 
3880.000000	97.963092 
3879.000000	97.962985 
3878.000000	97.962903 
3877.000000	97.962826 
3876.000000	97.962730 
3875.000000	97.962614 
3874.000000	97.962502 
3873.000000	97.962418 
3872.000000	97.962373 
3871.000000	97.962353 
3870.000000	97.962354 
3869.000000	97.962401 
3868.000000	97.962524 
3867.000000	97.962707 
3866.000000	97.962905 
3865.000000	97.963102 
3864.000000	97.963313 
3863.000000	97.963534 
3862.000000	97.963734 
3861.000000	97.963890 
3860.000000	97.964010 
3859.000000	97.964116 
3858.000000	97.964220 
3857.000000	97.964342 
3856.000000	97.964530 
3855.000000	97.964831 
3854.000000	97.965245 
3853.000000	97.965735 
3852.000000	97.966314 
3851.000000	97.967032 
3850.000000	97.967872 
3849.000000	97.968770 
3848.000000	97.969669 
3847.000000	97.970540 
3846.000000	97.971379 
3845.000000	97.972195 
3844.000000	97.973001 
3843.000000	97.973796 
3842.000000	97.974577 
3841.000000	97.975358 
3840.000000	97.976156 
3839.000000	97.976979 
3838.000000	97.977811 
3837.000000	97.978643 
3836.000000	97.979478 
3835.000000	97.980331 
3834.000000	97.981206 
3833.000000	97.982095 
3832.000000	97.982985 
3831.000000	97.983872 
3830.000000	97.984755 
3829.000000	97.985636 
3828.000000	97.986513 
3827.000000	97.987377 
3826.000000	97.988212 
3825.000000	97.989021 
3824.000000	97.989824 
3823.000000	97.990628 
3822.000000	97.991420 
3821.000000	97.992184 
3820.000000	97.992950 
3819.000000	97.993765 
3818.000000	97.994628 
3817.000000	97.995488 
3816.000000	97.996318 
3815.000000	97.997132 
3814.000000	97.997954 
3813.000000	97.998767 
3812.000000	97.999528 
3811.000000	98.000233 
3810.000000	98.000900 
3809.000000	98.001519 
3808.000000	98.002056 
3807.000000	98.002506 
3806.000000	98.002916 
3805.000000	98.003351 
3804.000000	98.003834 
3803.000000	98.004337 
3802.000000	98.004832 
3801.000000	98.005319 
3800.000000	98.005828 
3799.000000	98.006367 
3798.000000	98.006896 
3797.000000	98.007370 
3796.000000	98.007779 
3795.000000	98.008133 
3794.000000	98.008434 
3793.000000	98.008675 
3792.000000	98.008844 
3791.000000	98.008936 
3790.000000	98.008949 
3789.000000	98.008888 
3788.000000	98.008764 
3787.000000	98.008584 
3786.000000	98.008344 
3785.000000	98.008039 
3784.000000	98.007692 
3783.000000	98.007328 
3782.000000	98.006946 
3781.000000	98.006521 
3780.000000	98.006038 
3779.000000	98.005504 
3778.000000	98.004923 
3777.000000	98.004284 
3776.000000	98.003577 
3775.000000	98.002815 
3774.000000	98.002027 
3773.000000	98.001218 
3772.000000	98.000372 
3771.000000	97.999467 
3770.000000	97.998508 
3769.000000	97.997514 
3768.000000	97.996500 
3767.000000	97.995468 
3766.000000	97.994418 
3765.000000	97.993364 
3764.000000	97.992320 
3763.000000	97.991271 
3762.000000	97.990180 
3761.000000	97.989025 
3760.000000	97.987813 
3759.000000	97.986558 
3758.000000	97.985251 
3757.000000	97.983879 
3756.000000	97.982459 
3755.000000	97.981036 
3754.000000	97.979658 
3753.000000	97.978356 
3752.000000	97.977134 
3751.000000	97.975973 
3750.000000	97.974840 
3749.000000	97.973727 
3748.000000	97.972661 
3747.000000	97.971652 
3746.000000	97.970678 
3745.000000	97.969702 
3744.000000	97.968699 
3743.000000	97.967678 
3742.000000	97.966649 
3741.000000	97.965592 
3740.000000	97.964395 
3739.000000	97.962963 
3738.000000	97.961457 
3737.000000	97.960052 
3736.000000	97.958659 
3735.000000	97.957332 
3734.000000	97.956391 
3733.000000	97.955507 
3732.000000	97.953755 
3731.000000	97.951284 
3730.000000	97.949508 
3729.000000	97.948759 
3728.000000	97.947626 
3727.000000	97.945295 
3726.000000	97.942879 
3725.000000	97.941970 
3724.000000	97.942103 
3723.000000	97.941232 
3722.000000	97.938687 
3721.000000	97.935416 
3720.000000	97.932321 
3719.000000	97.928902 
3718.000000	97.924142 
3717.000000	97.918537 
3716.000000	97.913818 
3715.000000	97.910842 
3714.000000	97.909230 
3713.000000	97.909404 
3712.000000	97.910772 
3711.000000	97.909547 
3710.000000	97.903606 
3709.000000	97.894564 
3708.000000	97.884190 
3707.000000	97.873382 
3706.000000	97.863215 
3705.000000	97.854635 
3704.000000	97.847527 
3703.000000	97.840890 
3702.000000	97.833218 
3701.000000	97.823891 
3700.000000	97.815015 
3699.000000	97.808550 
3698.000000	97.802825 
3697.000000	97.795698 
3696.000000	97.788009 
3695.000000	97.781551 
3694.000000	97.775588 
3693.000000	97.768075 
3692.000000	97.759105 
3691.000000	97.750261 
3690.000000	97.741591 
3689.000000	97.731369 
3688.000000	97.720119 
3687.000000	97.711436 
3686.000000	97.706151 
3685.000000	97.700563 
3684.000000	97.692063 
3683.000000	97.681844 
3682.000000	97.671665 
3681.000000	97.661009 
3680.000000	97.648638 
3679.000000	97.635684 
3678.000000	97.624166 
3677.000000	97.613959 
3676.000000	97.602723 
3675.000000	97.589286 
3674.000000	97.576412 
3673.000000	97.566177 
3672.000000	97.556483 
3671.000000	97.545184 
3670.000000	97.532577 
3669.000000	97.519844 
3668.000000	97.508629 
3667.000000	97.498961 
3666.000000	97.488910 
3665.000000	97.477777 
3664.000000	97.466428 
3663.000000	97.455072 
3662.000000	97.442406 
3661.000000	97.427345 
3660.000000	97.410966 
3659.000000	97.396209 
3658.000000	97.384350 
3657.000000	97.372463 
3656.000000	97.355746 
3655.000000	97.336791 
3654.000000	97.322119 
3653.000000	97.307820 
3652.000000	97.287272 
3651.000000	97.266736 
3650.000000	97.255081 
3649.000000	97.246594 
3648.000000	97.232831 
3647.000000	97.218630 
3646.000000	97.213317 
3645.000000	97.216563 
3644.000000	97.219936 
3643.000000	97.216996 
3642.000000	97.208969 
3641.000000	97.200376 
3640.000000	97.191865 
3639.000000	97.179821 
3638.000000	97.163162 
3637.000000	97.147591 
3636.000000	97.136013 
3635.000000	97.121270 
3634.000000	97.095331 
3633.000000	97.062769 
3632.000000	97.035985 
3631.000000	97.021158 
3630.000000	97.018115 
3629.000000	97.014001 
3628.000000	96.999718 
3627.000000	96.996379 
3626.000000	97.009998 
3625.000000	97.015830 
3624.000000	97.004815 
3623.000000	96.987931 
3622.000000	96.973525 
3621.000000	96.961770 
3620.000000	96.952902 
3619.000000	96.948940 
3618.000000	96.952345 
3617.000000	96.966324 
3616.000000	96.987670 
3615.000000	97.007949 
3614.000000	97.023124 
3613.000000	97.035367 
3612.000000	97.049000 
3611.000000	97.065101 
3610.000000	97.079787 
3609.000000	97.089175 
3608.000000	97.093484 
3607.000000	97.095839 
3606.000000	97.098902 
3605.000000	97.102994 
3604.000000	97.109209 
3603.000000	97.120353 
3602.000000	97.134613 
3601.000000	97.144241 
3600.000000	97.144554 
3599.000000	97.139136 
3598.000000	97.134153 
3597.000000	97.134540 
3596.000000	97.142009 
3595.000000	97.152862 
3594.000000	97.159986 
3593.000000	97.159364 
3592.000000	97.152124 
3591.000000	97.141143 
3590.000000	97.130500 
3589.000000	97.125802 
3588.000000	97.130134 
3587.000000	97.140689 
3586.000000	97.154197 
3585.000000	97.168406 
3584.000000	97.179537 
3583.000000	97.186230 
3582.000000	97.190940 
3581.000000	97.195602 
3580.000000	97.199447 
3579.000000	97.201326 
3578.000000	97.201491 
3577.000000	97.201255 
3576.000000	97.201628 
3575.000000	97.202026 
3574.000000	97.200952 
3573.000000	97.197177 
3572.000000	97.190551 
3571.000000	97.181941 
3570.000000	97.173220 
3569.000000	97.167235 
3568.000000	97.166793 
3567.000000	97.172178 
3566.000000	97.181058 
3565.000000	97.190589 
3564.000000	97.197284 
3563.000000	97.199044 
3562.000000	97.197608 
3561.000000	97.196527 
3560.000000	97.197562 
3559.000000	97.199853 
3558.000000	97.201661 
3557.000000	97.202033 
3556.000000	97.201525 
3555.000000	97.201359 
3554.000000	97.201934 
3553.000000	97.202340 
3552.000000	97.201432 
3551.000000	97.199085 
3550.000000	97.195789 
3549.000000	97.191969 
3548.000000	97.188724 
3547.000000	97.187727 
3546.000000	97.189125 
3545.000000	97.191164 
3544.000000	97.192469 
3543.000000	97.193189 
3542.000000	97.193907 
3541.000000	97.194605 
3540.000000	97.195034 
3539.000000	97.195098 
3538.000000	97.194729 
3537.000000	97.193930 
3536.000000	97.192899 
3535.000000	97.191901 
3534.000000	97.190816 
3533.000000	97.189432 
3532.000000	97.188065 
3531.000000	97.187403 
3530.000000	97.187351 
3529.000000	97.186643 
3528.000000	97.184246 
3527.000000	97.180673 
3526.000000	97.177493 
3525.000000	97.175764 
3524.000000	97.175576 
3523.000000	97.176506 
3522.000000	97.177893 
3521.000000	97.178875 
3520.000000	97.178860 
3519.000000	97.178001 
3518.000000	97.176815 
3517.000000	97.175378 
3516.000000	97.173222 
3515.000000	97.170186 
3514.000000	97.167059 
3513.000000	97.164944 
3512.000000	97.163994 
3511.000000	97.163268 
3510.000000	97.161783 
3509.000000	97.159503 
3508.000000	97.157173 
3507.000000	97.155307 
3506.000000	97.153581 
3505.000000	97.151430 
3504.000000	97.148959 
3503.000000	97.146896 
3502.000000	97.145755 
3501.000000	97.145319 
3500.000000	97.144940 
3499.000000	97.144186 
3498.000000	97.143089 
3497.000000	97.141791 
3496.000000	97.140216 
3495.000000	97.138194 
3494.000000	97.135828 
3493.000000	97.133573 
3492.000000	97.131816 
3491.000000	97.130491 
3490.000000	97.129196 
3489.000000	97.127602 
3488.000000	97.125682 
3487.000000	97.123606 
3486.000000	97.121544 
3485.000000	97.119615 
3484.000000	97.117869 
3483.000000	97.116244 
3482.000000	97.114593 
3481.000000	97.112860 
3480.000000	97.111142 
3479.000000	97.109474 
3478.000000	97.107708 
3477.000000	97.105668 
3476.000000	97.103342 
3475.000000	97.100858 
3474.000000	97.098398 
3473.000000	97.096128 
3472.000000	97.094145 
3471.000000	97.092415 
3470.000000	97.090767 
3469.000000	97.089010 
3468.000000	97.087131 
3467.000000	97.085319 
3466.000000	97.083772 
3465.000000	97.082421 
3464.000000	97.080863 
3463.000000	97.078717 
3462.000000	97.076007 
3461.000000	97.073196 
3460.000000	97.070769 
3459.000000	97.068749 
3458.000000	97.066715 
3457.000000	97.064274 
3456.000000	97.061481 
3455.000000	97.058875 
3454.000000	97.056999 
3453.000000	97.055962 
3452.000000	97.055378 
3451.000000	97.054664 
3450.000000	97.053340 
3449.000000	97.051141 
3448.000000	97.048183 
3447.000000	97.045020 
3446.000000	97.042272 
3445.000000	97.040140 
3444.000000	97.038406 
3443.000000	97.036895 
3442.000000	97.035635 
3441.000000	97.034446 
3440.000000	97.032778 
3439.000000	97.030159 
3438.000000	97.026693 
3437.000000	97.022995 
3436.000000	97.019744 
3435.000000	97.017489 
3434.000000	97.016488 
3433.000000	97.016442 
3432.000000	97.016556 
3431.000000	97.016199 
3430.000000	97.015356 
3429.000000	97.014311 
3428.000000	97.013144 
3427.000000	97.011736 
3426.000000	97.010221 
3425.000000	97.009114 
3424.000000	97.008786 
3423.000000	97.008878 
3422.000000	97.008502 
3421.000000	97.007170 
3420.000000	97.005260 
3419.000000	97.003526 
3418.000000	97.002282 
3417.000000	97.001294 
3416.000000	97.000290 
3415.000000	96.999206 
3414.000000	96.997992 
3413.000000	96.996527 
3412.000000	96.994895 
3411.000000	96.993501 
3410.000000	96.992750 
3409.000000	96.992683 
3408.000000	96.992970 
3407.000000	96.993103 
3406.000000	96.992671 
3405.000000	96.991560 
3404.000000	96.989959 
3403.000000	96.988222 
3402.000000	96.986679 
3401.000000	96.985572 
3400.000000	96.985043 
3399.000000	96.985013 
3398.000000	96.985120 
3397.000000	96.984964 
3396.000000	96.984459 
3395.000000	96.983827 
3394.000000	96.983296 
3393.000000	96.982902 
3392.000000	96.982563 
3391.000000	96.982229 
3390.000000	96.981924 
3389.000000	96.981714 
3388.000000	96.981682 
3387.000000	96.981871 
3386.000000	96.982187 
3385.000000	96.982383 
3384.000000	96.982196 
3383.000000	96.981575 
3382.000000	96.980808 
3381.000000	96.980389 
3380.000000	96.980597 
3379.000000	96.981268 
3378.000000	96.981965 
3377.000000	96.982479 
3376.000000	96.982991 
3375.000000	96.983650 
3374.000000	96.984186 
3373.000000	96.984149 
3372.000000	96.983452 
3371.000000	96.982559 
3370.000000	96.982101 
3369.000000	96.982361 
3368.000000	96.983170 
3367.000000	96.984134 
3366.000000	96.984938 
3365.000000	96.985505 
3364.000000	96.985928 
3363.000000	96.986279 
3362.000000	96.986515 
3361.000000	96.986606 
3360.000000	96.986723 
3359.000000	96.987168 
3358.000000	96.988087 
3357.000000	96.989307 
3356.000000	96.990491 
3355.000000	96.991421 
3354.000000	96.992139 
3353.000000	96.992908 
3352.000000	96.994028 
3351.000000	96.995601 
3350.000000	96.997409 
3349.000000	96.999065 
3348.000000	97.000328 
3347.000000	97.001296 
3346.000000	97.002238 
3345.000000	97.003268 
3344.000000	97.004153 
3343.000000	97.004514 
3342.000000	97.004285 
3341.000000	97.003969 
3340.000000	97.004190 
3339.000000	97.004987 
3338.000000	97.005884 
3337.000000	97.006547 
3336.000000	97.007180 
3335.000000	97.008165 
3334.000000	97.009525 
3333.000000	97.010890 
3332.000000	97.011908 
3331.000000	97.012512 
3330.000000	97.012816 
3329.000000	97.012960 
3328.000000	97.013094 
3327.000000	97.013423 
3326.000000	97.014108 
3325.000000	97.015112 
3324.000000	97.016194 
3323.000000	97.017084 
3322.000000	97.017699 
3321.000000	97.018200 
3320.000000	97.018824 
3319.000000	97.019674 
3318.000000	97.020683 
3317.000000	97.021711 
3316.000000	97.022627 
3315.000000	97.023319 
3314.000000	97.023716 
3313.000000	97.023880 
3312.000000	97.024012 
3311.000000	97.024295 
3310.000000	97.024780 
3309.000000	97.025375 
3308.000000	97.025918 
3307.000000	97.026228 
3306.000000	97.026231 
3305.000000	97.026092 
3304.000000	97.026188 
3303.000000	97.026833 
3302.000000	97.028045 
3301.000000	97.029540 
3300.000000	97.030868 
3299.000000	97.031608 
3298.000000	97.031548 
3297.000000	97.030881 
3296.000000	97.030257 
3295.000000	97.030334 
3294.000000	97.031297 
3293.000000	97.032882 
3292.000000	97.034753 
3291.000000	97.036751 
3290.000000	97.038719 
3289.000000	97.040348 
3288.000000	97.041387 
3287.000000	97.041891 
3286.000000	97.042112 
3285.000000	97.042176 
3284.000000	97.042060 
3283.000000	97.041857 
3282.000000	97.041904 
3281.000000	97.042467 
3280.000000	97.043295 
3279.000000	97.043737 
3278.000000	97.043484 
3277.000000	97.043070 
3276.000000	97.043298 
3275.000000	97.044207 
3274.000000	97.045003 
3273.000000	97.045213 
3272.000000	97.045497 
3271.000000	97.046904 
3270.000000	97.049584 
3269.000000	97.052504 
3268.000000	97.054417 
3267.000000	97.054971 
3266.000000	97.054858 
3265.000000	97.055224 
3264.000000	97.056741 
3263.000000	97.059092 
3262.000000	97.061334 
3261.000000	97.062849 
3260.000000	97.063696 
3259.000000	97.064049 
3258.000000	97.063770 
3257.000000	97.062890 
3256.000000	97.062127 
3255.000000	97.062187 
3254.000000	97.062700 
3253.000000	97.062680 
3252.000000	97.062075 
3251.000000	97.062070 
3250.000000	97.063498 
3249.000000	97.065693 
3248.000000	97.067284 
3247.000000	97.067903 
3246.000000	97.068495 
3245.000000	97.070021 
3244.000000	97.072373 
3243.000000	97.074629 
3242.000000	97.076095 
3241.000000	97.076904 
3240.000000	97.077702 
3239.000000	97.078949 
3238.000000	97.080626 
3237.000000	97.082497 
3236.000000	97.084474 
3235.000000	97.086590 
3234.000000	97.088642 
3233.000000	97.090173 
3232.000000	97.090946 
3231.000000	97.091329 
3230.000000	97.091986 
3229.000000	97.093172 
3228.000000	97.094569 
3227.000000	97.095924 
3226.000000	97.097608 
3225.000000	97.100211 
3224.000000	97.103676 
3223.000000	97.107176 
3222.000000	97.109912 
3221.000000	97.111776 
3220.000000	97.113161 
3219.000000	97.114365 
3218.000000	97.115472 
3217.000000	97.116546 
3216.000000	97.117685 
3215.000000	97.119047 
3214.000000	97.120932 
3213.000000	97.123575 
3212.000000	97.126649 
3211.000000	97.129236 
3210.000000	97.130621 
3209.000000	97.131014 
3208.000000	97.131280 
3207.000000	97.132005 
3206.000000	97.133088 
3205.000000	97.134313 
3204.000000	97.135925 
3203.000000	97.138385 
3202.000000	97.141716 
3201.000000	97.145284 
3200.000000	97.148318 
3199.000000	97.150632 
3198.000000	97.152731 
3197.000000	97.155125 
3196.000000	97.157633 
3195.000000	97.159597 
3194.000000	97.160831 
3193.000000	97.162063 
3192.000000	97.164219 
3191.000000	97.167442 
3190.000000	97.171005 
3189.000000	97.174156 
3188.000000	97.176812 
3187.000000	97.179416 
3186.000000	97.182375 
3185.000000	97.185631 
3184.000000	97.188718 
3183.000000	97.191313 
3182.000000	97.193602 
3181.000000	97.196007 
3180.000000	97.198656 
3179.000000	97.201327 
3178.000000	97.203866 
3177.000000	97.206391 
3176.000000	97.209074 
3175.000000	97.211920 
3174.000000	97.214820 
3173.000000	97.217673 
3172.000000	97.220431 
3171.000000	97.223108 
3170.000000	97.225762 
3169.000000	97.228445 
3168.000000	97.231161 
3167.000000	97.233895 
3166.000000	97.236640 
3165.000000	97.239387 
3164.000000	97.242132 
3163.000000	97.244867 
3162.000000	97.247592 
3161.000000	97.250307 
3160.000000	97.253013 
3159.000000	97.255717 
3158.000000	97.258423 
3157.000000	97.261133 
3156.000000	97.263852 
3155.000000	97.266579 
3154.000000	97.269315 
3153.000000	97.272064 
3152.000000	97.274830 
3151.000000	97.277611 
3150.000000	97.280398 
3149.000000	97.283181 
3148.000000	97.285956 
3147.000000	97.288729 
3146.000000	97.291509 
3145.000000	97.294298 
3144.000000	97.297089 
3143.000000	97.299872 
3142.000000	97.302637 
3141.000000	97.305387 
3140.000000	97.308130 
3139.000000	97.310875 
3138.000000	97.313623 
3137.000000	97.316397 
3136.000000	97.319212 
3135.000000	97.322042 
3134.000000	97.324831 
3133.000000	97.327544 
3132.000000	97.330194 
3131.000000	97.332787 
3130.000000	97.335304 
3129.000000	97.337809 
3128.000000	97.340499 
3127.000000	97.343540 
3126.000000	97.346872 
3125.000000	97.350211 
3124.000000	97.353281 
3123.000000	97.355966 
3122.000000	97.358282 
3121.000000	97.360364 
3120.000000	97.362458 
3119.000000	97.364789 
3118.000000	97.367420 
3117.000000	97.370325 
3116.000000	97.373528 
3115.000000	97.377058 
3114.000000	97.380817 
3113.000000	97.384644 
3112.000000	97.388484 
3111.000000	97.392365 
3110.000000	97.396165 
3109.000000	97.399566 
3108.000000	97.402370 
3107.000000	97.404769 
3106.000000	97.407178 
3105.000000	97.409748 
3104.000000	97.412152 
3103.000000	97.413922 
3102.000000	97.414941 
3101.000000	97.415578 
3100.000000	97.416343 
3099.000000	97.417561 
3098.000000	97.419485 
3097.000000	97.422545 
3096.000000	97.426997 
3095.000000	97.432196 
3094.000000	97.436832 
3093.000000	97.440061 
3092.000000	97.442153 
3091.000000	97.443880 
3090.000000	97.445607 
3089.000000	97.447277 
3088.000000	97.448889 
3087.000000	97.450657 
3086.000000	97.452813 
3085.000000	97.455374 
3084.000000	97.458064 
3083.000000	97.460496 
3082.000000	97.462532 
3081.000000	97.464427 
3080.000000	97.466528 
3079.000000	97.468868 
3078.000000	97.471262 
3077.000000	97.473693 
3076.000000	97.476344 
3075.000000	97.479203 
3074.000000	97.481915 
3073.000000	97.484190 
3072.000000	97.486137 
3071.000000	97.487987 
3070.000000	97.489714 
3069.000000	97.491219 
3068.000000	97.492759 
3067.000000	97.494781 
3066.000000	97.497310 
3065.000000	97.499803 
3064.000000	97.501763 
3063.000000	97.503198 
3062.000000	97.504386 
3061.000000	97.505494 
3060.000000	97.506629 
3059.000000	97.507983 
3058.000000	97.509745 
3057.000000	97.511981 
3056.000000	97.514588 
3055.000000	97.517074 
3054.000000	97.518552 
3053.000000	97.518500 
3052.000000	97.517712 
3051.000000	97.517990 
3050.000000	97.520365 
3049.000000	97.524001 
3048.000000	97.526970 
3047.000000	97.528052 
3046.000000	97.527360 
3045.000000	97.525790 
3044.000000	97.524442 
3043.000000	97.524365 
3042.000000	97.526167 
3041.000000	97.529426 
3040.000000	97.532613 
3039.000000	97.534132 
3038.000000	97.533512 
3037.000000	97.531592 
3036.000000	97.529666 
3035.000000	97.528358 
3034.000000	97.527434 
3033.000000	97.526537 
3032.000000	97.525755 
3031.000000	97.525386 
3030.000000	97.525508 
3029.000000	97.525975 
3028.000000	97.526477 
3027.000000	97.526321 
3026.000000	97.524626 
3025.000000	97.521298 
3024.000000	97.517556 
3023.000000	97.514772 
3022.000000	97.512979 
3021.000000	97.511370 
3020.000000	97.509956 
3019.000000	97.509441 
3018.000000	97.509301 
3017.000000	97.507398 
3016.000000	97.502354 
3015.000000	97.495477 
3014.000000	97.489755 
3013.000000	97.487366 
3012.000000	97.488453 
3011.000000	97.491332 
3010.000000	97.493244 
3009.000000	97.491854 
3008.000000	97.486848 
3007.000000	97.479973 
3006.000000	97.473092 
3005.000000	97.466649 
3004.000000	97.460541 
3003.000000	97.455632 
3002.000000	97.453439 
3001.000000	97.454474 
3000.000000	97.457407 
2999.000000	97.459636 
2998.000000	97.458616 
2997.000000	97.453304 
2996.000000	97.444966 
2995.000000	97.436470 
2994.000000	97.430207 
2993.000000	97.426658 
2992.000000	97.424770 
2991.000000	97.423116 
2990.000000	97.420682 
2989.000000	97.417371 
2988.000000	97.414288 
2987.000000	97.413018 
2986.000000	97.414248 
2985.000000	97.417333 
2984.000000	97.421245 
2983.000000	97.425453 
2982.000000	97.429797 
2981.000000	97.434027 
2980.000000	97.437560 
2979.000000	97.439252 
2978.000000	97.437717 
2977.000000	97.432911 
2976.000000	97.427520 
2975.000000	97.425526 
2974.000000	97.428816 
2973.000000	97.435861 
2972.000000	97.443775 
2971.000000	97.450900 
2970.000000	97.456986 
2969.000000	97.462125 
2968.000000	97.466538 
2967.000000	97.470659 
2966.000000	97.474575 
2965.000000	97.477909 
2964.000000	97.480814 
2963.000000	97.484411 
2962.000000	97.489497 
2961.000000	97.495426 
2960.000000	97.501036 
2959.000000	97.506187 
2958.000000	97.511559 
2957.000000	97.517256 
2956.000000	97.522349 
2955.000000	97.525728 
2954.000000	97.527070 
2953.000000	97.527274 
2952.000000	97.528248 
2951.000000	97.531669 
2950.000000	97.537220 
2949.000000	97.542439 
2948.000000	97.544956 
2947.000000	97.544640 
2946.000000	97.543340 
2945.000000	97.543026 
2944.000000	97.544607 
2943.000000	97.547940 
2942.000000	97.552009 
2941.000000	97.555306 
2940.000000	97.557023 
2939.000000	97.558123 
2938.000000	97.560538 
2937.000000	97.564969 
2936.000000	97.569897 
2935.000000	97.573030 
2934.000000	97.573320 
2933.000000	97.571373 
2932.000000	97.568629 
2931.000000	97.566632 
2930.000000	97.566614 
2929.000000	97.569105 
2928.000000	97.573557 
2927.000000	97.578452 
2926.000000	97.582140 
2925.000000	97.583896 
2924.000000	97.584343 
2923.000000	97.584840 
2922.000000	97.586214 
2921.000000	97.588057 
2920.000000	97.589432 
2919.000000	97.590086 
2918.000000	97.590508 
2917.000000	97.590740 
2916.000000	97.589834 
2915.000000	97.587115 
2914.000000	97.583767 
2913.000000	97.582276 
2912.000000	97.583882 
2911.000000	97.587037 
2910.000000	97.588801 
2909.000000	97.587841 
2908.000000	97.585565 
2907.000000	97.584216 
2906.000000	97.584376 
2905.000000	97.584667 
2904.000000	97.583572 
2903.000000	97.581276 
2902.000000	97.579634 
2901.000000	97.580540 
2900.000000	97.584225 
2899.000000	97.589214 
2898.000000	97.593826 
2897.000000	97.597600 
2896.000000	97.600968 
2895.000000	97.603798 
2894.000000	97.605422 
2893.000000	97.606380 
2892.000000	97.608797 
2891.000000	97.613860 
2890.000000	97.619777 
2889.000000	97.623732 
2888.000000	97.625446 
2887.000000	97.627036 
2886.000000	97.629481 
2885.000000	97.631343 
2884.000000	97.631771 
2883.000000	97.632607 
2882.000000	97.635878 
2881.000000	97.640694 
2880.000000	97.644651 
2879.000000	97.647565 
2878.000000	97.651521 
2877.000000	97.657230 
2876.000000	97.662535 
2875.000000	97.665288 
2874.000000	97.666093 
2873.000000	97.667099 
2872.000000	97.669153 
2871.000000	97.671375 
2870.000000	97.673015 
2869.000000	97.674436 
2868.000000	97.676326 
2867.000000	97.678906 
2866.000000	97.682061 
2865.000000	97.685623 
2864.000000	97.689420 
2863.000000	97.693558 
2862.000000	97.698742 
2861.000000	97.705677 
2860.000000	97.713942 
2859.000000	97.722045 
2858.000000	97.729002 
2857.000000	97.735400 
2856.000000	97.742364 
2855.000000	97.749642 
2854.000000	97.755402 
2853.000000	97.758088 
2852.000000	97.757901 
2851.000000	97.756429 
2850.000000	97.755308 
2849.000000	97.755444 
2848.000000	97.757131 
2847.000000	97.760148 
2846.000000	97.763616 
2845.000000	97.766393 
2844.000000	97.768070 
2843.000000	97.769376 
2842.000000	97.771370 
2841.000000	97.774233 
2840.000000	97.777027 
2839.000000	97.778710 
2838.000000	97.779279 
2837.000000	97.779862 
2836.000000	97.781666 
2835.000000	97.784891 
2834.000000	97.788780 
2833.000000	97.792656 
2832.000000	97.796555 
2831.000000	97.800623 
2830.000000	97.804184 
2829.000000	97.806027 
2828.000000	97.805745 
2827.000000	97.804449 
2826.000000	97.803982 
2825.000000	97.805370 
2824.000000	97.808162 
2823.000000	97.810991 
2822.000000	97.812663 
2821.000000	97.812912 
2820.000000	97.812392 
2819.000000	97.812060 
2818.000000	97.812451 
2817.000000	97.813487 
2816.000000	97.814873 
2815.000000	97.816450 
2814.000000	97.818110 
2813.000000	97.819557 
2812.000000	97.820417 
2811.000000	97.820615 
2810.000000	97.820544 
2809.000000	97.820841 
2808.000000	97.821907 
2807.000000	97.823678 
2806.000000	97.825752 
2805.000000	97.827703 
2804.000000	97.829311 
2803.000000	97.830528 
2802.000000	97.831401 
2801.000000	97.832112 
2800.000000	97.832930 
2799.000000	97.834001 
2798.000000	97.835214 
2797.000000	97.836339 
2796.000000	97.837286 
2795.000000	97.838149 
2794.000000	97.839054 
2793.000000	97.840032 
2792.000000	97.841046 
2791.000000	97.842056 
2790.000000	97.843037 
2789.000000	97.843983 
2788.000000	97.844919 
2787.000000	97.845881 
2786.000000	97.846883 
2785.000000	97.847915 
2784.000000	97.848961 
2783.000000	97.850006 
2782.000000	97.851042 
2781.000000	97.852067 
2780.000000	97.853089 
2779.000000	97.854122 
2778.000000	97.855165 
2777.000000	97.856204 
2776.000000	97.857214 
2775.000000	97.858193 
2774.000000	97.859171 
2773.000000	97.860172 
2772.000000	97.861179 
2771.000000	97.862149 
2770.000000	97.863078 
2769.000000	97.864028 
2768.000000	97.865058 
2767.000000	97.866152 
2766.000000	97.867218 
2765.000000	97.868172 
2764.000000	97.869013 
2763.000000	97.869823 
2762.000000	97.870666 
2761.000000	97.871513 
2760.000000	97.872319 
2759.000000	97.873131 
2758.000000	97.874054 
2757.000000	97.875092 
2756.000000	97.876065 
2755.000000	97.876818 
2754.000000	97.877421 
2753.000000	97.878101 
2752.000000	97.878971 
2751.000000	97.879912 
2750.000000	97.880771 
2749.000000	97.881568 
2748.000000	97.882391 
2747.000000	97.883147 
2746.000000	97.883647 
2745.000000	97.883887 
2744.000000	97.884106 
2743.000000	97.884547 
2742.000000	97.885234 
2741.000000	97.886022 
2740.000000	97.886772 
2739.000000	97.887438 
2738.000000	97.888019 
2737.000000	97.888529 
2736.000000	97.889037 
2735.000000	97.889645 
2734.000000	97.890385 
2733.000000	97.891193 
2732.000000	97.891977 
2731.000000	97.892705 
2730.000000	97.893406 
2729.000000	97.894116 
2728.000000	97.894826 
2727.000000	97.895491 
2726.000000	97.896083 
2725.000000	97.896634 
2724.000000	97.897196 
2723.000000	97.897784 
2722.000000	97.898381 
2721.000000	97.898975 
2720.000000	97.899565 
2719.000000	97.900151 
2718.000000	97.900736 
2717.000000	97.901319 
2716.000000	97.901897 
2715.000000	97.902471 
2714.000000	97.903047 
2713.000000	97.903627 
2712.000000	97.904215 
2711.000000	97.904804 
2710.000000	97.905391 
2709.000000	97.905976 
2708.000000	97.906565 
2707.000000	97.907161 
2706.000000	97.907765 
2705.000000	97.908370 
2704.000000	97.908967 
2703.000000	97.909554 
2702.000000	97.910127 
2701.000000	97.910690 
2700.000000	97.911244 
2699.000000	97.911787 
2698.000000	97.912316 
2697.000000	97.912825 
2696.000000	97.913308 
2695.000000	97.913764 
2694.000000	97.914191 
2693.000000	97.914591 
2692.000000	97.914964 
2691.000000	97.915312 
2690.000000	97.915637 
2689.000000	97.915948 
2688.000000	97.916246 
2687.000000	97.916534 
2686.000000	97.916810 
2685.000000	97.917073 
2684.000000	97.917321 
2683.000000	97.917548 
2682.000000	97.917748 
2681.000000	97.917918 
2680.000000	97.918058 
2679.000000	97.918177 
2678.000000	97.918282 
2677.000000	97.918376 
2676.000000	97.918461 
2675.000000	97.918543 
2674.000000	97.918619 
2673.000000	97.918669 
2672.000000	97.918681 
2671.000000	97.918665 
2670.000000	97.918628 
2669.000000	97.918559 
2668.000000	97.918471 
2667.000000	97.918407 
2666.000000	97.918395 
2665.000000	97.918381 
2664.000000	97.918270 
2663.000000	97.918039 
2662.000000	97.917780 
2661.000000	97.917593 
2660.000000	97.917469 
2659.000000	97.917314 
2658.000000	97.917072 
2657.000000	97.916781 
2656.000000	97.916524 
2655.000000	97.916334 
2654.000000	97.916144 
2653.000000	97.915842 
2652.000000	97.915405 
2651.000000	97.914986 
2650.000000	97.914804 
2649.000000	97.914946 
2648.000000	97.915279 
2647.000000	97.915531 
2646.000000	97.915457 
2645.000000	97.914924 
2644.000000	97.913971 
2643.000000	97.912879 
2642.000000	97.912039 
2641.000000	97.911649 
2640.000000	97.911592 
2639.000000	97.911677 
2638.000000	97.911881 
2637.000000	97.912243 
2636.000000	97.912658 
2635.000000	97.912992 
2634.000000	97.913267 
2633.000000	97.913548 
2632.000000	97.913666 
2631.000000	97.913340 
2630.000000	97.912633 
2629.000000	97.912064 
2628.000000	97.912084 
2627.000000	97.912588 
2626.000000	97.913073 
2625.000000	97.913246 
2624.000000	97.913297 
2623.000000	97.913548 
2622.000000	97.913962 
2621.000000	97.914140 
2620.000000	97.913743 
2619.000000	97.912776 
2618.000000	97.911582 
2617.000000	97.910648 
2616.000000	97.910314 
2615.000000	97.910598 
2614.000000	97.911202 
2613.000000	97.911713 
2612.000000	97.911888 
2611.000000	97.911781 
2610.000000	97.911680 
2609.000000	97.911867 
2608.000000	97.912385 
2607.000000	97.913008 
2606.000000	97.913513 
2605.000000	97.913925 
2604.000000	97.914368 
2603.000000	97.914781 
2602.000000	97.914992 
2601.000000	97.915052 
2600.000000	97.915209 
2599.000000	97.915491 
2598.000000	97.915618 
2597.000000	97.915428 
2596.000000	97.915091 
2595.000000	97.914804 
2594.000000	97.914498 
2593.000000	97.914142 
2592.000000	97.914139 
2591.000000	97.914917 
2590.000000	97.916243 
2589.000000	97.917273 
2588.000000	97.917530 
2587.000000	97.917394 
2586.000000	97.917521 
2585.000000	97.918068 
2584.000000	97.918756 
2583.000000	97.919390 
2582.000000	97.919920 
2581.000000	97.920238 
2580.000000	97.920319 
2579.000000	97.920458 
2578.000000	97.921013 
2577.000000	97.921898 
2576.000000	97.922585 
2575.000000	97.922682 
2574.000000	97.922289 
2573.000000	97.921802 
2572.000000	97.921520 
2571.000000	97.921472 
2570.000000	97.921539 
2569.000000	97.921651 
2568.000000	97.921896 
2567.000000	97.922353 
2566.000000	97.922840 
2565.000000	97.923041 
2564.000000	97.922945 
2563.000000	97.922938 
2562.000000	97.923305 
2561.000000	97.923923 
2560.000000	97.924653 
2559.000000	97.925709 
2558.000000	97.927262 
2557.000000	97.928871 
2556.000000	97.929853 
2555.000000	97.930116 
2554.000000	97.930162 
2553.000000	97.930287 
2552.000000	97.930251 
2551.000000	97.929975 
2550.000000	97.929931 
2549.000000	97.930445 
2548.000000	97.931033 
2547.000000	97.931006 
2546.000000	97.930482 
2545.000000	97.930278 
2544.000000	97.930745 
2543.000000	97.931327 
2542.000000	97.931367 
2541.000000	97.931004 
2540.000000	97.930980 
2539.000000	97.931687 
2538.000000	97.932783 
2537.000000	97.933705 
2536.000000	97.934351 
2535.000000	97.934983 
2534.000000	97.935653 
2533.000000	97.936060 
2532.000000	97.936010 
2531.000000	97.935760 
2530.000000	97.935712 
2529.000000	97.935915 
2528.000000	97.936088 
2527.000000	97.936130 
2526.000000	97.936360 
2525.000000	97.937118 
2524.000000	97.938324 
2523.000000	97.939566 
2522.000000	97.940539 
2521.000000	97.941268 
2520.000000	97.941901 
2519.000000	97.942497 
2518.000000	97.943012 
2517.000000	97.943381 
2516.000000	97.943519 
2515.000000	97.943357 
2514.000000	97.942988 
2513.000000	97.942732 
2512.000000	97.942914 
2511.000000	97.943613 
2510.000000	97.944672 
2509.000000	97.945851 
2508.000000	97.946899 
2507.000000	97.947591 
2506.000000	97.947868 
2505.000000	97.947995 
2504.000000	97.948406 
2503.000000	97.949239 
2502.000000	97.950172 
2501.000000	97.950769 
2500.000000	97.950953 
2499.000000	97.950960 
2498.000000	97.950989 
2497.000000	97.951045 
2496.000000	97.951143 
2495.000000	97.951388 
2494.000000	97.951786 
2493.000000	97.952152 
2492.000000	97.952356 
2491.000000	97.952531 
2490.000000	97.952912 
2489.000000	97.953509 
2488.000000	97.954027 
2487.000000	97.954191 
2486.000000	97.954034 
2485.000000	97.953858 
2484.000000	97.953904 
2483.000000	97.954099 
2482.000000	97.954144 
2481.000000	97.953854 
2480.000000	97.953417 
2479.000000	97.953280 
2478.000000	97.953752 
2477.000000	97.954689 
2476.000000	97.955533 
2475.000000	97.955714 
2474.000000	97.955030 
2473.000000	97.953748 
2472.000000	97.952343 
2471.000000	97.951072 
2470.000000	97.949953 
2469.000000	97.949187 
2468.000000	97.949283 
2467.000000	97.950430 
2466.000000	97.951937 
2465.000000	97.952739 
2464.000000	97.952606 
2463.000000	97.952507 
2462.000000	97.953515 
2461.000000	97.955648 
2460.000000	97.957954 
2459.000000	97.959525 
2458.000000	97.959955 
2457.000000	97.959118 
2456.000000	97.957128 
2455.000000	97.954668 
2454.000000	97.952839 
2453.000000	97.952120 
2452.000000	97.951708 
2451.000000	97.950421 
2450.000000	97.948307 
2449.000000	97.946785 
2448.000000	97.946915 
2447.000000	97.948110 
2446.000000	97.948927 
2445.000000	97.948854 
2444.000000	97.948662 
2443.000000	97.949156 
2442.000000	97.950352 
2441.000000	97.951842 
2440.000000	97.953336 
2439.000000	97.954764 
2438.000000	97.956272 
2437.000000	97.958204 
2436.000000	97.960632 
2435.000000	97.962857 
2434.000000	97.963892 
2433.000000	97.963520 
2432.000000	97.962565 
2431.000000	97.962056 
2430.000000	97.962463 
2429.000000	97.963859 
2428.000000	97.966149 
2427.000000	97.968752 
2426.000000	97.970323 
2425.000000	97.969409 
2424.000000	97.966079 
2423.000000	97.962546 
2422.000000	97.961157 
2421.000000	97.962685 
2420.000000	97.966469 
2419.000000	97.970890 
2418.000000	97.974139 
2417.000000	97.975686 
2416.000000	97.976681 
2415.000000	97.978014 
2414.000000	97.978934 
2413.000000	97.978685 
2412.000000	97.978366 
2411.000000	97.979453 
2410.000000	97.981265 
2409.000000	97.981908 
2408.000000	97.981340 
2407.000000	97.981416 
2406.000000	97.982840 
2405.000000	97.983873 
2404.000000	97.982536 
2403.000000	97.978839 
2402.000000	97.974594 
2401.000000	97.972062 
2400.000000	97.972794 
2399.000000	97.976652 
2398.000000	97.981881 
2397.000000	97.986862 
2396.000000	97.991401 
2395.000000	97.995408 
2394.000000	97.997353 
2393.000000	97.996028 
2392.000000	97.993145 
2391.000000	97.992128 
2390.000000	97.994299 
2389.000000	97.998077 
2388.000000	98.002159 
2387.000000	98.007437 
2386.000000	98.014913 
2385.000000	98.023389 
2384.000000	98.030215 
2383.000000	98.032849 
2382.000000	98.028787 
2381.000000	98.015968 
2380.000000	97.994867 
2379.000000	97.969462 
2378.000000	97.944629 
2377.000000	97.923330 
2376.000000	97.907786 
2375.000000	97.901358 
2374.000000	97.905821 
2373.000000	97.917481 
2372.000000	97.929298 
2371.000000	97.937680 
2370.000000	97.943841 
2369.000000	97.948256 
2368.000000	97.948248 
2367.000000	97.942389 
2366.000000	97.933474 
2365.000000	97.925405 
2364.000000	97.919730 
2363.000000	97.916650 
2362.000000	97.916773 
2361.000000	97.919979 
2360.000000	97.924847 
2359.000000	97.929747 
2358.000000	97.932528 
2357.000000	97.931849 
2356.000000	97.928259 
2355.000000	97.923855 
2354.000000	97.918673 
2353.000000	97.913717 
2352.000000	97.912852 
2351.000000	97.917433 
2350.000000	97.923808 
2349.000000	97.927098 
2348.000000	97.926340 
2347.000000	97.923900 
2346.000000	97.922996 
2345.000000	97.925361 
2344.000000	97.929751 
2343.000000	97.933793 
2342.000000	97.935816 
2341.000000	97.936175 
2340.000000	97.936235 
2339.000000	97.936851 
2338.000000	97.937740 
2337.000000	97.938129 
2336.000000	97.938726 
2335.000000	97.940541 
2334.000000	97.943265 
2333.000000	97.945205 
2332.000000	97.947158 
2331.000000	97.950607 
2330.000000	97.956061 
2329.000000	97.961158 
2328.000000	97.965545 
2327.000000	97.969715 
2326.000000	97.973537 
2325.000000	97.975989 
2324.000000	97.977888 
2323.000000	97.981150 
2322.000000	97.984844 
2321.000000	97.985627 
2320.000000	97.983813 
2319.000000	97.982898 
2318.000000	97.985665 
2317.000000	97.988419 
2316.000000	97.988038 
2315.000000	97.984401 
2314.000000	97.982622 
2313.000000	97.985077 
2312.000000	97.993020 
2311.000000	98.004340 
2310.000000	98.016556 
2309.000000	98.025045 
2308.000000	98.028760 
2307.000000	98.029420 
2306.000000	98.030071 
2305.000000	98.030397 
2304.000000	98.030069 
2303.000000	98.029134 
2302.000000	98.029761 
2301.000000	98.031914 
2300.000000	98.034292 
2299.000000	98.033053 
2298.000000	98.026077 
2297.000000	98.012481 
2296.000000	97.996019 
2295.000000	97.982134 
2294.000000	97.974568 
2293.000000	97.971484 
2292.000000	97.968950 
2291.000000	97.965057 
2290.000000	97.960697 
2289.000000	97.957083 
2288.000000	97.953933 
2287.000000	97.950309 
2286.000000	97.945470 
2285.000000	97.940115 
2284.000000	97.936056 
2283.000000	97.934908 
2282.000000	97.935512 
2281.000000	97.934412 
2280.000000	97.929030 
2279.000000	97.920199 
2278.000000	97.911004 
2277.000000	97.904264 
2276.000000	97.901532 
2275.000000	97.902625 
2274.000000	97.905685 
2273.000000	97.908584 
2272.000000	97.910938 
2271.000000	97.913137 
2270.000000	97.914098 
2269.000000	97.912109 
2268.000000	97.908058 
2267.000000	97.905127 
2266.000000	97.904951 
2265.000000	97.905992 
2264.000000	97.905960 
2263.000000	97.904009 
2262.000000	97.900370 
2261.000000	97.895790 
2260.000000	97.891552 
2259.000000	97.888646 
2258.000000	97.886647 
2257.000000	97.884526 
2256.000000	97.882310 
2255.000000	97.880874 
2254.000000	97.880235 
2253.000000	97.879080 
2252.000000	97.876481 
2251.000000	97.872931 
2250.000000	97.869396 
2249.000000	97.866187 
2248.000000	97.863301 
2247.000000	97.860936 
2246.000000	97.859115 
2245.000000	97.857432 
2244.000000	97.855467 
2243.000000	97.853240 
2242.000000	97.850975 
2241.000000	97.848824 
2240.000000	97.846795 
2239.000000	97.844825 
2238.000000	97.842852 
2237.000000	97.840850 
2236.000000	97.838827 
2235.000000	97.836789 
2234.000000	97.834735 
2233.000000	97.832660 
2232.000000	97.830563 
2231.000000	97.828445 
2230.000000	97.826308 
2229.000000	97.824144 
2228.000000	97.821946 
2227.000000	97.819714 
2226.000000	97.817452 
2225.000000	97.815163 
2224.000000	97.812850 
2223.000000	97.810531 
2222.000000	97.808235 
2221.000000	97.805981 
2220.000000	97.803763 
2219.000000	97.801559 
2218.000000	97.799347 
2217.000000	97.797125 
2216.000000	97.794905 
2215.000000	97.792701 
2214.000000	97.790516 
2213.000000	97.788344 
2212.000000	97.786188 
2211.000000	97.784067 
2210.000000	97.782004 
2209.000000	97.779999 
2208.000000	97.778023 
2207.000000	97.776042 
2206.000000	97.774024 
2205.000000	97.771947 
2204.000000	97.769847 
2203.000000	97.767900 
2202.000000	97.766335 
2201.000000	97.765066 
2200.000000	97.763507 
2199.000000	97.760952 
2198.000000	97.757079 
2197.000000	97.752374 
2196.000000	97.748129 
2195.000000	97.745504 
2194.000000	97.744355 
2193.000000	97.743445 
2192.000000	97.742084 
2191.000000	97.740625 
2190.000000	97.738963 
2189.000000	97.736008 
2188.000000	97.731510 
2187.000000	97.726819 
2186.000000	97.722634 
2185.000000	97.717856 
2184.000000	97.712674 
2183.000000	97.710873 
2182.000000	97.715882 
2181.000000	97.725200 
2180.000000	97.731320 
2179.000000	97.729222 
2178.000000	97.720112 
2177.000000	97.709064 
2176.000000	97.700936 
2175.000000	97.698107 
2174.000000	97.699916 
2173.000000	97.703400 
2172.000000	97.706566 
2171.000000	97.710780 
2170.000000	97.717587 
2169.000000	97.723909 
2168.000000	97.723901 
2167.000000	97.715952 
2166.000000	97.704555 
2165.000000	97.694185 
2164.000000	97.684423 
2163.000000	97.673561 
2162.000000	97.664357 
2161.000000	97.662905 
2160.000000	97.672612 
2159.000000	97.690975 
2158.000000	97.711122 
2157.000000	97.726180 
2156.000000	97.733588 
2155.000000	97.736087 
2154.000000	97.738978 
2153.000000	97.746141 
2152.000000	97.757560 
2151.000000	97.769249 
2150.000000	97.775737 
2149.000000	97.774820 
2148.000000	97.770876 
2147.000000	97.771443 
2146.000000	97.779402 
2145.000000	97.790807 
2144.000000	97.801331 
2143.000000	97.811370 
2142.000000	97.822157 
2141.000000	97.830702 
2140.000000	97.833392 
2139.000000	97.832973 
2138.000000	97.837040 
2137.000000	97.849121 
2136.000000	97.864458 
2135.000000	97.875155 
2134.000000	97.877191 
2133.000000	97.872554 
2132.000000	97.867444 
2131.000000	97.868041 
2130.000000	97.875947 
2129.000000	97.887292 
2128.000000	97.896868 
2127.000000	97.902704 
2126.000000	97.905882 
2125.000000	97.907451 
2124.000000	97.907358 
2123.000000	97.905399 
2122.000000	97.901440 
2121.000000	97.895251 
2120.000000	97.887289 
2119.000000	97.879350 
2118.000000	97.873653 
2117.000000	97.871424 
2116.000000	97.872260 
2115.000000	97.873830 
2114.000000	97.872423 
2113.000000	97.866056 
2112.000000	97.857795 
2111.000000	97.853667 
2110.000000	97.856107 
2109.000000	97.861421 
2108.000000	97.864752 
2107.000000	97.865380 
2106.000000	97.865449 
2105.000000	97.866133 
2104.000000	97.867405 
2103.000000	97.869332 
2102.000000	97.870938 
2101.000000	97.869517 
2100.000000	97.863843 
2099.000000	97.857015 
2098.000000	97.853860 
2097.000000	97.856050 
2096.000000	97.861578 
2095.000000	97.867641 
2094.000000	97.872040 
2093.000000	97.872973 
2092.000000	97.869917 
2091.000000	97.864877 
2090.000000	97.861131 
2089.000000	97.860085 
2088.000000	97.860262 
2087.000000	97.859293 
2086.000000	97.856108 
2085.000000	97.851225 
2084.000000	97.845971 
2083.000000	97.841505 
2082.000000	97.838149 
2081.000000	97.835633 
2080.000000	97.834032 
2079.000000	97.833803 
2078.000000	97.834371 
2077.000000	97.833705 
2076.000000	97.830654 
2075.000000	97.826991 
2074.000000	97.825211 
2073.000000	97.824604 
2072.000000	97.821746 
2071.000000	97.814985 
2070.000000	97.806435 
2069.000000	97.799280 
2068.000000	97.794855 
2067.000000	97.792796 
2066.000000	97.792219 
2065.000000	97.791771 
2064.000000	97.789827 
2063.000000	97.785904 
2062.000000	97.781368 
2061.000000	97.778209 
2060.000000	97.777354 
2059.000000	97.778330 
2058.000000	97.779675 
2057.000000	97.779601 
2056.000000	97.776929 
2055.000000	97.771738 
2054.000000	97.765238 
2053.000000	97.758832 
2052.000000	97.753304 
2051.000000	97.748560 
2050.000000	97.743994 
2049.000000	97.739338 
2048.000000	97.735229 
2047.000000	97.732503 
2046.000000	97.730903 
2045.000000	97.729287 
2044.000000	97.727283 
2043.000000	97.725667 
2042.000000	97.724884 
2041.000000	97.724329 
2040.000000	97.723567 
2039.000000	97.723211 
2038.000000	97.723622 
2037.000000	97.723725 
2036.000000	97.722276 
2035.000000	97.719621 
2034.000000	97.717316 
2033.000000	97.716482 
2032.000000	97.717134 
2031.000000	97.718515 
2030.000000	97.719284 
2029.000000	97.718152 
2028.000000	97.715040 
2027.000000	97.711451 
2026.000000	97.708997 
2025.000000	97.707901 
2024.000000	97.707622 
2023.000000	97.708176 
2022.000000	97.709936 
2021.000000	97.712218 
2020.000000	97.713195 
2019.000000	97.711682 
2018.000000	97.708119 
2017.000000	97.703980 
2016.000000	97.700634 
2015.000000	97.698756 
2014.000000	97.697916 
2013.000000	97.696541 
2012.000000	97.693543 
2011.000000	97.690275 
2010.000000	97.689338 
2009.000000	97.691278 
2008.000000	97.693861 
2007.000000	97.695069 
2006.000000	97.695327 
2005.000000	97.695833 
2004.000000	97.696542 
2003.000000	97.697083 
2002.000000	97.698340 
2001.000000	97.701100 
2000.000000	97.703859 
1999.000000	97.703549 
1998.000000	97.698579 
1997.000000	97.690561 
1996.000000	97.683215 
1995.000000	97.679445 
1994.000000	97.679502 
1993.000000	97.681210 
1992.000000	97.681810 
1991.000000	97.680595 
1990.000000	97.679288 
1989.000000	97.679708 
1988.000000	97.681579 
1987.000000	97.682676 
1986.000000	97.680866 
1985.000000	97.676062 
1984.000000	97.670363 
1983.000000	97.666185 
1982.000000	97.664279 
1981.000000	97.663783 
1980.000000	97.664372 
1979.000000	97.666842 
1978.000000	97.670844 
1977.000000	97.673821 
1976.000000	97.673823 
1975.000000	97.672582 
1974.000000	97.673812 
1973.000000	97.679076 
1972.000000	97.686556 
1971.000000	97.693279 
1970.000000	97.697381 
1969.000000	97.698372 
1968.000000	97.696735 
1967.000000	97.693944 
1966.000000	97.692147 
1965.000000	97.692988 
1964.000000	97.696911 
1963.000000	97.703454 
1962.000000	97.711578 
1961.000000	97.719517 
1960.000000	97.725186 
1959.000000	97.727535 
1958.000000	97.727537 
1957.000000	97.727746 
1956.000000	97.730129 
1955.000000	97.734418 
1954.000000	97.738738 
1953.000000	97.741771 
1952.000000	97.743788 
1951.000000	97.745708 
1950.000000	97.747976 
1949.000000	97.750717 
1948.000000	97.754422 
1947.000000	97.759393 
1946.000000	97.764770 
1945.000000	97.769055 
1944.000000	97.771681 
1943.000000	97.773344 
1942.000000	97.774896 
1941.000000	97.776608 
1940.000000	97.778556 
1939.000000	97.780888 
1938.000000	97.783683 
1937.000000	97.786995 
1936.000000	97.790968 
1935.000000	97.795402 
1934.000000	97.799333 
1933.000000	97.801937 
1932.000000	97.803778 
1931.000000	97.806492 
1930.000000	97.810749 
1929.000000	97.815112 
1928.000000	97.818242 
1927.000000	97.820569 
1926.000000	97.823033 
1925.000000	97.825064 
1924.000000	97.825678 
1923.000000	97.825913 
1922.000000	97.827346 
1921.000000	97.829413 
1920.000000	97.830465 
1919.000000	97.830548 
1918.000000	97.830933 
1917.000000	97.831483 
1916.000000	97.831265 
1915.000000	97.830841 
1914.000000	97.831400 
1913.000000	97.832814 
1912.000000	97.833790 
1911.000000	97.834121 
1910.000000	97.834823 
1909.000000	97.836283 
1908.000000	97.838173 
1907.000000	97.840019 
1906.000000	97.841355 
1905.000000	97.841451 
1904.000000	97.840115 
1903.000000	97.838781 
1902.000000	97.838878 
1901.000000	97.840162 
1900.000000	97.841525 
1899.000000	97.842421 
1898.000000	97.843042 
1897.000000	97.843481 
1896.000000	97.843537 
1895.000000	97.843289 
1894.000000	97.842993 
1893.000000	97.842699 
1892.000000	97.842429 
1891.000000	97.842459 
1890.000000	97.842962 
1889.000000	97.843691 
1888.000000	97.844362 
1887.000000	97.844950 
1886.000000	97.845483 
1885.000000	97.845955 
1884.000000	97.846416 
1883.000000	97.846923 
1882.000000	97.847483 
1881.000000	97.848098 
1880.000000	97.848767 
1879.000000	97.849486 
1878.000000	97.850250 
1877.000000	97.851058 
1876.000000	97.851911 
1875.000000	97.852804 
1874.000000	97.853723 
1873.000000	97.854648 
1872.000000	97.855560 
1871.000000	97.856456 
1870.000000	97.857347 
1869.000000	97.858250 
1868.000000	97.859180 
1867.000000	97.860150 
1866.000000	97.861161 
1865.000000	97.862203 
1864.000000	97.863270 
1863.000000	97.864374 
1862.000000	97.865533 
1861.000000	97.866743 
1860.000000	97.867988 
1859.000000	97.869255 
1858.000000	97.870545 
1857.000000	97.871857 
1856.000000	97.873189 
1855.000000	97.874543 
1854.000000	97.875922 
1853.000000	97.877325 
1852.000000	97.878745 
1851.000000	97.880183 
1850.000000	97.881635 
1849.000000	97.883091 
1848.000000	97.884531 
1847.000000	97.885944 
1846.000000	97.887323 
1845.000000	97.888665 
1844.000000	97.889974 
1843.000000	97.891261 
1842.000000	97.892538 
1841.000000	97.893799 
1840.000000	97.895030 
1839.000000	97.896224 
1838.000000	97.897378 
1837.000000	97.898485 
1836.000000	97.899541 
1835.000000	97.900552 
1834.000000	97.901528 
1833.000000	97.902470 
1832.000000	97.903380 
1831.000000	97.904264 
1830.000000	97.905132 
1829.000000	97.905999 
1828.000000	97.906879 
1827.000000	97.907777 
1826.000000	97.908681 
1825.000000	97.909570 
1824.000000	97.910406 
1823.000000	97.911171 
1822.000000	97.911881 
1821.000000	97.912546 
1820.000000	97.913154 
1819.000000	97.913710 
1818.000000	97.914275 
1817.000000	97.914878 
1816.000000	97.915448 
1815.000000	97.915930 
1814.000000	97.916357 
1813.000000	97.916774 
1812.000000	97.917128 
1811.000000	97.917384 
1810.000000	97.917610 
1809.000000	97.917859 
1808.000000	97.918117 
1807.000000	97.918366 
1806.000000	97.918607 
1805.000000	97.918837 
1804.000000	97.919057 
1803.000000	97.919276 
1802.000000	97.919501 
1801.000000	97.919729 
1800.000000	97.919950 
1799.000000	97.920166 
1798.000000	97.920395 
1797.000000	97.920654 
1796.000000	97.920945 
1795.000000	97.921261 
1794.000000	97.921600 
1793.000000	97.921960 
1792.000000	97.922341 
1791.000000	97.922744 
1790.000000	97.923170 
1789.000000	97.923613 
1788.000000	97.924060 
1787.000000	97.924502 
1786.000000	97.924939 
1785.000000	97.925369 
1784.000000	97.925791 
1783.000000	97.926205 
1782.000000	97.926618 
1781.000000	97.927039 
1780.000000	97.927479 
1779.000000	97.927941 
1778.000000	97.928425 
1777.000000	97.928927 
1776.000000	97.929438 
1775.000000	97.929942 
1774.000000	97.930430 
1773.000000	97.930906 
1772.000000	97.931383 
1771.000000	97.931886 
1770.000000	97.932431 
1769.000000	97.933017 
1768.000000	97.933623 
1767.000000	97.934220 
1766.000000	97.934791 
1765.000000	97.935331 
1764.000000	97.935849 
1763.000000	97.936355 
1762.000000	97.936857 
1761.000000	97.937357 
1760.000000	97.937850 
1759.000000	97.938331 
1758.000000	97.938795 
1757.000000	97.939235 
1756.000000	97.939645 
1755.000000	97.940032 
1754.000000	97.940364 
1753.000000	97.940564 
1752.000000	97.940678 
1751.000000	97.940875 
1750.000000	97.941178 
1749.000000	97.941366 
1748.000000	97.941249 
1747.000000	97.940905 
1746.000000	97.940314 
1745.000000	97.939757 
1744.000000	97.939753 
1743.000000	97.940237 
1742.000000	97.940524 
1741.000000	97.940007 
1740.000000	97.938597 
1739.000000	97.937261 
1738.000000	97.937409 
1737.000000	97.938519 
1736.000000	97.939421 
1735.000000	97.940437 
1734.000000	97.940030 
1733.000000	97.936634 
1732.000000	97.933567 
1731.000000	97.931984 
1730.000000	97.932243 
1729.000000	97.933742 
1728.000000	97.934476 
1727.000000	97.933031 
1726.000000	97.929845 
1725.000000	97.927124 
1724.000000	97.925212 
1723.000000	97.923153 
1722.000000	97.921515 
1721.000000	97.920122 
1720.000000	97.917777 
1719.000000	97.914581 
1718.000000	97.912245 
1717.000000	97.909580 
1716.000000	97.904047 
1715.000000	97.897205 
1714.000000	97.892536 
1713.000000	97.889991 
1712.000000	97.886563 
1711.000000	97.881856 
1710.000000	97.877813 
1709.000000	97.874550 
1708.000000	97.869996 
1707.000000	97.863230 
1706.000000	97.856194 
1705.000000	97.850477 
1704.000000	97.845489 
1703.000000	97.840140 
1702.000000	97.835102 
1701.000000	97.831384 
1700.000000	97.825647 
1699.000000	97.817927 
1698.000000	97.812332 
1697.000000	97.807401 
1696.000000	97.801610 
1695.000000	97.795253 
1694.000000	97.789607 
1693.000000	97.783918 
1692.000000	97.777121 
1691.000000	97.769721 
1690.000000	97.762448 
1689.000000	97.755497 
1688.000000	97.748927 
1687.000000	97.742436 
1686.000000	97.735993 
1685.000000	97.729458 
1684.000000	97.721487 
1683.000000	97.712869 
1682.000000	97.705792 
1681.000000	97.699046 
1680.000000	97.692643 
1679.000000	97.687195 
1678.000000	97.681896 
1677.000000	97.675628 
1676.000000	97.668692 
1675.000000	97.661329 
1674.000000	97.652812 
1673.000000	97.643762 
1672.000000	97.634612 
1671.000000	97.626128 
1670.000000	97.618097 
1669.000000	97.608936 
1668.000000	97.601665 
1667.000000	97.598213 
1666.000000	97.595329 
1665.000000	97.590378 
1664.000000	97.583786 
1663.000000	97.577705 
1662.000000	97.571779 
1661.000000	97.564887 
1660.000000	97.558555 
1659.000000	97.553160 
1658.000000	97.546785 
1657.000000	97.538682 
1656.000000	97.530882 
1655.000000	97.527080 
1654.000000	97.527694 
1653.000000	97.514550 
1652.000000	97.490226 
1651.000000	97.485215 
1650.000000	97.484054 
1649.000000	97.476982 
1648.000000	97.469771 
1647.000000	97.466954 
1646.000000	97.466403 
1645.000000	97.468519 
1644.000000	97.469952 
1643.000000	97.468730 
1642.000000	97.466788 
1641.000000	97.465717 
1640.000000	97.466427 
1639.000000	97.467582 
1638.000000	97.468365 
1637.000000	97.468766 
1636.000000	97.466593 
1635.000000	97.459635 
1634.000000	97.456667 
1633.000000	97.460639 
1632.000000	97.464257 
1631.000000	97.467911 
1630.000000	97.472501 
1629.000000	97.475420 
1628.000000	97.476237 
1627.000000	97.480127 
1626.000000	97.488017 
1625.000000	97.495229 
1624.000000	97.499832 
1623.000000	97.504799 
1622.000000	97.512742 
1621.000000	97.522676 
1620.000000	97.532766 
1619.000000	97.542795 
1618.000000	97.553000 
1617.000000	97.556935 
1616.000000	97.553639 
1615.000000	97.555403 
1614.000000	97.563628 
1613.000000	97.569734 
1612.000000	97.572731 
1611.000000	97.577055 
1610.000000	97.582830 
1609.000000	97.588490 
1608.000000	97.597247 
1607.000000	97.611008 
1606.000000	97.623403 
1605.000000	97.629584 
1604.000000	97.634193 
1603.000000	97.641313 
1602.000000	97.649160 
1601.000000	97.655237 
1600.000000	97.661166 
1599.000000	97.668317 
1598.000000	97.674676 
1597.000000	97.678951 
1596.000000	97.682754 
1595.000000	97.687837 
1594.000000	97.693486 
1593.000000	97.698440 
1592.000000	97.703136 
1591.000000	97.708280 
1590.000000	97.713315 
1589.000000	97.717784 
1588.000000	97.722386 
1587.000000	97.727732 
1586.000000	97.733241 
1585.000000	97.738011 
1584.000000	97.742458 
1583.000000	97.747084 
1582.000000	97.751449 
1581.000000	97.755389 
1580.000000	97.759527 
1579.000000	97.764131 
1578.000000	97.768837 
1577.000000	97.773249 
1576.000000	97.777133 
1575.000000	97.780841 
1574.000000	97.784660 
1573.000000	97.788365 
1572.000000	97.791948 
1571.000000	97.795476 
1570.000000	97.798806 
1569.000000	97.801933 
1568.000000	97.805054 
1567.000000	97.808138 
1566.000000	97.811109 
1565.000000	97.813981 
1564.000000	97.816765 
1563.000000	97.819470 
1562.000000	97.822102 
1561.000000	97.824662 
1560.000000	97.827149 
1559.000000	97.829535 
1558.000000	97.831798 
1557.000000	97.833972 
1556.000000	97.836079 
1555.000000	97.838125 
1554.000000	97.840103 
1553.000000	97.842002 
1552.000000	97.843807 
1551.000000	97.845515 
1550.000000	97.847133 
1549.000000	97.848677 
1548.000000	97.850153 
1547.000000	97.851558 
1546.000000	97.852891 
1545.000000	97.854149 
1544.000000	97.855328 
1543.000000	97.856423 
1542.000000	97.857431 
1541.000000	97.858343 
1540.000000	97.859152 
1539.000000	97.859879 
1538.000000	97.860555 
1537.000000	97.861187 
1536.000000	97.861778 
1535.000000	97.862344 
1534.000000	97.862909 
1533.000000	97.863483 
1532.000000	97.864063 
1531.000000	97.864645 
1530.000000	97.865227 
1529.000000	97.865808 
1528.000000	97.866396 
1527.000000	97.867000 
1526.000000	97.867618 
1525.000000	97.868234 
1524.000000	97.868834 
1523.000000	97.869423 
1522.000000	97.870010 
1521.000000	97.870595 
1520.000000	97.871167 
1519.000000	97.871721 
1518.000000	97.872239 
1517.000000	97.872736 
1516.000000	97.873307 
1515.000000	97.874021 
1514.000000	97.874808 
1513.000000	97.875605 
1512.000000	97.876343 
1511.000000	97.876911 
1510.000000	97.877321 
1509.000000	97.877831 
1508.000000	97.878919 
1507.000000	97.880549 
1506.000000	97.881703 
1505.000000	97.882234 
1504.000000	97.882530 
1503.000000	97.882284 
1502.000000	97.881647 
1501.000000	97.881315 
1500.000000	97.881443 
1499.000000	97.881401 
1498.000000	97.881324 
1497.000000	97.882471 
1496.000000	97.884711 
1495.000000	97.887459 
1494.000000	97.890720 
1493.000000	97.894066 
1492.000000	97.896886 
1491.000000	97.899123 
1490.000000	97.901313 
1489.000000	97.903210 
1488.000000	97.903344 
1487.000000	97.902102 
1486.000000	97.901549 
1485.000000	97.901279 
1484.000000	97.900468 
1483.000000	97.899514 
1482.000000	97.899477 
1481.000000	97.900455 
1480.000000	97.900987 
1479.000000	97.900518 
1478.000000	97.900080 
1477.000000	97.900596 
1476.000000	97.901242 
1475.000000	97.901356 
1474.000000	97.901292 
1473.000000	97.901569 
1472.000000	97.902041 
1471.000000	97.902371 
1470.000000	97.902488 
1469.000000	97.902084 
1468.000000	97.901077 
1467.000000	97.899892 
1466.000000	97.899072 
1465.000000	97.898695 
1464.000000	97.898423 
1463.000000	97.897857 
1462.000000	97.897049 
1461.000000	97.896248 
1460.000000	97.895589 
1459.000000	97.895016 
1458.000000	97.894405 
1457.000000	97.893757 
1456.000000	97.893066 
1455.000000	97.892310 
1454.000000	97.891481 
1453.000000	97.890597 
1452.000000	97.889686 
1451.000000	97.888763 
1450.000000	97.887831 
1449.000000	97.886884 
1448.000000	97.885912 
1447.000000	97.884909 
1446.000000	97.883881 
1445.000000	97.882842 
1444.000000	97.881798 
1443.000000	97.880745 
1442.000000	97.879685 
1441.000000	97.878624 
1440.000000	97.877571 
1439.000000	97.876525 
1438.000000	97.875478 
1437.000000	97.874487 
1436.000000	97.873637 
1435.000000	97.872826 
1434.000000	97.871854 
1433.000000	97.870721 
1432.000000	97.869654 
1431.000000	97.868759 
1430.000000	97.867966 
1429.000000	97.867392 
1428.000000	97.866947 
1427.000000	97.866230 
1426.000000	97.864957 
1425.000000	97.863973 
1424.000000	97.864469 
1423.000000	97.865344 
1422.000000	97.864608 
1421.000000	97.862570 
1420.000000	97.861839 
1419.000000	97.862605 
1418.000000	97.862611 
1417.000000	97.862112 
1416.000000	97.862059 
1415.000000	97.861854 
1414.000000	97.860114 
1413.000000	97.857001 
1412.000000	97.854258 
1411.000000	97.852212 
1410.000000	97.850177 
1409.000000	97.848485 
1408.000000	97.847213 
1407.000000	97.846469 
1406.000000	97.846907 
1405.000000	97.850165 
1404.000000	97.856482 
1403.000000	97.861648 
1402.000000	97.862601 
1401.000000	97.861881 
1400.000000	97.864456 
1399.000000	97.870689 
1398.000000	97.876003 
1397.000000	97.877649 
1396.000000	97.877525 
1395.000000	97.878962 
1394.000000	97.882324 
1393.000000	97.886792 
1392.000000	97.891876 
1391.000000	97.896109 
1390.000000	97.898425 
1389.000000	97.899471 
1388.000000	97.900733 
1387.000000	97.902397 
1386.000000	97.903224 
1385.000000	97.903292 
1384.000000	97.904729 
1383.000000	97.908372 
1382.000000	97.912690 
1381.000000	97.915719 
1380.000000	97.917598 
1379.000000	97.919957 
1378.000000	97.922969 
1377.000000	97.925267 
1376.000000	97.926411 
1375.000000	97.927906 
1374.000000	97.931225 
1373.000000	97.936607 
1372.000000	97.942890 
1371.000000	97.948578 
1370.000000	97.952645 
1369.000000	97.955411 
1368.000000	97.958438 
1367.000000	97.961585 
1366.000000	97.963208 
1365.000000	97.963046 
1364.000000	97.963431 
1363.000000	97.966580 
1362.000000	97.971710 
1361.000000	97.976382 
1360.000000	97.980056 
1359.000000	97.983920 
1358.000000	97.988130 
1357.000000	97.991634 
1356.000000	97.994137 
1355.000000	97.995846 
1354.000000	97.996819 
1353.000000	97.997519 
1352.000000	97.998650 
1351.000000	98.001444 
1350.000000	98.005311 
1349.000000	98.008202 
1348.000000	98.009732 
1347.000000	98.010679 
1346.000000	98.011891 
1345.000000	98.013162 
1344.000000	98.013580 
1343.000000	98.012142 
1342.000000	98.009187 
1341.000000	98.006986 
1340.000000	98.007895 
1339.000000	98.011171 
1338.000000	98.013810 
1337.000000	98.014697 
1336.000000	98.014884 
1335.000000	98.014507 
1334.000000	98.012715 
1333.000000	98.010303 
1332.000000	98.009573 
1331.000000	98.010997 
1330.000000	98.012400 
1329.000000	98.012370 
1328.000000	98.012061 
1327.000000	98.012796 
1326.000000	98.013612 
1325.000000	98.013017 
1324.000000	98.011160 
1323.000000	98.008544 
1322.000000	98.005243 
1321.000000	98.002117 
1320.000000	98.000997 
1319.000000	98.002462 
1318.000000	98.005034 
1317.000000	98.007090 
1316.000000	98.008090 
1315.000000	98.007788 
1314.000000	98.006359 
1313.000000	98.005601 
1312.000000	98.007620 
1311.000000	98.011632 
1310.000000	98.014191 
1309.000000	98.013446 
1308.000000	98.011157 
1307.000000	98.010137 
1306.000000	98.010917 
1305.000000	98.012385 
1304.000000	98.013914 
1303.000000	98.014911 
1302.000000	98.014182 
1301.000000	98.011413 
1300.000000	98.008575 
1299.000000	98.008130 
1298.000000	98.010225 
1297.000000	98.012640 
1296.000000	98.013303 
1295.000000	98.011994 
1294.000000	98.009980 
1293.000000	98.008787 
1292.000000	98.009033 
1291.000000	98.010113 
1290.000000	98.011233 
1289.000000	98.012530 
1288.000000	98.014319 
1287.000000	98.015507 
1286.000000	98.014356 
1285.000000	98.011180 
1284.000000	98.008727 
1283.000000	98.009004 
1282.000000	98.010834 
1281.000000	98.011385 
1280.000000	98.009452 
1279.000000	98.006411 
1278.000000	98.004787 
1277.000000	98.006410 
1276.000000	98.010832 
1275.000000	98.015117 
1274.000000	98.016275 
1273.000000	98.014490 
1272.000000	98.012607 
1271.000000	98.012225 
1270.000000	98.012071 
1269.000000	98.010879 
1268.000000	98.009587 
1267.000000	98.009255 
1266.000000	98.009055 
1265.000000	98.008163 
1264.000000	98.007763 
1263.000000	98.009294 
1262.000000	98.011870 
1261.000000	98.013263 
1260.000000	98.013197 
1259.000000	98.013832 
1258.000000	98.016738 
1257.000000	98.020315 
1256.000000	98.020632 
1255.000000	98.015493 
1254.000000	98.007705 
1253.000000	98.002812 
1252.000000	98.002631 
1251.000000	98.003102 
1250.000000	98.000407 
1249.000000	97.996950 
1248.000000	97.997953 
1247.000000	98.003470 
1246.000000	98.008063 
1245.000000	98.008189 
1244.000000	98.005670 
1243.000000	98.003765 
1242.000000	98.003667 
1241.000000	98.005524 
1240.000000	98.009041 
1239.000000	98.011813 
1238.000000	98.010429 
1237.000000	98.004612 
1236.000000	97.997523 
1235.000000	97.991211 
1234.000000	97.984738 
1233.000000	97.977543 
1232.000000	97.971041 
1231.000000	97.965506 
1230.000000	97.958936 
1229.000000	97.950657 
1228.000000	97.942557 
1227.000000	97.934763 
1226.000000	97.923367 
1225.000000	97.905100 
1224.000000	97.881773 
1223.000000	97.857579 
1222.000000	97.833811 
1221.000000	97.808665 
1220.000000	97.780719 
1219.000000	97.750234 
1218.000000	97.717975 
1217.000000	97.684389 
1216.000000	97.649040 
1215.000000	97.610139 
1214.000000	97.566549 
1213.000000	97.521292 
1212.000000	97.480244 
1211.000000	97.445041 
1210.000000	97.409619 
1209.000000	97.366617 
1208.000000	97.315524 
1207.000000	97.262053 
1206.000000	97.210886 
1205.000000	97.161637 
1204.000000	97.111420 
1203.000000	97.058721 
1202.000000	97.004607 
1201.000000	96.951664 
1200.000000	96.901627 
1199.000000	96.853341 
1198.000000	96.803879 
1197.000000	96.752256 
1196.000000	96.700447 
1195.000000	96.650047 
1194.000000	96.599918 
1193.000000	96.548256 
1192.000000	96.494775 
1191.000000	96.439288 
1190.000000	96.380484 
1189.000000	96.318166 
1188.000000	96.254771 
1187.000000	96.192579 
1186.000000	96.131099 
1185.000000	96.068937 
1184.000000	96.006052 
1183.000000	95.942192 
1182.000000	95.875701 
1181.000000	95.806471 
1180.000000	95.737499 
1179.000000	95.670330 
1178.000000	95.601360 
1177.000000	95.526260 
1176.000000	95.445837 
1175.000000	95.363698 
1174.000000	95.280376 
1173.000000	95.194391 
1172.000000	95.107390 
1171.000000	95.022807 
1170.000000	94.940178 
1169.000000	94.856126 
1168.000000	94.771113 
1167.000000	94.690567 
1166.000000	94.619510 
1165.000000	94.561204 
1164.000000	94.521122 
1163.000000	94.506093 
1162.000000	94.516996 
1161.000000	94.545449 
1160.000000	94.578632 
1159.000000	94.604635 
1158.000000	94.613925 
1157.000000	94.600528 
1156.000000	94.563607 
1155.000000	94.506237 
1154.000000	94.433074 
1153.000000	94.350941 
1152.000000	94.269202 
1151.000000	94.194505 
1150.000000	94.125095 
1149.000000	94.054572 
1148.000000	93.981001 
1147.000000	93.907845 
1146.000000	93.836344 
1145.000000	93.762547 
1144.000000	93.683134 
1143.000000	93.599479 
1142.000000	93.514462 
1141.000000	93.429242 
1140.000000	93.344709 
1139.000000	93.262625 
1138.000000	93.183784 
1137.000000	93.107430 
1136.000000	93.032638 
1135.000000	92.957542 
1134.000000	92.878077 
1133.000000	92.791406 
1132.000000	92.700084 
1131.000000	92.608949 
1130.000000	92.518573 
1129.000000	92.425972 
1128.000000	92.330739 
1127.000000	92.235300 
1126.000000	92.139593 
1125.000000	92.040969 
1124.000000	91.939594 
1123.000000	91.838878 
1122.000000	91.740357 
1121.000000	91.643031 
1120.000000	91.547501 
1119.000000	91.455423 
1118.000000	91.365196 
1117.000000	91.273908 
1116.000000	91.183269 
1115.000000	91.097917 
1114.000000	91.018365 
1113.000000	90.941516 
1112.000000	90.867133 
1111.000000	90.796993 
1110.000000	90.728455 
1109.000000	90.656199 
1108.000000	90.579503 
1107.000000	90.501260 
1106.000000	90.421371 
1105.000000	90.338306 
1104.000000	90.255689 
1103.000000	90.178846 
1102.000000	90.105602 
1101.000000	90.028969 
1100.000000	89.948193 
1099.000000	89.869180 
1098.000000	89.794748 
1097.000000	89.722592 
1096.000000	89.651882 
1095.000000	89.582756 
1094.000000	89.510647 
1093.000000	89.430979 
1092.000000	89.349141 
1091.000000	89.276232 
1090.000000	89.214893 
1089.000000	89.158072 
1088.000000	89.100422 
1087.000000	89.041211 
1086.000000	88.977964 
1085.000000	88.908774 
1084.000000	88.840143 
1083.000000	88.780911 
1082.000000	88.728302 
1081.000000	88.671472 
1080.000000	88.608699 
1079.000000	88.548854 
1078.000000	88.495182 
1077.000000	88.439960 
1076.000000	88.376871 
1075.000000	88.306561 
1074.000000	88.228128 
1073.000000	88.136776 
1072.000000	88.031972 
1071.000000	87.916944 
1070.000000	87.788315 
1069.000000	87.637647 
1068.000000	87.465938 
1067.000000	87.286279 
1066.000000	87.109680 
1065.000000	86.937973 
1064.000000	86.771710 
1063.000000	86.612341 
1062.000000	86.453479 
1061.000000	86.282661 
1060.000000	86.096467 
1059.000000	85.904020 
1058.000000	85.712624 
1057.000000	85.520343 
1056.000000	85.325305 
1055.000000	85.130551 
1054.000000	84.935563 
1053.000000	84.733743 
1052.000000	84.522774 
1051.000000	84.307436 
1050.000000	84.088354 
1049.000000	83.859292 
1048.000000	83.619095 
1047.000000	83.374594 
1046.000000	83.129838 
1045.000000	82.884068 
1044.000000	82.640362 
1043.000000	82.404034 
1042.000000	82.172421 
1041.000000	81.938811 
1040.000000	81.706779 
1039.000000	81.487668 
1038.000000	81.283777 
1037.000000	81.087837 
1036.000000	80.899243 
1035.000000	80.726121 
1034.000000	80.570909 
1033.000000	80.428838 
1032.000000	80.300625 
1031.000000	80.190918 
1030.000000	80.094240 
1029.000000	79.999332 
1028.000000	79.908203 
1027.000000	79.833772 
1026.000000	79.777626 
1025.000000	79.727101 
1024.000000	79.675439 
1023.000000	79.627573 
1022.000000	79.584478 
1021.000000	79.539418 
1020.000000	79.491798 
1019.000000	79.448109 
1018.000000	79.407375 
1017.000000	79.361922 
1016.000000	79.313726 
1015.000000	79.273563 
1014.000000	79.243091 
1013.000000	79.214294 
1012.000000	79.186976 
1011.000000	79.169577 
1010.000000	79.162365 
1009.000000	79.157709 
1008.000000	79.157708 
1007.000000	79.173599 
1006.000000	79.206948 
1005.000000	79.249269 
1004.000000	79.300320 
1003.000000	79.367624 
1002.000000	79.446980 
1001.000000	79.523498 
1000.000000	79.594849 
999.000000	 79.674695 
998.000000	 79.769951 
997.000000	 79.872668 
996.000000	 79.977242 
995.000000	 80.088117 
994.000000	 80.206891 
993.000000	 80.328304 
992.000000	 80.452090 
991.000000	 80.583408 
990.000000	 80.719783 
989.000000	 80.853245 
988.000000	 80.986481 
987.000000	 81.130702 
986.000000	 81.286968 
985.000000	 81.446515 
984.000000	 81.610023 
983.000000	 81.788359 
982.000000	 81.982391 
981.000000	 82.180072 
980.000000	 82.376256 
979.000000	 82.578137 
978.000000	 82.788111 
977.000000	 82.998847 
976.000000	 83.209310 
975.000000	 83.428998 
974.000000	 83.661232 
973.000000	 83.897008 
972.000000	 84.129985 
971.000000	 84.363831 
970.000000	 84.600629 
969.000000	 84.835299 
968.000000	 85.065674 
967.000000	 85.296026 
966.000000	 85.527016 
965.000000	 85.753385 
964.000000	 85.974290 
963.000000	 86.194809 
962.000000	 86.414907 
961.000000	 86.627717 
960.000000	 86.830599 
959.000000	 87.027265 
958.000000	 87.217649 
957.000000	 87.396574 
956.000000	 87.564168 
955.000000	 87.727319 
954.000000	 87.889191 
953.000000	 88.046574 
952.000000	 88.197861 
951.000000	 88.343508 
950.000000	 88.478940 
949.000000	 88.598297 
948.000000	 88.705696 
947.000000	 88.811697 
946.000000	 88.917458 
945.000000	 89.013374 
944.000000	 89.094587 
943.000000	 89.167000 
942.000000	 89.236659 
941.000000	 89.303924 
940.000000	 89.370014 
939.000000	 89.438426 
938.000000	 89.507324 
937.000000	 89.570558 
936.000000	 89.628600 
935.000000	 89.689067 
934.000000	 89.754635 
933.000000	 89.820134 
932.000000	 89.883231 
931.000000	 89.947763 
930.000000	 90.014082 
929.000000	 90.075870 
928.000000	 90.129732 
927.000000	 90.179576 
926.000000	 90.228753 
925.000000	 90.275149 
924.000000	 90.315892 
923.000000	 90.350114 
922.000000	 90.376559 
921.000000	 90.395782 
920.000000	 90.414618 
919.000000	 90.440357 
918.000000	 90.470357 
917.000000	 90.495777 
916.000000	 90.516040 
915.000000	 90.541590 
914.000000	 90.582248 
913.000000	 90.640779 
912.000000	 90.717212 
911.000000	 90.810631 
910.000000	 90.916859 
909.000000	 91.032676 
908.000000	 91.161566 
907.000000	 91.307754 
906.000000	 91.467141 
905.000000	 91.632429 
904.000000	 91.803494 
903.000000	 91.982811 
902.000000	 92.164542 
901.000000	 92.339463 
900.000000	 92.507908 
899.000000	 92.677337 
898.000000	 92.849433 
897.000000	 93.019509 
896.000000	 93.185014 
895.000000	 93.344016 
894.000000	 93.489607 
893.000000	 93.617567 
892.000000	 93.736592 
891.000000	 93.859505 
890.000000	 93.986748 
889.000000	 94.109214 
888.000000	 94.223773 
887.000000	 94.334112 
886.000000	 94.439827 
885.000000	 94.537727 
884.000000	 94.631344 
883.000000	 94.726182 
882.000000	 94.818458 
881.000000	 94.902974 
880.000000	 94.989554 
879.000000	 95.094872 
878.000000	 95.217480 
877.000000	 95.337463 
876.000000	 95.442528 
875.000000	 95.538749 
874.000000	 95.634529 
873.000000	 95.730530 
872.000000	 95.828580 
871.000000	 95.934347 
870.000000	 96.045646 
869.000000	 96.150932 
868.000000	 96.244245 
867.000000	 96.331308 
866.000000	 96.418251 
865.000000	 96.504875 
864.000000	 96.592046 
863.000000	 96.685014 
862.000000	 96.784643 
861.000000	 96.883615 
860.000000	 96.975326 
859.000000	 97.059912 
858.000000	 97.139696 
857.000000	 97.215669 
856.000000	 97.289606 
855.000000	 97.362138 
854.000000	 97.427247 
853.000000	 97.476277 
852.000000	 97.509474 
851.000000	 97.537686 
850.000000	 97.571699 
849.000000	 97.615320 
848.000000	 97.667372 
847.000000	 97.722116 
846.000000	 97.768557 
845.000000	 97.798562 
844.000000	 97.816209 
843.000000	 97.831679 
842.000000	 97.846732 
841.000000	 97.854404 
840.000000	 97.851438 
839.000000	 97.840988 
838.000000	 97.824040 
837.000000	 97.799230 
836.000000	 97.772102 
835.000000	 97.753689 
834.000000	 97.747204 
833.000000	 97.745473 
832.000000	 97.743751 
831.000000	 97.745395 
830.000000	 97.752528 
829.000000	 97.761628 
828.000000	 97.772804 
827.000000	 97.793711 
826.000000	 97.828591 
825.000000	 97.871606 
824.000000	 97.915314 
823.000000	 97.956943 
822.000000	 97.993182 
821.000000	 98.019050 
820.000000	 98.035286 
819.000000	 98.047783 
818.000000	 98.056768 
817.000000	 98.053514 
816.000000	 98.029725 
815.000000	 97.984619 
814.000000	 97.921865 
813.000000	 97.844422 
812.000000	 97.751876 
811.000000	 97.636378 
810.000000	 97.481214 
809.000000	 97.270946 
808.000000	 97.005031 
807.000000	 96.697388 
806.000000	 96.363855 
805.000000	 96.016714 
804.000000	 95.669983 
803.000000	 95.339324 
802.000000	 95.034692 
801.000000	 94.762677 
800.000000	 94.537347 
799.000000	 94.377460 
798.000000	 94.289972 
797.000000	 94.265446 
796.000000	 94.289643 
795.000000	 94.348574 
794.000000	 94.423947 
793.000000	 94.498793 
792.000000	 94.569677 
791.000000	 94.641417 
790.000000	 94.709331 
789.000000	 94.758293 
788.000000	 94.778667 
787.000000	 94.770683 
786.000000	 94.733790 
785.000000	 94.664826 
784.000000	 94.567224 
783.000000	 94.450147 
782.000000	 94.319605 
781.000000	 94.184078 
780.000000	 94.067190 
779.000000	 93.997388 
778.000000	 93.982707 
777.000000	 94.010625 
776.000000	 94.073109 
775.000000	 94.173509 
774.000000	 94.305975 
773.000000	 94.448135 
772.000000	 94.581920 
771.000000	 94.706619 
770.000000	 94.825502 
769.000000	 94.934404 
768.000000	 95.029513 
767.000000	 95.112299 
766.000000	 95.180394 
765.000000	 95.227032 
764.000000	 95.256313 
763.000000	 95.286606 
762.000000	 95.331356 
761.000000	 95.386667 
760.000000	 95.442871 
759.000000	 95.496868 
758.000000	 95.548126 
757.000000	 95.595450 
756.000000	 95.644983 
755.000000	 95.709816 
754.000000	 95.792903 
753.000000	 95.878730 
752.000000	 95.948664 
751.000000	 95.998046 
750.000000	 96.035158 
749.000000	 96.071688 
748.000000	 96.117458 
747.000000	 96.175564 
746.000000	 96.238050 
745.000000	 96.293988 
744.000000	 96.344723 
743.000000	 96.402681 
742.000000	 96.473466 
741.000000	 96.549617 
740.000000	 96.624278 
739.000000	 96.700046 
738.000000	 96.780425 
737.000000	 96.861501 
736.000000	 96.935964 
735.000000	 96.998200 
734.000000	 97.044723 
733.000000	 97.077954 
732.000000	 97.108772 
731.000000	 97.145177 
730.000000	 97.180042 
729.000000	 97.202305 
728.000000	 97.214237 
727.000000	 97.225846 
726.000000	 97.240411 
725.000000	 97.257371 
724.000000	 97.284101 
723.000000	 97.329347 
722.000000	 97.386395 
721.000000	 97.437802 
720.000000	 97.477086 
719.000000	 97.512752 
718.000000	 97.551075 
717.000000	 97.590360 
716.000000	 97.632630 
715.000000	 97.681211 
714.000000	 97.724747 
713.000000	 97.744471 
712.000000	 97.740988 
711.000000	 97.734392 
710.000000	 97.734523 
709.000000	 97.737394 
708.000000	 97.737060 
707.000000	 97.733383 
706.000000	 97.725388 
705.000000	 97.706694 
704.000000	 97.674159 
703.000000	 97.632235 
702.000000	 97.579872 
701.000000	 97.504556 
700.000000	 97.398038 
699.000000	 97.265577 
698.000000	 97.120042 
697.000000	 96.976757 
696.000000	 96.855885 
695.000000	 96.781345 
694.000000	 96.763970 
693.000000	 96.793713 
692.000000	 96.854098 
691.000000	 96.932298 
690.000000	 97.017039 
689.000000	 97.096039 
688.000000	 97.161474 
687.000000	 97.214912 
686.000000	 97.259406 
685.000000	 97.295263 
684.000000	 97.326119 
683.000000	 97.356661 
682.000000	 97.385788 
681.000000	 97.410659 
680.000000	 97.437014 
679.000000	 97.472574 
678.000000	 97.513996 
677.000000	 97.553562 
676.000000	 97.588791 
675.000000	 97.621794 
674.000000	 97.650497 
673.000000	 97.663080 
672.000000	 97.650092 
671.000000	 97.606068 
670.000000	 97.531742 
669.000000	 97.441015 
668.000000	 97.410646 
667.000000	 97.502769 
666.000000	 97.644243 
665.000000	 97.744279 
664.000000	 97.802581 
663.000000	 97.838431 
662.000000	 97.865326 
661.000000	 97.888787 
660.000000	 97.911368 
659.000000	 97.935605 
658.000000	 97.960522 
657.000000	 97.983115 
656.000000	 97.998993 
655.000000	 98.006287 
654.000000	 98.007008 
653.000000	 98.003326 
652.000000	 97.996988 
651.000000	 97.993336 
650.000000	 97.998907 

