4000.000000	97.642465 
3999.000000	97.641090 
3998.000000	97.638228 
3997.000000	97.634639 
3996.000000	97.631548 
3995.000000	97.629869 
3994.000000	97.629874 
3993.000000	97.631066 
3992.000000	97.632260 
3991.000000	97.632587 
3990.000000	97.632208 
3989.000000	97.631810 
3988.000000	97.631731 
3987.000000	97.631782 
3986.000000	97.631797 
3985.000000	97.631867 
3984.000000	97.631945 
3983.000000	97.631803 
3982.000000	97.631471 
3981.000000	97.631320 
3980.000000	97.631442 
3979.000000	97.631305 
3978.000000	97.630429 
3977.000000	97.629115 
3976.000000	97.628125 
3975.000000	97.627730 
3974.000000	97.627454 
3973.000000	97.626755 
3972.000000	97.625552 
3971.000000	97.624118 
3970.000000	97.622819 
3969.000000	97.621930 
3968.000000	97.621544 
3967.000000	97.621497 
3966.000000	97.621470 
3965.000000	97.621184 
3964.000000	97.620521 
3963.000000	97.619545 
3962.000000	97.618509 
3961.000000	97.617722 
3960.000000	97.617233 
3959.000000	97.616825 
3958.000000	97.616401 
3957.000000	97.616074 
3956.000000	97.615916 
3955.000000	97.615720 
3954.000000	97.615225 
3953.000000	97.614395 
3952.000000	97.613411 
3951.000000	97.612525 
3950.000000	97.611897 
3949.000000	97.611565 
3948.000000	97.611472 
3947.000000	97.611484 
3946.000000	97.611398 
3945.000000	97.611050 
3944.000000	97.610502 
3943.000000	97.610075 
3942.000000	97.610024 
3941.000000	97.610304 
3940.000000	97.610592 
3939.000000	97.610589 
3938.000000	97.610334 
3937.000000	97.610047 
3936.000000	97.609846 
3935.000000	97.609634 
3934.000000	97.609346 
3933.000000	97.609086 
3932.000000	97.608949 
3931.000000	97.608885 
3930.000000	97.608803 
3929.000000	97.608726 
3928.000000	97.608725 
3927.000000	97.608770 
3926.000000	97.608810 
3925.000000	97.608863 
3924.000000	97.608939 
3923.000000	97.609033 
3922.000000	97.609130 
3921.000000	97.609228 
3920.000000	97.609344 
3919.000000	97.609494 
3918.000000	97.609668 
3917.000000	97.609843 
3916.000000	97.610004 
3915.000000	97.610153 
3914.000000	97.610298 
3913.000000	97.610439 
3912.000000	97.610569 
3911.000000	97.610687 
3910.000000	97.610807 
3909.000000	97.610944 
3908.000000	97.611095 
3907.000000	97.611244 
3906.000000	97.611386 
3905.000000	97.611532 
3904.000000	97.611694 
3903.000000	97.611878 
3902.000000	97.612075 
3901.000000	97.612268 
3900.000000	97.612442 
3899.000000	97.612595 
3898.000000	97.612731 
3897.000000	97.612861 
3896.000000	97.612994 
3895.000000	97.613124 
3894.000000	97.613239 
3893.000000	97.613340 
3892.000000	97.613431 
3891.000000	97.613511 
3890.000000	97.613590 
3889.000000	97.613673 
3888.000000	97.613754 
3887.000000	97.613826 
3886.000000	97.613900 
3885.000000	97.613989 
3884.000000	97.614094 
3883.000000	97.614194 
3882.000000	97.614272 
3881.000000	97.614343 
3880.000000	97.614444 
3879.000000	97.614599 
3878.000000	97.614790 
3877.000000	97.614981 
3876.000000	97.615153 
3875.000000	97.615316 
3874.000000	97.615494 
3873.000000	97.615699 
3872.000000	97.615918 
3871.000000	97.616139 
3870.000000	97.616371 
3869.000000	97.616639 
3868.000000	97.616945 
3867.000000	97.617253 
3866.000000	97.617538 
3865.000000	97.617819 
3864.000000	97.618126 
3863.000000	97.618454 
3862.000000	97.618780 
3861.000000	97.619098 
3860.000000	97.619420 
3859.000000	97.619746 
3858.000000	97.620063 
3857.000000	97.620373 
3856.000000	97.620697 
3855.000000	97.621056 
3854.000000	97.621436 
3853.000000	97.621815 
3852.000000	97.622226 
3851.000000	97.622711 
3850.000000	97.623266 
3849.000000	97.623870 
3848.000000	97.624511 
3847.000000	97.625184 
3846.000000	97.625882 
3845.000000	97.626592 
3844.000000	97.627294 
3843.000000	97.627968 
3842.000000	97.628613 
3841.000000	97.629241 
3840.000000	97.629859 
3839.000000	97.630460 
3838.000000	97.631026 
3837.000000	97.631546 
3836.000000	97.632029 
3835.000000	97.632488 
3834.000000	97.632928 
3833.000000	97.633347 
3832.000000	97.633748 
3831.000000	97.634135 
3830.000000	97.634510 
3829.000000	97.634874 
3828.000000	97.635217 
3827.000000	97.635530 
3826.000000	97.635812 
3825.000000	97.636077 
3824.000000	97.636333 
3823.000000	97.636566 
3822.000000	97.636748 
3821.000000	97.636876 
3820.000000	97.636981 
3819.000000	97.637082 
3818.000000	97.637160 
3817.000000	97.637199 
3816.000000	97.637228 
3815.000000	97.637289 
3814.000000	97.637394 
3813.000000	97.637506 
3812.000000	97.637603 
3811.000000	97.637700 
3810.000000	97.637813 
3809.000000	97.637913 
3808.000000	97.637951 
3807.000000	97.637914 
3806.000000	97.637831 
3805.000000	97.637725 
3804.000000	97.637591 
3803.000000	97.637418 
3802.000000	97.637222 
3801.000000	97.637045 
3800.000000	97.636914 
3799.000000	97.636813 
3798.000000	97.636707 
3797.000000	97.636594 
3796.000000	97.636495 
3795.000000	97.636423 
3794.000000	97.636371 
3793.000000	97.636328 
3792.000000	97.636296 
3791.000000	97.636280 
3790.000000	97.636283 
3789.000000	97.636299 
3788.000000	97.636317 
3787.000000	97.636331 
3786.000000	97.636343 
3785.000000	97.636371 
3784.000000	97.636440 
3783.000000	97.636553 
3782.000000	97.636681 
3781.000000	97.636803 
3780.000000	97.636927 
3779.000000	97.637078 
3778.000000	97.637267 
3777.000000	97.637482 
3776.000000	97.637715 
3775.000000	97.637967 
3774.000000	97.638237 
3773.000000	97.638499 
3772.000000	97.638730 
3771.000000	97.638926 
3770.000000	97.639100 
3769.000000	97.639261 
3768.000000	97.639404 
3767.000000	97.639522 
3766.000000	97.639630 
3765.000000	97.639755 
3764.000000	97.639905 
3763.000000	97.640061 
3762.000000	97.640190 
3761.000000	97.640285 
3760.000000	97.640353 
3759.000000	97.640392 
3758.000000	97.640389 
3757.000000	97.640348 
3756.000000	97.640293 
3755.000000	97.640255 
3754.000000	97.640248 
3753.000000	97.640273 
3752.000000	97.640319 
3751.000000	97.640354 
3750.000000	97.640343 
3749.000000	97.640272 
3748.000000	97.640143 
3747.000000	97.639942 
3746.000000	97.639651 
3745.000000	97.639264 
3744.000000	97.638777 
3743.000000	97.638177 
3742.000000	97.637489 
3741.000000	97.636688 
3740.000000	97.635363 
3739.000000	97.633608 
3738.000000	97.632286 
3737.000000	97.631639 
3736.000000	97.630889 
3735.000000	97.629882 
3734.000000	97.628775 
3733.000000	97.626339 
3732.000000	97.621949 
3731.000000	97.618090 
3730.000000	97.617010 
3729.000000	97.616762 
3728.000000	97.614149 
3727.000000	97.609985 
3726.000000	97.607878 
3725.000000	97.608512 
3724.000000	97.607891 
3723.000000	97.603443 
3722.000000	97.597153 
3721.000000	97.591807 
3720.000000	97.587388 
3719.000000	97.581649 
3718.000000	97.574569 
3717.000000	97.569164 
3716.000000	97.567474 
3715.000000	97.567697 
3714.000000	97.568228 
3713.000000	97.571061 
3712.000000	97.575596 
3711.000000	97.575100 
3710.000000	97.565862 
3709.000000	97.550067 
3708.000000	97.531545 
3707.000000	97.513785 
3706.000000	97.498989 
3705.000000	97.486874 
3704.000000	97.475211 
3703.000000	97.461992 
3702.000000	97.446508 
3701.000000	97.430410 
3700.000000	97.417390 
3699.000000	97.407413 
3698.000000	97.396744 
3697.000000	97.385656 
3696.000000	97.379035 
3695.000000	97.378699 
3694.000000	97.379776 
3693.000000	97.376855 
3692.000000	97.369237 
3691.000000	97.357925 
3690.000000	97.342098 
3689.000000	97.322175 
3688.000000	97.305633 
3687.000000	97.299692 
3686.000000	97.299659 
3685.000000	97.295285 
3684.000000	97.285260 
3683.000000	97.275903 
3682.000000	97.269852 
3681.000000	97.262145 
3680.000000	97.249145 
3679.000000	97.235072 
3678.000000	97.223247 
3677.000000	97.209926 
3676.000000	97.188987 
3675.000000	97.164578 
3674.000000	97.150637 
3673.000000	97.144268 
3672.000000	97.129529 
3671.000000	97.105278 
3670.000000	97.081555 
3669.000000	97.064250 
3668.000000	97.051763 
3667.000000	97.037902 
3666.000000	97.020018 
3665.000000	97.001448 
3664.000000	96.985339 
3663.000000	96.970432 
3662.000000	96.953746 
3661.000000	96.934686 
3660.000000	96.915526 
3659.000000	96.898200 
3658.000000	96.881271 
3657.000000	96.862215 
3656.000000	96.841896 
3655.000000	96.827553 
3654.000000	96.819506 
3653.000000	96.806175 
3652.000000	96.783501 
3651.000000	96.763413 
3650.000000	96.751469 
3649.000000	96.733244 
3648.000000	96.700905 
3647.000000	96.668765 
3646.000000	96.650703 
3645.000000	96.643656 
3644.000000	96.636906 
3643.000000	96.625784 
3642.000000	96.614266 
3641.000000	96.605061 
3640.000000	96.594447 
3639.000000	96.578149 
3638.000000	96.559737 
3637.000000	96.546509 
3636.000000	96.536616 
3635.000000	96.520544 
3634.000000	96.495597 
3633.000000	96.470810 
3632.000000	96.452553 
3631.000000	96.438832 
3630.000000	96.426908 
3629.000000	96.410587 
3628.000000	96.390724 
3627.000000	96.380958 
3626.000000	96.373815 
3625.000000	96.356093 
3624.000000	96.335601 
3623.000000	96.322217 
3622.000000	96.312101 
3621.000000	96.297855 
3620.000000	96.282761 
3619.000000	96.276417 
3618.000000	96.285587 
3617.000000	96.308806 
3616.000000	96.335618 
3615.000000	96.358070 
3614.000000	96.378142 
3613.000000	96.401581 
3612.000000	96.429117 
3611.000000	96.454020 
3610.000000	96.469121 
3609.000000	96.475033 
3608.000000	96.477254 
3607.000000	96.479439 
3606.000000	96.481695 
3605.000000	96.484205 
3604.000000	96.491234 
3603.000000	96.506416 
3602.000000	96.524899 
3601.000000	96.537148 
3600.000000	96.540057 
3599.000000	96.538204 
3598.000000	96.537053 
3597.000000	96.540907 
3596.000000	96.550093 
3595.000000	96.560759 
3594.000000	96.567582 
3593.000000	96.569468 
3592.000000	96.568217 
3591.000000	96.564907 
3590.000000	96.560068 
3589.000000	96.556326 
3588.000000	96.555949 
3587.000000	96.559701 
3586.000000	96.568317 
3585.000000	96.578900 
3584.000000	96.586677 
3583.000000	96.592259 
3582.000000	96.599241 
3581.000000	96.608079 
3580.000000	96.615473 
3579.000000	96.618829 
3578.000000	96.617863 
3577.000000	96.614407 
3576.000000	96.610495 
3575.000000	96.607226 
3574.000000	96.604793 
3573.000000	96.602556 
3572.000000	96.599731 
3571.000000	96.595723 
3570.000000	96.590723 
3569.000000	96.586372 
3568.000000	96.585078 
3567.000000	96.587526 
3566.000000	96.592756 
3565.000000	96.598531 
3564.000000	96.601075 
3563.000000	96.599594 
3562.000000	96.597514 
3561.000000	96.598075 
3560.000000	96.601011 
3559.000000	96.603859 
3558.000000	96.604941 
3557.000000	96.604707 
3556.000000	96.604950 
3555.000000	96.606372 
3554.000000	96.607798 
3553.000000	96.607700 
3552.000000	96.606126 
3551.000000	96.604160 
3550.000000	96.602122 
3549.000000	96.599826 
3548.000000	96.598213 
3547.000000	96.598417 
3546.000000	96.599756 
3545.000000	96.600546 
3544.000000	96.600444 
3543.000000	96.600499 
3542.000000	96.601443 
3541.000000	96.602918 
3540.000000	96.604150 
3539.000000	96.604571 
3538.000000	96.604132 
3537.000000	96.603264 
3536.000000	96.602538 
3535.000000	96.602228 
3534.000000	96.602163 
3533.000000	96.602099 
3532.000000	96.602033 
3531.000000	96.602149 
3530.000000	96.602375 
3529.000000	96.602303 
3528.000000	96.601612 
3527.000000	96.600452 
3526.000000	96.599293 
3525.000000	96.598570 
3524.000000	96.598590 
3523.000000	96.599458 
3522.000000	96.600874 
3521.000000	96.602112 
3520.000000	96.602623 
3519.000000	96.602460 
3518.000000	96.602015 
3517.000000	96.601449 
3516.000000	96.600555 
3515.000000	96.599334 
3514.000000	96.598292 
3513.000000	96.597960 
3512.000000	96.598249 
3511.000000	96.598522 
3510.000000	96.598251 
3509.000000	96.597534 
3508.000000	96.596866 
3507.000000	96.596435 
3506.000000	96.595809 
3505.000000	96.594516 
3504.000000	96.592654 
3503.000000	96.590867 
3502.000000	96.589721 
3501.000000	96.589184 
3500.000000	96.588767 
3499.000000	96.588093 
3498.000000	96.587224 
3497.000000	96.586446 
3496.000000	96.585835 
3495.000000	96.585164 
3494.000000	96.584307 
3493.000000	96.583530 
3492.000000	96.583113 
3491.000000	96.582837 
3490.000000	96.582106 
3489.000000	96.580654 
3488.000000	96.578843 
3487.000000	96.577112 
3486.000000	96.575399 
3485.000000	96.573469 
3484.000000	96.571502 
3483.000000	96.569922 
3482.000000	96.568732 
3481.000000	96.567539 
3480.000000	96.566104 
3479.000000	96.564521 
3478.000000	96.562866 
3477.000000	96.561077 
3476.000000	96.559176 
3475.000000	96.557228 
3474.000000	96.555185 
3473.000000	96.552942 
3472.000000	96.550518 
3471.000000	96.548039 
3470.000000	96.545558 
3469.000000	96.543024 
3468.000000	96.540537 
3467.000000	96.538450 
3466.000000	96.537068 
3465.000000	96.536186 
3464.000000	96.535069 
3463.000000	96.533008 
3462.000000	96.529886 
3461.000000	96.526259 
3460.000000	96.522912 
3459.000000	96.520230 
3458.000000	96.517971 
3457.000000	96.515574 
3456.000000	96.512718 
3455.000000	96.509659 
3454.000000	96.506951 
3453.000000	96.504975 
3452.000000	96.503721 
3451.000000	96.502820 
3450.000000	96.501591 
3449.000000	96.499376 
3448.000000	96.496043 
3447.000000	96.492179 
3446.000000	96.488602 
3445.000000	96.485624 
3444.000000	96.483066 
3443.000000	96.480791 
3442.000000	96.478811 
3441.000000	96.476901 
3440.000000	96.474546 
3439.000000	96.471399 
3438.000000	96.467660 
3437.000000	96.463894 
3436.000000	96.460671 
3435.000000	96.458437 
3434.000000	96.457333 
3433.000000	96.456965 
3432.000000	96.456506 
3431.000000	96.455315 
3430.000000	96.453368 
3429.000000	96.451087 
3428.000000	96.448815 
3427.000000	96.446528 
3426.000000	96.444131 
3425.000000	96.441898 
3424.000000	96.440322 
3423.000000	96.439436 
3422.000000	96.438585 
3421.000000	96.437142 
3420.000000	96.435239 
3419.000000	96.433507 
3418.000000	96.432249 
3417.000000	96.431278 
3416.000000	96.430435 
3415.000000	96.429738 
3414.000000	96.428962 
3413.000000	96.427550 
3412.000000	96.425225 
3411.000000	96.422480 
3410.000000	96.420263 
3409.000000	96.419218 
3408.000000	96.419217 
3407.000000	96.419393 
3406.000000	96.418755 
3405.000000	96.416995 
3404.000000	96.414674 
3403.000000	96.412560 
3402.000000	96.410924 
3401.000000	96.409664 
3400.000000	96.408829 
3399.000000	96.408624 
3398.000000	96.408968 
3397.000000	96.409413 
3396.000000	96.409544 
3395.000000	96.409256 
3394.000000	96.408634 
3393.000000	96.407790 
3392.000000	96.406862 
3391.000000	96.406042 
3390.000000	96.405538 
3389.000000	96.405570 
3388.000000	96.406318 
3387.000000	96.407727 
3386.000000	96.409341 
3385.000000	96.410469 
3384.000000	96.410643 
3383.000000	96.409991 
3382.000000	96.409215 
3381.000000	96.409080 
3380.000000	96.409731 
3379.000000	96.410621 
3378.000000	96.411215 
3377.000000	96.411700 
3376.000000	96.412658 
3375.000000	96.414133 
3374.000000	96.415401 
3373.000000	96.415804 
3372.000000	96.415517 
3371.000000	96.415397 
3370.000000	96.416109 
3369.000000	96.417591 
3368.000000	96.419304 
3367.000000	96.420758 
3366.000000	96.421801 
3365.000000	96.422547 
3364.000000	96.423217 
3363.000000	96.424010 
3362.000000	96.425011 
3361.000000	96.426200 
3360.000000	96.427540 
3359.000000	96.429009 
3358.000000	96.430537 
3357.000000	96.431993 
3356.000000	96.433280 
3355.000000	96.434425 
3354.000000	96.435551 
3353.000000	96.436775 
3352.000000	96.438139 
3351.000000	96.439603 
3350.000000	96.441079 
3349.000000	96.442464 
3348.000000	96.443706 
3347.000000	96.444851 
3346.000000	96.446013 
3345.000000	96.447261 
3344.000000	96.448511 
3343.000000	96.449565 
3342.000000	96.450319 
3341.000000	96.450936 
3340.000000	96.451725 
3339.000000	96.452810 
3338.000000	96.454103 
3337.000000	96.455457 
3336.000000	96.456792 
3335.000000	96.458098 
3334.000000	96.459366 
3333.000000	96.460587 
3332.000000	96.461785 
3331.000000	96.462994 
3330.000000	96.464220 
3329.000000	96.465442 
3328.000000	96.466648 
3327.000000	96.467848 
3326.000000	96.469057 
3325.000000	96.470275 
3324.000000	96.471485 
3323.000000	96.472671 
3322.000000	96.473836 
3321.000000	96.474995 
3320.000000	96.476159 
3319.000000	96.477329 
3318.000000	96.478500 
3317.000000	96.479670 
3316.000000	96.480838 
3315.000000	96.482000 
3314.000000	96.483153 
3313.000000	96.484296 
3312.000000	96.485433 
3311.000000	96.486571 
3310.000000	96.487716 
3309.000000	96.488873 
3308.000000	96.490041 
3307.000000	96.491215 
3306.000000	96.492398 
3305.000000	96.493593 
3304.000000	96.494810 
3303.000000	96.496056 
3302.000000	96.497330 
3301.000000	96.498624 
3300.000000	96.499923 
3299.000000	96.501215 
3298.000000	96.502491 
3297.000000	96.503755 
3296.000000	96.505019 
3295.000000	96.506292 
3294.000000	96.507581 
3293.000000	96.508890 
3292.000000	96.510218 
3291.000000	96.511562 
3290.000000	96.512916 
3289.000000	96.514274 
3288.000000	96.515626 
3287.000000	96.516968 
3286.000000	96.518298 
3285.000000	96.519616 
3284.000000	96.520925 
3283.000000	96.522232 
3282.000000	96.523547 
3281.000000	96.524877 
3280.000000	96.526217 
3279.000000	96.527558 
3278.000000	96.528897 
3277.000000	96.530244 
3276.000000	96.531617 
3275.000000	96.533015 
3274.000000	96.534415 
3273.000000	96.535804 
3272.000000	96.537202 
3271.000000	96.538651 
3270.000000	96.540162 
3269.000000	96.541707 
3268.000000	96.543246 
3267.000000	96.544759 
3266.000000	96.546252 
3265.000000	96.547755 
3264.000000	96.549297 
3263.000000	96.550882 
3262.000000	96.552480 
3261.000000	96.554057 
3260.000000	96.555595 
3259.000000	96.557097 
3258.000000	96.558583 
3257.000000	96.560082 
3256.000000	96.561632 
3255.000000	96.563249 
3254.000000	96.564902 
3253.000000	96.566559 
3252.000000	96.568229 
3251.000000	96.569937 
3250.000000	96.571677 
3249.000000	96.573397 
3248.000000	96.575055 
3247.000000	96.576660 
3246.000000	96.578269 
3245.000000	96.579939 
3244.000000	96.581690 
3243.000000	96.583510 
3242.000000	96.585368 
3241.000000	96.587230 
3240.000000	96.589071 
3239.000000	96.590892 
3238.000000	96.592731 
3237.000000	96.594647 
3236.000000	96.596673 
3235.000000	96.598782 
3234.000000	96.600900 
3233.000000	96.602964 
3232.000000	96.604960 
3231.000000	96.606936 
3230.000000	96.608953 
3229.000000	96.611032 
3228.000000	96.613159 
3227.000000	96.615321 
3226.000000	96.617530 
3225.000000	96.619801 
3224.000000	96.622094 
3223.000000	96.624345 
3222.000000	96.626540 
3221.000000	96.628739 
3220.000000	96.631019 
3219.000000	96.633398 
3218.000000	96.635834 
3217.000000	96.638271 
3216.000000	96.640687 
3215.000000	96.643105 
3214.000000	96.645565 
3213.000000	96.648082 
3212.000000	96.650621 
3211.000000	96.653128 
3210.000000	96.655594 
3209.000000	96.658085 
3208.000000	96.660683 
3207.000000	96.663398 
3206.000000	96.666151 
3205.000000	96.668854 
3204.000000	96.671507 
3203.000000	96.674200 
3202.000000	96.677014 
3201.000000	96.679929 
3200.000000	96.682837 
3199.000000	96.685642 
3198.000000	96.688343 
3197.000000	96.691025 
3196.000000	96.693746 
3195.000000	96.696493 
3194.000000	96.699264 
3193.000000	96.702143 
3192.000000	96.705223 
3191.000000	96.708463 
3190.000000	96.711673 
3189.000000	96.714671 
3188.000000	96.717415 
3187.000000	96.720035 
3186.000000	96.722769 
3185.000000	96.725784 
3184.000000	96.729034 
3183.000000	96.732319 
3182.000000	96.735534 
3181.000000	96.738739 
3180.000000	96.741986 
3179.000000	96.745188 
3178.000000	96.748249 
3177.000000	96.751219 
3176.000000	96.754252 
3175.000000	96.757431 
3174.000000	96.760735 
3173.000000	96.764089 
3172.000000	96.767389 
3171.000000	96.770520 
3170.000000	96.773464 
3169.000000	96.776352 
3168.000000	96.779359 
3167.000000	96.782510 
3166.000000	96.785689 
3165.000000	96.788773 
3164.000000	96.791727 
3163.000000	96.794584 
3162.000000	96.797409 
3161.000000	96.800265 
3160.000000	96.803183 
3159.000000	96.806141 
3158.000000	96.809104 
3157.000000	96.812057 
3156.000000	96.815005 
3155.000000	96.817946 
3154.000000	96.820879 
3153.000000	96.823820 
3152.000000	96.826790 
3151.000000	96.829780 
3150.000000	96.832760 
3149.000000	96.835708 
3148.000000	96.838629 
3147.000000	96.841554 
3146.000000	96.844520 
3145.000000	96.847555 
3144.000000	96.850651 
3143.000000	96.853737 
3142.000000	96.856706 
3141.000000	96.859496 
3140.000000	96.862168 
3139.000000	96.864895 
3138.000000	96.867784 
3137.000000	96.870776 
3136.000000	96.873695 
3135.000000	96.876428 
3134.000000	96.879026 
3133.000000	96.881653 
3132.000000	96.884421 
3131.000000	96.887295 
3130.000000	96.890149 
3129.000000	96.892968 
3128.000000	96.895897 
3127.000000	96.899078 
3126.000000	96.902458 
3125.000000	96.905833 
3124.000000	96.909021 
3123.000000	96.911872 
3122.000000	96.914199 
3121.000000	96.915949 
3120.000000	96.917433 
3119.000000	96.919189 
3118.000000	96.921584 
3117.000000	96.924685 
3116.000000	96.928409 
3115.000000	96.932552 
3114.000000	96.936685 
3113.000000	96.940321 
3112.000000	96.943370 
3111.000000	96.946276 
3110.000000	96.949525 
3109.000000	96.953116 
3108.000000	96.956696 
3107.000000	96.960087 
3106.000000	96.963382 
3105.000000	96.966535 
3104.000000	96.969119 
3103.000000	96.970622 
3102.000000	96.971001 
3101.000000	96.970916 
3100.000000	96.971362 
3099.000000	96.972979 
3098.000000	96.975832 
3097.000000	96.979769 
3096.000000	96.984547 
3095.000000	96.989533 
3094.000000	96.993785 
3093.000000	96.996773 
3092.000000	96.998886 
3091.000000	97.000876 
3090.000000	97.002932 
3089.000000	97.004688 
3088.000000	97.005984 
3087.000000	97.007256 
3086.000000	97.009122 
3085.000000	97.011729 
3084.000000	97.014555 
3083.000000	97.016830 
3082.000000	97.018205 
3081.000000	97.019085 
3080.000000	97.020271 
3079.000000	97.022187 
3078.000000	97.024652 
3077.000000	97.027433 
3076.000000	97.030626 
3075.000000	97.034148 
3074.000000	97.037251 
3073.000000	97.039245 
3072.000000	97.040492 
3071.000000	97.041921 
3070.000000	97.043629 
3069.000000	97.044897 
3068.000000	97.045652 
3067.000000	97.046845 
3066.000000	97.049002 
3065.000000	97.051364 
3064.000000	97.053026 
3063.000000	97.054050 
3062.000000	97.054876 
3061.000000	97.055395 
3060.000000	97.055364 
3059.000000	97.055319 
3058.000000	97.056428 
3057.000000	97.059494 
3056.000000	97.064120 
3055.000000	97.068524 
3054.000000	97.070434 
3053.000000	97.069073 
3052.000000	97.066552 
3051.000000	97.066372 
3050.000000	97.069802 
3049.000000	97.074458 
3048.000000	97.076915 
3047.000000	97.075977 
3046.000000	97.072798 
3045.000000	97.069016 
3044.000000	97.065955 
3043.000000	97.065127 
3042.000000	97.067867 
3041.000000	97.073666 
3040.000000	97.079619 
3039.000000	97.082486 
3038.000000	97.081267 
3037.000000	97.077531 
3036.000000	97.073506 
3035.000000	97.070109 
3034.000000	97.066978 
3033.000000	97.063845 
3032.000000	97.061157 
3031.000000	97.059428 
3030.000000	97.058610 
3029.000000	97.058218 
3028.000000	97.057433 
3027.000000	97.054942 
3026.000000	97.049612 
3025.000000	97.042053 
3024.000000	97.034809 
3023.000000	97.029926 
3022.000000	97.026821 
3021.000000	97.023706 
3020.000000	97.020453 
3019.000000	97.018342 
3018.000000	97.017110 
3017.000000	97.014265 
3016.000000	97.008061 
3015.000000	96.999732 
3014.000000	96.992183 
3013.000000	96.987454 
3012.000000	96.985750 
3011.000000	96.985587 
3010.000000	96.984279 
3009.000000	96.979562 
3008.000000	96.971599 
3007.000000	96.962740 
3006.000000	96.954875 
3005.000000	96.947910 
3004.000000	96.941224 
3003.000000	96.935223 
3002.000000	96.930600 
3001.000000	96.927098 
3000.000000	96.923830 
2999.000000	96.920010 
2998.000000	96.914847 
2997.000000	96.907652 
2996.000000	96.898805 
2995.000000	96.889773 
2994.000000	96.881417 
2993.000000	96.873030 
2992.000000	96.863724 
2991.000000	96.854065 
2990.000000	96.845724 
2989.000000	96.840159 
2988.000000	96.838184 
2987.000000	96.839956 
2986.000000	96.844697 
2985.000000	96.850939 
2984.000000	96.857476 
2983.000000	96.863708 
2982.000000	96.869000 
2981.000000	96.872630 
2980.000000	96.874556 
2979.000000	96.875121 
2978.000000	96.873791 
2977.000000	96.869705 
2976.000000	96.864119 
2975.000000	96.860737 
2974.000000	96.862353 
2973.000000	96.868291 
2972.000000	96.875956 
2971.000000	96.883745 
2970.000000	96.891249 
2969.000000	96.897870 
2968.000000	96.903079 
2967.000000	96.907523 
2966.000000	96.912372 
2965.000000	96.917938 
2964.000000	96.924095 
2963.000000	96.931376 
2962.000000	96.940095 
2961.000000	96.948812 
2960.000000	96.955391 
2959.000000	96.959705 
2958.000000	96.963957 
2957.000000	96.970050 
2956.000000	96.977555 
2955.000000	96.984402 
2954.000000	96.988893 
2953.000000	96.991085 
2952.000000	96.992906 
2951.000000	96.996632 
2950.000000	97.002390 
2949.000000	97.007477 
2948.000000	97.009124 
2947.000000	97.007677 
2946.000000	97.006252 
2945.000000	97.007460 
2944.000000	97.011331 
2943.000000	97.016149 
2942.000000	97.020010 
2941.000000	97.021608 
2940.000000	97.020921 
2939.000000	97.019838 
2938.000000	97.021102 
2937.000000	97.025796 
2936.000000	97.032177 
2935.000000	97.037242 
2934.000000	97.039066 
2933.000000	97.037549 
2932.000000	97.034000 
2931.000000	97.030662 
2930.000000	97.029875 
2929.000000	97.032632 
2928.000000	97.037733 
2927.000000	97.042624 
2926.000000	97.045287 
2925.000000	97.045582 
2924.000000	97.045152 
2923.000000	97.046048 
2922.000000	97.048859 
2921.000000	97.052033 
2920.000000	97.053590 
2919.000000	97.053513 
2918.000000	97.053589 
2917.000000	97.054527 
2916.000000	97.054362 
2915.000000	97.050817 
2914.000000	97.044679 
2913.000000	97.039578 
2912.000000	97.038193 
2911.000000	97.039675 
2910.000000	97.041106 
2909.000000	97.040841 
2908.000000	97.039772 
2907.000000	97.039537 
2906.000000	97.040237 
2905.000000	97.040145 
2904.000000	97.037610 
2903.000000	97.033201 
2902.000000	97.029909 
2901.000000	97.030734 
2900.000000	97.036166 
2899.000000	97.044017 
2898.000000	97.051335 
2897.000000	97.056776 
2896.000000	97.060707 
2895.000000	97.063701 
2894.000000	97.065811 
2893.000000	97.067478 
2892.000000	97.070090 
2891.000000	97.074689 
2890.000000	97.080509 
2889.000000	97.085811 
2888.000000	97.090021 
2887.000000	97.093874 
2886.000000	97.097374 
2885.000000	97.099291 
2884.000000	97.099616 
2883.000000	97.100986 
2882.000000	97.105907 
2881.000000	97.113357 
2880.000000	97.120045 
2879.000000	97.124870 
2878.000000	97.129908 
2877.000000	97.136563 
2876.000000	97.142999 
2875.000000	97.146778 
2874.000000	97.148371 
2873.000000	97.150287 
2872.000000	97.153617 
2871.000000	97.157254 
2870.000000	97.160202 
2869.000000	97.162855 
2868.000000	97.165830 
2867.000000	97.169106 
2866.000000	97.172720 
2865.000000	97.177112 
2864.000000	97.182349 
2863.000000	97.188063 
2862.000000	97.194556 
2861.000000	97.202828 
2860.000000	97.212802 
2859.000000	97.222513 
2858.000000	97.230078 
2857.000000	97.235899 
2856.000000	97.241951 
2855.000000	97.249108 
2854.000000	97.256101 
2853.000000	97.261152 
2852.000000	97.263785 
2851.000000	97.264943 
2850.000000	97.265963 
2849.000000	97.267712 
2848.000000	97.270331 
2847.000000	97.273382 
2846.000000	97.276279 
2845.000000	97.278855 
2844.000000	97.281575 
2843.000000	97.285069 
2842.000000	97.289338 
2841.000000	97.293431 
2840.000000	97.296003 
2839.000000	97.296412 
2838.000000	97.295385 
2837.000000	97.294565 
2836.000000	97.295347 
2835.000000	97.298102 
2834.000000	97.302420 
2833.000000	97.307727 
2832.000000	97.313407 
2831.000000	97.318509 
2830.000000	97.321882 
2829.000000	97.322996 
2828.000000	97.322646 
2827.000000	97.322629 
2826.000000	97.324447 
2825.000000	97.328176 
2824.000000	97.332548 
2823.000000	97.336008 
2822.000000	97.337793 
2821.000000	97.338177 
2820.000000	97.338001 
2819.000000	97.338056 
2818.000000	97.338725 
2817.000000	97.339987 
2816.000000	97.341654 
2815.000000	97.343558 
2814.000000	97.345488 
2813.000000	97.347050 
2812.000000	97.347851 
2811.000000	97.347951 
2810.000000	97.347985 
2809.000000	97.348674 
2808.000000	97.350224 
2807.000000	97.352301 
2806.000000	97.354449 
2805.000000	97.356401 
2804.000000	97.358059 
2803.000000	97.359371 
2802.000000	97.360415 
2801.000000	97.361467 
2800.000000	97.362796 
2799.000000	97.364365 
2798.000000	97.365854 
2797.000000	97.367005 
2796.000000	97.367865 
2795.000000	97.368695 
2794.000000	97.369701 
2793.000000	97.370883 
2792.000000	97.372123 
2791.000000	97.373343 
2790.000000	97.374529 
2789.000000	97.375670 
2788.000000	97.376738 
2787.000000	97.377741 
2786.000000	97.378742 
2785.000000	97.379823 
2784.000000	97.381001 
2783.000000	97.382216 
2782.000000	97.383396 
2781.000000	97.384521 
2780.000000	97.385616 
2779.000000	97.386706 
2778.000000	97.387798 
2777.000000	97.388879 
2776.000000	97.389935 
2775.000000	97.390967 
2774.000000	97.392000 
2773.000000	97.393061 
2772.000000	97.394144 
2771.000000	97.395216 
2770.000000	97.396267 
2769.000000	97.397336 
2768.000000	97.398462 
2767.000000	97.399619 
2766.000000	97.400727 
2765.000000	97.401736 
2764.000000	97.402671 
2763.000000	97.403585 
2762.000000	97.404490 
2761.000000	97.405371 
2760.000000	97.406234 
2759.000000	97.407116 
2758.000000	97.408041 
2757.000000	97.408983 
2756.000000	97.409876 
2755.000000	97.410685 
2754.000000	97.411434 
2753.000000	97.412186 
2752.000000	97.412977 
2751.000000	97.413794 
2750.000000	97.414613 
2749.000000	97.415431 
2748.000000	97.416244 
2747.000000	97.417011 
2746.000000	97.417691 
2745.000000	97.418300 
2744.000000	97.418896 
2743.000000	97.419528 
2742.000000	97.420201 
2741.000000	97.420898 
2740.000000	97.421597 
2739.000000	97.422292 
2738.000000	97.422983 
2737.000000	97.423667 
2736.000000	97.424349 
2735.000000	97.425033 
2734.000000	97.425728 
2733.000000	97.426432 
2732.000000	97.427140 
2731.000000	97.427848 
2730.000000	97.428550 
2729.000000	97.429242 
2728.000000	97.429921 
2727.000000	97.430580 
2726.000000	97.431221 
2725.000000	97.431847 
2724.000000	97.432468 
2723.000000	97.433091 
2722.000000	97.433719 
2721.000000	97.434350 
2720.000000	97.434983 
2719.000000	97.435618 
2718.000000	97.436259 
2717.000000	97.436903 
2716.000000	97.437546 
2715.000000	97.438186 
2714.000000	97.438824 
2713.000000	97.439465 
2712.000000	97.440111 
2711.000000	97.440762 
2710.000000	97.441414 
2709.000000	97.442066 
2708.000000	97.442720 
2707.000000	97.443379 
2706.000000	97.444043 
2705.000000	97.444711 
2704.000000	97.445376 
2703.000000	97.446034 
2702.000000	97.446682 
2701.000000	97.447318 
2700.000000	97.447942 
2699.000000	97.448550 
2698.000000	97.449137 
2697.000000	97.449696 
2696.000000	97.450221 
2695.000000	97.450715 
2694.000000	97.451182 
2693.000000	97.451626 
2692.000000	97.452049 
2691.000000	97.452449 
2690.000000	97.452826 
2689.000000	97.453182 
2688.000000	97.453520 
2687.000000	97.453843 
2686.000000	97.454154 
2685.000000	97.454455 
2684.000000	97.454752 
2683.000000	97.455047 
2682.000000	97.455331 
2681.000000	97.455592 
2680.000000	97.455825 
2679.000000	97.456045 
2678.000000	97.456272 
2677.000000	97.456513 
2676.000000	97.456745 
2675.000000	97.456918 
2674.000000	97.456995 
2673.000000	97.456999 
2672.000000	97.457022 
2671.000000	97.457132 
2670.000000	97.457302 
2669.000000	97.457419 
2668.000000	97.457429 
2667.000000	97.457392 
2666.000000	97.457382 
2665.000000	97.457365 
2664.000000	97.457273 
2663.000000	97.457123 
2662.000000	97.456998 
2661.000000	97.456934 
2660.000000	97.456873 
2659.000000	97.456742 
2658.000000	97.456530 
2657.000000	97.456294 
2656.000000	97.456112 
2655.000000	97.456013 
2654.000000	97.455946 
2653.000000	97.455816 
2652.000000	97.455596 
2651.000000	97.455372 
2650.000000	97.455258 
2649.000000	97.455267 
2648.000000	97.455311 
2647.000000	97.455309 
2646.000000	97.455222 
2645.000000	97.455031 
2644.000000	97.454743 
2643.000000	97.454444 
2642.000000	97.454267 
2641.000000	97.454267 
2640.000000	97.454369 
2639.000000	97.454449 
2638.000000	97.454461 
2637.000000	97.454434 
2636.000000	97.454407 
2635.000000	97.454408 
2634.000000	97.454463 
2633.000000	97.454569 
2632.000000	97.454672 
2631.000000	97.454688 
2630.000000	97.454602 
2629.000000	97.454465 
2628.000000	97.454354 
2627.000000	97.454301 
2626.000000	97.454297 
2625.000000	97.454327 
2624.000000	97.454384 
2623.000000	97.454460 
2622.000000	97.454543 
2621.000000	97.454615 
2620.000000	97.454659 
2619.000000	97.454674 
2618.000000	97.454679 
2617.000000	97.454709 
2616.000000	97.454789 
2615.000000	97.454916 
2614.000000	97.455064 
2613.000000	97.455206 
2612.000000	97.455338 
2611.000000	97.455471 
2610.000000	97.455616 
2609.000000	97.455776 
2608.000000	97.455939 
2607.000000	97.456097 
2606.000000	97.456248 
2605.000000	97.456400 
2604.000000	97.456560 
2603.000000	97.456727 
2602.000000	97.456894 
2601.000000	97.457050 
2600.000000	97.457195 
2599.000000	97.457338 
2598.000000	97.457479 
2597.000000	97.457612 
2596.000000	97.457733 
2595.000000	97.457843 
2594.000000	97.457946 
2593.000000	97.458052 
2592.000000	97.458221 
2591.000000	97.458523 
2590.000000	97.458936 
2589.000000	97.459316 
2588.000000	97.459550 
2587.000000	97.459686 
2586.000000	97.459882 
2585.000000	97.460216 
2584.000000	97.460642 
2583.000000	97.461109 
2582.000000	97.461592 
2581.000000	97.462008 
2580.000000	97.462254 
2579.000000	97.462349 
2578.000000	97.462455 
2577.000000	97.462702 
2576.000000	97.463020 
2575.000000	97.463155 
2574.000000	97.462883 
2573.000000	97.462277 
2572.000000	97.461765 
2571.000000	97.461755 
2570.000000	97.462243 
2569.000000	97.462881 
2568.000000	97.463455 
2567.000000	97.464026 
2566.000000	97.464542 
2565.000000	97.464656 
2564.000000	97.464124 
2563.000000	97.463169 
2562.000000	97.462252 
2561.000000	97.461731 
2560.000000	97.461925 
2559.000000	97.463199 
2558.000000	97.465518 
2557.000000	97.468027 
2556.000000	97.469655 
2555.000000	97.470155 
2554.000000	97.470153 
2553.000000	97.470226 
2552.000000	97.470222 
2551.000000	97.469867 
2550.000000	97.469515 
2549.000000	97.469701 
2548.000000	97.470211 
2547.000000	97.470263 
2546.000000	97.469618 
2545.000000	97.468907 
2544.000000	97.468626 
2543.000000	97.468374 
2542.000000	97.467557 
2541.000000	97.466480 
2540.000000	97.466148 
2539.000000	97.466977 
2538.000000	97.468337 
2537.000000	97.469419 
2536.000000	97.470215 
2535.000000	97.471228 
2534.000000	97.472512 
2533.000000	97.473484 
2532.000000	97.473672 
2531.000000	97.473290 
2530.000000	97.472926 
2529.000000	97.472849 
2528.000000	97.472841 
2527.000000	97.472659 
2526.000000	97.472470 
2525.000000	97.472715 
2524.000000	97.473601 
2523.000000	97.474844 
2522.000000	97.475898 
2521.000000	97.476443 
2520.000000	97.476577 
2519.000000	97.476611 
2518.000000	97.476728 
2517.000000	97.476819 
2516.000000	97.476598 
2515.000000	97.475890 
2514.000000	97.474945 
2513.000000	97.474418 
2512.000000	97.474805 
2511.000000	97.476023 
2510.000000	97.477548 
2509.000000	97.478883 
2508.000000	97.479841 
2507.000000	97.480384 
2506.000000	97.480553 
2505.000000	97.480615 
2504.000000	97.480989 
2503.000000	97.481814 
2502.000000	97.482736 
2501.000000	97.483284 
2500.000000	97.483392 
2499.000000	97.483379 
2498.000000	97.483545 
2497.000000	97.483898 
2496.000000	97.484326 
2495.000000	97.484800 
2494.000000	97.485279 
2493.000000	97.485609 
2492.000000	97.485687 
2491.000000	97.485677 
2490.000000	97.485915 
2489.000000	97.486534 
2488.000000	97.487278 
2487.000000	97.487759 
2486.000000	97.487866 
2485.000000	97.487853 
2484.000000	97.488043 
2483.000000	97.488491 
2482.000000	97.488985 
2481.000000	97.489338 
2480.000000	97.489597 
2479.000000	97.489922 
2478.000000	97.490370 
2477.000000	97.490841 
2476.000000	97.491124 
2475.000000	97.490951 
2474.000000	97.490140 
2473.000000	97.488862 
2472.000000	97.487657 
2471.000000	97.486966 
2470.000000	97.486833 
2469.000000	97.487190 
2468.000000	97.488109 
2467.000000	97.489492 
2466.000000	97.490712 
2465.000000	97.491040 
2464.000000	97.490558 
2463.000000	97.490239 
2462.000000	97.490956 
2461.000000	97.492660 
2460.000000	97.494600 
2459.000000	97.496104 
2458.000000	97.496872 
2457.000000	97.496745 
2456.000000	97.495677 
2455.000000	97.493993 
2454.000000	97.492441 
2453.000000	97.491622 
2452.000000	97.491478 
2451.000000	97.491507 
2450.000000	97.491522 
2449.000000	97.491934 
2448.000000	97.493073 
2447.000000	97.494458 
2446.000000	97.495125 
2445.000000	97.494695 
2444.000000	97.493747 
2443.000000	97.493125 
2442.000000	97.493126 
2441.000000	97.493504 
2440.000000	97.493990 
2439.000000	97.494637 
2438.000000	97.495793 
2437.000000	97.497805 
2436.000000	97.500570 
2435.000000	97.503290 
2434.000000	97.504961 
2433.000000	97.505243 
2432.000000	97.504710 
2431.000000	97.504264 
2430.000000	97.504467 
2429.000000	97.505433 
2428.000000	97.506925 
2427.000000	97.508339 
2426.000000	97.508846 
2425.000000	97.507874 
2424.000000	97.505903 
2423.000000	97.504298 
2422.000000	97.503989 
2421.000000	97.505302 
2420.000000	97.508344 
2419.000000	97.512347 
2418.000000	97.515612 
2417.000000	97.517245 
2416.000000	97.518159 
2415.000000	97.519460 
2414.000000	97.521079 
2413.000000	97.522876 
2412.000000	97.525547 
2411.000000	97.529019 
2410.000000	97.531365 
2409.000000	97.531198 
2408.000000	97.530020 
2407.000000	97.530219 
2406.000000	97.531504 
2405.000000	97.531397 
2404.000000	97.528877 
2403.000000	97.525561 
2402.000000	97.523437 
2401.000000	97.523289 
2400.000000	97.525359 
2399.000000	97.529668 
2398.000000	97.535302 
2397.000000	97.540669 
2396.000000	97.544657 
2395.000000	97.546689 
2394.000000	97.546139 
2393.000000	97.543287 
2392.000000	97.540521 
2391.000000	97.540901 
2390.000000	97.545271 
2389.000000	97.552084 
2388.000000	97.560028 
2387.000000	97.569244 
2386.000000	97.579844 
2385.000000	97.590717 
2384.000000	97.600216 
2383.000000	97.606574 
2382.000000	97.607147 
2381.000000	97.599314 
2380.000000	97.583322 
2379.000000	97.563068 
2378.000000	97.542830 
2377.000000	97.524562 
2376.000000	97.510176 
2375.000000	97.504086 
2374.000000	97.509581 
2373.000000	97.523598 
2372.000000	97.538380 
2371.000000	97.549306 
2370.000000	97.557521 
2369.000000	97.564132 
2368.000000	97.566688 
2367.000000	97.563324 
2366.000000	97.556523 
2365.000000	97.550376 
2364.000000	97.546565 
2363.000000	97.545042 
2362.000000	97.546135 
2361.000000	97.549513 
2360.000000	97.554456 
2359.000000	97.559997 
2358.000000	97.563858 
2357.000000	97.563335 
2356.000000	97.557977 
2355.000000	97.550497 
2354.000000	97.541955 
2353.000000	97.533967 
2352.000000	97.531635 
2351.000000	97.537395 
2350.000000	97.547536 
2349.000000	97.555221 
2348.000000	97.557900 
2347.000000	97.557249 
2346.000000	97.556789 
2345.000000	97.559800 
2344.000000	97.565863 
2343.000000	97.571904 
2342.000000	97.574197 
2341.000000	97.572521 
2340.000000	97.569855 
2339.000000	97.568424 
2338.000000	97.567439 
2337.000000	97.565161 
2336.000000	97.563102 
2335.000000	97.564111 
2334.000000	97.567381 
2333.000000	97.569621 
2332.000000	97.571208 
2331.000000	97.574687 
2330.000000	97.580554 
2329.000000	97.585780 
2328.000000	97.590588 
2327.000000	97.596997 
2326.000000	97.604021 
2325.000000	97.609517 
2324.000000	97.612760 
2323.000000	97.616080 
2322.000000	97.617664 
2321.000000	97.614377 
2320.000000	97.607500 
2319.000000	97.602682 
2318.000000	97.602855 
2317.000000	97.603915 
2316.000000	97.601990 
2315.000000	97.597904 
2314.000000	97.596244 
2313.000000	97.599141 
2312.000000	97.606366 
2311.000000	97.616153 
2310.000000	97.625147 
2309.000000	97.629757 
2308.000000	97.629601 
2307.000000	97.628634 
2306.000000	97.629428 
2305.000000	97.631264 
2304.000000	97.632580 
2303.000000	97.634552 
2302.000000	97.638781 
2301.000000	97.643909 
2300.000000	97.646052 
2299.000000	97.641675 
2298.000000	97.630319 
2297.000000	97.614032 
2296.000000	97.597115 
2295.000000	97.584065 
2294.000000	97.576162 
2293.000000	97.570770 
2292.000000	97.564660 
2291.000000	97.557837 
2290.000000	97.551889 
2289.000000	97.547835 
2288.000000	97.545164 
2287.000000	97.543126 
2286.000000	97.540426 
2285.000000	97.536065 
2284.000000	97.530610 
2283.000000	97.526070 
2282.000000	97.522927 
2281.000000	97.519141 
2280.000000	97.513007 
2279.000000	97.505640 
2278.000000	97.499337 
2277.000000	97.494935 
2276.000000	97.492389 
2275.000000	97.491755 
2274.000000	97.492841 
2273.000000	97.495008 
2272.000000	97.498224 
2271.000000	97.502452 
2270.000000	97.505847 
2269.000000	97.506142 
2268.000000	97.504142 
2267.000000	97.503108 
2266.000000	97.504101 
2265.000000	97.504568 
2264.000000	97.502256 
2263.000000	97.497778 
2262.000000	97.492604 
2261.000000	97.487242 
2260.000000	97.482143 
2259.000000	97.478289 
2258.000000	97.475809 
2257.000000	97.473978 
2256.000000	97.473076 
2255.000000	97.474363 
2254.000000	97.477613 
2253.000000	97.480197 
2252.000000	97.479835 
2251.000000	97.476816 
2250.000000	97.472632 
2249.000000	97.468031 
2248.000000	97.463485 
2247.000000	97.460179 
2246.000000	97.458927 
2245.000000	97.458883 
2244.000000	97.458290 
2243.000000	97.456410 
2242.000000	97.453970 
2241.000000	97.452061 
2240.000000	97.451121 
2239.000000	97.450882 
2238.000000	97.450736 
2237.000000	97.450173 
2236.000000	97.449149 
2235.000000	97.447957 
2234.000000	97.446828 
2233.000000	97.445765 
2232.000000	97.444710 
2231.000000	97.443676 
2230.000000	97.442640 
2229.000000	97.441487 
2228.000000	97.440161 
2227.000000	97.438804 
2226.000000	97.437568 
2225.000000	97.436373 
2224.000000	97.435050 
2223.000000	97.433606 
2222.000000	97.432187 
2221.000000	97.430895 
2220.000000	97.429688 
2219.000000	97.428497 
2218.000000	97.427308 
2217.000000	97.426134 
2216.000000	97.424973 
2215.000000	97.423813 
2214.000000	97.422641 
2213.000000	97.421447 
2212.000000	97.420237 
2211.000000	97.419038 
2210.000000	97.417880 
2209.000000	97.416771 
2208.000000	97.415691 
2207.000000	97.414610 
2206.000000	97.413503 
2205.000000	97.412351 
2204.000000	97.411157 
2203.000000	97.409993 
2202.000000	97.409012 
2201.000000	97.408201 
2200.000000	97.407177 
2199.000000	97.405487 
2198.000000	97.403029 
2197.000000	97.400169 
2196.000000	97.397554 
2195.000000	97.395684 
2194.000000	97.394541 
2193.000000	97.393748 
2192.000000	97.393218 
2191.000000	97.393161 
2190.000000	97.393320 
2189.000000	97.393041 
2188.000000	97.392409 
2187.000000	97.392012 
2186.000000	97.390947 
2185.000000	97.386887 
2184.000000	97.379727 
2183.000000	97.373869 
2182.000000	97.373990 
2181.000000	97.379612 
2180.000000	97.385152 
2179.000000	97.386067 
2178.000000	97.382784 
2177.000000	97.378585 
2176.000000	97.376243 
2175.000000	97.376942 
2174.000000	97.380288 
2173.000000	97.384382 
2172.000000	97.387628 
2171.000000	97.390674 
2170.000000	97.394546 
2169.000000	97.397093 
2168.000000	97.394134 
2167.000000	97.384787 
2166.000000	97.373251 
2165.000000	97.364001 
2164.000000	97.357323 
2163.000000	97.351452 
2162.000000	97.347445 
2161.000000	97.349460 
2160.000000	97.360201 
2159.000000	97.377304 
2158.000000	97.394626 
2157.000000	97.407658 
2156.000000	97.416713 
2155.000000	97.424053 
2154.000000	97.430039 
2153.000000	97.434069 
2152.000000	97.437403 
2151.000000	97.441464 
2150.000000	97.443991 
2149.000000	97.441437 
2148.000000	97.435905 
2147.000000	97.434850 
2146.000000	97.441680 
2145.000000	97.451312 
2144.000000	97.457955 
2143.000000	97.463018 
2142.000000	97.470871 
2141.000000	97.480621 
2140.000000	97.487638 
2139.000000	97.491311 
2138.000000	97.495906 
2137.000000	97.503716 
2136.000000	97.511731 
2135.000000	97.515407 
2134.000000	97.512815 
2133.000000	97.505872 
2132.000000	97.499690 
2131.000000	97.499096 
2130.000000	97.503968 
2129.000000	97.509235 
2128.000000	97.510824 
2127.000000	97.510121 
2126.000000	97.511023 
2125.000000	97.514553 
2124.000000	97.518536 
2123.000000	97.520960 
2122.000000	97.521147 
2121.000000	97.518855 
2120.000000	97.514470 
2119.000000	97.509619 
2118.000000	97.506045 
2117.000000	97.504118 
2116.000000	97.503104 
2115.000000	97.502151 
2114.000000	97.500397 
2113.000000	97.497433 
2112.000000	97.494658 
2111.000000	97.494713 
2110.000000	97.498340 
2109.000000	97.503052 
2108.000000	97.506056 
2107.000000	97.507160 
2106.000000	97.507604 
2105.000000	97.507938 
2104.000000	97.508588 
2103.000000	97.510572 
2102.000000	97.513659 
2101.000000	97.515276 
2100.000000	97.513378 
2099.000000	97.509564 
2098.000000	97.507737 
2097.000000	97.509834 
2096.000000	97.514525 
2095.000000	97.519190 
2094.000000	97.521994 
2093.000000	97.522443 
2092.000000	97.521077 
2091.000000	97.519191 
2090.000000	97.518059 
2089.000000	97.518041 
2088.000000	97.518506 
2087.000000	97.518400 
2086.000000	97.516859 
2085.000000	97.513751 
2084.000000	97.510048 
2083.000000	97.507283 
2082.000000	97.506189 
2081.000000	97.506242 
2080.000000	97.506636 
2079.000000	97.507161 
2078.000000	97.507748 
2077.000000	97.507855 
2076.000000	97.507144 
2075.000000	97.506238 
2074.000000	97.505850 
2073.000000	97.505511 
2072.000000	97.504092 
2071.000000	97.501377 
2070.000000	97.498234 
2069.000000	97.495535 
2068.000000	97.493680 
2067.000000	97.492768 
2066.000000	97.492573 
2065.000000	97.492316 
2064.000000	97.491145 
2063.000000	97.489055 
2062.000000	97.486857 
2061.000000	97.485384 
2060.000000	97.484853 
2059.000000	97.485036 
2058.000000	97.485441 
2057.000000	97.485379 
2056.000000	97.484392 
2055.000000	97.482541 
2054.000000	97.480357 
2053.000000	97.478459 
2052.000000	97.477124 
2051.000000	97.476197 
2050.000000	97.475312 
2049.000000	97.474242 
2048.000000	97.473155 
2047.000000	97.472430 
2046.000000	97.472196 
2045.000000	97.472225 
2044.000000	97.472279 
2043.000000	97.472368 
2042.000000	97.472588 
2041.000000	97.472904 
2040.000000	97.473249 
2039.000000	97.473675 
2038.000000	97.474172 
2037.000000	97.474475 
2036.000000	97.474336 
2035.000000	97.473881 
2034.000000	97.473542 
2033.000000	97.473655 
2032.000000	97.474269 
2031.000000	97.475158 
2030.000000	97.475802 
2029.000000	97.475677 
2028.000000	97.474757 
2027.000000	97.473694 
2026.000000	97.473115 
2025.000000	97.472954 
2024.000000	97.472882 
2023.000000	97.473152 
2022.000000	97.474396 
2021.000000	97.476586 
2020.000000	97.478565 
2019.000000	97.479074 
2018.000000	97.477753 
2017.000000	97.475244 
2016.000000	97.472799 
2015.000000	97.471404 
2014.000000	97.471034 
2013.000000	97.470538 
2012.000000	97.468941 
2011.000000	97.467051 
2010.000000	97.466726 
2009.000000	97.468479 
2008.000000	97.470837 
2007.000000	97.472288 
2006.000000	97.472918 
2005.000000	97.473343 
2004.000000	97.473316 
2003.000000	97.472464 
2002.000000	97.471444 
2001.000000	97.471055 
2000.000000	97.470735 
1999.000000	97.468880 
1998.000000	97.464668 
1997.000000	97.459123 
1996.000000	97.454456 
1995.000000	97.452312 
1994.000000	97.452609 
1993.000000	97.453540 
1992.000000	97.453013 
1991.000000	97.450741 
1990.000000	97.448446 
1989.000000	97.447830 
1988.000000	97.448741 
1987.000000	97.449411 
1986.000000	97.448265 
1985.000000	97.445447 
1984.000000	97.442599 
1983.000000	97.441186 
1982.000000	97.441140 
1981.000000	97.441292 
1980.000000	97.441101 
1979.000000	97.441244 
1978.000000	97.442224 
1977.000000	97.443310 
1976.000000	97.443495 
1975.000000	97.443025 
1974.000000	97.443185 
1973.000000	97.444864 
1972.000000	97.447813 
1971.000000	97.451022 
1970.000000	97.453371 
1969.000000	97.454106 
1968.000000	97.453223 
1967.000000	97.451607 
1966.000000	97.450657 
1965.000000	97.451200 
1964.000000	97.453115 
1963.000000	97.455779 
1962.000000	97.458585 
1961.000000	97.461102 
1960.000000	97.462992 
1959.000000	97.464087 
1958.000000	97.464615 
1957.000000	97.465204 
1956.000000	97.466389 
1955.000000	97.468129 
1954.000000	97.469902 
1953.000000	97.471289 
1952.000000	97.472331 
1951.000000	97.473305 
1950.000000	97.474388 
1949.000000	97.475700 
1948.000000	97.477446 
1947.000000	97.479649 
1946.000000	97.481812 
1945.000000	97.483251 
1944.000000	97.483801 
1943.000000	97.483931 
1942.000000	97.484257 
1941.000000	97.484951 
1940.000000	97.485884 
1939.000000	97.486907 
1938.000000	97.487935 
1937.000000	97.488960 
1936.000000	97.490068 
1935.000000	97.491275 
1934.000000	97.492355 
1933.000000	97.493083 
1932.000000	97.493671 
1931.000000	97.494695 
1930.000000	97.496291 
1929.000000	97.497726 
1928.000000	97.498428 
1927.000000	97.498685 
1926.000000	97.499000 
1925.000000	97.499096 
1924.000000	97.498600 
1923.000000	97.498093 
1922.000000	97.498186 
1921.000000	97.498395 
1920.000000	97.498044 
1919.000000	97.497422 
1918.000000	97.496928 
1917.000000	97.495992 
1916.000000	97.494350 
1915.000000	97.493079 
1914.000000	97.493136 
1913.000000	97.493912 
1912.000000	97.493990 
1911.000000	97.493225 
1910.000000	97.492527 
1909.000000	97.492246 
1908.000000	97.492158 
1907.000000	97.492059 
1906.000000	97.491656 
1905.000000	97.490114 
1904.000000	97.487163 
1903.000000	97.484214 
1902.000000	97.482726 
1901.000000	97.482380 
1900.000000	97.482005 
1899.000000	97.481362 
1898.000000	97.480986 
1897.000000	97.480730 
1896.000000	97.479823 
1895.000000	97.478207 
1894.000000	97.476411 
1893.000000	97.474568 
1892.000000	97.472661 
1891.000000	97.471331 
1890.000000	97.471213 
1889.000000	97.471796 
1888.000000	97.472180 
1887.000000	97.472382 
1886.000000	97.472739 
1885.000000	97.472789 
1884.000000	97.471751 
1883.000000	97.469835 
1882.000000	97.468148 
1881.000000	97.467436 
1880.000000	97.467667 
1879.000000	97.468255 
1878.000000	97.468453 
1877.000000	97.467951 
1876.000000	97.467329 
1875.000000	97.467809 
1874.000000	97.469956 
1873.000000	97.472752 
1872.000000	97.474708 
1871.000000	97.475487 
1870.000000	97.475469 
1869.000000	97.474503 
1868.000000	97.472908 
1867.000000	97.472431 
1866.000000	97.473711 
1865.000000	97.474948 
1864.000000	97.474471 
1863.000000	97.473279 
1862.000000	97.473707 
1861.000000	97.476137 
1860.000000	97.478961 
1859.000000	97.481378 
1858.000000	97.483981 
1857.000000	97.486851 
1856.000000	97.489321 
1855.000000	97.491332 
1854.000000	97.493149 
1853.000000	97.494224 
1852.000000	97.494612 
1851.000000	97.495537 
1850.000000	97.497834 
1849.000000	97.500858 
1848.000000	97.503449 
1847.000000	97.505612 
1846.000000	97.507975 
1845.000000	97.510308 
1844.000000	97.511722 
1843.000000	97.512798 
1842.000000	97.514601 
1841.000000	97.516681 
1840.000000	97.518606 
1839.000000	97.520729 
1838.000000	97.523064 
1837.000000	97.524472 
1836.000000	97.524260 
1835.000000	97.523710 
1834.000000	97.524413 
1833.000000	97.526124 
1832.000000	97.527472 
1831.000000	97.527637 
1830.000000	97.527073 
1829.000000	97.526984 
1828.000000	97.527863 
1827.000000	97.529311 
1826.000000	97.531053 
1825.000000	97.532867 
1824.000000	97.534220 
1823.000000	97.534971 
1822.000000	97.535463 
1821.000000	97.535901 
1820.000000	97.536212 
1819.000000	97.536453 
1818.000000	97.536997 
1817.000000	97.537837 
1816.000000	97.538466 
1815.000000	97.538728 
1814.000000	97.539016 
1813.000000	97.539643 
1812.000000	97.540251 
1811.000000	97.540425 
1810.000000	97.540427 
1809.000000	97.540608 
1808.000000	97.540925 
1807.000000	97.541302 
1806.000000	97.541797 
1805.000000	97.542309 
1804.000000	97.542626 
1803.000000	97.542839 
1802.000000	97.543180 
1801.000000	97.543609 
1800.000000	97.543793 
1799.000000	97.543726 
1798.000000	97.543848 
1797.000000	97.544288 
1796.000000	97.544811 
1795.000000	97.545352 
1794.000000	97.546147 
1793.000000	97.547181 
1792.000000	97.547833 
1791.000000	97.548031 
1790.000000	97.548482 
1789.000000	97.549246 
1788.000000	97.549940 
1787.000000	97.550628 
1786.000000	97.551739 
1785.000000	97.553104 
1784.000000	97.554025 
1783.000000	97.554410 
1782.000000	97.554585 
1781.000000	97.555113 
1780.000000	97.556234 
1779.000000	97.557750 
1778.000000	97.559476 
1777.000000	97.561214 
1776.000000	97.562923 
1775.000000	97.564422 
1774.000000	97.565454 
1773.000000	97.566043 
1772.000000	97.566350 
1771.000000	97.566761 
1770.000000	97.567729 
1769.000000	97.569300 
1768.000000	97.571236 
1767.000000	97.573004 
1766.000000	97.574113 
1765.000000	97.574677 
1764.000000	97.575093 
1763.000000	97.575662 
1762.000000	97.576352 
1761.000000	97.577263 
1760.000000	97.578420 
1759.000000	97.579567 
1758.000000	97.580644 
1757.000000	97.582070 
1756.000000	97.584271 
1755.000000	97.586329 
1754.000000	97.586892 
1753.000000	97.586068 
1752.000000	97.585620 
1751.000000	97.586162 
1750.000000	97.586611 
1749.000000	97.586074 
1748.000000	97.584857 
1747.000000	97.583507 
1746.000000	97.581917 
1745.000000	97.581220 
1744.000000	97.582620 
1743.000000	97.585207 
1742.000000	97.586870 
1741.000000	97.586694 
1740.000000	97.585357 
1739.000000	97.584847 
1738.000000	97.586237 
1737.000000	97.587968 
1736.000000	97.588612 
1735.000000	97.589982 
1734.000000	97.590004 
1733.000000	97.586268 
1732.000000	97.582131 
1731.000000	97.579697 
1730.000000	97.579832 
1729.000000	97.581827 
1728.000000	97.582897 
1727.000000	97.581285 
1726.000000	97.577516 
1725.000000	97.573989 
1724.000000	97.571312 
1723.000000	97.569503 
1722.000000	97.569365 
1721.000000	97.569824 
1720.000000	97.568480 
1719.000000	97.565559 
1718.000000	97.563815 
1717.000000	97.561704 
1716.000000	97.555623 
1715.000000	97.547951 
1714.000000	97.543202 
1713.000000	97.540571 
1712.000000	97.536414 
1711.000000	97.530880 
1710.000000	97.526743 
1709.000000	97.523770 
1708.000000	97.519042 
1707.000000	97.511809 
1706.000000	97.505345 
1705.000000	97.500905 
1704.000000	97.496369 
1703.000000	97.490459 
1702.000000	97.485098 
1701.000000	97.482247 
1700.000000	97.476474 
1699.000000	97.467504 
1698.000000	97.460716 
1697.000000	97.455433 
1696.000000	97.449747 
1695.000000	97.443876 
1694.000000	97.438533 
1693.000000	97.432788 
1692.000000	97.425684 
1691.000000	97.418182 
1690.000000	97.411230 
1689.000000	97.404828 
1688.000000	97.398752 
1687.000000	97.392511 
1686.000000	97.386198 
1685.000000	97.379861 
1684.000000	97.371836 
1683.000000	97.363206 
1682.000000	97.355831 
1681.000000	97.348652 
1680.000000	97.342106 
1679.000000	97.336792 
1678.000000	97.331403 
1677.000000	97.325101 
1676.000000	97.318874 
1675.000000	97.313001 
1674.000000	97.305761 
1673.000000	97.297051 
1672.000000	97.287889 
1671.000000	97.280068 
1670.000000	97.273175 
1669.000000	97.264999 
1668.000000	97.258313 
1667.000000	97.254981 
1666.000000	97.251966 
1665.000000	97.246918 
1664.000000	97.240606 
1663.000000	97.235151 
1662.000000	97.229143 
1661.000000	97.221186 
1660.000000	97.213700 
1659.000000	97.208440 
1658.000000	97.203742 
1657.000000	97.197140 
1656.000000	97.190367 
1655.000000	97.185483 
1654.000000	97.184497 
1653.000000	97.168535 
1652.000000	97.145656 
1651.000000	97.140317 
1650.000000	97.138194 
1649.000000	97.131569 
1648.000000	97.127877 
1647.000000	97.126343 
1646.000000	97.123232 
1645.000000	97.119862 
1644.000000	97.117074 
1643.000000	97.115160 
1642.000000	97.115068 
1641.000000	97.116558 
1640.000000	97.118771 
1639.000000	97.120338 
1638.000000	97.120285 
1637.000000	97.119067 
1636.000000	97.114976 
1635.000000	97.106695 
1634.000000	97.102321 
1633.000000	97.103543 
1632.000000	97.104893 
1631.000000	97.107185 
1630.000000	97.110160 
1629.000000	97.110700 
1628.000000	97.109909 
1627.000000	97.113204 
1626.000000	97.120153 
1625.000000	97.125978 
1624.000000	97.130646 
1623.000000	97.137556 
1622.000000	97.146554 
1621.000000	97.154817 
1620.000000	97.162366 
1619.000000	97.170973 
1618.000000	97.180848 
1617.000000	97.184353 
1616.000000	97.181881 
1615.000000	97.185391 
1614.000000	97.194383 
1613.000000	97.200823 
1612.000000	97.205411 
1611.000000	97.212294 
1610.000000	97.219658 
1609.000000	97.225797 
1608.000000	97.235643 
1607.000000	97.251504 
1606.000000	97.265310 
1605.000000	97.271865 
1604.000000	97.276753 
1603.000000	97.284391 
1602.000000	97.292134 
1601.000000	97.297712 
1600.000000	97.304214 
1599.000000	97.313217 
1598.000000	97.321228 
1597.000000	97.326016 
1596.000000	97.329952 
1595.000000	97.335734 
1594.000000	97.342385 
1593.000000	97.348328 
1592.000000	97.354496 
1591.000000	97.361634 
1590.000000	97.367979 
1589.000000	97.372535 
1588.000000	97.377332 
1587.000000	97.384082 
1586.000000	97.391127 
1585.000000	97.396139 
1584.000000	97.400890 
1583.000000	97.407132 
1582.000000	97.412688 
1581.000000	97.415891 
1580.000000	97.419176 
1579.000000	97.424671 
1578.000000	97.431323 
1577.000000	97.437452 
1576.000000	97.441888 
1575.000000	97.446245 
1574.000000	97.450919 
1573.000000	97.454483 
1572.000000	97.457869 
1571.000000	97.462798 
1570.000000	97.466365 
1569.000000	97.466247 
1568.000000	97.467441 
1567.000000	97.471390 
1566.000000	97.474505 
1565.000000	97.475560 
1564.000000	97.477470 
1563.000000	97.479356 
1562.000000	97.479389 
1561.000000	97.477127 
1560.000000	97.483898 
1559.000000	97.492174 
1558.000000	97.489151 
1557.000000	97.485554 
1556.000000	97.485614 
1555.000000	97.487957 
1554.000000	97.491321 
1553.000000	97.492772 
1552.000000	97.492036 
1551.000000	97.490076 
1550.000000	97.488971 
1549.000000	97.488690 
1548.000000	97.488138 
1547.000000	97.486976 
1546.000000	97.485217 
1545.000000	97.483074 
1544.000000	97.480891 
1543.000000	97.479390 
1542.000000	97.479233 
1541.000000	97.478340 
1540.000000	97.471527 
1539.000000	97.462501 
1538.000000	97.457735 
1537.000000	97.454113 
1536.000000	97.448314 
1535.000000	97.442522 
1534.000000	97.438681 
1533.000000	97.436187 
1532.000000	97.433798 
1531.000000	97.430863 
1530.000000	97.427236 
1529.000000	97.422838 
1528.000000	97.417883 
1527.000000	97.413601 
1526.000000	97.410731 
1525.000000	97.408227 
1524.000000	97.404620 
1523.000000	97.400350 
1522.000000	97.397052 
1521.000000	97.394300 
1520.000000	97.390422 
1519.000000	97.384517 
1518.000000	97.377474 
1517.000000	97.371849 
1516.000000	97.368850 
1515.000000	97.367558 
1514.000000	97.366405 
1513.000000	97.364679 
1512.000000	97.361521 
1511.000000	97.356174 
1510.000000	97.349987 
1509.000000	97.345096 
1508.000000	97.343393 
1507.000000	97.342952 
1506.000000	97.340403 
1505.000000	97.336022 
1504.000000	97.330681 
1503.000000	97.324172 
1502.000000	97.317653 
1501.000000	97.312400 
1500.000000	97.308143 
1499.000000	97.303650 
1498.000000	97.299373 
1497.000000	97.296977 
1496.000000	97.295622 
1495.000000	97.294882 
1494.000000	97.295645 
1493.000000	97.297602 
1492.000000	97.299356 
1491.000000	97.300007 
1490.000000	97.299419 
1489.000000	97.296944 
1488.000000	97.291117 
1487.000000	97.283720 
1486.000000	97.277888 
1485.000000	97.272457 
1484.000000	97.266132 
1483.000000	97.259988 
1482.000000	97.256301 
1481.000000	97.254959 
1480.000000	97.253018 
1479.000000	97.249170 
1478.000000	97.245101 
1477.000000	97.241964 
1476.000000	97.238140 
1475.000000	97.233399 
1474.000000	97.229809 
1473.000000	97.228560 
1472.000000	97.227817 
1471.000000	97.225983 
1470.000000	97.223097 
1469.000000	97.218669 
1468.000000	97.212217 
1467.000000	97.204980 
1466.000000	97.199519 
1465.000000	97.197083 
1464.000000	97.196365 
1463.000000	97.194406 
1462.000000	97.189871 
1461.000000	97.183107 
1460.000000	97.175523 
1459.000000	97.168413 
1458.000000	97.163961 
1457.000000	97.163019 
1456.000000	97.163494 
1455.000000	97.161616 
1454.000000	97.155601 
1453.000000	97.148792 
1452.000000	97.144801 
1451.000000	97.143545 
1450.000000	97.143931 
1449.000000	97.146047 
1448.000000	97.148432 
1447.000000	97.148839 
1446.000000	97.146222 
1445.000000	97.142813 
1444.000000	97.140905 
1443.000000	97.139221 
1442.000000	97.136476 
1441.000000	97.133314 
1440.000000	97.130188 
1439.000000	97.125349 
1438.000000	97.121194 
1437.000000	97.122813 
1436.000000	97.128284 
1435.000000	97.129836 
1434.000000	97.126020 
1433.000000	97.121856 
1432.000000	97.121255 
1431.000000	97.122258 
1430.000000	97.122135 
1429.000000	97.123060 
1428.000000	97.125694 
1427.000000	97.127657 
1426.000000	97.127405 
1425.000000	97.129881 
1424.000000	97.138942 
1423.000000	97.147399 
1422.000000	97.148148 
1421.000000	97.145334 
1420.000000	97.148179 
1419.000000	97.154143 
1418.000000	97.156208 
1417.000000	97.156803 
1416.000000	97.159075 
1415.000000	97.161633 
1414.000000	97.162070 
1413.000000	97.161226 
1412.000000	97.161849 
1411.000000	97.163168 
1410.000000	97.163824 
1409.000000	97.165605 
1408.000000	97.169591 
1407.000000	97.175837 
1406.000000	97.184524 
1405.000000	97.197911 
1404.000000	97.215912 
1403.000000	97.231440 
1402.000000	97.239928 
1401.000000	97.246368 
1400.000000	97.259060 
1399.000000	97.277439 
1398.000000	97.292592 
1397.000000	97.299371 
1396.000000	97.301188 
1395.000000	97.305029 
1394.000000	97.314205 
1393.000000	97.328429 
1392.000000	97.344587 
1391.000000	97.358140 
1390.000000	97.367254 
1389.000000	97.373855 
1388.000000	97.380346 
1387.000000	97.386347 
1386.000000	97.390151 
1385.000000	97.393015 
1384.000000	97.398493 
1383.000000	97.407197 
1382.000000	97.416233 
1381.000000	97.422817 
1380.000000	97.427845 
1379.000000	97.434265 
1378.000000	97.442734 
1377.000000	97.451155 
1376.000000	97.457857 
1375.000000	97.463374 
1374.000000	97.469223 
1373.000000	97.477188 
1372.000000	97.487404 
1371.000000	97.498433 
1370.000000	97.508251 
1369.000000	97.516326 
1368.000000	97.523693 
1367.000000	97.529983 
1366.000000	97.533862 
1365.000000	97.535949 
1364.000000	97.539122 
1363.000000	97.545396 
1362.000000	97.553838 
1361.000000	97.562460 
1360.000000	97.570751 
1359.000000	97.578945 
1358.000000	97.586034 
1357.000000	97.590829 
1356.000000	97.593920 
1355.000000	97.596750 
1354.000000	97.600087 
1353.000000	97.604172 
1352.000000	97.608650 
1351.000000	97.614099 
1350.000000	97.619855 
1349.000000	97.624513 
1348.000000	97.627969 
1347.000000	97.631052 
1346.000000	97.634749 
1345.000000	97.639149 
1344.000000	97.642781 
1343.000000	97.643421 
1342.000000	97.640718 
1341.000000	97.637522 
1340.000000	97.637274 
1339.000000	97.639796 
1338.000000	97.642050 
1337.000000	97.642745 
1336.000000	97.642827 
1335.000000	97.642564 
1334.000000	97.641386 
1333.000000	97.639938 
1332.000000	97.639616 
1331.000000	97.640258 
1330.000000	97.640452 
1329.000000	97.640411 
1328.000000	97.641787 
1327.000000	97.644673 
1326.000000	97.646660 
1325.000000	97.646212 
1324.000000	97.644067 
1323.000000	97.640703 
1322.000000	97.635882 
1321.000000	97.630903 
1320.000000	97.628621 
1319.000000	97.630304 
1318.000000	97.634458 
1317.000000	97.638773 
1316.000000	97.641384 
1315.000000	97.640681 
1314.000000	97.636645 
1313.000000	97.632400 
1312.000000	97.631658 
1311.000000	97.634357 
1310.000000	97.637123 
1309.000000	97.638040 
1308.000000	97.638313 
1307.000000	97.639632 
1306.000000	97.641753 
1305.000000	97.643966 
1304.000000	97.646271 
1303.000000	97.647972 
1302.000000	97.647605 
1301.000000	97.645051 
1300.000000	97.642137 
1299.000000	97.640433 
1298.000000	97.639907 
1297.000000	97.639824 
1296.000000	97.639632 
1295.000000	97.638843 
1294.000000	97.637664 
1293.000000	97.637671 
1292.000000	97.640066 
1291.000000	97.643488 
1290.000000	97.645410 
1289.000000	97.645369 
1288.000000	97.644676 
1287.000000	97.643404 
1286.000000	97.640444 
1285.000000	97.636747 
1284.000000	97.635477 
1283.000000	97.637793 
1282.000000	97.640756 
1281.000000	97.640641 
1280.000000	97.637050 
1279.000000	97.632629 
1278.000000	97.630348 
1277.000000	97.631758 
1276.000000	97.636217 
1275.000000	97.640899 
1274.000000	97.643030 
1273.000000	97.642907 
1272.000000	97.643239 
1271.000000	97.645161 
1270.000000	97.646764 
1269.000000	97.646191 
1268.000000	97.644007 
1267.000000	97.641391 
1266.000000	97.638362 
1265.000000	97.635153 
1264.000000	97.633416 
1263.000000	97.634462 
1262.000000	97.637381 
1261.000000	97.640116 
1260.000000	97.642115 
1259.000000	97.644633 
1258.000000	97.648603 
1257.000000	97.652600 
1256.000000	97.653158 
1255.000000	97.648243 
1254.000000	97.640791 
1253.000000	97.636772 
1252.000000	97.638296 
1251.000000	97.640775 
1250.000000	97.639192 
1249.000000	97.635008 
1248.000000	97.633590 
1247.000000	97.636208 
1246.000000	97.638900 
1245.000000	97.638753 
1244.000000	97.637074 
1243.000000	97.636264 
1242.000000	97.637301 
1241.000000	97.640762 
1240.000000	97.646583 
1239.000000	97.651807 
1238.000000	97.651908 
1237.000000	97.645694 
1236.000000	97.636363 
1235.000000	97.626981 
1234.000000	97.617559 
1233.000000	97.607289 
1232.000000	97.596615 
1231.000000	97.585771 
1230.000000	97.573995 
1229.000000	97.561407 
1228.000000	97.549085 
1227.000000	97.536000 
1226.000000	97.518255 
1225.000000	97.492972 
1224.000000	97.461151 
1223.000000	97.425673 
1222.000000	97.388258 
1221.000000	97.349304 
1220.000000	97.308636 
1219.000000	97.265059 
1218.000000	97.216973 
1217.000000	97.164534 
1216.000000	97.109272 
1215.000000	97.050788 
1214.000000	96.986699 
1213.000000	96.917645 
1212.000000	96.849218 
1211.000000	96.785632 
1210.000000	96.723337 
1209.000000	96.654746 
1208.000000	96.577514 
1207.000000	96.496703 
1206.000000	96.417822 
1205.000000	96.340652 
1204.000000	96.260889 
1203.000000	96.175674 
1202.000000	96.086468 
1201.000000	95.997524 
1200.000000	95.911932 
1199.000000	95.828712 
1198.000000	95.744210 
1197.000000	95.656757 
1196.000000	95.568492 
1195.000000	95.481629 
1194.000000	95.394653 
1193.000000	95.304071 
1192.000000	95.208466 
1191.000000	95.108733 
1190.000000	95.005747 
1189.000000	94.900162 
1188.000000	94.793415 
1187.000000	94.686468 
1186.000000	94.578481 
1185.000000	94.468745 
1184.000000	94.358404 
1183.000000	94.247808 
1182.000000	94.134008 
1181.000000	94.014088 
1180.000000	93.889261 
1179.000000	93.761991 
1178.000000	93.630841 
1177.000000	93.492713 
1176.000000	93.348928 
1175.000000	93.204167 
1174.000000	93.059994 
1173.000000	92.914497 
1172.000000	92.767923 
1171.000000	92.623006 
1170.000000	92.479680 
1169.000000	92.335570 
1168.000000	92.193022 
1167.000000	92.060675 
1166.000000	91.947547 
1165.000000	91.861038 
1164.000000	91.810604 
1163.000000	91.805369 
1162.000000	91.844124 
1161.000000	91.911404 
1160.000000	91.984865 
1159.000000	92.043485 
1158.000000	92.070473 
1157.000000	92.055892 
1156.000000	91.999674 
1155.000000	91.909463 
1154.000000	91.794689 
1153.000000	91.664682 
1152.000000	91.530379 
1151.000000	91.401372 
1150.000000	91.279577 
1149.000000	91.160601 
1148.000000	91.042231 
1147.000000	90.926587 
1146.000000	90.813547 
1145.000000	90.698445 
1144.000000	90.578476 
1143.000000	90.456322 
1142.000000	90.335443 
1141.000000	90.216139 
1140.000000	90.097626 
1139.000000	89.979523 
1138.000000	89.860245 
1137.000000	89.738283 
1136.000000	89.615615 
1135.000000	89.495323 
1134.000000	89.375872 
1133.000000	89.252789 
1132.000000	89.125604 
1131.000000	88.997487 
1130.000000	88.868579 
1129.000000	88.736143 
1128.000000	88.601139 
1127.000000	88.467806 
1126.000000	88.336385 
1125.000000	88.203001 
1124.000000	88.066990 
1123.000000	87.931407 
1122.000000	87.796237 
1121.000000	87.658627 
1120.000000	87.520100 
1119.000000	87.385531 
1118.000000	87.254692 
1117.000000	87.123476 
1116.000000	86.993669 
1115.000000	86.872295 
1114.000000	86.760673 
1113.000000	86.653515 
1112.000000	86.549028 
1111.000000	86.449588 
1110.000000	86.352375 
1109.000000	86.250476 
1108.000000	86.143259 
1107.000000	86.035669 
1106.000000	85.927623 
1105.000000	85.814830 
1104.000000	85.699701 
1103.000000	85.589723 
1102.000000	85.484802 
1101.000000	85.378128 
1100.000000	85.269028 
1099.000000	85.163759 
1098.000000	85.062960 
1097.000000	84.961002 
1096.000000	84.857850 
1095.000000	84.758457 
1094.000000	84.660531 
1093.000000	84.556491 
1092.000000	84.448355 
1091.000000	84.347091 
1090.000000	84.256132 
1089.000000	84.168598 
1088.000000	84.080997 
1087.000000	83.995711 
1086.000000	83.909949 
1085.000000	83.817329 
1084.000000	83.721201 
1083.000000	83.631428 
1082.000000	83.547066 
1081.000000	83.457599 
1080.000000	83.362225 
1079.000000	83.271506 
1078.000000	83.187715 
1077.000000	83.099456 
1076.000000	82.998159 
1075.000000	82.884154 
1074.000000	82.754736 
1073.000000	82.602757 
1072.000000	82.429310 
1071.000000	82.241275 
1070.000000	82.033502 
1069.000000	81.790744 
1068.000000	81.511674 
1067.000000	81.215239 
1066.000000	80.918948 
1065.000000	80.626084 
1064.000000	80.337917 
1063.000000	80.059367 
1062.000000	79.785400 
1061.000000	79.499511 
1060.000000	79.194633 
1059.000000	78.881858 
1058.000000	78.572639 
1057.000000	78.266359 
1056.000000	77.959967 
1055.000000	77.653831 
1054.000000	77.342594 
1053.000000	77.016553 
1052.000000	76.678772 
1051.000000	76.344881 
1050.000000	76.019496 
1049.000000	75.690499 
1048.000000	75.351537 
1047.000000	75.009985 
1046.000000	74.669263 
1045.000000	74.324289 
1044.000000	73.977322 
1043.000000	73.638193 
1042.000000	73.305884 
1041.000000	72.969462 
1040.000000	72.630629 
1039.000000	72.305665 
1038.000000	72.001713 
1037.000000	71.711328 
1036.000000	71.433243 
1035.000000	71.177028 
1034.000000	70.943859 
1033.000000	70.724344 
1032.000000	70.518409 
1031.000000	70.335397 
1030.000000	70.172407 
1029.000000	70.016096 
1028.000000	69.868363 
1027.000000	69.745478 
1026.000000	69.648416 
1025.000000	69.558715 
1024.000000	69.467172 
1023.000000	69.381635 
1022.000000	69.302602 
1021.000000	69.217159 
1020.000000	69.122273 
1019.000000	69.029605 
1018.000000	68.942353 
1017.000000	68.851157 
1016.000000	68.756693 
1015.000000	68.671815 
1014.000000	68.597330 
1013.000000	68.520144 
1012.000000	68.439139 
1011.000000	68.368147 
1010.000000	68.310036 
1009.000000	68.253549 
1008.000000	68.199616 
1007.000000	68.164862 
1006.000000	68.154621 
1005.000000	68.157730 
1004.000000	68.171393 
1003.000000	68.204814 
1002.000000	68.254129 
1001.000000	68.301075 
1000.000000	68.342626 
999.000000	 68.396275 
998.000000	 68.470266 
997.000000	 68.553589 
996.000000	 68.640163 
995.000000	 68.737555 
994.000000	 68.846352 
993.000000	 68.955933 
992.000000	 69.066019 
991.000000	 69.188079 
990.000000	 69.320845 
989.000000	 69.449417 
988.000000	 69.573311 
987.000000	 69.710132 
986.000000	 69.866630 
985.000000	 70.031604 
984.000000	 70.202245 
983.000000	 70.391229 
982.000000	 70.601087 
981.000000	 70.817103 
980.000000	 71.033217 
979.000000	 71.261016 
978.000000	 71.505573 
977.000000	 71.756130 
976.000000	 72.008426 
975.000000	 72.273618 
974.000000	 72.556755 
973.000000	 72.847514 
972.000000	 73.139928 
971.000000	 73.441411 
970.000000	 73.754869 
969.000000	 74.070713 
968.000000	 74.383187 
967.000000	 74.697192 
966.000000	 75.013860 
965.000000	 75.326699 
964.000000	 75.636146 
963.000000	 75.950493 
962.000000	 76.268570 
961.000000	 76.578555 
960.000000	 76.876901 
959.000000	 77.171311 
958.000000	 77.462795 
957.000000	 77.742659 
956.000000	 78.010039 
955.000000	 78.274670 
954.000000	 78.539098 
953.000000	 78.794856 
952.000000	 79.038876 
951.000000	 79.276777 
950.000000	 79.507713 
949.000000	 79.723055 
948.000000	 79.922493 
947.000000	 80.114656 
946.000000	 80.299450 
945.000000	 80.466522 
944.000000	 80.614004 
943.000000	 80.752803 
942.000000	 80.889873 
941.000000	 81.022924 
940.000000	 81.153703 
939.000000	 81.289537 
938.000000	 81.428774 
937.000000	 81.561220 
936.000000	 81.686229 
935.000000	 81.814692 
934.000000	 81.950489 
933.000000	 82.085891 
932.000000	 82.217896 
931.000000	 82.352738 
930.000000	 82.491033 
929.000000	 82.624154 
928.000000	 82.748844 
927.000000	 82.870806 
926.000000	 82.991031 
925.000000	 83.102733 
924.000000	 83.203967 
923.000000	 83.299296 
922.000000	 83.387823 
921.000000	 83.464351 
920.000000	 83.533452 
919.000000	 83.606844 
918.000000	 83.684924 
917.000000	 83.756147 
916.000000	 83.817227 
915.000000	 83.879870 
914.000000	 83.955948 
913.000000	 84.050050 
912.000000	 84.167062 
911.000000	 84.311666 
910.000000	 84.479366 
909.000000	 84.663058 
908.000000	 84.868209 
907.000000	 85.105811 
906.000000	 85.371664 
905.000000	 85.649243 
904.000000	 85.931599 
903.000000	 86.222786 
902.000000	 86.519493 
901.000000	 86.810841 
900.000000	 87.096554 
899.000000	 87.387068 
898.000000	 87.684316 
897.000000	 87.978770 
896.000000	 88.264538 
895.000000	 88.540747 
894.000000	 88.800124 
893.000000	 89.034861 
892.000000	 89.253628 
891.000000	 89.474796 
890.000000	 89.701506 
889.000000	 89.919748 
888.000000	 90.121231 
887.000000	 90.311168 
886.000000	 90.493499 
885.000000	 90.665879 
884.000000	 90.830049 
883.000000	 90.989804 
882.000000	 91.138470 
881.000000	 91.267428 
880.000000	 91.388476 
879.000000	 91.527536 
878.000000	 91.691970 
877.000000	 91.863278 
876.000000	 92.026149 
875.000000	 92.185430 
874.000000	 92.351230 
873.000000	 92.527824 
872.000000	 92.721994 
871.000000	 92.941596 
870.000000	 93.178652 
869.000000	 93.410920 
868.000000	 93.626221 
867.000000	 93.830727 
866.000000	 94.030653 
865.000000	 94.222189 
864.000000	 94.404224 
863.000000	 94.585244 
862.000000	 94.770496 
861.000000	 94.954481 
860.000000	 95.131820 
859.000000	 95.304185 
858.000000	 95.471775 
857.000000	 95.628894 
856.000000	 95.772769 
855.000000	 95.907211 
854.000000	 96.033933 
853.000000	 96.149444 
852.000000	 96.253546 
851.000000	 96.352096 
850.000000	 96.449244 
849.000000	 96.545068 
848.000000	 96.640687 
847.000000	 96.735678 
846.000000	 96.821020 
845.000000	 96.886162 
844.000000	 96.933178 
843.000000	 96.972749 
842.000000	 97.006722 
841.000000	 97.026954 
840.000000	 97.030713 
839.000000	 97.023317 
838.000000	 97.005472 
837.000000	 96.973285 
836.000000	 96.933183 
835.000000	 96.901520 
834.000000	 96.884363 
833.000000	 96.871430 
832.000000	 96.855552 
831.000000	 96.844724 
830.000000	 96.848639 
829.000000	 96.866397 
828.000000	 96.895379 
827.000000	 96.939863 
826.000000	 97.001698 
825.000000	 97.073091 
824.000000	 97.146525 
823.000000	 97.221028 
822.000000	 97.293112 
821.000000	 97.354214 
820.000000	 97.401697 
819.000000	 97.439677 
818.000000	 97.464980 
817.000000	 97.463681 
816.000000	 97.425847 
815.000000	 97.354532 
814.000000	 97.256055 
813.000000	 97.128664 
812.000000	 96.963178 
811.000000	 96.745917 
810.000000	 96.457996 
809.000000	 96.081778 
808.000000	 95.614588 
807.000000	 95.071540 
806.000000	 94.473313 
805.000000	 93.839140 
804.000000	 93.193447 
803.000000	 92.567051 
802.000000	 91.986168 
801.000000	 91.470766 
800.000000	 91.045944 
799.000000	 90.738091 
798.000000	 90.552886 
797.000000	 90.471004 
796.000000	 90.469193 
795.000000	 90.529833 
794.000000	 90.628871 
793.000000	 90.736229 
792.000000	 90.835688 
791.000000	 90.928392 
790.000000	 91.012085 
789.000000	 91.071938 
788.000000	 91.094361 
787.000000	 91.073504 
786.000000	 91.001599 
785.000000	 90.870136 
784.000000	 90.685426 
783.000000	 90.468560 
782.000000	 90.237768 
781.000000	 90.006952 
780.000000	 89.802345 
779.000000	 89.658756 
778.000000	 89.592329 
777.000000	 89.594756 
776.000000	 89.658236 
775.000000	 89.785046 
774.000000	 89.966399 
773.000000	 90.173708 
772.000000	 90.380793 
771.000000	 90.578983 
770.000000	 90.765157 
769.000000	 90.932692 
768.000000	 91.079977 
767.000000	 91.210760 
766.000000	 91.320844 
765.000000	 91.401742 
764.000000	 91.462356 
763.000000	 91.528365 
762.000000	 91.613064 
761.000000	 91.705871 
760.000000	 91.795775 
759.000000	 91.887681 
758.000000	 91.987994 
757.000000	 92.092829 
756.000000	 92.200814 
755.000000	 92.321037 
754.000000	 92.456707 
753.000000	 92.593325 
752.000000	 92.712508 
751.000000	 92.808853 
750.000000	 92.889764 
749.000000	 92.969509 
748.000000	 93.065140 
747.000000	 93.184161 
746.000000	 93.312642 
745.000000	 93.429834 
744.000000	 93.537747 
743.000000	 93.660731 
742.000000	 93.812813 
741.000000	 93.982536 
740.000000	 94.153674 
739.000000	 94.322781 
738.000000	 94.490260 
737.000000	 94.650345 
736.000000	 94.797793 
735.000000	 94.932388 
734.000000	 95.052708 
733.000000	 95.157200 
732.000000	 95.251676 
731.000000	 95.341538 
730.000000	 95.417442 
729.000000	 95.466497 
728.000000	 95.494020 
727.000000	 95.518710 
726.000000	 95.552475 
725.000000	 95.598700 
724.000000	 95.665111 
723.000000	 95.758556 
722.000000	 95.867525 
721.000000	 95.968928 
720.000000	 96.054684 
719.000000	 96.135467 
718.000000	 96.217253 
717.000000	 96.294385 
716.000000	 96.368497 
715.000000	 96.450389 
714.000000	 96.537675 
713.000000	 96.612836 
712.000000	 96.668734 
711.000000	 96.715672 
710.000000	 96.757585 
709.000000	 96.790062 
708.000000	 96.813328 
707.000000	 96.831961 
706.000000	 96.841867 
705.000000	 96.829043 
704.000000	 96.786403 
703.000000	 96.719452 
702.000000	 96.625299 
701.000000	 96.482002 
700.000000	 96.270981 
699.000000	 95.993796 
698.000000	 95.669776 
697.000000	 95.333876 
696.000000	 95.038954 
695.000000	 94.843846 
694.000000	 94.777712 
693.000000	 94.824963 
692.000000	 94.950128 
691.000000	 95.119329 
690.000000	 95.303706 
689.000000	 95.480072 
688.000000	 95.637755 
687.000000	 95.778484 
686.000000	 95.900425 
685.000000	 95.998349 
684.000000	 96.081313 
683.000000	 96.165940 
682.000000	 96.253334 
681.000000	 96.331332 
680.000000	 96.399171 
679.000000	 96.467515 
678.000000	 96.536826 
677.000000	 96.604824 
676.000000	 96.676745 
675.000000	 96.759963 
674.000000	 96.844965 
673.000000	 96.903246 
672.000000	 96.910217 
671.000000	 96.852247 
670.000000	 96.722948 
669.000000	 96.542029 
668.000000	 96.460709 
667.000000	 96.641789 
666.000000	 96.941914 
665.000000	 97.166946 
664.000000	 97.303097 
663.000000	 97.387002 
662.000000	 97.446230 
661.000000	 97.493261 
660.000000	 97.535179 
659.000000	 97.579418 
658.000000	 97.625059 
657.000000	 97.664811 
656.000000	 97.687311 
655.000000	 97.686521 
654.000000	 97.666029 
653.000000	 97.634888 
652.000000	 97.605669 
651.000000	 97.596128 
650.000000	 97.616332 

