4000.000000	97.676495 
3999.000000	97.674256 
3998.000000	97.670714 
3997.000000	97.667152 
3996.000000	97.664563 
3995.000000	97.663249 
3994.000000	97.663257 
3993.000000	97.664345 
3992.000000	97.665682 
3991.000000	97.666497 
3990.000000	97.666823 
3989.000000	97.667164 
3988.000000	97.667636 
3987.000000	97.667907 
3986.000000	97.667896 
3985.000000	97.667981 
3984.000000	97.668340 
3983.000000	97.668644 
3982.000000	97.668618 
3981.000000	97.668452 
3980.000000	97.668282 
3979.000000	97.667684 
3978.000000	97.666330 
3977.000000	97.664941 
3976.000000	97.664698 
3975.000000	97.665692 
3974.000000	97.666594 
3973.000000	97.666146 
3972.000000	97.664307 
3971.000000	97.661913 
3970.000000	97.659996 
3969.000000	97.659264 
3968.000000	97.659851 
3967.000000	97.661180 
3966.000000	97.662310 
3965.000000	97.662553 
3964.000000	97.661727 
3963.000000	97.660086 
3962.000000	97.658178 
3961.000000	97.656719 
3960.000000	97.655939 
3959.000000	97.655294 
3958.000000	97.654529 
3957.000000	97.654085 
3956.000000	97.654258 
3955.000000	97.654255 
3954.000000	97.652896 
3953.000000	97.649888 
3952.000000	97.646028 
3951.000000	97.642633 
3950.000000	97.640541 
3949.000000	97.639622 
3948.000000	97.639131 
3947.000000	97.638636 
3946.000000	97.638143 
3945.000000	97.637507 
3944.000000	97.636554 
3943.000000	97.635845 
3942.000000	97.636467 
3941.000000	97.638911 
3940.000000	97.641992 
3939.000000	97.643359 
3938.000000	97.642146 
3937.000000	97.639527 
3936.000000	97.636942 
3935.000000	97.634272 
3934.000000	97.631054 
3933.000000	97.628547 
3932.000000	97.628288 
3931.000000	97.629631 
3930.000000	97.630279 
3929.000000	97.629384 
3928.000000	97.628581 
3927.000000	97.628798 
3926.000000	97.628664 
3925.000000	97.627259 
3924.000000	97.625984 
3923.000000	97.625911 
3922.000000	97.625513 
3921.000000	97.623428 
3920.000000	97.621256 
3919.000000	97.621188 
3918.000000	97.622740 
3917.000000	97.623886 
3916.000000	97.624127 
3915.000000	97.624348 
3914.000000	97.624551 
3913.000000	97.623908 
3912.000000	97.622546 
3911.000000	97.620878 
3910.000000	97.619282 
3909.000000	97.617767 
3908.000000	97.616462 
3907.000000	97.615451 
3906.000000	97.614664 
3905.000000	97.613991 
3904.000000	97.613337 
3903.000000	97.612705 
3902.000000	97.612152 
3901.000000	97.611655 
3900.000000	97.611186 
3899.000000	97.610723 
3898.000000	97.610256 
3897.000000	97.609788 
3896.000000	97.609316 
3895.000000	97.608820 
3894.000000	97.608277 
3893.000000	97.607680 
3892.000000	97.607037 
3891.000000	97.606353 
3890.000000	97.605654 
3889.000000	97.604965 
3888.000000	97.604292 
3887.000000	97.603623 
3886.000000	97.602959 
3885.000000	97.602317 
3884.000000	97.601715 
3883.000000	97.601142 
3882.000000	97.600578 
3881.000000	97.600019 
3880.000000	97.599486 
3879.000000	97.598994 
3878.000000	97.598530 
3877.000000	97.598059 
3876.000000	97.597564 
3875.000000	97.597062 
3874.000000	97.596593 
3873.000000	97.596186 
3872.000000	97.595837 
3871.000000	97.595523 
3870.000000	97.595248 
3869.000000	97.595048 
3868.000000	97.594947 
3867.000000	97.594916 
3866.000000	97.594912 
3865.000000	97.594933 
3864.000000	97.594999 
3863.000000	97.595088 
3862.000000	97.595150 
3861.000000	97.595161 
3860.000000	97.595138 
3859.000000	97.595105 
3858.000000	97.595072 
3857.000000	97.595045 
3856.000000	97.595052 
3855.000000	97.595123 
3854.000000	97.595257 
3853.000000	97.595449 
3852.000000	97.595751 
3851.000000	97.596228 
3850.000000	97.596869 
3849.000000	97.597612 
3848.000000	97.598403 
3847.000000	97.599206 
3846.000000	97.600009 
3845.000000	97.600812 
3844.000000	97.601618 
3843.000000	97.602420 
3842.000000	97.603222 
3841.000000	97.604040 
3840.000000	97.604886 
3839.000000	97.605759 
3838.000000	97.606642 
3837.000000	97.607529 
3836.000000	97.608438 
3835.000000	97.609392 
3834.000000	97.610394 
3833.000000	97.611431 
3832.000000	97.612483 
3831.000000	97.613540 
3830.000000	97.614600 
3829.000000	97.615662 
3828.000000	97.616723 
3827.000000	97.617767 
3826.000000	97.618786 
3825.000000	97.619790 
3824.000000	97.620796 
3823.000000	97.621800 
3822.000000	97.622785 
3821.000000	97.623757 
3820.000000	97.624765 
3819.000000	97.625856 
3818.000000	97.627002 
3817.000000	97.628147 
3816.000000	97.629271 
3815.000000	97.630403 
3814.000000	97.631560 
3813.000000	97.632711 
3812.000000	97.633813 
3811.000000	97.634869 
3810.000000	97.635889 
3809.000000	97.636845 
3808.000000	97.637688 
3807.000000	97.638418 
3806.000000	97.639096 
3805.000000	97.639790 
3804.000000	97.640515 
3803.000000	97.641243 
3802.000000	97.641960 
3801.000000	97.642686 
3800.000000	97.643448 
3799.000000	97.644234 
3798.000000	97.644994 
3797.000000	97.645701 
3796.000000	97.646360 
3795.000000	97.646973 
3794.000000	97.647522 
3793.000000	97.647978 
3792.000000	97.648325 
3791.000000	97.648555 
3790.000000	97.648668 
3789.000000	97.648678 
3788.000000	97.648601 
3787.000000	97.648450 
3786.000000	97.648224 
3785.000000	97.647921 
3784.000000	97.647557 
3783.000000	97.647143 
3782.000000	97.646663 
3781.000000	97.646094 
3780.000000	97.645435 
3779.000000	97.644695 
3778.000000	97.643869 
3777.000000	97.642935 
3776.000000	97.641888 
3775.000000	97.640760 
3774.000000	97.639587 
3773.000000	97.638371 
3772.000000	97.637096 
3771.000000	97.635758 
3770.000000	97.634379 
3769.000000	97.632983 
3768.000000	97.631570 
3767.000000	97.630129 
3766.000000	97.628661 
3765.000000	97.627187 
3764.000000	97.625719 
3763.000000	97.624237 
3762.000000	97.622704 
3761.000000	97.621113 
3760.000000	97.619482 
3759.000000	97.617820 
3758.000000	97.616110 
3757.000000	97.614340 
3756.000000	97.612532 
3755.000000	97.610727 
3754.000000	97.608955 
3753.000000	97.607240 
3752.000000	97.605602 
3751.000000	97.604038 
3750.000000	97.602531 
3749.000000	97.601063 
3748.000000	97.599632 
3747.000000	97.598340 
3746.000000	97.597222 
3745.000000	97.596039 
3744.000000	97.594427 
3743.000000	97.592817 
3742.000000	97.592050 
3741.000000	97.591146 
3740.000000	97.588820 
3739.000000	97.585924 
3738.000000	97.583941 
3737.000000	97.582599 
3736.000000	97.581067 
3735.000000	97.580680 
3734.000000	97.582456 
3733.000000	97.583591 
3732.000000	97.581132 
3731.000000	97.577270 
3730.000000	97.576436 
3729.000000	97.578054 
3728.000000	97.577535 
3727.000000	97.573890 
3726.000000	97.571228 
3725.000000	97.572525 
3724.000000	97.574480 
3723.000000	97.573104 
3722.000000	97.569357 
3721.000000	97.566142 
3720.000000	97.564321 
3719.000000	97.561320 
3718.000000	97.555061 
3717.000000	97.547596 
3716.000000	97.542535 
3715.000000	97.539834 
3714.000000	97.537413 
3713.000000	97.537135 
3712.000000	97.540834 
3711.000000	97.543539 
3710.000000	97.540100 
3709.000000	97.530518 
3708.000000	97.517288 
3707.000000	97.503138 
3706.000000	97.490591 
3705.000000	97.480063 
3704.000000	97.469966 
3703.000000	97.459001 
3702.000000	97.446443 
3701.000000	97.432638 
3700.000000	97.420847 
3699.000000	97.412479 
3698.000000	97.403542 
3697.000000	97.392003 
3696.000000	97.381285 
3695.000000	97.373865 
3694.000000	97.366507 
3693.000000	97.355892 
3692.000000	97.344239 
3691.000000	97.335437 
3690.000000	97.328447 
3689.000000	97.318056 
3688.000000	97.304691 
3687.000000	97.295751 
3686.000000	97.293073 
3685.000000	97.290332 
3684.000000	97.284151 
3683.000000	97.277058 
3682.000000	97.270734 
3681.000000	97.262603 
3680.000000	97.250525 
3679.000000	97.237351 
3678.000000	97.226242 
3677.000000	97.216502 
3676.000000	97.205107 
3675.000000	97.192077 
3674.000000	97.183208 
3673.000000	97.179694 
3672.000000	97.174816 
3671.000000	97.165859 
3670.000000	97.156442 
3669.000000	97.149309 
3668.000000	97.144389 
3667.000000	97.139490 
3666.000000	97.133013 
3665.000000	97.125730 
3664.000000	97.119053 
3663.000000	97.112670 
3662.000000	97.105071 
3661.000000	97.095766 
3660.000000	97.086355 
3659.000000	97.078968 
3658.000000	97.073157 
3657.000000	97.065751 
3656.000000	97.054278 
3655.000000	97.043180 
3654.000000	97.036598 
3653.000000	97.028095 
3652.000000	97.011380 
3651.000000	96.994855 
3650.000000	96.990170 
3649.000000	96.992956 
3648.000000	96.991231 
3647.000000	96.986554 
3646.000000	96.988937 
3645.000000	96.999548 
3644.000000	97.010972 
3643.000000	97.017331 
3642.000000	97.020360 
3641.000000	97.023777 
3640.000000	97.026521 
3639.000000	97.024236 
3638.000000	97.017404 
3637.000000	97.012229 
3636.000000	97.009062 
3635.000000	96.999594 
3634.000000	96.979903 
3633.000000	96.958842 
3632.000000	96.945080 
3631.000000	96.936690 
3630.000000	96.931211 
3629.000000	96.924730 
3628.000000	96.916383 
3627.000000	96.918901 
3626.000000	96.928969 
3625.000000	96.928209 
3624.000000	96.916122 
3623.000000	96.903943 
3622.000000	96.894713 
3621.000000	96.884476 
3620.000000	96.874541 
3619.000000	96.869730 
3618.000000	96.873032 
3617.000000	96.885933 
3616.000000	96.903960 
3615.000000	96.919796 
3614.000000	96.932557 
3613.000000	96.947074 
3612.000000	96.965979 
3611.000000	96.985046 
3610.000000	96.997297 
3609.000000	97.002121 
3608.000000	97.005547 
3607.000000	97.011581 
3606.000000	97.018423 
3605.000000	97.022661 
3604.000000	97.025766 
3603.000000	97.032492 
3602.000000	97.042559 
3601.000000	97.050125 
3600.000000	97.052012 
3599.000000	97.050081 
3598.000000	97.047083 
3597.000000	97.047198 
3596.000000	97.053219 
3595.000000	97.063379 
3594.000000	97.071395 
3593.000000	97.072433 
3592.000000	97.065897 
3591.000000	97.053840 
3590.000000	97.040157 
3589.000000	97.031777 
3588.000000	97.034332 
3587.000000	97.046192 
3586.000000	97.061635 
3585.000000	97.075350 
3584.000000	97.084299 
3583.000000	97.089389 
3582.000000	97.093638 
3581.000000	97.098296 
3580.000000	97.102012 
3579.000000	97.103653 
3578.000000	97.103290 
3577.000000	97.102201 
3576.000000	97.101432 
3575.000000	97.100675 
3574.000000	97.098609 
3573.000000	97.093761 
3572.000000	97.085599 
3571.000000	97.074849 
3570.000000	97.063405 
3569.000000	97.054610 
3568.000000	97.052717 
3567.000000	97.058885 
3566.000000	97.069510 
3565.000000	97.079629 
3564.000000	97.085701 
3563.000000	97.087354 
3562.000000	97.087397 
3561.000000	97.088743 
3560.000000	97.091697 
3559.000000	97.094479 
3558.000000	97.095407 
3557.000000	97.094236 
3556.000000	97.092321 
3555.000000	97.091122 
3554.000000	97.090926 
3553.000000	97.090876 
3552.000000	97.090060 
3551.000000	97.088106 
3550.000000	97.084705 
3549.000000	97.079901 
3548.000000	97.075713 
3547.000000	97.075107 
3546.000000	97.078476 
3545.000000	97.083146 
3544.000000	97.086734 
3543.000000	97.089095 
3542.000000	97.090886 
3541.000000	97.092101 
3540.000000	97.092690 
3539.000000	97.092964 
3538.000000	97.093329 
3537.000000	97.094041 
3536.000000	97.095142 
3535.000000	97.096347 
3534.000000	97.096819 
3533.000000	97.096006 
3532.000000	97.094521 
3531.000000	97.093806 
3530.000000	97.094315 
3529.000000	97.094829 
3528.000000	97.093992 
3527.000000	97.092022 
3526.000000	97.090289 
3525.000000	97.089986 
3524.000000	97.091681 
3523.000000	97.095300 
3522.000000	97.099969 
3521.000000	97.104072 
3520.000000	97.106506 
3519.000000	97.107514 
3518.000000	97.107946 
3517.000000	97.108031 
3516.000000	97.107106 
3515.000000	97.104861 
3514.000000	97.102319 
3513.000000	97.101011 
3512.000000	97.101345 
3511.000000	97.102458 
3510.000000	97.103290 
3509.000000	97.103564 
3508.000000	97.103671 
3507.000000	97.103825 
3506.000000	97.103576 
3505.000000	97.102583 
3504.000000	97.101396 
3503.000000	97.100987 
3502.000000	97.101714 
3501.000000	97.103059 
3500.000000	97.104243 
3499.000000	97.105014 
3498.000000	97.105848 
3497.000000	97.107347 
3496.000000	97.109348 
3495.000000	97.110802 
3494.000000	97.110913 
3493.000000	97.110115 
3492.000000	97.109408 
3491.000000	97.109003 
3490.000000	97.108202 
3489.000000	97.106559 
3488.000000	97.104554 
3487.000000	97.102846 
3486.000000	97.101447 
3485.000000	97.100178 
3484.000000	97.099401 
3483.000000	97.099703 
3482.000000	97.100974 
3481.000000	97.102412 
3480.000000	97.103417 
3479.000000	97.103875 
3478.000000	97.103642 
3477.000000	97.102455 
3476.000000	97.100449 
3475.000000	97.098221 
3474.000000	97.096412 
3473.000000	97.095362 
3472.000000	97.094983 
3471.000000	97.094819 
3470.000000	97.094369 
3469.000000	97.093473 
3468.000000	97.092485 
3467.000000	97.091980 
3466.000000	97.092225 
3465.000000	97.092848 
3464.000000	97.093039 
3463.000000	97.092204 
3462.000000	97.090402 
3461.000000	97.088209 
3460.000000	97.086194 
3459.000000	97.084471 
3458.000000	97.082866 
3457.000000	97.081279 
3456.000000	97.079829 
3455.000000	97.078749 
3454.000000	97.078064 
3453.000000	97.077574 
3452.000000	97.077129 
3451.000000	97.076778 
3450.000000	97.076490 
3449.000000	97.075970 
3448.000000	97.074931 
3447.000000	97.073420 
3446.000000	97.071719 
3445.000000	97.070059 
3444.000000	97.068589 
3443.000000	97.067521 
3442.000000	97.066994 
3441.000000	97.066743 
3440.000000	97.066183 
3439.000000	97.064943 
3438.000000	97.063194 
3437.000000	97.061463 
3436.000000	97.060183 
3435.000000	97.059518 
3434.000000	97.059384 
3433.000000	97.059497 
3432.000000	97.059520 
3431.000000	97.059295 
3430.000000	97.058887 
3429.000000	97.058411 
3428.000000	97.057853 
3427.000000	97.057089 
3426.000000	97.056120 
3425.000000	97.055173 
3424.000000	97.054482 
3423.000000	97.053998 
3422.000000	97.053436 
3421.000000	97.052642 
3420.000000	97.051797 
3419.000000	97.051198 
3418.000000	97.050927 
3417.000000	97.050850 
3416.000000	97.050820 
3415.000000	97.050740 
3414.000000	97.050468 
3413.000000	97.049854 
3412.000000	97.048951 
3411.000000	97.048086 
3410.000000	97.047609 
3409.000000	97.047628 
3408.000000	97.047989 
3407.000000	97.048373 
3406.000000	97.048499 
3405.000000	97.048270 
3404.000000	97.047798 
3403.000000	97.047267 
3402.000000	97.046760 
3401.000000	97.046312 
3400.000000	97.046042 
3399.000000	97.046082 
3398.000000	97.046372 
3397.000000	97.046691 
3396.000000	97.046902 
3395.000000	97.047042 
3394.000000	97.047176 
3393.000000	97.047311 
3392.000000	97.047458 
3391.000000	97.047663 
3390.000000	97.047958 
3389.000000	97.048368 
3388.000000	97.048978 
3387.000000	97.049864 
3386.000000	97.050918 
3385.000000	97.051822 
3384.000000	97.052256 
3383.000000	97.052203 
3382.000000	97.052095 
3381.000000	97.052574 
3380.000000	97.053877 
3379.000000	97.055548 
3378.000000	97.056915 
3377.000000	97.057956 
3376.000000	97.059242 
3375.000000	97.060966 
3374.000000	97.062465 
3373.000000	97.063012 
3372.000000	97.062778 
3371.000000	97.062736 
3370.000000	97.063644 
3369.000000	97.065435 
3368.000000	97.067517 
3367.000000	97.069320 
3366.000000	97.070553 
3365.000000	97.071235 
3364.000000	97.071673 
3363.000000	97.072271 
3362.000000	97.073257 
3361.000000	97.074639 
3360.000000	97.076371 
3359.000000	97.078386 
3358.000000	97.080477 
3357.000000	97.082344 
3356.000000	97.083821 
3355.000000	97.085003 
3354.000000	97.086190 
3353.000000	97.087748 
3352.000000	97.089908 
3351.000000	97.092538 
3350.000000	97.095166 
3349.000000	97.097316 
3348.000000	97.098887 
3347.000000	97.100188 
3346.000000	97.101575 
3345.000000	97.103141 
3344.000000	97.104624 
3343.000000	97.105617 
3342.000000	97.105965 
3341.000000	97.106029 
3340.000000	97.106395 
3339.000000	97.107254 
3338.000000	97.108342 
3337.000000	97.109420 
3336.000000	97.110575 
3335.000000	97.111999 
3334.000000	97.113642 
3333.000000	97.115246 
3332.000000	97.116619 
3331.000000	97.117776 
3330.000000	97.118834 
3329.000000	97.119888 
3328.000000	97.121005 
3327.000000	97.122242 
3326.000000	97.123610 
3325.000000	97.125034 
3324.000000	97.126354 
3323.000000	97.127442 
3322.000000	97.128323 
3321.000000	97.129174 
3320.000000	97.130160 
3319.000000	97.131294 
3318.000000	97.132489 
3317.000000	97.133689 
3316.000000	97.134902 
3315.000000	97.136115 
3314.000000	97.137259 
3313.000000	97.138281 
3312.000000	97.139215 
3311.000000	97.140155 
3310.000000	97.141181 
3309.000000	97.142311 
3308.000000	97.143500 
3307.000000	97.144641 
3306.000000	97.145642 
3305.000000	97.146508 
3304.000000	97.147341 
3303.000000	97.148264 
3302.000000	97.149333 
3301.000000	97.150511 
3300.000000	97.151693 
3299.000000	97.152752 
3298.000000	97.153618 
3297.000000	97.154335 
3296.000000	97.155073 
3295.000000	97.156003 
3294.000000	97.157197 
3293.000000	97.158627 
3292.000000	97.160208 
3291.000000	97.161799 
3290.000000	97.163223 
3289.000000	97.164376 
3288.000000	97.165307 
3287.000000	97.166158 
3286.000000	97.167006 
3285.000000	97.167818 
3284.000000	97.168581 
3283.000000	97.169388 
3282.000000	97.170381 
3281.000000	97.171606 
3280.000000	97.172929 
3279.000000	97.174124 
3278.000000	97.175102 
3277.000000	97.176019 
3276.000000	97.177095 
3275.000000	97.178351 
3274.000000	97.179625 
3273.000000	97.180831 
3272.000000	97.182067 
3271.000000	97.183442 
3270.000000	97.184914 
3269.000000	97.186329 
3268.000000	97.187569 
3267.000000	97.188640 
3266.000000	97.189654 
3265.000000	97.190764 
3264.000000	97.192047 
3263.000000	97.193445 
3262.000000	97.194807 
3261.000000	97.196041 
3260.000000	97.197170 
3259.000000	97.198265 
3258.000000	97.199370 
3257.000000	97.200514 
3256.000000	97.201743 
3255.000000	97.203071 
3254.000000	97.204428 
3253.000000	97.205727 
3252.000000	97.206953 
3251.000000	97.208161 
3250.000000	97.209392 
3249.000000	97.210634 
3248.000000	97.211850 
3247.000000	97.213035 
3246.000000	97.214221 
3245.000000	97.215448 
3244.000000	97.216730 
3243.000000	97.218047 
3242.000000	97.219358 
3241.000000	97.220639 
3240.000000	97.221899 
3239.000000	97.223159 
3238.000000	97.224454 
3237.000000	97.225821 
3236.000000	97.227272 
3235.000000	97.228752 
3234.000000	97.230161 
3233.000000	97.231436 
3232.000000	97.232600 
3231.000000	97.233767 
3230.000000	97.235050 
3229.000000	97.236470 
3228.000000	97.237966 
3227.000000	97.239463 
3226.000000	97.240961 
3225.000000	97.242506 
3224.000000	97.244099 
3223.000000	97.245668 
3222.000000	97.247146 
3221.000000	97.248551 
3220.000000	97.249961 
3219.000000	97.251390 
3218.000000	97.252798 
3217.000000	97.254172 
3216.000000	97.255553 
3215.000000	97.256996 
3214.000000	97.258531 
3213.000000	97.260152 
3212.000000	97.261803 
3211.000000	97.263398 
3210.000000	97.264881 
3209.000000	97.266277 
3208.000000	97.267672 
3207.000000	97.269120 
3206.000000	97.270616 
3205.000000	97.272160 
3204.000000	97.273802 
3203.000000	97.275577 
3202.000000	97.277430 
3201.000000	97.279241 
3200.000000	97.280927 
3199.000000	97.282507 
3198.000000	97.284090 
3197.000000	97.285772 
3196.000000	97.287541 
3195.000000	97.289293 
3194.000000	97.290968 
3193.000000	97.292642 
3192.000000	97.294429 
3191.000000	97.296326 
3190.000000	97.298189 
3189.000000	97.299898 
3188.000000	97.301454 
3187.000000	97.302975 
3186.000000	97.304606 
3185.000000	97.306426 
3184.000000	97.308394 
3183.000000	97.310370 
3182.000000	97.312238 
3181.000000	97.313987 
3180.000000	97.315666 
3179.000000	97.317296 
3178.000000	97.318887 
3177.000000	97.320515 
3176.000000	97.322274 
3175.000000	97.324177 
3174.000000	97.326149 
3173.000000	97.328136 
3172.000000	97.330114 
3171.000000	97.332004 
3170.000000	97.333693 
3169.000000	97.335182 
3168.000000	97.336597 
3167.000000	97.338043 
3166.000000	97.339532 
3165.000000	97.341053 
3164.000000	97.342603 
3163.000000	97.344152 
3162.000000	97.345661 
3161.000000	97.347127 
3160.000000	97.348575 
3159.000000	97.350013 
3158.000000	97.351435 
3157.000000	97.352848 
3156.000000	97.354258 
3155.000000	97.355656 
3154.000000	97.357034 
3153.000000	97.358407 
3152.000000	97.359789 
3151.000000	97.361175 
3150.000000	97.362549 
3149.000000	97.363903 
3148.000000	97.365243 
3147.000000	97.366580 
3146.000000	97.367922 
3145.000000	97.369266 
3144.000000	97.370601 
3143.000000	97.371911 
3142.000000	97.373183 
3141.000000	97.374417 
3140.000000	97.375624 
3139.000000	97.376820 
3138.000000	97.378020 
3137.000000	97.379227 
3136.000000	97.380433 
3135.000000	97.381624 
3134.000000	97.382788 
3133.000000	97.383924 
3132.000000	97.385053 
3131.000000	97.386190 
3130.000000	97.387339 
3129.000000	97.388502 
3128.000000	97.389706 
3127.000000	97.390984 
3126.000000	97.392341 
3125.000000	97.393730 
3124.000000	97.395064 
3123.000000	97.396246 
3122.000000	97.397213 
3121.000000	97.398020 
3120.000000	97.398868 
3119.000000	97.399946 
3118.000000	97.401291 
3117.000000	97.402793 
3116.000000	97.404339 
3115.000000	97.405881 
3114.000000	97.407359 
3113.000000	97.408695 
3112.000000	97.409920 
3111.000000	97.411217 
3110.000000	97.412721 
3109.000000	97.414323 
3108.000000	97.415744 
3107.000000	97.416798 
3106.000000	97.417532 
3105.000000	97.418112 
3104.000000	97.418630 
3103.000000	97.419024 
3102.000000	97.419211 
3101.000000	97.419287 
3100.000000	97.419491 
3099.000000	97.419946 
3098.000000	97.420688 
3097.000000	97.422020 
3096.000000	97.424344 
3095.000000	97.427433 
3094.000000	97.430390 
3093.000000	97.432593 
3092.000000	97.434242 
3091.000000	97.435576 
3090.000000	97.436114 
3089.000000	97.435347 
3088.000000	97.433820 
3087.000000	97.432945 
3086.000000	97.433808 
3085.000000	97.436309 
3084.000000	97.439117 
3083.000000	97.440360 
3082.000000	97.439233 
3081.000000	97.437399 
3080.000000	97.437652 
3079.000000	97.440538 
3078.000000	97.443772 
3077.000000	97.445714 
3076.000000	97.447476 
3075.000000	97.450243 
3074.000000	97.452426 
3073.000000	97.451849 
3072.000000	97.449447 
3071.000000	97.448094 
3070.000000	97.448516 
3069.000000	97.449078 
3068.000000	97.449192 
3067.000000	97.450077 
3066.000000	97.451928 
3065.000000	97.452994 
3064.000000	97.452089 
3063.000000	97.449758 
3062.000000	97.446563 
3061.000000	97.442339 
3060.000000	97.437677 
3059.000000	97.434328 
3058.000000	97.433548 
3057.000000	97.435320 
3056.000000	97.438900 
3055.000000	97.442449 
3054.000000	97.442591 
3053.000000	97.437118 
3052.000000	97.428898 
3051.000000	97.424423 
3050.000000	97.426983 
3049.000000	97.432970 
3048.000000	97.435980 
3047.000000	97.432898 
3046.000000	97.424859 
3045.000000	97.414617 
3044.000000	97.405232 
3043.000000	97.399948 
3042.000000	97.400505 
3041.000000	97.404659 
3040.000000	97.406879 
3039.000000	97.402688 
3038.000000	97.392059 
3037.000000	97.378571 
3036.000000	97.365606 
3035.000000	97.353711 
3034.000000	97.341650 
3033.000000	97.328924 
3032.000000	97.316323 
3031.000000	97.304498 
3030.000000	97.293125 
3029.000000	97.281511 
3028.000000	97.268906 
3027.000000	97.253987 
3026.000000	97.235435 
3025.000000	97.213896 
3024.000000	97.192391 
3023.000000	97.173622 
3022.000000	97.157531 
3021.000000	97.142530 
3020.000000	97.127978 
3019.000000	97.113706 
3018.000000	97.097899 
3017.000000	97.077819 
3016.000000	97.052998 
3015.000000	97.026223 
3014.000000	97.001198 
3013.000000	96.980142 
3012.000000	96.963022 
3011.000000	96.947313 
3010.000000	96.928677 
3009.000000	96.903952 
3008.000000	96.874131 
3007.000000	96.843337 
3006.000000	96.814563 
3005.000000	96.787550 
3004.000000	96.760908 
3003.000000	96.734649 
3002.000000	96.709892 
3001.000000	96.687307 
3000.000000	96.666549 
2999.000000	96.646358 
2998.000000	96.625240 
2997.000000	96.603103 
2996.000000	96.582044 
2995.000000	96.563608 
2994.000000	96.544593 
2993.000000	96.517747 
2992.000000	96.478804 
2991.000000	96.432527 
2990.000000	96.390490 
2989.000000	96.362809 
2988.000000	96.352424 
2987.000000	96.355809 
2986.000000	96.367110 
2985.000000	96.381421 
2984.000000	96.395550 
2983.000000	96.407445 
2982.000000	96.415795 
2981.000000	96.420039 
2980.000000	96.420265 
2979.000000	96.416759 
2978.000000	96.409972 
2977.000000	96.401123 
2976.000000	96.392371 
2975.000000	96.385757 
2974.000000	96.382220 
2973.000000	96.382144 
2972.000000	96.386347 
2971.000000	96.395506 
2970.000000	96.408813 
2969.000000	96.424308 
2968.000000	96.440658 
2967.000000	96.457726 
2966.000000	96.475406 
2965.000000	96.493013 
2964.000000	96.510126 
2963.000000	96.527026 
2962.000000	96.543786 
2961.000000	96.559811 
2960.000000	96.574877 
2959.000000	96.589966 
2958.000000	96.606357 
2957.000000	96.624066 
2956.000000	96.641419 
2955.000000	96.656004 
2954.000000	96.666495 
2953.000000	96.674451 
2952.000000	96.684079 
2951.000000	96.698625 
2950.000000	96.716271 
2949.000000	96.730867 
2948.000000	96.737683 
2947.000000	96.737592 
2946.000000	96.735292 
2945.000000	96.734622 
2944.000000	96.736649 
2943.000000	96.741178 
2942.000000	96.747725 
2941.000000	96.754769 
2940.000000	96.760155 
2939.000000	96.763261 
2938.000000	96.765622 
2937.000000	96.768600 
2936.000000	96.771274 
2935.000000	96.771372 
2934.000000	96.767711 
2933.000000	96.761043 
2932.000000	96.753127 
2931.000000	96.745902 
2930.000000	96.741236 
2929.000000	96.740257 
2928.000000	96.742284 
2927.000000	96.744858 
2926.000000	96.745418 
2925.000000	96.743312 
2924.000000	96.740239 
2923.000000	96.738705 
2922.000000	96.739817 
2921.000000	96.742337 
2920.000000	96.743984 
2919.000000	96.743674 
2918.000000	96.742070 
2917.000000	96.739598 
2916.000000	96.734716 
2915.000000	96.725431 
2914.000000	96.712690 
2913.000000	96.700875 
2912.000000	96.693884 
2911.000000	96.691316 
2910.000000	96.689479 
2909.000000	96.685935 
2908.000000	96.681743 
2907.000000	96.678819 
2906.000000	96.676034 
2905.000000	96.668927 
2904.000000	96.653925 
2903.000000	96.633543 
2902.000000	96.617140 
2901.000000	96.615007 
2900.000000	96.630538 
2899.000000	96.657519 
2898.000000	96.684988 
2897.000000	96.705412 
2896.000000	96.717846 
2895.000000	96.724702 
2894.000000	96.728636 
2893.000000	96.732786 
2892.000000	96.740671 
2891.000000	96.753112 
2890.000000	96.766355 
2889.000000	96.775625 
2888.000000	96.780197 
2887.000000	96.783128 
2886.000000	96.786603 
2885.000000	96.790278 
2884.000000	96.794634 
2883.000000	96.802946 
2882.000000	96.817809 
2881.000000	96.837282 
2880.000000	96.856714 
2879.000000	96.873898 
2878.000000	96.890205 
2877.000000	96.906764 
2876.000000	96.921917 
2875.000000	96.933568 
2874.000000	96.942400 
2873.000000	96.951092 
2872.000000	96.960974 
2871.000000	96.970958 
2870.000000	96.979830 
2869.000000	96.988288 
2868.000000	96.998209 
2867.000000	97.010668 
2866.000000	97.025167 
2865.000000	97.040385 
2864.000000	97.055412 
2863.000000	97.070758 
2862.000000	97.088303 
2861.000000	97.109514 
2860.000000	97.133284 
2859.000000	97.156326 
2858.000000	97.176415 
2857.000000	97.194611 
2856.000000	97.213346 
2855.000000	97.232809 
2854.000000	97.250703 
2853.000000	97.265212 
2852.000000	97.276577 
2851.000000	97.285871 
2850.000000	97.293810 
2849.000000	97.301205 
2848.000000	97.309275 
2847.000000	97.318568 
2846.000000	97.328216 
2845.000000	97.336976 
2844.000000	97.344528 
2843.000000	97.351386 
2842.000000	97.358094 
2841.000000	97.364852 
2840.000000	97.371444 
2839.000000	97.377289 
2838.000000	97.382046 
2837.000000	97.386382 
2836.000000	97.391626 
2835.000000	97.398424 
2834.000000	97.406376 
2833.000000	97.415108 
2832.000000	97.424671 
2831.000000	97.434322 
2830.000000	97.441909 
2829.000000	97.445546 
2828.000000	97.445629 
2827.000000	97.444643 
2826.000000	97.445237 
2825.000000	97.448698 
2824.000000	97.454575 
2823.000000	97.460888 
2822.000000	97.465153 
2821.000000	97.466209 
2820.000000	97.465168 
2819.000000	97.464199 
2818.000000	97.464557 
2817.000000	97.466221 
2816.000000	97.469005 
2815.000000	97.473035 
2814.000000	97.477964 
2813.000000	97.482388 
2812.000000	97.484583 
2811.000000	97.483901 
2810.000000	97.481536 
2809.000000	97.479915 
2808.000000	97.481041 
2807.000000	97.485164 
2806.000000	97.490949 
2805.000000	97.496693 
2804.000000	97.501152 
2803.000000	97.503600 
2802.000000	97.504021 
2801.000000	97.503558 
2800.000000	97.504015 
2799.000000	97.506225 
2798.000000	97.509188 
2797.000000	97.511232 
2796.000000	97.511747 
2795.000000	97.511451 
2794.000000	97.511410 
2793.000000	97.512283 
2792.000000	97.514240 
2791.000000	97.516951 
2790.000000	97.519593 
2789.000000	97.521372 
2788.000000	97.522216 
2787.000000	97.522799 
2786.000000	97.523848 
2785.000000	97.525555 
2784.000000	97.527604 
2783.000000	97.529563 
2782.000000	97.531217 
2781.000000	97.532654 
2780.000000	97.534079 
2779.000000	97.535594 
2778.000000	97.537153 
2777.000000	97.538642 
2776.000000	97.539973 
2775.000000	97.541139 
2774.000000	97.542215 
2773.000000	97.543307 
2772.000000	97.544464 
2771.000000	97.545674 
2770.000000	97.546931 
2769.000000	97.548286 
2768.000000	97.549789 
2767.000000	97.551361 
2766.000000	97.552796 
2765.000000	97.553951 
2764.000000	97.554903 
2763.000000	97.555841 
2762.000000	97.556846 
2761.000000	97.557864 
2760.000000	97.558860 
2759.000000	97.559898 
2758.000000	97.561050 
2757.000000	97.562266 
2756.000000	97.563384 
2755.000000	97.564306 
2754.000000	97.565114 
2753.000000	97.565993 
2752.000000	97.566997 
2751.000000	97.568012 
2750.000000	97.568960 
2749.000000	97.569942 
2748.000000	97.571075 
2747.000000	97.572255 
2746.000000	97.573235 
2745.000000	97.573936 
2744.000000	97.574549 
2743.000000	97.575329 
2742.000000	97.576327 
2741.000000	97.577397 
2740.000000	97.578412 
2739.000000	97.579354 
2738.000000	97.580230 
2737.000000	97.581053 
2736.000000	97.581905 
2735.000000	97.582892 
2734.000000	97.584015 
2733.000000	97.585181 
2732.000000	97.586308 
2731.000000	97.587394 
2730.000000	97.588479 
2729.000000	97.589598 
2728.000000	97.590739 
2727.000000	97.591837 
2726.000000	97.592813 
2725.000000	97.593665 
2724.000000	97.594475 
2723.000000	97.595325 
2722.000000	97.596214 
2721.000000	97.597101 
2720.000000	97.597983 
2719.000000	97.598907 
2718.000000	97.599903 
2717.000000	97.600944 
2716.000000	97.601958 
2715.000000	97.602896 
2714.000000	97.603770 
2713.000000	97.604631 
2712.000000	97.605502 
2711.000000	97.606351 
2710.000000	97.607134 
2709.000000	97.607860 
2708.000000	97.608606 
2707.000000	97.609447 
2706.000000	97.610401 
2705.000000	97.611420 
2704.000000	97.612403 
2703.000000	97.613236 
2702.000000	97.613857 
2701.000000	97.614365 
2700.000000	97.615007 
2699.000000	97.615962 
2698.000000	97.617136 
2697.000000	97.618138 
2696.000000	97.618649 
2695.000000	97.618684 
2694.000000	97.618574 
2693.000000	97.618652 
2692.000000	97.618980 
2691.000000	97.619404 
2690.000000	97.619764 
2689.000000	97.620022 
2688.000000	97.620203 
2687.000000	97.620277 
2686.000000	97.620237 
2685.000000	97.620247 
2684.000000	97.620537 
2683.000000	97.621105 
2682.000000	97.621634 
2681.000000	97.621814 
2680.000000	97.621671 
2679.000000	97.621485 
2678.000000	97.621496 
2677.000000	97.621762 
2676.000000	97.622166 
2675.000000	97.622386 
2674.000000	97.622088 
2673.000000	97.621365 
2672.000000	97.620797 
2671.000000	97.620786 
2670.000000	97.621001 
2669.000000	97.620855 
2668.000000	97.620326 
2667.000000	97.619830 
2666.000000	97.619372 
2665.000000	97.618437 
2664.000000	97.616856 
2663.000000	97.615265 
2662.000000	97.614402 
2661.000000	97.614229 
2660.000000	97.614071 
2659.000000	97.613435 
2658.000000	97.612464 
2657.000000	97.611631 
2656.000000	97.611228 
2655.000000	97.611145 
2654.000000	97.611013 
2653.000000	97.610505 
2652.000000	97.609650 
2651.000000	97.608852 
2650.000000	97.608550 
2649.000000	97.608809 
2648.000000	97.609230 
2647.000000	97.609233 
2646.000000	97.608417 
2645.000000	97.606775 
2644.000000	97.604765 
2643.000000	97.603156 
2642.000000	97.602491 
2641.000000	97.602678 
2640.000000	97.603108 
2639.000000	97.603268 
2638.000000	97.603214 
2637.000000	97.603299 
2636.000000	97.603648 
2635.000000	97.604050 
2634.000000	97.604273 
2633.000000	97.604284 
2632.000000	97.604136 
2631.000000	97.603854 
2630.000000	97.603516 
2629.000000	97.603282 
2628.000000	97.603208 
2627.000000	97.603125 
2626.000000	97.602874 
2625.000000	97.602577 
2624.000000	97.602519 
2623.000000	97.602770 
2622.000000	97.603055 
2621.000000	97.603032 
2620.000000	97.602578 
2619.000000	97.601813 
2618.000000	97.601024 
2617.000000	97.600551 
2616.000000	97.600577 
2615.000000	97.600979 
2614.000000	97.601404 
2613.000000	97.601643 
2612.000000	97.601795 
2611.000000	97.602031 
2610.000000	97.602361 
2609.000000	97.602661 
2608.000000	97.602829 
2607.000000	97.602814 
2606.000000	97.602633 
2605.000000	97.602393 
2604.000000	97.602216 
2603.000000	97.602069 
2602.000000	97.601871 
2601.000000	97.601824 
2600.000000	97.602315 
2599.000000	97.603289 
2598.000000	97.604032 
2597.000000	97.603968 
2596.000000	97.603319 
2595.000000	97.602713 
2594.000000	97.602262 
2593.000000	97.601704 
2592.000000	97.601274 
2591.000000	97.601485 
2590.000000	97.602052 
2589.000000	97.602057 
2588.000000	97.601405 
2587.000000	97.601157 
2586.000000	97.602051 
2585.000000	97.603549 
2584.000000	97.604661 
2583.000000	97.605055 
2582.000000	97.604998 
2581.000000	97.604865 
2580.000000	97.605057 
2579.000000	97.605906 
2578.000000	97.607281 
2577.000000	97.608600 
2576.000000	97.609402 
2575.000000	97.609611 
2574.000000	97.609223 
2573.000000	97.608195 
2572.000000	97.606618 
2571.000000	97.604635 
2570.000000	97.602287 
2569.000000	97.599869 
2568.000000	97.598246 
2567.000000	97.598160 
2566.000000	97.599273 
2565.000000	97.600514 
2564.000000	97.601331 
2563.000000	97.601968 
2562.000000	97.602616 
2561.000000	97.603247 
2560.000000	97.604338 
2559.000000	97.606757 
2558.000000	97.610442 
2557.000000	97.613854 
2556.000000	97.615477 
2555.000000	97.615375 
2554.000000	97.614681 
2553.000000	97.613990 
2552.000000	97.613033 
2551.000000	97.611936 
2550.000000	97.611673 
2549.000000	97.612715 
2548.000000	97.613937 
2547.000000	97.613751 
2546.000000	97.612077 
2545.000000	97.610437 
2544.000000	97.609966 
2543.000000	97.610064 
2542.000000	97.609533 
2541.000000	97.608432 
2540.000000	97.607997 
2539.000000	97.608882 
2538.000000	97.610353 
2537.000000	97.611242 
2536.000000	97.611299 
2535.000000	97.611150 
2534.000000	97.611308 
2533.000000	97.611675 
2532.000000	97.611937 
2531.000000	97.612016 
2530.000000	97.612034 
2529.000000	97.612035 
2528.000000	97.611938 
2527.000000	97.611734 
2526.000000	97.611612 
2525.000000	97.611826 
2524.000000	97.612427 
2523.000000	97.613196 
2522.000000	97.613821 
2521.000000	97.614166 
2520.000000	97.614315 
2519.000000	97.614410 
2518.000000	97.614484 
2517.000000	97.614492 
2516.000000	97.614410 
2515.000000	97.614268 
2514.000000	97.614110 
2513.000000	97.614017 
2512.000000	97.614123 
2511.000000	97.614535 
2510.000000	97.615269 
2509.000000	97.616230 
2508.000000	97.617205 
2507.000000	97.617901 
2506.000000	97.618157 
2505.000000	97.618184 
2504.000000	97.618503 
2503.000000	97.619396 
2502.000000	97.620538 
2501.000000	97.621311 
2500.000000	97.621523 
2499.000000	97.621506 
2498.000000	97.621582 
2497.000000	97.621716 
2496.000000	97.621829 
2495.000000	97.622084 
2494.000000	97.622587 
2493.000000	97.623073 
2492.000000	97.623269 
2491.000000	97.623429 
2490.000000	97.624128 
2489.000000	97.625478 
2488.000000	97.626784 
2487.000000	97.627227 
2486.000000	97.626756 
2485.000000	97.626196 
2484.000000	97.626437 
2483.000000	97.627630 
2482.000000	97.629226 
2481.000000	97.630606 
2480.000000	97.631527 
2479.000000	97.632031 
2478.000000	97.632289 
2477.000000	97.632579 
2476.000000	97.633032 
2475.000000	97.633311 
2474.000000	97.632856 
2473.000000	97.631558 
2472.000000	97.629864 
2471.000000	97.628124 
2470.000000	97.626324 
2469.000000	97.624677 
2468.000000	97.623863 
2467.000000	97.624210 
2466.000000	97.625060 
2465.000000	97.625494 
2464.000000	97.625513 
2463.000000	97.626060 
2462.000000	97.627998 
2461.000000	97.631362 
2460.000000	97.635263 
2459.000000	97.638318 
2458.000000	97.639389 
2457.000000	97.638245 
2456.000000	97.635592 
2455.000000	97.632508 
2454.000000	97.629937 
2453.000000	97.628408 
2452.000000	97.627747 
2451.000000	97.627156 
2450.000000	97.626269 
2449.000000	97.625982 
2448.000000	97.627389 
2447.000000	97.630004 
2446.000000	97.632008 
2445.000000	97.632474 
2444.000000	97.632177 
2443.000000	97.631959 
2442.000000	97.631591 
2441.000000	97.630820 
2440.000000	97.630369 
2439.000000	97.631102 
2438.000000	97.633024 
2437.000000	97.635747 
2436.000000	97.639128 
2435.000000	97.642757 
2434.000000	97.645572 
2433.000000	97.646820 
2432.000000	97.646975 
2431.000000	97.647148 
2430.000000	97.648005 
2429.000000	97.649593 
2428.000000	97.651561 
2427.000000	97.653059 
2426.000000	97.652947 
2425.000000	97.650722 
2424.000000	97.647398 
2423.000000	97.644856 
2422.000000	97.644080 
2421.000000	97.645081 
2420.000000	97.647701 
2419.000000	97.651270 
2418.000000	97.654468 
2417.000000	97.656715 
2416.000000	97.658865 
2415.000000	97.661478 
2414.000000	97.663636 
2413.000000	97.664507 
2412.000000	97.664832 
2411.000000	97.665578 
2410.000000	97.666323 
2409.000000	97.666448 
2408.000000	97.666963 
2407.000000	97.669307 
2406.000000	97.672840 
2405.000000	97.675225 
2404.000000	97.675109 
2403.000000	97.673086 
2402.000000	97.670483 
2401.000000	97.668653 
2400.000000	97.668995 
2399.000000	97.672117 
2398.000000	97.677000 
2397.000000	97.682059 
2396.000000	97.686591 
2395.000000	97.690190 
2394.000000	97.691702 
2393.000000	97.690491 
2392.000000	97.688378 
2391.000000	97.688459 
2390.000000	97.691689 
2389.000000	97.696540 
2388.000000	97.701969 
2387.000000	97.708708 
2386.000000	97.717349 
2385.000000	97.726763 
2384.000000	97.734955 
2383.000000	97.739933 
2382.000000	97.739073 
2381.000000	97.729703 
2380.000000	97.711790 
2379.000000	97.689122 
2378.000000	97.666743 
2377.000000	97.648007 
2376.000000	97.635655 
2375.000000	97.634036 
2374.000000	97.645595 
2373.000000	97.666428 
2372.000000	97.687712 
2371.000000	97.703731 
2370.000000	97.715199 
2369.000000	97.723608 
2368.000000	97.725451 
2367.000000	97.716974 
2366.000000	97.701808 
2365.000000	97.688418 
2364.000000	97.680003 
2363.000000	97.676527 
2362.000000	97.678341 
2361.000000	97.682332 
2360.000000	97.686499 
2359.000000	97.689087 
2358.000000	97.687045 
2357.000000	97.680963 
2356.000000	97.669205 
2355.000000	97.655867 
2354.000000	97.639090 
2353.000000	97.616614 
2352.000000	97.588919 
2351.000000	97.556889 
2350.000000	97.533105 
2349.000000	97.530693 
2348.000000	97.557425 
2347.000000	97.604845 
2346.000000	97.647619 
2345.000000	97.674220 
2344.000000	97.683260 
2343.000000	97.687126 
2342.000000	97.685899 
2341.000000	97.677989 
2340.000000	97.670035 
2339.000000	97.665758 
2338.000000	97.665516 
2337.000000	97.662716 
2336.000000	97.661318 
2335.000000	97.663249 
2334.000000	97.670545 
2333.000000	97.674724 
2332.000000	97.680294 
2331.000000	97.684232 
2330.000000	97.693106 
2329.000000	97.697100 
2328.000000	97.699406 
2327.000000	97.700604 
2326.000000	97.701905 
2325.000000	97.703846 
2324.000000	97.704736 
2323.000000	97.707172 
2322.000000	97.708333 
2321.000000	97.704313 
2320.000000	97.698343 
2319.000000	97.692490 
2318.000000	97.692161 
2317.000000	97.690432 
2316.000000	97.689675 
2315.000000	97.686667 
2314.000000	97.687871 
2313.000000	97.688909 
2312.000000	97.694029 
2311.000000	97.699830 
2310.000000	97.708261 
2309.000000	97.712539 
2308.000000	97.713943 
2307.000000	97.712095 
2306.000000	97.712301 
2305.000000	97.712890 
2304.000000	97.715982 
2303.000000	97.719160 
2302.000000	97.725022 
2301.000000	97.729248 
2300.000000	97.732646 
2299.000000	97.730454 
2298.000000	97.723309 
2297.000000	97.708604 
2296.000000	97.691286 
2295.000000	97.675856 
2294.000000	97.666568 
2293.000000	97.660963 
2292.000000	97.655403 
2291.000000	97.648627 
2290.000000	97.641636 
2289.000000	97.635781 
2288.000000	97.630487 
2287.000000	97.625555 
2286.000000	97.620376 
2285.000000	97.615783 
2284.000000	97.612591 
2283.000000	97.611812 
2282.000000	97.612194 
2281.000000	97.611596 
2280.000000	97.608573 
2279.000000	97.603304 
2278.000000	97.596602 
2277.000000	97.589599 
2276.000000	97.584852 
2275.000000	97.583888 
2274.000000	97.585760 
2273.000000	97.587913 
2272.000000	97.589783 
2271.000000	97.591920 
2270.000000	97.593194 
2269.000000	97.591401 
2268.000000	97.587052 
2267.000000	97.583399 
2266.000000	97.582624 
2265.000000	97.583754 
2264.000000	97.584798 
2263.000000	97.584570 
2262.000000	97.582269 
2261.000000	97.577993 
2260.000000	97.573254 
2259.000000	97.570049 
2258.000000	97.568393 
2257.000000	97.567003 
2256.000000	97.565926 
2255.000000	97.566622 
2254.000000	97.569318 
2253.000000	97.571556 
2252.000000	97.570951 
2251.000000	97.567420 
2250.000000	97.562305 
2249.000000	97.556480 
2248.000000	97.550734 
2247.000000	97.546446 
2246.000000	97.544551 
2245.000000	97.544216 
2244.000000	97.543554 
2243.000000	97.541595 
2242.000000	97.538950 
2241.000000	97.536851 
2240.000000	97.536053 
2239.000000	97.536483 
2238.000000	97.537263 
2237.000000	97.537237 
2236.000000	97.535907 
2235.000000	97.533655 
2234.000000	97.531143 
2233.000000	97.528758 
2232.000000	97.526712 
2231.000000	97.525208 
2230.000000	97.524086 
2229.000000	97.522667 
2228.000000	97.520467 
2227.000000	97.517863 
2226.000000	97.515568 
2225.000000	97.513582 
2224.000000	97.511264 
2223.000000	97.508352 
2222.000000	97.505406 
2221.000000	97.503091 
2220.000000	97.501412 
2219.000000	97.499895 
2218.000000	97.498131 
2217.000000	97.496149 
2216.000000	97.494268 
2215.000000	97.492650 
2214.000000	97.491056 
2213.000000	97.489116 
2212.000000	97.486787 
2211.000000	97.484430 
2210.000000	97.482405 
2209.000000	97.480715 
2208.000000	97.479159 
2207.000000	97.477582 
2206.000000	97.475939 
2205.000000	97.474271 
2204.000000	97.472745 
2203.000000	97.471714 
2202.000000	97.471425 
2201.000000	97.471401 
2200.000000	97.470385 
2199.000000	97.467234 
2198.000000	97.461857 
2197.000000	97.455521 
2196.000000	97.450283 
2195.000000	97.447468 
2194.000000	97.446560 
2193.000000	97.446136 
2192.000000	97.445896 
2191.000000	97.446421 
2190.000000	97.447069 
2189.000000	97.446182 
2188.000000	97.443821 
2187.000000	97.441735 
2186.000000	97.439819 
2185.000000	97.435624 
2184.000000	97.429234 
2183.000000	97.425630 
2182.000000	97.428917 
2181.000000	97.436069 
2180.000000	97.439392 
2179.000000	97.435251 
2178.000000	97.427235 
2177.000000	97.421596 
2176.000000	97.421457 
2175.000000	97.425490 
2174.000000	97.430079 
2173.000000	97.432682 
2172.000000	97.434210 
2171.000000	97.437404 
2170.000000	97.442060 
2169.000000	97.443522 
2168.000000	97.437903 
2167.000000	97.427438 
2166.000000	97.418241 
2165.000000	97.413171 
2164.000000	97.409503 
2163.000000	97.403780 
2162.000000	97.397165 
2161.000000	97.395484 
2160.000000	97.404665 
2159.000000	97.425576 
2158.000000	97.451806 
2157.000000	97.473701 
2156.000000	97.486235 
2155.000000	97.491181 
2154.000000	97.493237 
2153.000000	97.496502 
2152.000000	97.502838 
2151.000000	97.510279 
2150.000000	97.513561 
2149.000000	97.509831 
2148.000000	97.504038 
2147.000000	97.504832 
2146.000000	97.514323 
2145.000000	97.526028 
2144.000000	97.534007 
2143.000000	97.539537 
2142.000000	97.546093 
2141.000000	97.552575 
2140.000000	97.555866 
2139.000000	97.557307 
2138.000000	97.561858 
2137.000000	97.571530 
2136.000000	97.582808 
2135.000000	97.590211 
2134.000000	97.590618 
2133.000000	97.585487 
2132.000000	97.580637 
2131.000000	97.581983 
2130.000000	97.589909 
2129.000000	97.598919 
2128.000000	97.603817 
2127.000000	97.604778 
2126.000000	97.605190 
2125.000000	97.606624 
2124.000000	97.607892 
2123.000000	97.607572 
2122.000000	97.605289 
2121.000000	97.601253 
2120.000000	97.596228 
2119.000000	97.591677 
2118.000000	97.588898 
2117.000000	97.588193 
2116.000000	97.589030 
2115.000000	97.590248 
2114.000000	97.589990 
2113.000000	97.586882 
2112.000000	97.582045 
2111.000000	97.578561 
2110.000000	97.578198 
2109.000000	97.579826 
2108.000000	97.581505 
2107.000000	97.582638 
2106.000000	97.583303 
2105.000000	97.583346 
2104.000000	97.583273 
2103.000000	97.584208 
2102.000000	97.585613 
2101.000000	97.584727 
2100.000000	97.579940 
2099.000000	97.573575 
2098.000000	97.569958 
2097.000000	97.571031 
2096.000000	97.575320 
2095.000000	97.579937 
2094.000000	97.582590 
2093.000000	97.582331 
2092.000000	97.579506 
2091.000000	97.575614 
2090.000000	97.572524 
2089.000000	97.571158 
2088.000000	97.570970 
2087.000000	97.570502 
2086.000000	97.568456 
2085.000000	97.564556 
2084.000000	97.559805 
2083.000000	97.555658 
2082.000000	97.552697 
2081.000000	97.550470 
2080.000000	97.548662 
2079.000000	97.547638 
2078.000000	97.547335 
2077.000000	97.546507 
2076.000000	97.544143 
2075.000000	97.540991 
2074.000000	97.538318 
2073.000000	97.535771 
2072.000000	97.531914 
2071.000000	97.526477 
2070.000000	97.520747 
2069.000000	97.515966 
2068.000000	97.512539 
2067.000000	97.510369 
2066.000000	97.508857 
2065.000000	97.506607 
2064.000000	97.502306 
2063.000000	97.496210 
2062.000000	97.490220 
2061.000000	97.486391 
2060.000000	97.485496 
2059.000000	97.486872 
2058.000000	97.488736 
2057.000000	97.488919 
2056.000000	97.486232 
2055.000000	97.480949 
2054.000000	97.474273 
2053.000000	97.467588 
2052.000000	97.462061 
2051.000000	97.458191 
2050.000000	97.455451 
2049.000000	97.452791 
2048.000000	97.449904 
2047.000000	97.447424 
2046.000000	97.445656 
2045.000000	97.444075 
2044.000000	97.442405 
2043.000000	97.441164 
2042.000000	97.440626 
2041.000000	97.440277 
2040.000000	97.439939 
2039.000000	97.440444 
2038.000000	97.442135 
2037.000000	97.443537 
2036.000000	97.442822 
2035.000000	97.440129 
2034.000000	97.437543 
2033.000000	97.436987 
2032.000000	97.438700 
2031.000000	97.441313 
2030.000000	97.442586 
2029.000000	97.440864 
2028.000000	97.436556 
2027.000000	97.432130 
2026.000000	97.429607 
2025.000000	97.428800 
2024.000000	97.428780 
2023.000000	97.430060 
2022.000000	97.433992 
2021.000000	97.440205 
2020.000000	97.445887 
2019.000000	97.447996 
2018.000000	97.445356 
2017.000000	97.439215 
2016.000000	97.432868 
2015.000000	97.429410 
2014.000000	97.428845 
2013.000000	97.427964 
2012.000000	97.424584 
2011.000000	97.421441 
2010.000000	97.423247 
2009.000000	97.430505 
2008.000000	97.438611 
2007.000000	97.443626 
2006.000000	97.446116 
2005.000000	97.448256 
2004.000000	97.450273 
2003.000000	97.451440 
2002.000000	97.452555 
2001.000000	97.454458 
2000.000000	97.455696 
1999.000000	97.453135 
1998.000000	97.444859 
1997.000000	97.432640 
1996.000000	97.421331 
1995.000000	97.415372 
1994.000000	97.415495 
1993.000000	97.418550 
1992.000000	97.420347 
1991.000000	97.419586 
1990.000000	97.418559 
1989.000000	97.420049 
1988.000000	97.424031 
1987.000000	97.427068 
1986.000000	97.425012 
1985.000000	97.417108 
1984.000000	97.407304 
1983.000000	97.400390 
1982.000000	97.397251 
1981.000000	97.395186 
1980.000000	97.393242 
1979.000000	97.393876 
1978.000000	97.398010 
1977.000000	97.402279 
1976.000000	97.403457 
1975.000000	97.403526 
1974.000000	97.407060 
1973.000000	97.415691 
1972.000000	97.426947 
1971.000000	97.437058 
1970.000000	97.443189 
1969.000000	97.443875 
1968.000000	97.439340 
1967.000000	97.431936 
1966.000000	97.425558 
1965.000000	97.423732 
1964.000000	97.428023 
1963.000000	97.437608 
1962.000000	97.449678 
1961.000000	97.460574 
1960.000000	97.467552 
1959.000000	97.469816 
1958.000000	97.468777 
1957.000000	97.467603 
1956.000000	97.469074 
1955.000000	97.473060 
1954.000000	97.476709 
1953.000000	97.477918 
1952.000000	97.477382 
1951.000000	97.477115 
1950.000000	97.478343 
1949.000000	97.481393 
1948.000000	97.486680 
1947.000000	97.493711 
1946.000000	97.499862 
1945.000000	97.502416 
1944.000000	97.501581 
1943.000000	97.500011 
1942.000000	97.499416 
1941.000000	97.499376 
1940.000000	97.499458 
1939.000000	97.500034 
1938.000000	97.501365 
1937.000000	97.503520 
1936.000000	97.506881 
1935.000000	97.511375 
1934.000000	97.515520 
1933.000000	97.518018 
1932.000000	97.519727 
1931.000000	97.522880 
1930.000000	97.528035 
1929.000000	97.532830 
1928.000000	97.535593 
1927.000000	97.536969 
1926.000000	97.538139 
1925.000000	97.538922 
1924.000000	97.538909 
1923.000000	97.539386 
1922.000000	97.540932 
1921.000000	97.541924 
1920.000000	97.541245 
1919.000000	97.540333 
1918.000000	97.540718 
1917.000000	97.541141 
1916.000000	97.540223 
1915.000000	97.539263 
1914.000000	97.539735 
1913.000000	97.540963 
1912.000000	97.541199 
1911.000000	97.540374 
1910.000000	97.539859 
1909.000000	97.540255 
1908.000000	97.541437 
1907.000000	97.542923 
1906.000000	97.543950 
1905.000000	97.543526 
1904.000000	97.541478 
1903.000000	97.539514 
1902.000000	97.539194 
1901.000000	97.540137 
1900.000000	97.541119 
1899.000000	97.541608 
1898.000000	97.541853 
1897.000000	97.541994 
1896.000000	97.541834 
1895.000000	97.541455 
1894.000000	97.541018 
1893.000000	97.540402 
1892.000000	97.539568 
1891.000000	97.538970 
1890.000000	97.539041 
1889.000000	97.539512 
1888.000000	97.539850 
1887.000000	97.540062 
1886.000000	97.540401 
1885.000000	97.540811 
1884.000000	97.541056 
1883.000000	97.541168 
1882.000000	97.541418 
1881.000000	97.541951 
1880.000000	97.542716 
1879.000000	97.543531 
1878.000000	97.544182 
1877.000000	97.544652 
1876.000000	97.545219 
1875.000000	97.546243 
1874.000000	97.547781 
1873.000000	97.549394 
1872.000000	97.550615 
1871.000000	97.551485 
1870.000000	97.552370 
1869.000000	97.553379 
1868.000000	97.554483 
1867.000000	97.556066 
1866.000000	97.558217 
1865.000000	97.560047 
1864.000000	97.560781 
1863.000000	97.560988 
1862.000000	97.562070 
1861.000000	97.564412 
1860.000000	97.567143 
1859.000000	97.569677 
1858.000000	97.572302 
1857.000000	97.575068 
1856.000000	97.577505 
1855.000000	97.579504 
1854.000000	97.581340 
1853.000000	97.582656 
1852.000000	97.583496 
1851.000000	97.584926 
1850.000000	97.587586 
1849.000000	97.590973 
1848.000000	97.594036 
1847.000000	97.596671 
1846.000000	97.599272 
1845.000000	97.601713 
1844.000000	97.603364 
1843.000000	97.604729 
1842.000000	97.607034 
1841.000000	97.609585 
1840.000000	97.611467 
1839.000000	97.613268 
1838.000000	97.615808 
1837.000000	97.617951 
1836.000000	97.617909 
1835.000000	97.616703 
1834.000000	97.616884 
1833.000000	97.618597 
1832.000000	97.619973 
1831.000000	97.619812 
1830.000000	97.618830 
1829.000000	97.618628 
1828.000000	97.619637 
1827.000000	97.621280 
1826.000000	97.623551 
1825.000000	97.626971 
1824.000000	97.630066 
1823.000000	97.631226 
1822.000000	97.630832 
1821.000000	97.629806 
1820.000000	97.628462 
1819.000000	97.627102 
1818.000000	97.627833 
1817.000000	97.631024 
1816.000000	97.632912 
1815.000000	97.631608 
1814.000000	97.629559 
1813.000000	97.630156 
1812.000000	97.632250 
1811.000000	97.631923 
1810.000000	97.629625 
1809.000000	97.627843 
1808.000000	97.626636 
1807.000000	97.625190 
1806.000000	97.623909 
1805.000000	97.622872 
1804.000000	97.621091 
1803.000000	97.619517 
1802.000000	97.619666 
1801.000000	97.621005 
1800.000000	97.620241 
1799.000000	97.615712 
1798.000000	97.611022 
1797.000000	97.608868 
1796.000000	97.608402 
1795.000000	97.608217 
1794.000000	97.608638 
1793.000000	97.610921 
1792.000000	97.614139 
1791.000000	97.616867 
1790.000000	97.620008 
1789.000000	97.622810 
1788.000000	97.623952 
1787.000000	97.624382 
1786.000000	97.626274 
1785.000000	97.629088 
1784.000000	97.630172 
1783.000000	97.629686 
1782.000000	97.628899 
1781.000000	97.629312 
1780.000000	97.631590 
1779.000000	97.634506 
1778.000000	97.637232 
1777.000000	97.639202 
1776.000000	97.640853 
1775.000000	97.642224 
1774.000000	97.642651 
1773.000000	97.642363 
1772.000000	97.642392 
1771.000000	97.643372 
1770.000000	97.645495 
1769.000000	97.648240 
1768.000000	97.650804 
1767.000000	97.652572 
1766.000000	97.653480 
1765.000000	97.654072 
1764.000000	97.654822 
1763.000000	97.655889 
1762.000000	97.657091 
1761.000000	97.658273 
1760.000000	97.659408 
1759.000000	97.660466 
1758.000000	97.661458 
1757.000000	97.662420 
1756.000000	97.663410 
1755.000000	97.664338 
1754.000000	97.665160 
1753.000000	97.665934 
1752.000000	97.666727 
1751.000000	97.667528 
1750.000000	97.668308 
1749.000000	97.669032 
1748.000000	97.669682 
1747.000000	97.670261 
1746.000000	97.670765 
1745.000000	97.671221 
1744.000000	97.671699 
1743.000000	97.672229 
1742.000000	97.672735 
1741.000000	97.673095 
1740.000000	97.673277 
1739.000000	97.673409 
1738.000000	97.673660 
1737.000000	97.673904 
1736.000000	97.673865 
1735.000000	97.673721 
1734.000000	97.673682 
1733.000000	97.673390 
1732.000000	97.673178 
1731.000000	97.673419 
1730.000000	97.674085 
1729.000000	97.674778 
1728.000000	97.675029 
1727.000000	97.674766 
1726.000000	97.674201 
1725.000000	97.673864 
1724.000000	97.673769 
1723.000000	97.673565 
1722.000000	97.673406 
1721.000000	97.673232 
1720.000000	97.672552 
1719.000000	97.671309 
1718.000000	97.670496 
1717.000000	97.670265 
1716.000000	97.669503 
1715.000000	97.668251 
1714.000000	97.667399 
1713.000000	97.666819 
1712.000000	97.665606 
1711.000000	97.663864 
1710.000000	97.662387 
1709.000000	97.661228 
1708.000000	97.659790 
1707.000000	97.657846 
1706.000000	97.656032 
1705.000000	97.654662 
1704.000000	97.653283 
1703.000000	97.651520 
1702.000000	97.649464 
1701.000000	97.647640 
1700.000000	97.645244 
1699.000000	97.642016 
1698.000000	97.639502 
1697.000000	97.637603 
1696.000000	97.635709 
1695.000000	97.633431 
1694.000000	97.631077 
1693.000000	97.628711 
1692.000000	97.626021 
1691.000000	97.623123 
1690.000000	97.620230 
1689.000000	97.617400 
1688.000000	97.614631 
1687.000000	97.611776 
1686.000000	97.608793 
1685.000000	97.605875 
1684.000000	97.603052 
1683.000000	97.600276 
1682.000000	97.597598 
1681.000000	97.594852 
1680.000000	97.592077 
1679.000000	97.589388 
1678.000000	97.586701 
1677.000000	97.583887 
1676.000000	97.581010 
1675.000000	97.578161 
1674.000000	97.575173 
1673.000000	97.572057 
1672.000000	97.568937 
1671.000000	97.565974 
1670.000000	97.563277 
1669.000000	97.560577 
1668.000000	97.557888 
1667.000000	97.555415 
1666.000000	97.552963 
1665.000000	97.550257 
1664.000000	97.547372 
1663.000000	97.544793 
1662.000000	97.542474 
1661.000000	97.539887 
1660.000000	97.537114 
1659.000000	97.534340 
1658.000000	97.531484 
1657.000000	97.528592 
1656.000000	97.525924 
1655.000000	97.523560 
1654.000000	97.522324 
1653.000000	97.520347 
1652.000000	97.514609 
1651.000000	97.510011 
1650.000000	97.507559 
1649.000000	97.504825 
1648.000000	97.502533 
1647.000000	97.502446 
1646.000000	97.503222 
1645.000000	97.502821 
1644.000000	97.501439 
1643.000000	97.500214 
1642.000000	97.499377 
1641.000000	97.498391 
1640.000000	97.497450 
1639.000000	97.496593 
1638.000000	97.495758 
1637.000000	97.495402 
1636.000000	97.496490 
1635.000000	97.497049 
1634.000000	97.496488 
1633.000000	97.496767 
1632.000000	97.496780 
1631.000000	97.496785 
1630.000000	97.497415 
1629.000000	97.498044 
1628.000000	97.498171 
1627.000000	97.499167 
1626.000000	97.501078 
1625.000000	97.502306 
1624.000000	97.503194 
1623.000000	97.505706 
1622.000000	97.509378 
1621.000000	97.512266 
1620.000000	97.514542 
1619.000000	97.516782 
1618.000000	97.519444 
1617.000000	97.519869 
1616.000000	97.516693 
1615.000000	97.516208 
1614.000000	97.520755 
1613.000000	97.524593 
1612.000000	97.525442 
1611.000000	97.527161 
1610.000000	97.531080 
1609.000000	97.535173 
1608.000000	97.540720 
1607.000000	97.550583 
1606.000000	97.560131 
1605.000000	97.563912 
1604.000000	97.565606 
1603.000000	97.570055 
1602.000000	97.576129 
1601.000000	97.580413 
1600.000000	97.584018 
1599.000000	97.589281 
1598.000000	97.594496 
1597.000000	97.597401 
1596.000000	97.599413 
1595.000000	97.603438 
1594.000000	97.608878 
1593.000000	97.612903 
1592.000000	97.615664 
1591.000000	97.619548 
1590.000000	97.624367 
1589.000000	97.628108 
1588.000000	97.631424 
1587.000000	97.636616 
1586.000000	97.642504 
1585.000000	97.644747 
1584.000000	97.645505 
1583.000000	97.649358 
1582.000000	97.653157 
1581.000000	97.653001 
1580.000000	97.652549 
1579.000000	97.655626 
1578.000000	97.659305 
1577.000000	97.661065 
1576.000000	97.660746 
1575.000000	97.661953 
1574.000000	97.667456 
1573.000000	97.672716 
1572.000000	97.674626 
1571.000000	97.676651 
1570.000000	97.679588 
1569.000000	97.677545 
1568.000000	97.674296 
1567.000000	97.674155 
1566.000000	97.672327 
1565.000000	97.666267 
1564.000000	97.661705 
1563.000000	97.661338 
1562.000000	97.657420 
1561.000000	97.643252 
1560.000000	97.638169 
1559.000000	97.655166 
1558.000000	97.660113 
1557.000000	97.652369 
1556.000000	97.646653 
1555.000000	97.645361 
1554.000000	97.643494 
1553.000000	97.637831 
1552.000000	97.630885 
1551.000000	97.624631 
1550.000000	97.620866 
1549.000000	97.616413 
1548.000000	97.607360 
1547.000000	97.594755 
1546.000000	97.580234 
1545.000000	97.567264 
1544.000000	97.558225 
1543.000000	97.550546 
1542.000000	97.541286 
1541.000000	97.530366 
1540.000000	97.514462 
1539.000000	97.493818 
1538.000000	97.478640 
1537.000000	97.469926 
1536.000000	97.458649 
1535.000000	97.444766 
1534.000000	97.434176 
1533.000000	97.427937 
1532.000000	97.420167 
1531.000000	97.406415 
1530.000000	97.388355 
1529.000000	97.369151 
1528.000000	97.351245 
1527.000000	97.336761 
1526.000000	97.324818 
1525.000000	97.312044 
1524.000000	97.296074 
1523.000000	97.277514 
1522.000000	97.261038 
1521.000000	97.247543 
1520.000000	97.232379 
1519.000000	97.213114 
1518.000000	97.190949 
1517.000000	97.171288 
1516.000000	97.156997 
1515.000000	97.145062 
1514.000000	97.131497 
1513.000000	97.115380 
1512.000000	97.096843 
1511.000000	97.076026 
1510.000000	97.054469 
1509.000000	97.034196 
1508.000000	97.018488 
1507.000000	97.007554 
1506.000000	96.992830 
1505.000000	96.971029 
1504.000000	96.948784 
1503.000000	96.928115 
1502.000000	96.907849 
1501.000000	96.888145 
1500.000000	96.869368 
1499.000000	96.850800 
1498.000000	96.832109 
1497.000000	96.814950 
1496.000000	96.798901 
1495.000000	96.783447 
1494.000000	96.769794 
1493.000000	96.757144 
1492.000000	96.743504 
1491.000000	96.729456 
1490.000000	96.717955 
1489.000000	96.707904 
1488.000000	96.692717 
1487.000000	96.671566 
1486.000000	96.650440 
1485.000000	96.628768 
1484.000000	96.605303 
1483.000000	96.582653 
1482.000000	96.564703 
1481.000000	96.551620 
1480.000000	96.536979 
1479.000000	96.517285 
1478.000000	96.495808 
1477.000000	96.477902 
1476.000000	96.462159 
1475.000000	96.445868 
1474.000000	96.430185 
1473.000000	96.420240 
1472.000000	96.415486 
1471.000000	96.407734 
1470.000000	96.394954 
1469.000000	96.378388 
1468.000000	96.358649 
1467.000000	96.338526 
1466.000000	96.322276 
1465.000000	96.312238 
1464.000000	96.306312 
1463.000000	96.296279 
1462.000000	96.278603 
1461.000000	96.255874 
1460.000000	96.233469 
1459.000000	96.215571 
1458.000000	96.206299 
1457.000000	96.204745 
1456.000000	96.198367 
1455.000000	96.183687 
1454.000000	96.164188 
1453.000000	96.145392 
1452.000000	96.134546 
1451.000000	96.133104 
1450.000000	96.138969 
1449.000000	96.151196 
1448.000000	96.166311 
1447.000000	96.177724 
1446.000000	96.178959 
1445.000000	96.173742 
1444.000000	96.171217 
1443.000000	96.170666 
1442.000000	96.168329 
1441.000000	96.164475 
1440.000000	96.162010 
1439.000000	96.158960 
1438.000000	96.156922 
1437.000000	96.164254 
1436.000000	96.178057 
1435.000000	96.184066 
1434.000000	96.179575 
1433.000000	96.173626 
1432.000000	96.173719 
1431.000000	96.179537 
1430.000000	96.186376 
1429.000000	96.193118 
1428.000000	96.198323 
1427.000000	96.200737 
1426.000000	96.199696 
1425.000000	96.201379 
1424.000000	96.213209 
1423.000000	96.226930 
1422.000000	96.230460 
1421.000000	96.224887 
1420.000000	96.223499 
1419.000000	96.230114 
1418.000000	96.234533 
1417.000000	96.234409 
1416.000000	96.234354 
1415.000000	96.234087 
1414.000000	96.229664 
1413.000000	96.222174 
1412.000000	96.217761 
1411.000000	96.218089 
1410.000000	96.220270 
1409.000000	96.223690 
1408.000000	96.229485 
1407.000000	96.239942 
1406.000000	96.256555 
1405.000000	96.281384 
1404.000000	96.314511 
1403.000000	96.347055 
1402.000000	96.371520 
1401.000000	96.391692 
1400.000000	96.417978 
1399.000000	96.450765 
1398.000000	96.475592 
1397.000000	96.480751 
1396.000000	96.471065 
1395.000000	96.465164 
1394.000000	96.478269 
1393.000000	96.512332 
1392.000000	96.559074 
1391.000000	96.605456 
1390.000000	96.641926 
1389.000000	96.667470 
1388.000000	96.686973 
1387.000000	96.703793 
1386.000000	96.716879 
1385.000000	96.726986 
1384.000000	96.739429 
1383.000000	96.757020 
1382.000000	96.777767 
1381.000000	96.798467 
1380.000000	96.819168 
1379.000000	96.842238 
1378.000000	96.867359 
1377.000000	96.891983 
1376.000000	96.916133 
1375.000000	96.943598 
1374.000000	96.975874 
1373.000000	97.009373 
1372.000000	97.039884 
1371.000000	97.067351 
1370.000000	97.093537 
1369.000000	97.119472 
1368.000000	97.145213 
1367.000000	97.168206 
1366.000000	97.186632 
1365.000000	97.202997 
1364.000000	97.223052 
1363.000000	97.249569 
1362.000000	97.278156 
1361.000000	97.302557 
1360.000000	97.322540 
1359.000000	97.341973 
1358.000000	97.362250 
1357.000000	97.381858 
1356.000000	97.400074 
1355.000000	97.417030 
1354.000000	97.432527 
1353.000000	97.446796 
1352.000000	97.460281 
1351.000000	97.474805 
1350.000000	97.490709 
1349.000000	97.505684 
1348.000000	97.518238 
1347.000000	97.528358 
1346.000000	97.537612 
1345.000000	97.546689 
1344.000000	97.554461 
1343.000000	97.559087 
1342.000000	97.561269 
1341.000000	97.565255 
1340.000000	97.575280 
1339.000000	97.589960 
1338.000000	97.603501 
1337.000000	97.612988 
1336.000000	97.619768 
1335.000000	97.624804 
1334.000000	97.627734 
1333.000000	97.629713 
1332.000000	97.633219 
1331.000000	97.638523 
1330.000000	97.643220 
1329.000000	97.646171 
1328.000000	97.649078 
1327.000000	97.653479 
1326.000000	97.657855 
1325.000000	97.659630 
1324.000000	97.658050 
1323.000000	97.653209 
1322.000000	97.645942 
1321.000000	97.639323 
1320.000000	97.637756 
1319.000000	97.642605 
1318.000000	97.650662 
1317.000000	97.657830 
1316.000000	97.662356 
1315.000000	97.664097 
1314.000000	97.663859 
1313.000000	97.664295 
1312.000000	97.668070 
1311.000000	97.673931 
1310.000000	97.677365 
1309.000000	97.676274 
1308.000000	97.673280 
1307.000000	97.672095 
1306.000000	97.673316 
1305.000000	97.675650 
1304.000000	97.678779 
1303.000000	97.682107 
1302.000000	97.683487 
1301.000000	97.681448 
1300.000000	97.677784 
1299.000000	97.675723 
1298.000000	97.676271 
1297.000000	97.677378 
1296.000000	97.676462 
1295.000000	97.673000 
1294.000000	97.669094 
1293.000000	97.667838 
1292.000000	97.670210 
1291.000000	97.673920 
1290.000000	97.676408 
1289.000000	97.678105 
1288.000000	97.680677 
1287.000000	97.682945 
1286.000000	97.681715 
1285.000000	97.676901 
1284.000000	97.672614 
1283.000000	97.672040 
1282.000000	97.673562 
1281.000000	97.673424 
1280.000000	97.670704 
1279.000000	97.667818 
1278.000000	97.667391 
1277.000000	97.670113 
1276.000000	97.674393 
1275.000000	97.677091 
1274.000000	97.675668 
1273.000000	97.670806 
1272.000000	97.665795 
1271.000000	97.662535 
1270.000000	97.659286 
1269.000000	97.653292 
1268.000000	97.644183 
1267.000000	97.633416 
1266.000000	97.622068 
1265.000000	97.611014 
1264.000000	97.601955 
1263.000000	97.596185 
1262.000000	97.592603 
1261.000000	97.588530 
1260.000000	97.582919 
1259.000000	97.577295 
1258.000000	97.573024 
1257.000000	97.568684 
1256.000000	97.560904 
1255.000000	97.548081 
1254.000000	97.532684 
1253.000000	97.518830 
1252.000000	97.507684 
1251.000000	97.497141 
1250.000000	97.486728 
1249.000000	97.480550 
1248.000000	97.482953 
1247.000000	97.491917 
1246.000000	97.498992 
1245.000000	97.495897 
1244.000000	97.480388 
1243.000000	97.458122 
1242.000000	97.440785 
1241.000000	97.439106 
1240.000000	97.452999 
1239.000000	97.469126 
1238.000000	97.472216 
1237.000000	97.458687 
1236.000000	97.436205 
1235.000000	97.412036 
1234.000000	97.387071 
1233.000000	97.360746 
1232.000000	97.335148 
1231.000000	97.311754 
1230.000000	97.289071 
1229.000000	97.266264 
1228.000000	97.245013 
1227.000000	97.225004 
1226.000000	97.201216 
1225.000000	97.168984 
1224.000000	97.129172 
1223.000000	97.085601 
1222.000000	97.039688 
1221.000000	96.990390 
1220.000000	96.937523 
1219.000000	96.882166 
1218.000000	96.824716 
1217.000000	96.764515 
1216.000000	96.700341 
1215.000000	96.630245 
1214.000000	96.552997 
1213.000000	96.471225 
1212.000000	96.390451 
1211.000000	96.312604 
1210.000000	96.232879 
1209.000000	96.145854 
1208.000000	96.052774 
1207.000000	95.959919 
1206.000000	95.871254 
1205.000000	95.785419 
1204.000000	95.698716 
1203.000000	95.608369 
1202.000000	95.514120 
1201.000000	95.418965 
1200.000000	95.327038 
1199.000000	95.238892 
1198.000000	95.150573 
1197.000000	95.059155 
1196.000000	94.966520 
1195.000000	94.875359 
1194.000000	94.784351 
1193.000000	94.690456 
1192.000000	94.593549 
1191.000000	94.495225 
1190.000000	94.395127 
1189.000000	94.292089 
1188.000000	94.187165 
1187.000000	94.081971 
1186.000000	93.975648 
1185.000000	93.866578 
1184.000000	93.754955 
1183.000000	93.640448 
1182.000000	93.520147 
1181.000000	93.392787 
1180.000000	93.262197 
1179.000000	93.131861 
1178.000000	92.998731 
1177.000000	92.857698 
1176.000000	92.709661 
1175.000000	92.559405 
1174.000000	92.407845 
1173.000000	92.252991 
1172.000000	92.096865 
1171.000000	91.944057 
1170.000000	91.794288 
1169.000000	91.643990 
1168.000000	91.495350 
1167.000000	91.356950 
1166.000000	91.235991 
1165.000000	91.137707 
1164.000000	91.072093 
1163.000000	91.051445 
1162.000000	91.077660 
1161.000000	91.136945 
1160.000000	91.207594 
1159.000000	91.268002 
1158.000000	91.299222 
1157.000000	91.289042 
1156.000000	91.236795 
1155.000000	91.150782 
1154.000000	91.040876 
1153.000000	90.916521 
1152.000000	90.788782 
1151.000000	90.666502 
1150.000000	90.549808 
1149.000000	90.433626 
1148.000000	90.317359 
1147.000000	90.204655 
1146.000000	90.094664 
1145.000000	89.981848 
1144.000000	89.865139 
1143.000000	89.749548 
1142.000000	89.637447 
1141.000000	89.525441 
1140.000000	89.411144 
1139.000000	89.296236 
1138.000000	89.181752 
1137.000000	89.066792 
1136.000000	88.952499 
1135.000000	88.840794 
1134.000000	88.729007 
1133.000000	88.612477 
1132.000000	88.492182 
1131.000000	88.372800 
1130.000000	88.254074 
1129.000000	88.131971 
1128.000000	88.007457 
1127.000000	87.885218 
1126.000000	87.763958 
1125.000000	87.637295 
1124.000000	87.504663 
1123.000000	87.372192 
1122.000000	87.242237 
1121.000000	87.111276 
1120.000000	86.978729 
1119.000000	86.848094 
1118.000000	86.718616 
1117.000000	86.586115 
1116.000000	86.452856 
1115.000000	86.326189 
1114.000000	86.206608 
1113.000000	86.087754 
1112.000000	85.968594 
1111.000000	85.853625 
1110.000000	85.741255 
1109.000000	85.624778 
1108.000000	85.504458 
1107.000000	85.386939 
1106.000000	85.272949 
1105.000000	85.157381 
1104.000000	85.041322 
1103.000000	84.930961 
1102.000000	84.824803 
1101.000000	84.715196 
1100.000000	84.603205 
1099.000000	84.498592 
1098.000000	84.404650 
1097.000000	84.315938 
1096.000000	84.230221 
1095.000000	84.148659 
1094.000000	84.064160 
1093.000000	83.965405 
1092.000000	83.854651 
1091.000000	83.747508 
1090.000000	83.653029 
1089.000000	83.567028 
1088.000000	83.485315 
1087.000000	83.408616 
1086.000000	83.333398 
1085.000000	83.253318 
1084.000000	83.171837 
1083.000000	83.098972 
1082.000000	83.034311 
1081.000000	82.968254 
1080.000000	82.900919 
1079.000000	82.843427 
1078.000000	82.798329 
1077.000000	82.754914 
1076.000000	82.706421 
1075.000000	82.655724 
1074.000000	82.601663 
1073.000000	82.535703 
1072.000000	82.453513 
1071.000000	82.352589 
1070.000000	82.217221 
1069.000000	82.026858 
1068.000000	81.786515 
1067.000000	81.533504 
1066.000000	81.305480 
1065.000000	81.112515 
1064.000000	80.944123 
1063.000000	80.784794 
1062.000000	80.614975 
1061.000000	80.415828 
1060.000000	80.186826 
1059.000000	79.949931 
1058.000000	79.728584 
1057.000000	79.530044 
1056.000000	79.350170 
1055.000000	79.181620 
1054.000000	79.013037 
1053.000000	78.834436 
1052.000000	78.649823 
1051.000000	78.472643 
1050.000000	78.305051 
1049.000000	78.135945 
1048.000000	77.961183 
1047.000000	77.788012 
1046.000000	77.618227 
1045.000000	77.445078 
1044.000000	77.268170 
1043.000000	77.094573 
1042.000000	76.923684 
1041.000000	76.747167 
1040.000000	76.566407 
1039.000000	76.395111 
1038.000000	76.242589 
1037.000000	76.108495 
1036.000000	75.993556 
1035.000000	75.899604 
1034.000000	75.819334 
1033.000000	75.741691 
1032.000000	75.665533 
1031.000000	75.592668 
1030.000000	75.514079 
1029.000000	75.424474 
1028.000000	75.345213 
1027.000000	75.306973 
1026.000000	75.309732 
1025.000000	75.322555 
1024.000000	75.323003 
1023.000000	75.313140 
1022.000000	75.296764 
1021.000000	75.268455 
1020.000000	75.229888 
1019.000000	75.193003 
1018.000000	75.161014 
1017.000000	75.126327 
1016.000000	75.090281 
1015.000000	75.064064 
1014.000000	75.047452 
1013.000000	75.028058 
1012.000000	75.004440 
1011.000000	74.988843 
1010.000000	74.984642 
1009.000000	74.982649 
1008.000000	74.982316 
1007.000000	74.995034 
1006.000000	75.023487 
1005.000000	75.058664 
1004.000000	75.099199 
1003.000000	75.152039 
1002.000000	75.212183 
1001.000000	75.264755 
1000.000000	75.310624 
999.000000	 75.367516 
998.000000	 75.441785 
997.000000	 75.520799 
996.000000	 75.596940 
995.000000	 75.677628 
994.000000	 75.766959 
993.000000	 75.858554 
992.000000	 75.951405 
991.000000	 76.052841 
990.000000	 76.161623 
989.000000	 76.267730 
988.000000	 76.372694 
987.000000	 76.490479 
986.000000	 76.624807 
985.000000	 76.765369 
984.000000	 76.909221 
983.000000	 77.065318 
982.000000	 77.234592 
981.000000	 77.405978 
980.000000	 77.576402 
979.000000	 77.755328 
978.000000	 77.945124 
977.000000	 78.136434 
976.000000	 78.327318 
975.000000	 78.527875 
974.000000	 78.741134 
973.000000	 78.957626 
972.000000	 79.173384 
971.000000	 79.395677 
970.000000	 79.626287 
969.000000	 79.856237 
968.000000	 80.081624 
967.000000	 80.308654 
966.000000	 80.539056 
965.000000	 80.766120 
964.000000	 80.988705 
963.000000	 81.213923 
962.000000	 81.442682 
961.000000	 81.667194 
960.000000	 81.885246 
959.000000	 82.102284 
958.000000	 82.317400 
957.000000	 82.522163 
956.000000	 82.715695 
955.000000	 82.906762 
954.000000	 83.099019 
953.000000	 83.287578 
952.000000	 83.470910 
951.000000	 83.651699 
950.000000	 83.825697 
949.000000	 83.985091 
948.000000	 84.133733 
947.000000	 84.283800 
946.000000	 84.435983 
945.000000	 84.578425 
944.000000	 84.706980 
943.000000	 84.831024 
942.000000	 84.956954 
941.000000	 85.081085 
940.000000	 85.202294 
939.000000	 85.326969 
938.000000	 85.457211 
937.000000	 85.586980 
936.000000	 85.713529 
935.000000	 85.840903 
934.000000	 85.969912 
933.000000	 86.096599 
932.000000	 86.222352 
931.000000	 86.353502 
930.000000	 86.489119 
929.000000	 86.620714 
928.000000	 86.745263 
927.000000	 86.867307 
926.000000	 86.987766 
925.000000	 87.102075 
924.000000	 87.209570 
923.000000	 87.313470 
922.000000	 87.412008 
921.000000	 87.501223 
920.000000	 87.585575 
919.000000	 87.673437 
918.000000	 87.762789 
917.000000	 87.843984 
916.000000	 87.916631 
915.000000	 87.991610 
914.000000	 88.076514 
913.000000	 88.171056 
912.000000	 88.276284 
911.000000	 88.395623 
910.000000	 88.526741 
909.000000	 88.664693 
908.000000	 88.812767 
907.000000	 88.978418 
906.000000	 89.159874 
905.000000	 89.348587 
904.000000	 89.542348 
903.000000	 89.743134 
902.000000	 89.945177 
901.000000	 90.139508 
900.000000	 90.328443 
899.000000	 90.521942 
898.000000	 90.721108 
897.000000	 90.917692 
896.000000	 91.107016 
895.000000	 91.288316 
894.000000	 91.456402 
893.000000	 91.607735 
892.000000	 91.751935 
891.000000	 91.902087 
890.000000	 92.054385 
889.000000	 92.190812 
888.000000	 92.299857 
887.000000	 92.381865 
886.000000	 92.438751 
885.000000	 92.474026 
884.000000	 92.499676 
883.000000	 92.525799 
882.000000	 92.545332 
881.000000	 92.547595 
880.000000	 92.545967 
879.000000	 92.571365 
878.000000	 92.636138 
877.000000	 92.724599 
876.000000	 92.821596 
875.000000	 92.929942 
874.000000	 93.056050 
873.000000	 93.200188 
872.000000	 93.366777 
871.000000	 93.563775 
870.000000	 93.784101 
869.000000	 94.004217 
868.000000	 94.207720 
867.000000	 94.396772 
866.000000	 94.577468 
865.000000	 94.749633 
864.000000	 94.915513 
863.000000	 95.083500 
862.000000	 95.256182 
861.000000	 95.425898 
860.000000	 95.587154 
859.000000	 95.742950 
858.000000	 95.895090 
857.000000	 96.038918 
856.000000	 96.171441 
855.000000	 96.294571 
854.000000	 96.406913 
853.000000	 96.502310 
852.000000	 96.580336 
851.000000	 96.649902 
850.000000	 96.719954 
849.000000	 96.794070 
848.000000	 96.874072 
847.000000	 96.958924 
846.000000	 97.039711 
845.000000	 97.106423 
844.000000	 97.160546 
843.000000	 97.211341 
842.000000	 97.260353 
841.000000	 97.300324 
840.000000	 97.328384 
839.000000	 97.348044 
838.000000	 97.358778 
837.000000	 97.357225 
836.000000	 97.350026 
835.000000	 97.351862 
834.000000	 97.366956 
833.000000	 97.384239 
832.000000	 97.394401 
831.000000	 97.400484 
830.000000	 97.408447 
829.000000	 97.419546 
828.000000	 97.437388 
827.000000	 97.470987 
826.000000	 97.523539 
825.000000	 97.586385 
824.000000	 97.647835 
823.000000	 97.698838 
822.000000	 97.730307 
821.000000	 97.738160 
820.000000	 97.731471 
819.000000	 97.722665 
818.000000	 97.708376 
817.000000	 97.670710 
816.000000	 97.597739 
815.000000	 97.492007 
814.000000	 97.357648 
813.000000	 97.189427 
812.000000	 96.976582 
811.000000	 96.706942 
810.000000	 96.364462 
809.000000	 95.933819 
808.000000	 95.413701 
807.000000	 94.820048 
806.000000	 94.174700 
805.000000	 93.499191 
804.000000	 92.820604 
803.000000	 92.170391 
802.000000	 91.572396 
801.000000	 91.043478 
800.000000	 90.607466 
799.000000	 90.291155 
798.000000	 90.100843 
797.000000	 90.017842 
796.000000	 90.019630 
795.000000	 90.088594 
794.000000	 90.200106 
793.000000	 90.324299 
792.000000	 90.444643 
791.000000	 90.557145 
790.000000	 90.649409 
789.000000	 90.699177 
788.000000	 90.695477 
787.000000	 90.642577 
786.000000	 90.540962 
785.000000	 90.383271 
784.000000	 90.172805 
783.000000	 89.928891 
782.000000	 89.671663 
781.000000	 89.420138 
780.000000	 89.206407 
779.000000	 89.067975 
778.000000	 89.018668 
777.000000	 89.045957 
776.000000	 89.140110 
775.000000	 89.303080 
774.000000	 89.523804 
773.000000	 89.769924 
772.000000	 90.014082 
771.000000	 90.249457 
770.000000	 90.473333 
769.000000	 90.675917 
768.000000	 90.852900 
767.000000	 91.010325 
766.000000	 91.149966 
765.000000	 91.267476 
764.000000	 91.370730 
763.000000	 91.481277 
762.000000	 91.610086 
761.000000	 91.748329 
760.000000	 91.887405 
759.000000	 92.029908 
758.000000	 92.175380 
757.000000	 92.315224 
756.000000	 92.450224 
755.000000	 92.594864 
754.000000	 92.754110 
753.000000	 92.910611 
752.000000	 93.043379 
751.000000	 93.147281 
750.000000	 93.230519 
749.000000	 93.306955 
748.000000	 93.393895 
747.000000	 93.501190 
746.000000	 93.617438 
745.000000	 93.722308 
744.000000	 93.816095 
743.000000	 93.920091 
742.000000	 94.044481 
741.000000	 94.175496 
740.000000	 94.299869 
739.000000	 94.422220 
738.000000	 94.550173 
737.000000	 94.678790 
736.000000	 94.798466 
735.000000	 94.905315 
734.000000	 94.998611 
733.000000	 95.080486 
732.000000	 95.159791 
731.000000	 95.241701 
730.000000	 95.313560 
729.000000	 95.359058 
728.000000	 95.384298 
727.000000	 95.412958 
726.000000	 95.459311 
725.000000	 95.522000 
724.000000	 95.601347 
723.000000	 95.701432 
722.000000	 95.812610 
721.000000	 95.912885 
720.000000	 95.993269 
719.000000	 96.064710 
718.000000	 96.133718 
717.000000	 96.190900 
716.000000	 96.232175 
715.000000	 96.271134 
714.000000	 96.321408 
713.000000	 96.383867 
712.000000	 96.457443 
711.000000	 96.544740 
710.000000	 96.638060 
709.000000	 96.721886 
708.000000	 96.788739 
707.000000	 96.840318 
706.000000	 96.873988 
705.000000	 96.879952 
704.000000	 96.854696 
703.000000	 96.803551 
702.000000	 96.719571 
701.000000	 96.575344 
700.000000	 96.348534 
699.000000	 96.043178 
698.000000	 95.687779 
697.000000	 95.327736 
696.000000	 95.021572 
695.000000	 94.827432 
694.000000	 94.771952 
693.000000	 94.838432 
692.000000	 94.989505 
691.000000	 95.186943 
690.000000	 95.396261 
689.000000	 95.591461 
688.000000	 95.764356 
687.000000	 95.921598 
686.000000	 96.064050 
685.000000	 96.184131 
684.000000	 96.284905 
683.000000	 96.377915 
682.000000	 96.464805 
681.000000	 96.539572 
680.000000	 96.610341 
679.000000	 96.691613 
678.000000	 96.780314 
677.000000	 96.865836 
676.000000	 96.944388 
675.000000	 97.023739 
674.000000	 97.099794 
673.000000	 97.140448 
672.000000	 97.123174 
671.000000	 97.046045 
670.000000	 96.917115 
669.000000	 96.742455 
668.000000	 96.660630 
667.000000	 96.841311 
666.000000	 97.134951 
665.000000	 97.341837 
664.000000	 97.463386 
663.000000	 97.535113 
662.000000	 97.580669 
661.000000	 97.615019 
660.000000	 97.647065 
659.000000	 97.678769 
658.000000	 97.703414 
657.000000	 97.717299 
656.000000	 97.715830 
655.000000	 97.700434 
654.000000	 97.678052 
653.000000	 97.652204 
652.000000	 97.629158 
651.000000	 97.625244 
650.000000	 97.651855 

