4000.000000	98.104966 
3999.000000	98.104511 
3998.000000	98.101259 
3997.000000	98.096369 
3996.000000	98.092022 
3995.000000	98.089800 
3994.000000	98.089822 
3993.000000	98.090887 
3992.000000	98.091666 
3991.000000	98.091935 
3990.000000	98.092414 
3989.000000	98.093573 
3988.000000	98.094918 
3987.000000	98.095628 
3986.000000	98.095503 
3985.000000	98.094869 
3984.000000	98.093823 
3983.000000	98.092224 
3982.000000	98.090551 
3981.000000	98.089875 
3980.000000	98.090604 
3979.000000	98.091807 
3978.000000	98.092385 
3977.000000	98.092671 
3976.000000	98.093872 
3975.000000	98.096042 
3974.000000	98.097714 
3973.000000	98.097772 
3972.000000	98.096683 
3971.000000	98.095683 
3970.000000	98.095460 
3969.000000	98.096131 
3968.000000	98.097546 
3967.000000	98.099214 
3966.000000	98.100173 
3965.000000	98.099458 
3964.000000	98.096809 
3963.000000	98.092918 
3962.000000	98.089037 
3961.000000	98.086363 
3960.000000	98.085218 
3959.000000	98.085129 
3958.000000	98.085542 
3957.000000	98.086386 
3956.000000	98.087452 
3955.000000	98.088087 
3954.000000	98.087962 
3953.000000	98.087500 
3952.000000	98.087324 
3951.000000	98.087400 
3950.000000	98.087240 
3949.000000	98.086567 
3948.000000	98.085624 
3947.000000	98.084983 
3946.000000	98.084920 
3945.000000	98.085035 
3944.000000	98.084706 
3943.000000	98.083943 
3942.000000	98.083372 
3941.000000	98.083355 
3940.000000	98.083557 
3939.000000	98.083487 
3938.000000	98.083190 
3937.000000	98.083245 
3936.000000	98.083876 
3935.000000	98.084584 
3934.000000	98.084834 
3933.000000	98.084734 
3932.000000	98.084790 
3931.000000	98.085099 
3930.000000	98.085388 
3929.000000	98.085565 
3928.000000	98.085781 
3927.000000	98.086071 
3926.000000	98.086297 
3925.000000	98.086455 
3924.000000	98.086647 
3923.000000	98.086875 
3922.000000	98.087106 
3921.000000	98.087341 
3920.000000	98.087587 
3919.000000	98.087852 
3918.000000	98.088125 
3917.000000	98.088381 
3916.000000	98.088601 
3915.000000	98.088788 
3914.000000	98.088956 
3913.000000	98.089117 
3912.000000	98.089267 
3911.000000	98.089409 
3910.000000	98.089555 
3909.000000	98.089720 
3908.000000	98.089901 
3907.000000	98.090078 
3906.000000	98.090226 
3905.000000	98.090339 
3904.000000	98.090427 
3903.000000	98.090500 
3902.000000	98.090556 
3901.000000	98.090589 
3900.000000	98.090598 
3899.000000	98.090593 
3898.000000	98.090592 
3897.000000	98.090601 
3896.000000	98.090613 
3895.000000	98.090632 
3894.000000	98.090672 
3893.000000	98.090743 
3892.000000	98.090838 
3891.000000	98.090946 
3890.000000	98.091063 
3889.000000	98.091191 
3888.000000	98.091321 
3887.000000	98.091434 
3886.000000	98.091516 
3885.000000	98.091575 
3884.000000	98.091615 
3883.000000	98.091629 
3882.000000	98.091609 
3881.000000	98.091567 
3880.000000	98.091532 
3879.000000	98.091527 
3878.000000	98.091548 
3877.000000	98.091577 
3876.000000	98.091606 
3875.000000	98.091641 
3874.000000	98.091702 
3873.000000	98.091795 
3872.000000	98.091907 
3871.000000	98.092017 
3870.000000	98.092126 
3869.000000	98.092255 
3868.000000	98.092404 
3867.000000	98.092541 
3866.000000	98.092636 
3865.000000	98.092701 
3864.000000	98.092771 
3863.000000	98.092856 
3862.000000	98.092941 
3861.000000	98.093025 
3860.000000	98.093127 
3859.000000	98.093263 
3858.000000	98.093423 
3857.000000	98.093583 
3856.000000	98.093714 
3855.000000	98.093795 
3854.000000	98.093827 
3853.000000	98.093827 
3852.000000	98.093789 
3851.000000	98.093696 
3850.000000	98.093539 
3849.000000	98.093326 
3848.000000	98.093075 
3847.000000	98.092808 
3846.000000	98.092539 
3845.000000	98.092282 
3844.000000	98.092046 
3843.000000	98.091839 
3842.000000	98.091670 
3841.000000	98.091544 
3840.000000	98.091453 
3839.000000	98.091380 
3838.000000	98.091306 
3837.000000	98.091214 
3836.000000	98.091097 
3835.000000	98.090952 
3834.000000	98.090777 
3833.000000	98.090573 
3832.000000	98.090346 
3831.000000	98.090106 
3830.000000	98.089861 
3829.000000	98.089614 
3828.000000	98.089363 
3827.000000	98.089097 
3826.000000	98.088814 
3825.000000	98.088527 
3824.000000	98.088247 
3823.000000	98.087968 
3822.000000	98.087678 
3821.000000	98.087389 
3820.000000	98.087131 
3819.000000	98.086912 
3818.000000	98.086700 
3817.000000	98.086451 
3816.000000	98.086154 
3815.000000	98.085838 
3814.000000	98.085528 
3813.000000	98.085227 
3812.000000	98.084934 
3811.000000	98.084659 
3810.000000	98.084413 
3809.000000	98.084200 
3808.000000	98.084008 
3807.000000	98.083837 
3806.000000	98.083701 
3805.000000	98.083608 
3804.000000	98.083540 
3803.000000	98.083461 
3802.000000	98.083354 
3801.000000	98.083236 
3800.000000	98.083115 
3799.000000	98.082977 
3798.000000	98.082804 
3797.000000	98.082609 
3796.000000	98.082424 
3795.000000	98.082270 
3794.000000	98.082146 
3793.000000	98.082052 
3792.000000	98.081997 
3791.000000	98.081986 
3790.000000	98.082012 
3789.000000	98.082066 
3788.000000	98.082150 
3787.000000	98.082264 
3786.000000	98.082405 
3785.000000	98.082579 
3784.000000	98.082792 
3783.000000	98.083037 
3782.000000	98.083300 
3781.000000	98.083582 
3780.000000	98.083904 
3779.000000	98.084282 
3778.000000	98.084697 
3777.000000	98.085115 
3776.000000	98.085520 
3775.000000	98.085927 
3774.000000	98.086351 
3773.000000	98.086791 
3772.000000	98.087234 
3771.000000	98.087680 
3770.000000	98.088149 
3769.000000	98.088653 
3768.000000	98.089189 
3767.000000	98.089750 
3766.000000	98.090339 
3765.000000	98.090967 
3764.000000	98.091629 
3763.000000	98.092301 
3762.000000	98.092956 
3761.000000	98.093583 
3760.000000	98.094197 
3759.000000	98.094806 
3758.000000	98.095399 
3757.000000	98.095969 
3756.000000	98.096528 
3755.000000	98.097089 
3754.000000	98.097646 
3753.000000	98.098197 
3752.000000	98.098744 
3751.000000	98.099389 
3750.000000	98.100142 
3749.000000	98.100328 
3748.000000	98.100306 
3747.000000	98.101967 
3746.000000	98.104690 
3745.000000	98.104841 
3744.000000	98.103095 
3743.000000	98.103349 
3742.000000	98.104391 
3741.000000	98.102333 
3740.000000	98.097190 
3739.000000	98.094639 
3738.000000	98.097521 
3737.000000	98.100561 
3736.000000	98.099320 
3735.000000	98.097156 
3734.000000	98.097178 
3733.000000	98.094723 
3732.000000	98.086833 
3731.000000	98.079345 
3730.000000	98.079228 
3729.000000	98.085692 
3728.000000	98.091096 
3727.000000	98.090501 
3726.000000	98.087254 
3725.000000	98.084838 
3724.000000	98.080945 
3723.000000	98.073548 
3722.000000	98.065691 
3721.000000	98.060203 
3720.000000	98.055267 
3719.000000	98.048820 
3718.000000	98.040980 
3717.000000	98.034881 
3716.000000	98.032977 
3715.000000	98.032178 
3714.000000	98.027909 
3713.000000	98.022948 
3712.000000	98.025995 
3711.000000	98.035834 
3710.000000	98.038520 
3709.000000	98.025418 
3708.000000	97.999470 
3707.000000	97.968847 
3706.000000	97.940609 
3705.000000	97.917226 
3704.000000	97.897875 
3703.000000	97.881997 
3702.000000	97.870073 
3701.000000	97.860529 
3700.000000	97.849853 
3699.000000	97.835730 
3698.000000	97.817569 
3697.000000	97.798004 
3696.000000	97.783730 
3695.000000	97.778098 
3694.000000	97.775577 
3693.000000	97.768026 
3692.000000	97.753357 
3691.000000	97.735877 
3690.000000	97.720507 
3689.000000	97.710369 
3688.000000	97.706371 
3687.000000	97.706722 
3686.000000	97.706802 
3685.000000	97.701625 
3684.000000	97.691134 
3683.000000	97.680752 
3682.000000	97.673200 
3681.000000	97.663264 
3680.000000	97.646986 
3679.000000	97.629011 
3678.000000	97.614698 
3677.000000	97.598483 
3676.000000	97.575662 
3675.000000	97.554230 
3674.000000	97.541109 
3673.000000	97.533120 
3672.000000	97.521810 
3671.000000	97.504228 
3670.000000	97.488994 
3669.000000	97.481552 
3668.000000	97.474363 
3667.000000	97.460352 
3666.000000	97.440867 
3665.000000	97.420822 
3664.000000	97.402915 
3663.000000	97.386152 
3662.000000	97.367924 
3661.000000	97.347844 
3660.000000	97.329110 
3659.000000	97.313940 
3658.000000	97.300327 
3657.000000	97.283966 
3656.000000	97.266363 
3655.000000	97.254141 
3654.000000	97.250037 
3653.000000	97.248006 
3652.000000	97.237395 
3651.000000	97.217489 
3650.000000	97.202675 
3649.000000	97.198980 
3648.000000	97.193991 
3647.000000	97.181087 
3646.000000	97.166699 
3645.000000	97.155559 
3644.000000	97.144940 
3643.000000	97.131875 
3642.000000	97.118031 
3641.000000	97.107178 
3640.000000	97.098739 
3639.000000	97.089161 
3638.000000	97.079650 
3637.000000	97.074755 
3636.000000	97.073523 
3635.000000	97.067427 
3634.000000	97.053952 
3633.000000	97.042742 
3632.000000	97.041263 
3631.000000	97.039501 
3630.000000	97.022747 
3629.000000	96.999690 
3628.000000	96.985039 
3627.000000	96.972861 
3626.000000	96.952368 
3625.000000	96.924585 
3624.000000	96.899697 
3623.000000	96.885981 
3622.000000	96.879736 
3621.000000	96.870754 
3620.000000	96.860496 
3619.000000	96.862279 
3618.000000	96.880226 
3617.000000	96.906103 
3616.000000	96.932052 
3615.000000	96.954529 
3614.000000	96.975413 
3613.000000	97.000135 
3612.000000	97.029428 
3611.000000	97.055382 
3610.000000	97.069165 
3609.000000	97.070818 
3608.000000	97.068601 
3607.000000	97.068146 
3606.000000	97.067733 
3605.000000	97.066323 
3604.000000	97.067835 
3603.000000	97.076715 
3602.000000	97.092289 
3601.000000	97.108425 
3600.000000	97.121283 
3599.000000	97.131055 
3598.000000	97.138839 
3597.000000	97.145766 
3596.000000	97.153882 
3595.000000	97.162791 
3594.000000	97.170708 
3593.000000	97.176278 
3592.000000	97.179345 
3591.000000	97.180009 
3590.000000	97.177400 
3589.000000	97.173208 
3588.000000	97.174123 
3587.000000	97.182835 
3586.000000	97.191997 
3585.000000	97.195092 
3584.000000	97.194424 
3583.000000	97.195942 
3582.000000	97.201959 
3581.000000	97.208927 
3580.000000	97.212015 
3579.000000	97.209521 
3578.000000	97.203413 
3577.000000	97.197003 
3576.000000	97.192871 
3575.000000	97.191597 
3574.000000	97.191742 
3573.000000	97.191990 
3572.000000	97.192301 
3571.000000	97.193582 
3570.000000	97.194888 
3569.000000	97.193132 
3568.000000	97.188417 
3567.000000	97.185848 
3566.000000	97.188167 
3565.000000	97.192397 
3564.000000	97.194244 
3563.000000	97.191970 
3562.000000	97.187417 
3561.000000	97.184248 
3560.000000	97.184404 
3559.000000	97.186705 
3558.000000	97.188584 
3557.000000	97.188950 
3556.000000	97.188636 
3555.000000	97.188645 
3554.000000	97.188820 
3553.000000	97.188867 
3552.000000	97.189214 
3551.000000	97.189949 
3550.000000	97.189996 
3549.000000	97.188347 
3548.000000	97.185799 
3547.000000	97.184317 
3546.000000	97.184477 
3545.000000	97.184854 
3544.000000	97.184244 
3543.000000	97.183154 
3542.000000	97.182722 
3541.000000	97.183318 
3540.000000	97.184459 
3539.000000	97.185408 
3538.000000	97.185724 
3537.000000	97.185446 
3536.000000	97.184953 
3535.000000	97.184477 
3534.000000	97.183828 
3533.000000	97.182645 
3532.000000	97.181080 
3531.000000	97.179838 
3530.000000	97.179360 
3529.000000	97.179273 
3528.000000	97.178908 
3527.000000	97.178150 
3526.000000	97.177377 
3525.000000	97.176985 
3524.000000	97.177400 
3523.000000	97.179040 
3522.000000	97.181654 
3521.000000	97.184026 
3520.000000	97.184905 
3519.000000	97.184173 
3518.000000	97.182902 
3517.000000	97.182222 
3516.000000	97.182245 
3515.000000	97.182314 
3514.000000	97.182113 
3513.000000	97.181896 
3512.000000	97.181667 
3511.000000	97.180781 
3510.000000	97.178690 
3509.000000	97.175824 
3508.000000	97.173532 
3507.000000	97.173002 
3506.000000	97.174278 
3505.000000	97.176250 
3504.000000	97.177571 
3503.000000	97.177572 
3502.000000	97.176477 
3501.000000	97.175091 
3500.000000	97.174306 
3499.000000	97.174560 
3498.000000	97.175551 
3497.000000	97.176340 
3496.000000	97.175816 
3495.000000	97.173450 
3494.000000	97.169940 
3493.000000	97.166815 
3492.000000	97.164895 
3491.000000	97.163431 
3490.000000	97.161213 
3489.000000	97.158198 
3488.000000	97.155486 
3487.000000	97.153713 
3486.000000	97.152193 
3485.000000	97.150025 
3484.000000	97.147471 
3483.000000	97.145725 
3482.000000	97.145618 
3481.000000	97.146886 
3480.000000	97.148511 
3479.000000	97.149415 
3478.000000	97.148888 
3477.000000	97.146851 
3476.000000	97.144065 
3475.000000	97.141790 
3474.000000	97.140838 
3473.000000	97.140942 
3472.000000	97.140872 
3471.000000	97.139295 
3470.000000	97.135845 
3469.000000	97.131377 
3468.000000	97.127046 
3467.000000	97.123319 
3466.000000	97.120072 
3465.000000	97.117291 
3464.000000	97.115112 
3463.000000	97.113184 
3462.000000	97.110632 
3461.000000	97.106860 
3460.000000	97.102164 
3459.000000	97.097547 
3458.000000	97.094226 
3457.000000	97.093152 
3456.000000	97.094317 
3455.000000	97.096220 
3454.000000	97.096639 
3453.000000	97.094404 
3452.000000	97.090585 
3451.000000	97.087467 
3450.000000	97.086057 
3449.000000	97.085055 
3448.000000	97.082422 
3447.000000	97.077538 
3446.000000	97.071415 
3445.000000	97.065400 
3444.000000	97.060187 
3443.000000	97.055904 
3442.000000	97.052467 
3441.000000	97.049714 
3440.000000	97.047629 
3439.000000	97.046588 
3438.000000	97.047106 
3437.000000	97.049007 
3436.000000	97.051147 
3435.000000	97.052420 
3434.000000	97.052979 
3433.000000	97.053865 
3432.000000	97.055504 
3431.000000	97.056730 
3430.000000	97.055823 
3429.000000	97.052571 
3428.000000	97.048690 
3427.000000	97.045876 
3426.000000	97.043889 
3425.000000	97.041312 
3424.000000	97.037543 
3423.000000	97.033225 
3422.000000	97.029212 
3421.000000	97.026102 
3420.000000	97.024564 
3419.000000	97.025047 
3418.000000	97.027084 
3417.000000	97.029587 
3416.000000	97.031856 
3415.000000	97.033583 
3414.000000	97.034044 
3413.000000	97.032333 
3412.000000	97.028547 
3411.000000	97.024105 
3410.000000	97.020618 
3409.000000	97.018798 
3408.000000	97.018372 
3407.000000	97.018401 
3406.000000	97.017870 
3405.000000	97.016760 
3404.000000	97.016231 
3403.000000	97.017064 
3402.000000	97.018422 
3401.000000	97.018880 
3400.000000	97.018338 
3399.000000	97.017862 
3398.000000	97.017977 
3397.000000	97.018200 
3396.000000	97.018148 
3395.000000	97.018126 
3394.000000	97.018421 
3393.000000	97.018949 
3392.000000	97.019801 
3391.000000	97.021291 
3390.000000	97.023117 
3389.000000	97.024274 
3388.000000	97.024358 
3387.000000	97.024291 
3386.000000	97.025097 
3385.000000	97.026441 
3384.000000	97.027160 
3383.000000	97.027073 
3382.000000	97.027466 
3381.000000	97.029433 
3380.000000	97.032322 
3379.000000	97.034376 
3378.000000	97.034972 
3377.000000	97.035633 
3376.000000	97.038308 
3375.000000	97.042910 
3374.000000	97.047053 
3373.000000	97.048335 
3372.000000	97.046303 
3371.000000	97.042328 
3370.000000	97.038201 
3369.000000	97.035196 
3368.000000	97.033977 
3367.000000	97.034684 
3366.000000	97.036863 
3365.000000	97.039594 
3364.000000	97.042231 
3363.000000	97.044848 
3362.000000	97.047667 
3361.000000	97.050352 
3360.000000	97.052222 
3359.000000	97.053177 
3358.000000	97.054150 
3357.000000	97.056386 
3356.000000	97.060299 
3355.000000	97.065117 
3354.000000	97.069563 
3353.000000	97.072910 
3352.000000	97.075331 
3351.000000	97.077467 
3350.000000	97.079753 
3349.000000	97.082040 
3348.000000	97.083814 
3347.000000	97.084913 
3346.000000	97.085971 
3345.000000	97.087887 
3344.000000	97.090707 
3343.000000	97.093350 
3342.000000	97.094793 
3341.000000	97.095258 
3340.000000	97.095890 
3339.000000	97.097410 
3338.000000	97.099457 
3337.000000	97.101134 
3336.000000	97.101826 
3335.000000	97.101591 
3334.000000	97.101179 
3333.000000	97.101650 
3332.000000	97.103509 
3331.000000	97.106112 
3330.000000	97.108174 
3329.000000	97.109125 
3328.000000	97.109794 
3327.000000	97.111542 
3326.000000	97.114854 
3325.000000	97.118950 
3324.000000	97.122451 
3323.000000	97.124481 
3322.000000	97.125111 
3321.000000	97.125078 
3320.000000	97.125178 
3319.000000	97.125769 
3318.000000	97.126803 
3317.000000	97.128088 
3316.000000	97.129402 
3315.000000	97.130550 
3314.000000	97.131628 
3313.000000	97.133171 
3312.000000	97.135718 
3311.000000	97.139253 
3310.000000	97.143269 
3309.000000	97.147284 
3308.000000	97.150965 
3307.000000	97.153775 
3306.000000	97.155128 
3305.000000	97.155142 
3304.000000	97.154957 
3303.000000	97.155872 
3302.000000	97.158201 
3301.000000	97.161223 
3300.000000	97.163921 
3299.000000	97.165692 
3298.000000	97.166492 
3297.000000	97.166740 
3296.000000	97.167192 
3295.000000	97.168571 
3294.000000	97.171129 
3293.000000	97.174568 
3292.000000	97.178320 
3291.000000	97.181870 
3290.000000	97.184854 
3289.000000	97.187082 
3288.000000	97.188583 
3287.000000	97.189557 
3286.000000	97.190257 
3285.000000	97.190971 
3284.000000	97.192081 
3283.000000	97.193870 
3282.000000	97.196215 
3281.000000	97.198704 
3280.000000	97.201023 
3279.000000	97.203165 
3278.000000	97.205324 
3277.000000	97.207715 
3276.000000	97.210414 
3275.000000	97.213183 
3274.000000	97.215533 
3273.000000	97.217245 
3272.000000	97.218826 
3271.000000	97.221196 
3270.000000	97.224814 
3269.000000	97.229203 
3268.000000	97.233294 
3267.000000	97.236357 
3266.000000	97.238423 
3265.000000	97.240092 
3264.000000	97.242053 
3263.000000	97.244626 
3262.000000	97.247623 
3261.000000	97.250469 
3260.000000	97.252541 
3259.000000	97.253665 
3258.000000	97.254367 
3257.000000	97.255590 
3256.000000	97.258034 
3255.000000	97.261641 
3254.000000	97.265672 
3253.000000	97.269316 
3252.000000	97.272267 
3251.000000	97.274712 
3250.000000	97.276862 
3249.000000	97.278557 
3248.000000	97.279403 
3247.000000	97.279371 
3246.000000	97.279236 
3245.000000	97.280193 
3244.000000	97.282752 
3243.000000	97.286183 
3242.000000	97.289149 
3241.000000	97.291097 
3240.000000	97.292666 
3239.000000	97.294729 
3238.000000	97.297421 
3237.000000	97.300304 
3236.000000	97.303123 
3235.000000	97.305993 
3234.000000	97.308897 
3233.000000	97.311489 
3232.000000	97.313498 
3231.000000	97.315007 
3230.000000	97.316272 
3229.000000	97.317478 
3228.000000	97.318932 
3227.000000	97.321169 
3226.000000	97.324474 
3225.000000	97.328459 
3224.000000	97.332158 
3223.000000	97.334906 
3222.000000	97.336897 
3221.000000	97.338846 
3220.000000	97.341117 
3219.000000	97.343384 
3218.000000	97.345262 
3217.000000	97.346856 
3216.000000	97.348579 
3215.000000	97.350662 
3214.000000	97.353022 
3213.000000	97.355452 
3212.000000	97.357799 
3211.000000	97.360000 
3210.000000	97.362120 
3209.000000	97.364352 
3208.000000	97.366846 
3207.000000	97.369501 
3206.000000	97.372010 
3205.000000	97.374159 
3204.000000	97.376029 
3203.000000	97.377901 
3202.000000	97.380005 
3201.000000	97.382392 
3200.000000	97.384968 
3199.000000	97.387599 
3198.000000	97.390196 
3197.000000	97.392713 
3196.000000	97.395078 
3195.000000	97.397186 
3194.000000	97.399100 
3193.000000	97.401210 
3192.000000	97.403974 
3191.000000	97.407444 
3190.000000	97.411079 
3189.000000	97.414128 
3188.000000	97.416253 
3187.000000	97.417635 
3186.000000	97.418794 
3185.000000	97.420235 
3184.000000	97.422282 
3183.000000	97.425119 
3182.000000	97.428754 
3181.000000	97.432885 
3180.000000	97.436897 
3179.000000	97.440246 
3178.000000	97.442914 
3177.000000	97.445410 
3176.000000	97.448229 
3175.000000	97.451310 
3174.000000	97.454214 
3173.000000	97.456704 
3172.000000	97.458884 
3171.000000	97.460869 
3170.000000	97.462666 
3169.000000	97.464454 
3168.000000	97.466612 
3167.000000	97.469318 
3166.000000	97.472350 
3165.000000	97.475415 
3164.000000	97.478475 
3163.000000	97.481532 
3162.000000	97.484260 
3161.000000	97.486270 
3160.000000	97.487660 
3159.000000	97.489069 
3158.000000	97.491071 
3157.000000	97.493651 
3156.000000	97.496320 
3155.000000	97.498640 
3154.000000	97.500647 
3153.000000	97.502783 
3152.000000	97.505428 
3151.000000	97.508507 
3150.000000	97.511564 
3149.000000	97.514226 
3148.000000	97.516544 
3147.000000	97.518826 
3146.000000	97.521223 
3145.000000	97.523629 
3144.000000	97.525915 
3143.000000	97.528049 
3142.000000	97.530035 
3141.000000	97.531942 
3140.000000	97.533990 
3139.000000	97.536411 
3138.000000	97.539166 
3137.000000	97.541880 
3136.000000	97.544196 
3135.000000	97.546135 
3134.000000	97.547985 
3133.000000	97.549932 
3132.000000	97.551932 
3131.000000	97.553936 
3130.000000	97.556089 
3129.000000	97.558593 
3128.000000	97.561505 
3127.000000	97.564725 
3126.000000	97.568062 
3125.000000	97.571204 
3124.000000	97.573752 
3123.000000	97.575466 
3122.000000	97.576501 
3121.000000	97.577381 
3120.000000	97.578641 
3119.000000	97.580501 
3118.000000	97.582833 
3117.000000	97.585319 
3116.000000	97.587732 
3115.000000	97.590094 
3114.000000	97.592517 
3113.000000	97.594939 
3112.000000	97.597147 
3111.000000	97.599118 
3110.000000	97.601198 
3109.000000	97.603721 
3108.000000	97.606503 
3107.000000	97.608948 
3106.000000	97.610673 
3105.000000	97.611810 
3104.000000	97.612691 
3103.000000	97.613536 
3102.000000	97.614592 
3101.000000	97.616168 
3100.000000	97.618303 
3099.000000	97.620659 
3098.000000	97.622981 
3097.000000	97.625526 
3096.000000	97.628620 
3095.000000	97.631838 
3094.000000	97.634123 
3093.000000	97.634913 
3092.000000	97.634795 
3091.000000	97.634945 
3090.000000	97.635967 
3089.000000	97.637770 
3088.000000	97.640157 
3087.000000	97.643052 
3086.000000	97.646135 
3085.000000	97.648661 
3084.000000	97.649907 
3083.000000	97.649695 
3082.000000	97.648442 
3081.000000	97.646900 
3080.000000	97.645868 
3079.000000	97.645941 
3078.000000	97.647355 
3077.000000	97.649931 
3076.000000	97.653062 
3075.000000	97.656011 
3074.000000	97.658616 
3073.000000	97.661486 
3072.000000	97.664969 
3071.000000	97.668089 
3070.000000	97.669465 
3069.000000	97.669171 
3068.000000	97.668118 
3067.000000	97.665391 
3066.000000	97.658491 
3065.000000	97.647895 
3064.000000	97.639596 
3063.000000	97.640288 
3062.000000	97.650440 
3061.000000	97.663711 
3060.000000	97.672983 
3059.000000	97.675641 
3058.000000	97.673359 
3057.000000	97.669402 
3056.000000	97.666675 
3055.000000	97.666274 
3054.000000	97.666459 
3053.000000	97.663988 
3052.000000	97.657854 
3051.000000	97.651316 
3050.000000	97.649208 
3049.000000	97.653128 
3048.000000	97.659692 
3047.000000	97.663680 
3046.000000	97.662596 
3045.000000	97.658108 
3044.000000	97.653736 
3043.000000	97.651624 
3042.000000	97.651454 
3041.000000	97.651365 
3040.000000	97.648936 
3039.000000	97.642042 
3038.000000	97.630271 
3037.000000	97.615747 
3036.000000	97.601406 
3035.000000	97.588169 
3034.000000	97.574926 
3033.000000	97.561031 
3032.000000	97.547392 
3031.000000	97.535186 
3030.000000	97.524848 
3029.000000	97.516176 
3028.000000	97.507795 
3027.000000	97.496751 
3026.000000	97.481160 
3025.000000	97.463634 
3024.000000	97.449262 
3023.000000	97.438892 
3022.000000	97.427501 
3021.000000	97.411498 
3020.000000	97.394669 
3019.000000	97.383243 
3018.000000	97.376384 
3017.000000	97.365768 
3016.000000	97.344700 
3015.000000	97.314481 
3014.000000	97.282011 
3013.000000	97.254076 
3012.000000	97.233903 
3011.000000	97.219663 
3010.000000	97.204660 
3009.000000	97.181754 
3008.000000	97.150194 
3007.000000	97.117573 
3006.000000	97.093575 
3005.000000	97.081655 
3004.000000	97.076842 
3003.000000	97.070576 
3002.000000	97.057289 
3001.000000	97.037321 
3000.000000	97.014551 
2999.000000	96.991447 
2998.000000	96.967099 
2997.000000	96.940576 
2996.000000	96.914620 
2995.000000	96.893215 
2994.000000	96.874992 
2993.000000	96.851841 
2992.000000	96.816473 
2991.000000	96.770969 
2990.000000	96.726770 
2989.000000	96.696432 
2988.000000	96.685975 
2987.000000	96.693466 
2986.000000	96.712031 
2985.000000	96.733764 
2984.000000	96.752421 
2983.000000	96.764518 
2982.000000	96.769257 
2981.000000	96.767694 
2980.000000	96.761609 
2979.000000	96.752685 
2978.000000	96.742724 
2977.000000	96.734273 
2976.000000	96.729975 
2975.000000	96.730446 
2974.000000	96.733475 
2973.000000	96.736328 
2972.000000	96.738645 
2971.000000	96.742336 
2970.000000	96.749093 
2969.000000	96.759082 
2968.000000	96.771693 
2967.000000	96.786106 
2966.000000	96.801060 
2965.000000	96.815451 
2964.000000	96.829556 
2963.000000	96.844588 
2962.000000	96.860732 
2961.000000	96.876674 
2960.000000	96.891342 
2959.000000	96.904908 
2958.000000	96.917682 
2957.000000	96.929130 
2956.000000	96.938658 
2955.000000	96.946482 
2954.000000	96.953212 
2953.000000	96.959553 
2952.000000	96.967055 
2951.000000	96.977881 
2950.000000	96.992301 
2949.000000	97.006833 
2948.000000	97.016468 
2947.000000	97.019078 
2946.000000	97.017361 
2945.000000	97.016445 
2944.000000	97.019517 
2943.000000	97.025775 
2942.000000	97.031910 
2941.000000	97.034649 
2940.000000	97.032237 
2939.000000	97.025119 
2938.000000	97.016184 
2937.000000	97.009794 
2936.000000	97.008780 
2935.000000	97.011427 
2934.000000	97.012358 
2933.000000	97.007505 
2932.000000	96.997980 
2931.000000	96.988423 
2930.000000	96.982252 
2929.000000	96.979667 
2928.000000	96.979555 
2927.000000	96.981403 
2926.000000	96.984971 
2925.000000	96.989674 
2924.000000	96.995091 
2923.000000	97.000965 
2922.000000	97.005996 
2921.000000	97.007856 
2920.000000	97.005708 
2919.000000	97.002072 
2918.000000	97.000680 
2917.000000	97.002225 
2916.000000	97.003254 
2915.000000	96.999931 
2914.000000	96.992570 
2913.000000	96.985702 
2912.000000	96.983373 
2911.000000	96.984810 
2910.000000	96.985446 
2909.000000	96.982493 
2908.000000	96.978692 
2907.000000	96.979270 
2906.000000	96.985181 
2905.000000	96.990449 
2904.000000	96.987318 
2903.000000	96.974822 
2902.000000	96.961632 
2901.000000	96.959302 
2900.000000	96.972814 
2899.000000	96.997223 
2898.000000	97.022383 
2897.000000	97.041206 
2896.000000	97.053170 
2895.000000	97.061119 
2894.000000	97.067600 
2893.000000	97.074620 
2892.000000	97.084051 
2891.000000	97.095750 
2890.000000	97.106418 
2889.000000	97.112994 
2888.000000	97.116890 
2887.000000	97.122411 
2886.000000	97.130960 
2885.000000	97.139666 
2884.000000	97.146731 
2883.000000	97.155225 
2882.000000	97.169244 
2881.000000	97.188187 
2880.000000	97.207520 
2879.000000	97.224468 
2878.000000	97.240111 
2877.000000	97.255746 
2876.000000	97.269854 
2875.000000	97.279883 
2874.000000	97.285523 
2873.000000	97.288947 
2872.000000	97.292651 
2871.000000	97.297966 
2870.000000	97.305172 
2869.000000	97.313989 
2868.000000	97.323873 
2867.000000	97.334332 
2866.000000	97.345181 
2865.000000	97.356669 
2864.000000	97.369615 
2863.000000	97.385037 
2862.000000	97.402823 
2861.000000	97.420697 
2860.000000	97.435627 
2859.000000	97.446809 
2858.000000	97.456466 
2857.000000	97.467308 
2856.000000	97.479847 
2855.000000	97.492771 
2854.000000	97.504922 
2853.000000	97.516104 
2852.000000	97.526825 
2851.000000	97.538435 
2850.000000	97.552983 
2849.000000	97.571502 
2848.000000	97.592353 
2847.000000	97.612223 
2846.000000	97.628819 
2845.000000	97.641753 
2844.000000	97.651198 
2843.000000	97.657415 
2842.000000	97.662089 
2841.000000	97.668290 
2840.000000	97.677502 
2839.000000	97.687578 
2838.000000	97.695329 
2837.000000	97.700729 
2836.000000	97.707016 
2835.000000	97.716558 
2834.000000	97.728135 
2833.000000	97.738992 
2832.000000	97.748047 
2831.000000	97.755800 
2830.000000	97.762024 
2829.000000	97.765320 
2828.000000	97.765147 
2827.000000	97.763168 
2826.000000	97.762100 
2825.000000	97.763791 
2824.000000	97.768674 
2823.000000	97.776222 
2822.000000	97.785160 
2821.000000	97.793601 
2820.000000	97.799882 
2819.000000	97.803502 
2818.000000	97.804961 
2817.000000	97.804818 
2816.000000	97.803542 
2815.000000	97.802337 
2814.000000	97.803152 
2813.000000	97.806865 
2812.000000	97.811645 
2811.000000	97.814138 
2810.000000	97.812801 
2809.000000	97.809651 
2808.000000	97.808482 
2807.000000	97.811656 
2806.000000	97.818857 
2805.000000	97.827962 
2804.000000	97.836350 
2803.000000	97.842048 
2802.000000	97.844827 
2801.000000	97.846412 
2800.000000	97.848803 
2799.000000	97.851997 
2798.000000	97.853992 
2797.000000	97.853409 
2796.000000	97.851359 
2795.000000	97.850367 
2794.000000	97.851823 
2793.000000	97.855039 
2792.000000	97.858463 
2791.000000	97.861134 
2790.000000	97.863037 
2789.000000	97.864573 
2788.000000	97.866047 
2787.000000	97.867502 
2786.000000	97.868844 
2785.000000	97.870047 
2784.000000	97.871234 
2783.000000	97.872578 
2782.000000	97.874138 
2781.000000	97.875812 
2780.000000	97.877458 
2779.000000	97.879019 
2778.000000	97.880523 
2777.000000	97.882003 
2776.000000	97.883461 
2775.000000	97.884888 
2774.000000	97.886285 
2773.000000	97.887657 
2772.000000	97.889012 
2771.000000	97.890356 
2770.000000	97.891692 
2769.000000	97.893022 
2768.000000	97.894338 
2767.000000	97.895623 
2766.000000	97.896862 
2765.000000	97.898050 
2764.000000	97.899191 
2763.000000	97.900296 
2762.000000	97.901373 
2761.000000	97.902429 
2760.000000	97.903470 
2759.000000	97.904503 
2758.000000	97.905531 
2757.000000	97.906549 
2756.000000	97.907550 
2755.000000	97.908532 
2754.000000	97.909502 
2753.000000	97.910469 
2752.000000	97.911436 
2751.000000	97.912406 
2750.000000	97.913371 
2749.000000	97.914315 
2748.000000	97.915213 
2747.000000	97.916039 
2746.000000	97.916789 
2745.000000	97.917488 
2744.000000	97.918186 
2743.000000	97.918913 
2742.000000	97.919676 
2741.000000	97.920469 
2740.000000	97.921283 
2739.000000	97.922109 
2738.000000	97.922913 
2737.000000	97.923665 
2736.000000	97.924374 
2735.000000	97.925109 
2734.000000	97.925929 
2733.000000	97.926830 
2732.000000	97.927751 
2731.000000	97.928637 
2730.000000	97.929473 
2729.000000	97.930276 
2728.000000	97.931080 
2727.000000	97.931914 
2726.000000	97.932752 
2725.000000	97.933506 
2724.000000	97.934105 
2723.000000	97.934592 
2722.000000	97.935110 
2721.000000	97.935769 
2720.000000	97.936587 
2719.000000	97.937533 
2718.000000	97.938561 
2717.000000	97.939597 
2716.000000	97.940547 
2715.000000	97.941384 
2714.000000	97.942173 
2713.000000	97.943009 
2712.000000	97.943910 
2711.000000	97.944800 
2710.000000	97.945612 
2709.000000	97.946362 
2708.000000	97.947114 
2707.000000	97.947911 
2706.000000	97.948751 
2705.000000	97.949617 
2704.000000	97.950486 
2703.000000	97.951338 
2702.000000	97.952166 
2701.000000	97.952998 
2700.000000	97.953876 
2699.000000	97.954811 
2698.000000	97.955754 
2697.000000	97.956627 
2696.000000	97.957380 
2695.000000	97.958040 
2694.000000	97.958680 
2693.000000	97.959336 
2692.000000	97.959979 
2691.000000	97.960575 
2690.000000	97.961128 
2689.000000	97.961665 
2688.000000	97.962203 
2687.000000	97.962739 
2686.000000	97.963268 
2685.000000	97.963784 
2684.000000	97.964285 
2683.000000	97.964763 
2682.000000	97.965214 
2681.000000	97.965630 
2680.000000	97.966010 
2679.000000	97.966357 
2678.000000	97.966674 
2677.000000	97.966965 
2676.000000	97.967226 
2675.000000	97.967450 
2674.000000	97.967625 
2673.000000	97.967741 
2672.000000	97.967800 
2671.000000	97.967810 
2670.000000	97.967780 
2669.000000	97.967719 
2668.000000	97.967633 
2667.000000	97.967523 
2666.000000	97.967390 
2665.000000	97.967232 
2664.000000	97.967051 
2663.000000	97.966852 
2662.000000	97.966639 
2661.000000	97.966405 
2660.000000	97.966144 
2659.000000	97.965850 
2658.000000	97.965531 
2657.000000	97.965198 
2656.000000	97.964853 
2655.000000	97.964490 
2654.000000	97.964100 
2653.000000	97.963677 
2652.000000	97.963229 
2651.000000	97.962772 
2650.000000	97.962321 
2649.000000	97.961883 
2648.000000	97.961455 
2647.000000	97.961029 
2646.000000	97.960599 
2645.000000	97.960155 
2644.000000	97.959688 
2643.000000	97.959201 
2642.000000	97.958729 
2641.000000	97.958310 
2640.000000	97.957956 
2639.000000	97.957670 
2638.000000	97.957463 
2637.000000	97.957313 
2636.000000	97.957115 
2635.000000	97.956754 
2634.000000	97.956243 
2633.000000	97.955730 
2632.000000	97.955296 
2631.000000	97.954836 
2630.000000	97.954304 
2629.000000	97.953935 
2628.000000	97.954019 
2627.000000	97.954506 
2626.000000	97.955020 
2625.000000	97.955229 
2624.000000	97.955146 
2623.000000	97.955034 
2622.000000	97.955069 
2621.000000	97.955186 
2620.000000	97.955176 
2619.000000	97.954906 
2618.000000	97.954459 
2617.000000	97.954080 
2616.000000	97.953943 
2615.000000	97.954000 
2614.000000	97.954144 
2613.000000	97.954353 
2612.000000	97.954643 
2611.000000	97.955001 
2610.000000	97.955382 
2609.000000	97.955737 
2608.000000	97.956052 
2607.000000	97.956337 
2606.000000	97.956625 
2605.000000	97.956944 
2604.000000	97.957288 
2603.000000	97.957639 
2602.000000	97.957981 
2601.000000	97.958307 
2600.000000	97.958620 
2599.000000	97.958925 
2598.000000	97.959227 
2597.000000	97.959531 
2596.000000	97.959843 
2595.000000	97.960174 
2594.000000	97.960536 
2593.000000	97.960940 
2592.000000	97.961389 
2591.000000	97.961878 
2590.000000	97.962398 
2589.000000	97.962940 
2588.000000	97.963498 
2587.000000	97.964073 
2586.000000	97.964661 
2585.000000	97.965252 
2584.000000	97.965831 
2583.000000	97.966380 
2582.000000	97.966896 
2581.000000	97.967391 
2580.000000	97.967897 
2579.000000	97.968441 
2578.000000	97.969034 
2577.000000	97.969669 
2576.000000	97.970324 
2575.000000	97.970970 
2574.000000	97.971585 
2573.000000	97.972162 
2572.000000	97.972710 
2571.000000	97.973240 
2570.000000	97.973769 
2569.000000	97.974315 
2568.000000	97.974898 
2567.000000	97.975524 
2566.000000	97.976177 
2565.000000	97.976830 
2564.000000	97.977463 
2563.000000	97.978051 
2562.000000	97.978579 
2561.000000	97.979069 
2560.000000	97.979565 
2559.000000	97.980121 
2558.000000	97.980764 
2557.000000	97.981467 
2556.000000	97.982178 
2555.000000	97.982861 
2554.000000	97.983502 
2553.000000	97.984106 
2552.000000	97.984722 
2551.000000	97.985473 
2550.000000	97.986482 
2549.000000	97.987711 
2548.000000	97.988827 
2547.000000	97.989389 
2546.000000	97.989227 
2545.000000	97.988727 
2544.000000	97.988519 
2543.000000	97.988806 
2542.000000	97.989236 
2541.000000	97.989383 
2540.000000	97.989195 
2539.000000	97.988920 
2538.000000	97.988755 
2537.000000	97.988767 
2536.000000	97.989015 
2535.000000	97.989476 
2534.000000	97.989972 
2533.000000	97.990366 
2532.000000	97.990677 
2531.000000	97.990888 
2530.000000	97.990924 
2529.000000	97.991008 
2528.000000	97.991728 
2527.000000	97.993347 
2526.000000	97.995307 
2525.000000	97.996769 
2524.000000	97.997449 
2523.000000	97.997650 
2522.000000	97.997552 
2521.000000	97.997120 
2520.000000	97.996580 
2519.000000	97.996339 
2518.000000	97.996496 
2517.000000	97.996774 
2516.000000	97.996940 
2515.000000	97.997090 
2514.000000	97.997452 
2513.000000	97.998057 
2512.000000	97.998718 
2511.000000	97.999238 
2510.000000	97.999592 
2509.000000	97.999896 
2508.000000	98.000224 
2507.000000	98.000510 
2506.000000	98.000658 
2505.000000	98.000722 
2504.000000	98.000928 
2503.000000	98.001444 
2502.000000	98.002250 
2501.000000	98.003145 
2500.000000	98.003911 
2499.000000	98.004510 
2498.000000	98.004995 
2497.000000	98.005372 
2496.000000	98.005621 
2495.000000	98.005804 
2494.000000	98.006040 
2493.000000	98.006376 
2492.000000	98.006773 
2491.000000	98.007205 
2490.000000	98.007708 
2489.000000	98.008279 
2488.000000	98.008817 
2487.000000	98.009249 
2486.000000	98.009661 
2485.000000	98.010215 
2484.000000	98.010966 
2483.000000	98.011755 
2482.000000	98.012328 
2481.000000	98.012591 
2480.000000	98.012622 
2479.000000	98.012607 
2478.000000	98.012660 
2477.000000	98.012841 
2476.000000	98.013240 
2475.000000	98.013919 
2474.000000	98.014835 
2473.000000	98.015884 
2472.000000	98.016979 
2471.000000	98.017996 
2470.000000	98.018722 
2469.000000	98.019034 
2468.000000	98.019078 
2467.000000	98.019139 
2466.000000	98.019298 
2465.000000	98.019464 
2464.000000	98.019763 
2463.000000	98.020608 
2462.000000	98.022171 
2461.000000	98.023998 
2460.000000	98.025355 
2459.000000	98.025931 
2458.000000	98.025964 
2457.000000	98.025791 
2456.000000	98.025630 
2455.000000	98.025644 
2454.000000	98.025915 
2453.000000	98.026262 
2452.000000	98.026348 
2451.000000	98.026244 
2450.000000	98.026689 
2449.000000	98.028451 
2448.000000	98.031369 
2447.000000	98.034202 
2446.000000	98.035763 
2445.000000	98.036106 
2444.000000	98.036241 
2443.000000	98.036640 
2442.000000	98.036659 
2441.000000	98.035734 
2440.000000	98.034507 
2439.000000	98.034226 
2438.000000	98.035297 
2437.000000	98.037241 
2436.000000	98.039789 
2435.000000	98.043003 
2434.000000	98.046598 
2433.000000	98.049907 
2432.000000	98.052527 
2431.000000	98.054497 
2430.000000	98.055917 
2429.000000	98.056987 
2428.000000	98.058373 
2427.000000	98.060817 
2426.000000	98.064054 
2425.000000	98.066464 
2424.000000	98.066284 
2423.000000	98.063267 
2422.000000	98.059186 
2421.000000	98.056600 
2420.000000	98.057030 
2419.000000	98.059986 
2418.000000	98.063161 
2417.000000	98.063913 
2416.000000	98.061720 
2415.000000	98.059152 
2414.000000	98.059898 
2413.000000	98.065497 
2412.000000	98.073815 
2411.000000	98.080639 
2410.000000	98.083141 
2409.000000	98.082105 
2408.000000	98.080668 
2407.000000	98.081269 
2406.000000	98.083946 
2405.000000	98.086914 
2404.000000	98.088099 
2403.000000	98.086223 
2402.000000	98.081729 
2401.000000	98.077321 
2400.000000	98.076332 
2399.000000	98.079615 
2398.000000	98.084646 
2397.000000	98.088331 
2396.000000	98.090202 
2395.000000	98.091958 
2394.000000	98.094582 
2393.000000	98.097402 
2392.000000	98.099958 
2391.000000	98.103143 
2390.000000	98.107843 
2389.000000	98.113519 
2388.000000	98.118978 
2387.000000	98.124013 
2386.000000	98.129447 
2385.000000	98.135588 
2384.000000	98.141100 
2383.000000	98.143651 
2382.000000	98.141457 
2381.000000	98.134446 
2380.000000	98.124075 
2379.000000	98.111820 
2378.000000	98.098137 
2377.000000	98.083829 
2376.000000	98.072541 
2375.000000	98.069787 
2374.000000	98.077852 
2373.000000	98.092967 
2372.000000	98.108541 
2371.000000	98.121122 
2370.000000	98.130720 
2369.000000	98.136187 
2368.000000	98.134289 
2367.000000	98.124230 
2366.000000	98.110176 
2365.000000	98.098098 
2364.000000	98.091529 
2363.000000	98.091708 
2362.000000	98.098528 
2361.000000	98.109249 
2360.000000	98.119174 
2359.000000	98.124495 
2358.000000	98.123881 
2357.000000	98.118915 
2356.000000	98.112458 
2355.000000	98.107248 
2354.000000	98.102280 
2353.000000	98.096775 
2352.000000	98.093726 
2351.000000	98.095749 
2350.000000	98.101580 
2349.000000	98.107059 
2348.000000	98.109870 
2347.000000	98.110131 
2346.000000	98.109594 
2345.000000	98.111339 
2344.000000	98.115809 
2343.000000	98.120935 
2342.000000	98.122784 
2341.000000	98.120096 
2340.000000	98.114888 
2339.000000	98.109864 
2338.000000	98.106589 
2337.000000	98.105159 
2336.000000	98.106670 
2335.000000	98.110974 
2334.000000	98.115885 
2333.000000	98.117881 
2332.000000	98.117860 
2331.000000	98.117841 
2330.000000	98.120260 
2329.000000	98.124037 
2328.000000	98.129917 
2327.000000	98.137412 
2326.000000	98.144623 
2325.000000	98.148993 
2324.000000	98.149568 
2323.000000	98.147397 
2322.000000	98.142713 
2321.000000	98.136292 
2320.000000	98.131855 
2319.000000	98.131935 
2318.000000	98.136227 
2317.000000	98.139838 
2316.000000	98.141121 
2315.000000	98.139804 
2314.000000	98.138328 
2313.000000	98.136521 
2312.000000	98.136432 
2311.000000	98.138757 
2310.000000	98.143634 
2309.000000	98.147592 
2308.000000	98.149086 
2307.000000	98.147945 
2306.000000	98.145432 
2305.000000	98.140777 
2304.000000	98.134446 
2303.000000	98.128474 
2302.000000	98.127275 
2301.000000	98.132198 
2300.000000	98.140982 
2299.000000	98.146838 
2298.000000	98.144727 
2297.000000	98.133220 
2296.000000	98.116331 
2295.000000	98.099707 
2294.000000	98.087862 
2293.000000	98.081592 
2292.000000	98.079301 
2291.000000	98.078219 
2290.000000	98.075764 
2289.000000	98.071026 
2288.000000	98.065111 
2287.000000	98.059943 
2286.000000	98.055905 
2285.000000	98.052324 
2284.000000	98.049274 
2283.000000	98.048457 
2282.000000	98.050661 
2281.000000	98.053714 
2280.000000	98.053630 
2279.000000	98.048234 
2278.000000	98.038994 
2277.000000	98.029807 
2276.000000	98.024118 
2275.000000	98.022541 
2274.000000	98.023441 
2273.000000	98.024936 
2272.000000	98.026353 
2271.000000	98.027468 
2270.000000	98.027595 
2269.000000	98.026306 
2268.000000	98.024418 
2267.000000	98.022944 
2266.000000	98.021730 
2265.000000	98.020125 
2264.000000	98.018399 
2263.000000	98.017161 
2262.000000	98.015802 
2261.000000	98.012997 
2260.000000	98.008645 
2259.000000	98.004346 
2258.000000	98.001687 
2257.000000	98.000728 
2256.000000	98.000559 
2255.000000	98.000316 
2254.000000	97.999563 
2253.000000	97.998272 
2252.000000	97.996762 
2251.000000	97.995459 
2250.000000	97.994503 
2249.000000	97.993634 
2248.000000	97.992583 
2247.000000	97.991339 
2246.000000	97.990068 
2245.000000	97.988888 
2244.000000	97.987799 
2243.000000	97.986690 
2242.000000	97.985423 
2241.000000	97.984049 
2240.000000	97.982912 
2239.000000	97.982310 
2238.000000	97.982149 
2237.000000	97.981936 
2236.000000	97.981271 
2235.000000	97.980220 
2234.000000	97.979027 
2233.000000	97.977738 
2232.000000	97.976356 
2231.000000	97.975114 
2230.000000	97.974277 
2229.000000	97.973673 
2228.000000	97.972715 
2227.000000	97.971184 
2226.000000	97.969618 
2225.000000	97.968631 
2224.000000	97.968079 
2223.000000	97.967346 
2222.000000	97.966285 
2221.000000	97.965272 
2220.000000	97.964423 
2219.000000	97.963273 
2218.000000	97.961416 
2217.000000	97.959056 
2216.000000	97.956817 
2215.000000	97.955033 
2214.000000	97.953558 
2213.000000	97.952170 
2212.000000	97.950806 
2211.000000	97.949535 
2210.000000	97.948423 
2209.000000	97.947599 
2208.000000	97.947328 
2207.000000	97.947692 
2206.000000	97.948155 
2205.000000	97.947706 
2204.000000	97.945679 
2203.000000	97.942346 
2202.000000	97.938749 
2201.000000	97.936098 
2200.000000	97.935245 
2199.000000	97.936074 
2198.000000	97.937109 
2197.000000	97.936579 
2196.000000	97.934288 
2195.000000	97.931771 
2194.000000	97.930099 
2193.000000	97.928565 
2192.000000	97.926414 
2191.000000	97.924835 
2190.000000	97.925769 
2189.000000	97.928934 
2188.000000	97.931313 
2187.000000	97.929827 
2186.000000	97.923460 
2185.000000	97.913270 
2184.000000	97.902218 
2183.000000	97.894932 
2182.000000	97.895632 
2181.000000	97.904633 
2180.000000	97.916641 
2179.000000	97.924687 
2178.000000	97.926522 
2177.000000	97.925653 
2176.000000	97.926067 
2175.000000	97.926244 
2174.000000	97.920336 
2173.000000	97.905861 
2172.000000	97.888836 
2171.000000	97.879003 
2170.000000	97.879866 
2169.000000	97.885475 
2168.000000	97.887246 
2167.000000	97.883707 
2166.000000	97.881125 
2165.000000	97.885247 
2164.000000	97.895141 
2163.000000	97.905361 
2162.000000	97.911712 
2161.000000	97.913250 
2160.000000	97.910623 
2159.000000	97.905925 
2158.000000	97.904374 
2157.000000	97.912036 
2156.000000	97.929503 
2155.000000	97.949887 
2154.000000	97.965087 
2153.000000	97.973346 
2152.000000	97.978588 
2151.000000	97.983484 
2150.000000	97.986750 
2149.000000	97.988070 
2148.000000	97.991378 
2147.000000	98.000015 
2146.000000	98.011383 
2145.000000	98.020046 
2144.000000	98.024260 
2143.000000	98.025707 
2142.000000	98.024481 
2141.000000	98.019014 
2140.000000	98.010898 
2139.000000	98.005764 
2138.000000	98.008294 
2137.000000	98.018803 
2136.000000	98.033937 
2135.000000	98.047783 
2134.000000	98.054017 
2133.000000	98.050672 
2132.000000	98.043017 
2131.000000	98.038663 
2130.000000	98.038815 
2129.000000	98.037952 
2128.000000	98.032538 
2127.000000	98.026325 
2126.000000	98.025308 
2125.000000	98.030381 
2124.000000	98.037081 
2123.000000	98.041032 
2122.000000	98.041865 
2121.000000	98.041937 
2120.000000	98.042945 
2119.000000	98.044260 
2118.000000	98.044134 
2117.000000	98.041898 
2116.000000	98.038542 
2115.000000	98.035316 
2114.000000	98.032666 
2113.000000	98.030968 
2112.000000	98.031264 
2111.000000	98.033967 
2110.000000	98.037304 
2109.000000	98.038812 
2108.000000	98.038215 
2107.000000	98.037238 
2106.000000	98.036916 
2105.000000	98.036765 
2104.000000	98.036691 
2103.000000	98.037634 
2102.000000	98.039439 
2101.000000	98.039981 
2100.000000	98.037831 
2099.000000	98.034422 
2098.000000	98.032700 
2097.000000	98.033975 
2096.000000	98.037311 
2095.000000	98.041223 
2094.000000	98.044660 
2093.000000	98.046703 
2092.000000	98.046523 
2091.000000	98.044126 
2090.000000	98.040766 
2089.000000	98.037884 
2088.000000	98.036067 
2087.000000	98.035056 
2086.000000	98.034148 
2085.000000	98.032714 
2084.000000	98.030672 
2083.000000	98.028403 
2082.000000	98.026106 
2081.000000	98.023556 
2080.000000	98.020870 
2079.000000	98.018988 
2078.000000	98.018777 
2077.000000	98.019971 
2076.000000	98.021381 
2075.000000	98.022049 
2074.000000	98.021733 
2073.000000	98.020468 
2072.000000	98.018365 
2071.000000	98.015913 
2070.000000	98.013877 
2069.000000	98.012674 
2068.000000	98.012111 
2067.000000	98.011820 
2066.000000	98.011648 
2065.000000	98.011397 
2064.000000	98.010513 
2063.000000	98.008447 
2062.000000	98.005312 
2061.000000	98.002148 
2060.000000	98.000164 
2059.000000	97.999749 
2058.000000	98.000213 
2057.000000	98.000315 
2056.000000	97.999257 
2055.000000	97.996924 
2054.000000	97.993745 
2053.000000	97.990597 
2052.000000	97.988430 
2051.000000	97.987588 
2050.000000	97.987435 
2049.000000	97.986781 
2048.000000	97.985060 
2047.000000	97.982820 
2046.000000	97.981084 
2045.000000	97.980335 
2044.000000	97.980466 
2043.000000	97.981226 
2042.000000	97.982324 
2041.000000	97.983410 
2040.000000	97.984251 
2039.000000	97.984813 
2038.000000	97.985083 
2037.000000	97.985021 
2036.000000	97.984746 
2035.000000	97.984576 
2034.000000	97.984786 
2033.000000	97.985405 
2032.000000	97.986297 
2031.000000	97.987248 
2030.000000	97.988004 
2029.000000	97.988482 
2028.000000	97.988865 
2027.000000	97.989447 
2026.000000	97.990268 
2025.000000	97.991149 
2024.000000	97.991944 
2023.000000	97.992651 
2022.000000	97.993319 
2021.000000	97.993907 
2020.000000	97.994254 
2019.000000	97.994306 
2018.000000	97.994185 
2017.000000	97.994111 
2016.000000	97.994213 
2015.000000	97.994516 
2014.000000	97.994986 
2013.000000	97.995525 
2012.000000	97.996045 
2011.000000	97.996515 
2010.000000	97.996985 
2009.000000	97.997488 
2008.000000	97.997996 
2007.000000	97.998527 
2006.000000	97.999143 
2005.000000	97.999703 
2004.000000	97.999874 
2003.000000	97.999485 
2002.000000	97.998792 
2001.000000	97.998281 
2000.000000	97.998174 
1999.000000	97.998302 
1998.000000	97.998366 
1997.000000	97.998290 
1996.000000	97.998274 
1995.000000	97.998676 
1994.000000	97.999793 
1993.000000	98.001423 
1992.000000	98.002601 
1991.000000	98.002366 
1990.000000	98.000937 
1989.000000	97.999892 
1988.000000	98.000534 
1987.000000	98.002252 
1986.000000	98.002800 
1985.000000	98.000514 
1984.000000	97.995887 
1983.000000	97.991270 
1982.000000	97.988814 
1981.000000	97.989152 
1980.000000	97.991816 
1979.000000	97.996095 
1978.000000	98.001159 
1977.000000	98.005876 
1976.000000	98.009229 
1975.000000	98.011086 
1974.000000	98.012343 
1973.000000	98.014392 
1972.000000	98.018169 
1971.000000	98.023172 
1970.000000	98.027199 
1969.000000	98.027723 
1968.000000	98.023975 
1967.000000	98.017720 
1966.000000	98.012393 
1965.000000	98.010564 
1964.000000	98.012501 
1963.000000	98.016720 
1962.000000	98.021243 
1961.000000	98.024692 
1960.000000	98.026514 
1959.000000	98.026825 
1958.000000	98.026376 
1957.000000	98.026278 
1956.000000	98.027107 
1955.000000	98.028592 
1954.000000	98.030428 
1953.000000	98.033046 
1952.000000	98.036710 
1951.000000	98.040220 
1950.000000	98.041784 
1949.000000	98.041161 
1948.000000	98.040086 
1947.000000	98.039992 
1946.000000	98.040116 
1945.000000	98.038994 
1944.000000	98.036849 
1943.000000	98.035523 
1942.000000	98.036351 
1941.000000	98.038891 
1940.000000	98.041922 
1939.000000	98.044371 
1938.000000	98.045558 
1937.000000	98.045498 
1936.000000	98.045017 
1935.000000	98.045006 
1934.000000	98.045267 
1933.000000	98.044879 
1932.000000	98.043703 
1931.000000	98.042805 
1930.000000	98.043150 
1929.000000	98.044354 
1928.000000	98.045387 
1927.000000	98.045755 
1926.000000	98.045477 
1925.000000	98.044419 
1924.000000	98.042353 
1923.000000	98.039821 
1922.000000	98.037950 
1921.000000	98.036935 
1920.000000	98.035809 
1919.000000	98.033736 
1918.000000	98.031159 
1917.000000	98.029269 
1916.000000	98.028526 
1915.000000	98.028498 
1914.000000	98.028509 
1913.000000	98.028241 
1912.000000	98.027758 
1911.000000	98.027211 
1910.000000	98.026624 
1909.000000	98.025892 
1908.000000	98.025094 
1907.000000	98.024040 
1906.000000	98.022059 
1905.000000	98.018600 
1904.000000	98.014219 
1903.000000	98.010882 
1902.000000	98.010055 
1901.000000	98.011166 
1900.000000	98.012373 
1899.000000	98.012601 
1898.000000	98.012062 
1897.000000	98.011006 
1896.000000	98.009027 
1895.000000	98.006166 
1894.000000	98.003386 
1893.000000	98.001328 
1892.000000	97.999593 
1891.000000	97.997583 
1890.000000	97.995515 
1889.000000	97.994254 
1888.000000	97.994417 
1887.000000	97.995996 
1886.000000	97.998107 
1885.000000	97.999138 
1884.000000	97.997777 
1883.000000	97.994283 
1882.000000	97.990294 
1881.000000	97.987268 
1880.000000	97.985741 
1879.000000	97.985248 
1878.000000	97.984732 
1877.000000	97.984090 
1876.000000	97.984722 
1875.000000	97.987953 
1874.000000	97.993059 
1873.000000	97.997173 
1872.000000	97.998184 
1871.000000	97.996884 
1870.000000	97.995690 
1869.000000	97.995824 
1868.000000	97.996251 
1867.000000	97.995978 
1866.000000	97.995199 
1865.000000	97.994167 
1864.000000	97.993783 
1863.000000	97.996334 
1862.000000	98.003167 
1861.000000	98.011986 
1860.000000	98.018729 
1859.000000	98.022153 
1858.000000	98.024236 
1857.000000	98.026293 
1856.000000	98.027347 
1855.000000	98.026291 
1854.000000	98.024089 
1853.000000	98.022769 
1852.000000	98.024836 
1851.000000	98.031516 
1850.000000	98.040960 
1849.000000	98.049926 
1848.000000	98.056652 
1847.000000	98.061515 
1846.000000	98.064514 
1845.000000	98.064831 
1844.000000	98.063227 
1843.000000	98.061370 
1842.000000	98.059460 
1841.000000	98.057003 
1840.000000	98.055394 
1839.000000	98.056976 
1838.000000	98.062209 
1837.000000	98.068377 
1836.000000	98.072586 
1835.000000	98.074982 
1834.000000	98.076714 
1833.000000	98.077465 
1832.000000	98.076959 
1831.000000	98.076110 
1830.000000	98.076241 
1829.000000	98.077415 
1828.000000	98.078348 
1827.000000	98.078259 
1826.000000	98.077140 
1825.000000	98.076029 
1824.000000	98.076356 
1823.000000	98.078511 
1822.000000	98.081634 
1821.000000	98.084474 
1820.000000	98.086861 
1819.000000	98.089706 
1818.000000	98.093522 
1817.000000	98.096558 
1816.000000	98.096217 
1815.000000	98.092983 
1814.000000	98.090006 
1813.000000	98.089677 
1812.000000	98.091256 
1811.000000	98.092259 
1810.000000	98.091826 
1809.000000	98.090463 
1808.000000	98.088690 
1807.000000	98.087542 
1806.000000	98.088108 
1805.000000	98.089899 
1804.000000	98.090724 
1803.000000	98.089470 
1802.000000	98.086883 
1801.000000	98.084786 
1800.000000	98.084181 
1799.000000	98.084559 
1798.000000	98.084828 
1797.000000	98.083474 
1796.000000	98.080158 
1795.000000	98.077375 
1794.000000	98.077631 
1793.000000	98.080559 
1792.000000	98.082857 
1791.000000	98.082867 
1790.000000	98.082768 
1789.000000	98.083954 
1788.000000	98.085311 
1787.000000	98.085981 
1786.000000	98.086555 
1785.000000	98.087202 
1784.000000	98.086840 
1783.000000	98.086015 
1782.000000	98.085988 
1781.000000	98.087290 
1780.000000	98.089424 
1779.000000	98.091507 
1778.000000	98.093662 
1777.000000	98.095825 
1776.000000	98.097577 
1775.000000	98.098672 
1774.000000	98.099122 
1773.000000	98.099574 
1772.000000	98.100476 
1771.000000	98.100787 
1770.000000	98.100163 
1769.000000	98.099451 
1768.000000	98.099145 
1767.000000	98.099287 
1766.000000	98.099729 
1765.000000	98.100353 
1764.000000	98.100910 
1763.000000	98.101186 
1762.000000	98.101290 
1761.000000	98.101535 
1760.000000	98.101930 
1759.000000	98.102263 
1758.000000	98.102424 
1757.000000	98.102489 
1756.000000	98.102592 
1755.000000	98.102694 
1754.000000	98.102719 
1753.000000	98.102689 
1752.000000	98.102650 
1751.000000	98.102643 
1750.000000	98.102679 
1749.000000	98.102759 
1748.000000	98.102860 
1747.000000	98.102954 
1746.000000	98.103019 
1745.000000	98.103051 
1744.000000	98.103058 
1743.000000	98.103047 
1742.000000	98.103011 
1741.000000	98.102933 
1740.000000	98.102795 
1739.000000	98.102601 
1738.000000	98.102376 
1737.000000	98.102164 
1736.000000	98.101946 
1735.000000	98.101612 
1734.000000	98.101121 
1733.000000	98.100437 
1732.000000	98.099664 
1731.000000	98.099077 
1730.000000	98.098805 
1729.000000	98.098662 
1728.000000	98.098348 
1727.000000	98.097671 
1726.000000	98.096440 
1725.000000	98.094777 
1724.000000	98.093125 
1723.000000	98.091929 
1722.000000	98.091533 
1721.000000	98.091635 
1720.000000	98.091322 
1719.000000	98.089780 
1718.000000	98.087977 
1717.000000	98.086911 
1716.000000	98.084630 
1715.000000	98.080510 
1714.000000	98.076792 
1713.000000	98.074787 
1712.000000	98.073628 
1711.000000	98.072641 
1710.000000	98.071818 
1709.000000	98.070211 
1708.000000	98.066757 
1707.000000	98.061806 
1706.000000	98.057168 
1705.000000	98.053356 
1704.000000	98.048792 
1703.000000	98.043864 
1702.000000	98.039494 
1701.000000	98.035963 
1700.000000	98.033109 
1699.000000	98.027665 
1698.000000	98.021437 
1697.000000	98.015857 
1696.000000	98.009709 
1695.000000	98.004784 
1694.000000	98.002744 
1693.000000	98.002488 
1692.000000	98.001407 
1691.000000	97.997989 
1690.000000	97.992882 
1689.000000	97.986738 
1688.000000	97.980394 
1687.000000	97.974670 
1686.000000	97.969870 
1685.000000	97.966716 
1684.000000	97.964500 
1683.000000	97.958608 
1682.000000	97.948770 
1681.000000	97.937704 
1680.000000	97.927537 
1679.000000	97.919625 
1678.000000	97.913394 
1677.000000	97.907090 
1676.000000	97.900554 
1675.000000	97.895506 
1674.000000	97.889774 
1673.000000	97.882507 
1672.000000	97.876366 
1671.000000	97.872993 
1670.000000	97.871556 
1669.000000	97.868436 
1668.000000	97.863034 
1667.000000	97.858248 
1666.000000	97.854144 
1665.000000	97.848899 
1664.000000	97.841174 
1663.000000	97.832898 
1662.000000	97.823927 
1661.000000	97.811561 
1660.000000	97.800123 
1659.000000	97.794597 
1658.000000	97.793442 
1657.000000	97.792112 
1656.000000	97.789388 
1655.000000	97.781066 
1654.000000	97.765020 
1653.000000	97.758033 
1652.000000	97.751097 
1651.000000	97.739364 
1650.000000	97.732713 
1649.000000	97.731128 
1648.000000	97.728794 
1647.000000	97.725290 
1646.000000	97.721071 
1645.000000	97.715643 
1644.000000	97.710985 
1643.000000	97.709302 
1642.000000	97.708494 
1641.000000	97.704292 
1640.000000	97.699180 
1639.000000	97.697092 
1638.000000	97.699120 
1637.000000	97.700853 
1636.000000	97.702511 
1635.000000	97.705472 
1634.000000	97.706094 
1633.000000	97.704641 
1632.000000	97.700499 
1631.000000	97.695060 
1630.000000	97.692053 
1629.000000	97.692931 
1628.000000	97.695621 
1627.000000	97.699233 
1626.000000	97.703515 
1625.000000	97.708831 
1624.000000	97.717253 
1623.000000	97.729577 
1622.000000	97.739361 
1621.000000	97.741221 
1620.000000	97.740582 
1619.000000	97.742808 
1618.000000	97.746448 
1617.000000	97.748423 
1616.000000	97.750676 
1615.000000	97.757392 
1614.000000	97.768581 
1613.000000	97.779150 
1612.000000	97.785822 
1611.000000	97.792168 
1610.000000	97.800613 
1609.000000	97.809626 
1608.000000	97.819729 
1607.000000	97.832789 
1606.000000	97.844342 
1605.000000	97.849684 
1604.000000	97.853335 
1603.000000	97.860601 
1602.000000	97.869836 
1601.000000	97.877576 
1600.000000	97.884900 
1599.000000	97.893639 
1598.000000	97.901062 
1597.000000	97.904762 
1596.000000	97.907477 
1595.000000	97.913380 
1594.000000	97.921739 
1593.000000	97.928638 
1592.000000	97.933442 
1591.000000	97.938712 
1590.000000	97.945026 
1589.000000	97.950509 
1588.000000	97.955149 
1587.000000	97.960436 
1586.000000	97.966042 
1585.000000	97.969356 
1584.000000	97.972165 
1583.000000	97.978436 
1582.000000	97.986461 
1581.000000	97.991851 
1580.000000	97.995076 
1579.000000	97.999077 
1578.000000	98.003052 
1577.000000	98.006337 
1576.000000	98.012562 
1575.000000	98.021737 
1574.000000	98.028845 
1573.000000	98.032945 
1572.000000	98.036788 
1571.000000	98.042756 
1570.000000	98.050480 
1569.000000	98.054238 
1568.000000	98.053852 
1567.000000	98.054208 
1566.000000	98.056136 
1565.000000	98.057159 
1564.000000	98.058599 
1563.000000	98.061321 
1562.000000	98.063644 
1561.000000	98.059868 
1560.000000	98.055692 
1559.000000	98.064885 
1558.000000	98.072133 
1557.000000	98.068163 
1556.000000	98.065398 
1555.000000	98.066735 
1554.000000	98.066990 
1553.000000	98.064666 
1552.000000	98.062927 
1551.000000	98.061583 
1550.000000	98.059299 
1549.000000	98.056138 
1548.000000	98.053419 
1547.000000	98.051971 
1546.000000	98.049859 
1545.000000	98.045746 
1544.000000	98.042327 
1543.000000	98.041803 
1542.000000	98.044276 
1541.000000	98.048088 
1540.000000	98.049344 
1539.000000	98.044800 
1538.000000	98.035195 
1537.000000	98.024161 
1536.000000	98.013266 
1535.000000	98.003913 
1534.000000	97.998249 
1533.000000	97.996596 
1532.000000	97.994924 
1531.000000	97.991093 
1530.000000	97.986967 
1529.000000	97.982590 
1528.000000	97.975702 
1527.000000	97.966688 
1526.000000	97.958623 
1525.000000	97.953515 
1524.000000	97.951138 
1523.000000	97.949667 
1522.000000	97.947737 
1521.000000	97.943889 
1520.000000	97.936726 
1519.000000	97.928428 
1518.000000	97.920223 
1517.000000	97.910659 
1516.000000	97.899182 
1515.000000	97.888770 
1514.000000	97.882211 
1513.000000	97.879020 
1512.000000	97.874916 
1511.000000	97.865935 
1510.000000	97.852686 
1509.000000	97.838084 
1508.000000	97.824522 
1507.000000	97.815415 
1506.000000	97.810954 
1505.000000	97.803796 
1504.000000	97.792786 
1503.000000	97.780273 
1502.000000	97.767283 
1501.000000	97.755064 
1500.000000	97.744613 
1499.000000	97.734875 
1498.000000	97.724512 
1497.000000	97.715788 
1496.000000	97.709583 
1495.000000	97.704285 
1494.000000	97.699603 
1493.000000	97.695731 
1492.000000	97.691265 
1491.000000	97.684954 
1490.000000	97.677612 
1489.000000	97.669929 
1488.000000	97.659893 
1487.000000	97.647107 
1486.000000	97.634480 
1485.000000	97.620959 
1484.000000	97.606051 
1483.000000	97.592516 
1482.000000	97.582532 
1481.000000	97.575419 
1480.000000	97.568104 
1479.000000	97.560094 
1478.000000	97.552956 
1477.000000	97.546528 
1476.000000	97.536623 
1475.000000	97.521870 
1474.000000	97.506122 
1473.000000	97.494644 
1472.000000	97.488022 
1471.000000	97.480836 
1470.000000	97.470187 
1469.000000	97.456093 
1468.000000	97.438320 
1467.000000	97.419563 
1466.000000	97.405628 
1465.000000	97.399643 
1464.000000	97.398813 
1463.000000	97.395982 
1462.000000	97.388902 
1461.000000	97.379185 
1460.000000	97.367952 
1459.000000	97.353908 
1458.000000	97.336790 
1457.000000	97.322430 
1456.000000	97.311452 
1455.000000	97.299140 
1454.000000	97.285269 
1453.000000	97.272817 
1452.000000	97.264099 
1451.000000	97.258776 
1450.000000	97.256138 
1449.000000	97.258184 
1448.000000	97.263697 
1447.000000	97.267824 
1446.000000	97.265673 
1445.000000	97.259276 
1444.000000	97.255551 
1443.000000	97.254859 
1442.000000	97.253713 
1441.000000	97.250642 
1440.000000	97.246402 
1439.000000	97.238523 
1438.000000	97.225736 
1437.000000	97.216064 
1436.000000	97.216923 
1435.000000	97.221829 
1434.000000	97.224327 
1433.000000	97.225843 
1432.000000	97.228306 
1431.000000	97.230688 
1430.000000	97.230809 
1429.000000	97.229575 
1428.000000	97.227095 
1427.000000	97.223533 
1426.000000	97.219488 
1425.000000	97.217469 
1424.000000	97.220393 
1423.000000	97.222420 
1422.000000	97.217057 
1421.000000	97.206918 
1420.000000	97.200418 
1419.000000	97.198199 
1418.000000	97.191781 
1417.000000	97.181587 
1416.000000	97.175003 
1415.000000	97.172211 
1414.000000	97.167242 
1413.000000	97.157828 
1412.000000	97.148539 
1411.000000	97.143165 
1410.000000	97.140894 
1409.000000	97.140753 
1408.000000	97.142205 
1407.000000	97.145718 
1406.000000	97.152442 
1405.000000	97.164192 
1404.000000	97.181891 
1403.000000	97.200973 
1402.000000	97.217642 
1401.000000	97.235100 
1400.000000	97.258871 
1399.000000	97.286019 
1398.000000	97.304008 
1397.000000	97.304543 
1396.000000	97.291121 
1395.000000	97.277604 
1394.000000	97.278700 
1393.000000	97.299480 
1392.000000	97.334046 
1391.000000	97.370102 
1390.000000	97.396960 
1389.000000	97.411479 
1388.000000	97.417335 
1387.000000	97.420061 
1386.000000	97.422963 
1385.000000	97.427995 
1384.000000	97.437685 
1383.000000	97.452643 
1382.000000	97.470673 
1381.000000	97.488433 
1380.000000	97.503495 
1379.000000	97.516105 
1378.000000	97.528874 
1377.000000	97.544978 
1376.000000	97.565604 
1375.000000	97.588748 
1374.000000	97.610228 
1373.000000	97.628544 
1372.000000	97.645952 
1371.000000	97.664501 
1370.000000	97.682934 
1369.000000	97.699317 
1368.000000	97.715119 
1367.000000	97.732437 
1366.000000	97.751039 
1365.000000	97.769807 
1364.000000	97.788265 
1363.000000	97.805826 
1362.000000	97.821527 
1361.000000	97.835933 
1360.000000	97.851526 
1359.000000	97.869872 
1358.000000	97.889367 
1357.000000	97.907122 
1356.000000	97.921782 
1355.000000	97.933135 
1354.000000	97.941152 
1353.000000	97.947984 
1352.000000	97.956329 
1351.000000	97.968116 
1350.000000	97.982442 
1349.000000	97.996603 
1348.000000	98.010202 
1347.000000	98.023612 
1346.000000	98.035780 
1345.000000	98.045568 
1344.000000	98.054226 
1343.000000	98.063777 
1342.000000	98.073415 
1341.000000	98.079765 
1340.000000	98.081241 
1339.000000	98.080120 
1338.000000	98.079332 
1337.000000	98.079458 
1336.000000	98.079283 
1335.000000	98.077852 
1334.000000	98.075961 
1333.000000	98.075936 
1332.000000	98.079196 
1331.000000	98.084297 
1330.000000	98.088201 
1329.000000	98.090488 
1328.000000	98.094243 
1327.000000	98.101983 
1326.000000	98.111175 
1325.000000	98.116365 
1324.000000	98.115193 
1323.000000	98.109096 
1322.000000	98.100475 
1321.000000	98.091517 
1320.000000	98.084661 
1319.000000	98.081499 
1318.000000	98.081716 
1317.000000	98.084625 
1316.000000	98.090318 
1315.000000	98.097590 
1314.000000	98.102602 
1313.000000	98.102638 
1312.000000	98.099980 
1311.000000	98.099502 
1310.000000	98.102747 
1309.000000	98.106990 
1308.000000	98.109115 
1307.000000	98.108617 
1306.000000	98.106459 
1305.000000	98.103721 
1304.000000	98.102117 
1303.000000	98.102946 
1302.000000	98.105107 
1301.000000	98.105940 
1300.000000	98.105041 
1299.000000	98.105348 
1298.000000	98.109122 
1297.000000	98.113778 
1296.000000	98.113795 
1295.000000	98.107057 
1294.000000	98.097983 
1293.000000	98.093800 
1292.000000	98.097583 
1291.000000	98.105499 
1290.000000	98.110958 
1289.000000	98.110799 
1288.000000	98.107042 
1287.000000	98.103564 
1286.000000	98.102295 
1285.000000	98.102951 
1284.000000	98.104986 
1283.000000	98.108029 
1282.000000	98.110640 
1281.000000	98.110021 
1280.000000	98.104457 
1279.000000	98.095825 
1278.000000	98.088782 
1277.000000	98.087124 
1276.000000	98.091190 
1275.000000	98.098849 
1274.000000	98.107770 
1273.000000	98.115716 
1272.000000	98.119506 
1271.000000	98.116500 
1270.000000	98.108391 
1269.000000	98.101230 
1268.000000	98.099412 
1267.000000	98.100723 
1266.000000	98.099824 
1265.000000	98.095937 
1264.000000	98.093584 
1263.000000	98.095380 
1262.000000	98.098060 
1261.000000	98.097607 
1260.000000	98.095692 
1259.000000	98.097657 
1258.000000	98.105107 
1257.000000	98.113537 
1256.000000	98.116900 
1255.000000	98.112434 
1254.000000	98.101244 
1253.000000	98.086321 
1252.000000	98.071297 
1251.000000	98.060359 
1250.000000	98.057485 
1249.000000	98.064495 
1248.000000	98.079532 
1247.000000	98.097152 
1246.000000	98.109974 
1245.000000	98.111292 
1244.000000	98.098504 
1243.000000	98.077266 
1242.000000	98.061877 
1241.000000	98.066366 
1240.000000	98.091422 
1239.000000	98.121617 
1238.000000	98.138553 
1237.000000	98.135691 
1236.000000	98.118508 
1235.000000	98.094433 
1234.000000	98.067919 
1233.000000	98.042937 
1232.000000	98.022796 
1231.000000	98.005891 
1230.000000	97.987119 
1229.000000	97.965406 
1228.000000	97.945141 
1227.000000	97.928444 
1226.000000	97.910979 
1225.000000	97.888075 
1224.000000	97.860589 
1223.000000	97.831579 
1222.000000	97.800974 
1221.000000	97.766616 
1220.000000	97.726929 
1219.000000	97.679221 
1218.000000	97.619071 
1217.000000	97.545767 
1216.000000	97.465894 
1215.000000	97.387671 
1214.000000	97.313567 
1213.000000	97.241736 
1212.000000	97.171285 
1211.000000	97.101011 
1210.000000	97.025844 
1209.000000	96.940907 
1208.000000	96.848232 
1207.000000	96.754028 
1206.000000	96.659819 
1205.000000	96.561584 
1204.000000	96.457322 
1203.000000	96.349907 
1202.000000	96.242196 
1201.000000	96.134136 
1200.000000	96.025628 
1199.000000	95.918365 
1198.000000	95.813909 
1197.000000	95.712882 
1196.000000	95.615593 
1195.000000	95.520203 
1194.000000	95.421299 
1193.000000	95.314272 
1192.000000	95.200358 
1191.000000	95.083324 
1190.000000	94.962358 
1189.000000	94.833131 
1188.000000	94.695193 
1187.000000	94.553299 
1186.000000	94.411745 
1185.000000	94.272078 
1184.000000	94.135512 
1183.000000	94.002133 
1182.000000	93.868319 
1181.000000	93.730563 
1180.000000	93.590834 
1179.000000	93.451741 
1178.000000	93.307570 
1177.000000	93.148261 
1176.000000	92.972571 
1175.000000	92.789581 
1174.000000	92.606334 
1173.000000	92.421893 
1172.000000	92.234924 
1171.000000	92.048279 
1170.000000	91.863726 
1169.000000	91.680958 
1168.000000	91.505084 
1167.000000	91.347200 
1166.000000	91.215122 
1165.000000	91.112503 
1164.000000	91.049321 
1163.000000	91.041347 
1162.000000	91.092152 
1161.000000	91.182333 
1160.000000	91.281024 
1159.000000	91.361930 
1158.000000	91.405807 
1157.000000	91.398116 
1156.000000	91.333666 
1155.000000	91.221017 
1154.000000	91.077083 
1153.000000	90.918352 
1152.000000	90.758344 
1151.000000	90.607186 
1150.000000	90.467581 
1149.000000	90.334055 
1148.000000	90.200205 
1147.000000	90.064282 
1146.000000	89.926528 
1145.000000	89.786246 
1144.000000	89.644395 
1143.000000	89.504443 
1142.000000	89.367653 
1141.000000	89.231268 
1140.000000	89.093033 
1139.000000	88.953252 
1138.000000	88.811548 
1137.000000	88.666740 
1136.000000	88.520804 
1135.000000	88.377494 
1134.000000	88.236335 
1133.000000	88.093598 
1132.000000	87.949031 
1131.000000	87.804795 
1130.000000	87.658014 
1129.000000	87.502634 
1128.000000	87.339633 
1127.000000	87.177333 
1126.000000	87.020177 
1125.000000	86.864685 
1124.000000	86.707349 
1123.000000	86.548136 
1122.000000	86.385225 
1121.000000	86.215527 
1120.000000	86.042525 
1119.000000	85.874950 
1118.000000	85.715773 
1117.000000	85.561107 
1116.000000	85.410256 
1115.000000	85.266887 
1114.000000	85.129784 
1113.000000	84.993387 
1112.000000	84.858090 
1111.000000	84.728412 
1110.000000	84.601016 
1109.000000	84.467171 
1108.000000	84.326675 
1107.000000	84.186573 
1106.000000	84.046648 
1105.000000	83.900129 
1104.000000	83.749057 
1103.000000	83.604238 
1102.000000	83.468579 
1101.000000	83.335364 
1100.000000	83.203567 
1099.000000	83.080060 
1098.000000	82.965451 
1097.000000	82.852445 
1096.000000	82.739890 
1095.000000	82.632455 
1094.000000	82.524769 
1093.000000	82.402553 
1092.000000	82.263164 
1091.000000	82.120257 
1090.000000	81.985126 
1089.000000	81.857250 
1088.000000	81.734444 
1087.000000	81.616779 
1086.000000	81.498957 
1085.000000	81.374631 
1084.000000	81.249635 
1083.000000	81.135302 
1082.000000	81.028587 
1081.000000	80.916149 
1080.000000	80.798118 
1079.000000	80.688625 
1078.000000	80.591248 
1077.000000	80.493174 
1076.000000	80.385435 
1075.000000	80.268922 
1074.000000	80.138559 
1073.000000	79.982113 
1072.000000	79.796810 
1071.000000	79.586202 
1070.000000	79.338887 
1069.000000	79.035154 
1068.000000	78.681718 
1067.000000	78.318421 
1066.000000	77.980243 
1065.000000	77.669572 
1064.000000	77.372413 
1063.000000	77.078167 
1062.000000	76.773330 
1061.000000	76.439982 
1060.000000	76.077322 
1059.000000	75.709939 
1058.000000	75.362019 
1057.000000	75.035418 
1056.000000	74.720485 
1055.000000	74.411849 
1054.000000	74.104481 
1053.000000	73.790032 
1052.000000	73.467222 
1051.000000	73.143127 
1050.000000	72.818116 
1049.000000	72.485206 
1048.000000	72.147593 
1047.000000	71.817174 
1046.000000	71.493605 
1045.000000	71.165322 
1044.000000	70.832182 
1043.000000	70.506612 
1042.000000	70.191158 
1041.000000	69.875467 
1040.000000	69.557798 
1039.000000	69.249270 
1038.000000	68.955065 
1037.000000	68.672544 
1036.000000	68.408795 
1035.000000	68.177195 
1034.000000	67.974553 
1033.000000	67.783039 
1032.000000	67.594745 
1031.000000	67.413021 
1030.000000	67.234169 
1029.000000	67.055134 
1028.000000	66.895978 
1027.000000	66.783487 
1026.000000	66.711488 
1025.000000	66.646158 
1024.000000	66.571283 
1023.000000	66.497532 
1022.000000	66.426744 
1021.000000	66.342183 
1020.000000	66.239591 
1019.000000	66.135816 
1018.000000	66.039330 
1017.000000	65.941057 
1016.000000	65.840173 
1015.000000	65.750177 
1014.000000	65.673214 
1013.000000	65.596356 
1012.000000	65.518957 
1011.000000	65.456117 
1010.000000	65.409500 
1009.000000	65.362144 
1008.000000	65.308233 
1007.000000	65.262376 
1006.000000	65.234651 
1005.000000	65.221282 
1004.000000	65.222166 
1003.000000	65.241512 
1002.000000	65.269762 
1001.000000	65.292253 
1000.000000	65.317281 
999.000000	 65.367245 
998.000000	 65.440857 
997.000000	 65.513207 
996.000000	 65.575204 
995.000000	 65.643367 
994.000000	 65.727397 
993.000000	 65.817871 
992.000000	 65.909944 
991.000000	 66.010605 
990.000000	 66.118445 
989.000000	 66.223882 
988.000000	 66.332948 
987.000000	 66.464179 
986.000000	 66.619882 
985.000000	 66.786949 
984.000000	 66.965548 
983.000000	 67.167627 
982.000000	 67.387263 
981.000000	 67.603782 
980.000000	 67.816545 
979.000000	 68.045834 
978.000000	 68.296922 
977.000000	 68.554559 
976.000000	 68.815657 
975.000000	 69.095220 
974.000000	 69.395103 
973.000000	 69.698874 
972.000000	 70.004442 
971.000000	 70.331202 
970.000000	 70.685919 
969.000000	 71.049010 
968.000000	 71.403488 
967.000000	 71.753089 
966.000000	 72.104051 
965.000000	 72.452190 
964.000000	 72.795244 
963.000000	 73.137425 
962.000000	 73.476719 
961.000000	 73.806583 
960.000000	 74.131641 
959.000000	 74.461573 
958.000000	 74.789813 
957.000000	 75.100323 
956.000000	 75.394948 
955.000000	 75.691256 
954.000000	 75.993614 
953.000000	 76.289613 
952.000000	 76.574117 
951.000000	 76.851703 
950.000000	 77.115871 
949.000000	 77.352401 
948.000000	 77.565422 
947.000000	 77.775190 
946.000000	 77.986866 
945.000000	 78.185394 
944.000000	 78.364390 
943.000000	 78.535829 
942.000000	 78.707464 
941.000000	 78.873990 
940.000000	 79.035235 
939.000000	 79.200491 
938.000000	 79.370001 
937.000000	 79.533417 
936.000000	 79.690680 
935.000000	 79.853672 
934.000000	 80.023982 
933.000000	 80.190042 
932.000000	 80.349461 
931.000000	 80.513302 
930.000000	 80.685223 
929.000000	 80.856926 
928.000000	 81.026726 
927.000000	 81.201586 
926.000000	 81.378091 
925.000000	 81.542139 
924.000000	 81.690125 
923.000000	 81.830524 
922.000000	 81.963429 
921.000000	 82.079892 
920.000000	 82.183066 
919.000000	 82.287565 
918.000000	 82.394700 
917.000000	 82.490354 
916.000000	 82.571804 
915.000000	 82.656268 
914.000000	 82.758841 
913.000000	 82.881769 
912.000000	 83.028400 
911.000000	 83.206780 
910.000000	 83.415447 
909.000000	 83.645183 
908.000000	 83.897288 
907.000000	 84.180607 
906.000000	 84.489973 
905.000000	 84.808935 
904.000000	 85.134501 
903.000000	 85.476893 
902.000000	 85.833861 
901.000000	 86.188041 
900.000000	 86.532101 
899.000000	 86.874854 
898.000000	 87.219512 
897.000000	 87.555842 
896.000000	 87.876372 
895.000000	 88.182482 
894.000000	 88.473867 
893.000000	 88.749517 
892.000000	 89.018080 
891.000000	 89.288853 
890.000000	 89.553524 
889.000000	 89.795004 
888.000000	 90.012117 
887.000000	 90.217521 
886.000000	 90.415250 
885.000000	 90.600237 
884.000000	 90.774895 
883.000000	 90.942792 
882.000000	 91.091152 
881.000000	 91.207753 
880.000000	 91.313361 
879.000000	 91.446632 
878.000000	 91.613601 
877.000000	 91.783481 
876.000000	 91.939774 
875.000000	 92.103438 
874.000000	 92.297040 
873.000000	 92.517038 
872.000000	 92.752492 
871.000000	 93.002280 
870.000000	 93.261023 
869.000000	 93.512753 
868.000000	 93.751216 
867.000000	 93.986592 
866.000000	 94.222797 
865.000000	 94.447807 
864.000000	 94.656217 
863.000000	 94.862832 
862.000000	 95.082493 
861.000000	 95.310847 
860.000000	 95.534937 
859.000000	 95.749583 
858.000000	 95.954484 
857.000000	 96.146692 
856.000000	 96.323629 
855.000000	 96.484721 
854.000000	 96.626717 
853.000000	 96.748039 
852.000000	 96.859699 
851.000000	 96.978718 
850.000000	 97.106949 
849.000000	 97.228513 
848.000000	 97.330377 
847.000000	 97.413067 
846.000000	 97.481145 
845.000000	 97.538189 
844.000000	 97.592766 
843.000000	 97.653327 
842.000000	 97.712858 
841.000000	 97.752064 
840.000000	 97.760365 
839.000000	 97.741437 
838.000000	 97.699853 
837.000000	 97.639939 
836.000000	 97.579190 
835.000000	 97.542589 
834.000000	 97.535804 
833.000000	 97.539976 
832.000000	 97.540024 
831.000000	 97.542652 
830.000000	 97.559687 
829.000000	 97.590289 
828.000000	 97.629735 
827.000000	 97.681076 
826.000000	 97.746636 
825.000000	 97.819998 
824.000000	 97.895449 
823.000000	 97.972774 
822.000000	 98.046494 
821.000000	 98.105219 
820.000000	 98.146534 
819.000000	 98.177814 
818.000000	 98.198592 
817.000000	 98.194907 
816.000000	 98.154151 
815.000000	 98.074124 
814.000000	 97.954260 
813.000000	 97.787573 
812.000000	 97.562927 
811.000000	 97.264983 
810.000000	 96.871132 
809.000000	 96.361476 
808.000000	 95.736576 
807.000000	 95.017602 
806.000000	 94.229826 
805.000000	 93.398663 
804.000000	 92.561128 
803.000000	 91.761014 
802.000000	 91.026705 
801.000000	 90.372430 
800.000000	 89.824960 
799.000000	 89.423621 
798.000000	 89.184121 
797.000000	 89.084360 
796.000000	 89.092966 
795.000000	 89.187707 
794.000000	 89.339319 
793.000000	 89.505516 
792.000000	 89.655637 
791.000000	 89.784272 
790.000000	 89.893463 
789.000000	 89.977436 
788.000000	 90.026556 
787.000000	 90.026781 
786.000000	 89.953187 
785.000000	 89.785029 
784.000000	 89.531946 
783.000000	 89.228481 
782.000000	 88.903473 
781.000000	 88.576527 
780.000000	 88.283351 
779.000000	 88.074476 
778.000000	 87.979590 
777.000000	 87.994281 
776.000000	 88.103511 
775.000000	 88.292056 
774.000000	 88.530967 
773.000000	 88.785916 
772.000000	 89.046432 
771.000000	 89.320088 
770.000000	 89.594667 
769.000000	 89.836615 
768.000000	 90.032421 
767.000000	 90.200046 
766.000000	 90.351384 
765.000000	 90.475358 
764.000000	 90.570348 
763.000000	 90.662740 
762.000000	 90.775895 
761.000000	 90.904678 
760.000000	 91.035557 
759.000000	 91.168832 
758.000000	 91.306864 
757.000000	 91.443267 
756.000000	 91.579102 
755.000000	 91.728983 
754.000000	 91.895771 
753.000000	 92.057854 
752.000000	 92.195798 
751.000000	 92.315870 
750.000000	 92.436520 
749.000000	 92.567297 
748.000000	 92.710391 
747.000000	 92.865835 
746.000000	 93.024475 
745.000000	 93.171328 
744.000000	 93.305413 
743.000000	 93.442647 
742.000000	 93.593931 
741.000000	 93.756677 
740.000000	 93.930512 
739.000000	 94.120253 
738.000000	 94.318251 
737.000000	 94.504973 
736.000000	 94.674083 
735.000000	 94.836608 
734.000000	 94.995259 
733.000000	 95.136269 
732.000000	 95.251528 
731.000000	 95.347148 
730.000000	 95.425876 
729.000000	 95.484700 
728.000000	 95.531443 
727.000000	 95.582464 
726.000000	 95.642920 
725.000000	 95.706386 
724.000000	 95.775905 
723.000000	 95.865497 
722.000000	 95.976779 
721.000000	 96.093728 
720.000000	 96.205272 
719.000000	 96.315075 
718.000000	 96.424498 
717.000000	 96.526283 
716.000000	 96.620804 
715.000000	 96.715588 
714.000000	 96.803841 
713.000000	 96.868693 
712.000000	 96.913973 
711.000000	 96.965673 
710.000000	 97.034489 
709.000000	 97.105425 
708.000000	 97.162620 
707.000000	 97.203434 
706.000000	 97.225287 
705.000000	 97.217293 
704.000000	 97.173959 
703.000000	 97.101133 
702.000000	 96.992237 
701.000000	 96.816618 
700.000000	 96.547533 
699.000000	 96.184943 
698.000000	 95.753332 
697.000000	 95.298654 
696.000000	 94.892611 
695.000000	 94.618222 
694.000000	 94.521214 
693.000000	 94.583527 
692.000000	 94.750704 
691.000000	 94.966905 
690.000000	 95.192136 
689.000000	 95.409265 
688.000000	 95.624584 
687.000000	 95.849154 
686.000000	 96.067894 
685.000000	 96.248525 
684.000000	 96.383553 
683.000000	 96.492005 
682.000000	 96.582309 
681.000000	 96.642772 
680.000000	 96.676779 
679.000000	 96.713493 
678.000000	 96.778597 
677.000000	 96.881346 
676.000000	 97.014731 
675.000000	 97.157370 
674.000000	 97.272072 
673.000000	 97.317418 
672.000000	 97.282616 
671.000000	 97.177113 
670.000000	 97.014484 
669.000000	 96.819387 
668.000000	 96.759940 
667.000000	 97.001844 
666.000000	 97.361060 
665.000000	 97.614717 
664.000000	 97.751839 
663.000000	 97.821610 
662.000000	 97.867877 
661.000000	 97.916109 
660.000000	 97.974365 
659.000000	 98.046738 
658.000000	 98.128669 
657.000000	 98.202886 
656.000000	 98.236173 
655.000000	 98.205299 
654.000000	 98.125910 
653.000000	 98.043957 
652.000000	 98.002075 
651.000000	 98.018613 
650.000000	 98.083203 

