4000.000000	97.795020 
3999.000000	97.796745 
3998.000000	97.794865 
3997.000000	97.790058 
3996.000000	97.784421 
3995.000000	97.780201 
3994.000000	97.778675 
3993.000000	97.779533 
3992.000000	97.780968 
3991.000000	97.781444 
3990.000000	97.781224 
3989.000000	97.781401 
3988.000000	97.781994 
3987.000000	97.782118 
3986.000000	97.781873 
3985.000000	97.782635 
3984.000000	97.784985 
3983.000000	97.787641 
3982.000000	97.789174 
3981.000000	97.789801 
3980.000000	97.790553 
3979.000000	97.791397 
3978.000000	97.791505 
3977.000000	97.791147 
3976.000000	97.791729 
3975.000000	97.793650 
3974.000000	97.795248 
3973.000000	97.794542 
3972.000000	97.791316 
3971.000000	97.787193 
3970.000000	97.784620 
3969.000000	97.785360 
3968.000000	97.789277 
3967.000000	97.794217 
3966.000000	97.797645 
3965.000000	97.798530 
3964.000000	97.797409 
3963.000000	97.795287 
3962.000000	97.792890 
3961.000000	97.790865 
3960.000000	97.789485 
3959.000000	97.787997 
3958.000000	97.785969 
3957.000000	97.784131 
3956.000000	97.783213 
3955.000000	97.782221 
3954.000000	97.779266 
3953.000000	97.773938 
3952.000000	97.767831 
3951.000000	97.763312 
3950.000000	97.761570 
3949.000000	97.761680 
3948.000000	97.761540 
3947.000000	97.760280 
3946.000000	97.758892 
3945.000000	97.758375 
3944.000000	97.758590 
3943.000000	97.759403 
3942.000000	97.761705 
3941.000000	97.766356 
3940.000000	97.771990 
3939.000000	97.774895 
3938.000000	97.773176 
3937.000000	97.768685 
3936.000000	97.764636 
3935.000000	97.761912 
3934.000000	97.759395 
3933.000000	97.757288 
3932.000000	97.756924 
3931.000000	97.758190 
3930.000000	97.759235 
3929.000000	97.759068 
3928.000000	97.759003 
3927.000000	97.759715 
3926.000000	97.759418 
3925.000000	97.756894 
3924.000000	97.753989 
3923.000000	97.752777 
3922.000000	97.752081 
3921.000000	97.750046 
3920.000000	97.747939 
3919.000000	97.748197 
3918.000000	97.750486 
3917.000000	97.752315 
3916.000000	97.752774 
3915.000000	97.753001 
3914.000000	97.753532 
3913.000000	97.753521 
3912.000000	97.752728 
3911.000000	97.751424 
3910.000000	97.749944 
3909.000000	97.748355 
3908.000000	97.746856 
3907.000000	97.745707 
3906.000000	97.744941 
3905.000000	97.744448 
3904.000000	97.744187 
3903.000000	97.744121 
3902.000000	97.744052 
3901.000000	97.743864 
3900.000000	97.743679 
3899.000000	97.743493 
3898.000000	97.743297 
3897.000000	97.743101 
3896.000000	97.742914 
3895.000000	97.742722 
3894.000000	97.742496 
3893.000000	97.742219 
3892.000000	97.741888 
3891.000000	97.741505 
3890.000000	97.741094 
3889.000000	97.740691 
3888.000000	97.740305 
3887.000000	97.739926 
3886.000000	97.739554 
3885.000000	97.739211 
3884.000000	97.738927 
3883.000000	97.738702 
3882.000000	97.738510 
3881.000000	97.738333 
3880.000000	97.738182 
3879.000000	97.738076 
3878.000000	97.738015 
3877.000000	97.737971 
3876.000000	97.737919 
3875.000000	97.737861 
3874.000000	97.737826 
3873.000000	97.737845 
3872.000000	97.737917 
3871.000000	97.738017 
3870.000000	97.738136 
3869.000000	97.738304 
3868.000000	97.738552 
3867.000000	97.738861 
3866.000000	97.739187 
3865.000000	97.739518 
3864.000000	97.739875 
3863.000000	97.740249 
3862.000000	97.740593 
3861.000000	97.740883 
3860.000000	97.741136 
3859.000000	97.741383 
3858.000000	97.741640 
3857.000000	97.741922 
3856.000000	97.742258 
3855.000000	97.742679 
3854.000000	97.743178 
3853.000000	97.743731 
3852.000000	97.744374 
3851.000000	97.745164 
3850.000000	97.746095 
3849.000000	97.747109 
3848.000000	97.748159 
3847.000000	97.749219 
3846.000000	97.750279 
3845.000000	97.751340 
3844.000000	97.752397 
3843.000000	97.753436 
3842.000000	97.754445 
3841.000000	97.755433 
3840.000000	97.756416 
3839.000000	97.757397 
3838.000000	97.758358 
3837.000000	97.759285 
3836.000000	97.760187 
3835.000000	97.761080 
3834.000000	97.761974 
3833.000000	97.762860 
3832.000000	97.763728 
3831.000000	97.764573 
3830.000000	97.765401 
3829.000000	97.766224 
3828.000000	97.767048 
3827.000000	97.767866 
3826.000000	97.768668 
3825.000000	97.769461 
3824.000000	97.770269 
3823.000000	97.771098 
3822.000000	97.771928 
3821.000000	97.772756 
3820.000000	97.773622 
3819.000000	97.774577 
3818.000000	97.775599 
3817.000000	97.776620 
3816.000000	97.777602 
3815.000000	97.778568 
3814.000000	97.779543 
3813.000000	97.780507 
3812.000000	97.781415 
3811.000000	97.782263 
3810.000000	97.783067 
3809.000000	97.783812 
3808.000000	97.784463 
3807.000000	97.785018 
3806.000000	97.785533 
3805.000000	97.786069 
3804.000000	97.786640 
3803.000000	97.787213 
3802.000000	97.787764 
3801.000000	97.788311 
3800.000000	97.788894 
3799.000000	97.789522 
3798.000000	97.790146 
3797.000000	97.790730 
3796.000000	97.791275 
3795.000000	97.791794 
3794.000000	97.792283 
3793.000000	97.792723 
3792.000000	97.793097 
3791.000000	97.793391 
3790.000000	97.793604 
3789.000000	97.793747 
3788.000000	97.793836 
3787.000000	97.793880 
3786.000000	97.793868 
3785.000000	97.793787 
3784.000000	97.793647 
3783.000000	97.793466 
3782.000000	97.793228 
3781.000000	97.792904 
3780.000000	97.792487 
3779.000000	97.791987 
3778.000000	97.791404 
3777.000000	97.790716 
3776.000000	97.789909 
3775.000000	97.789008 
3774.000000	97.788050 
3773.000000	97.787054 
3772.000000	97.786013 
3771.000000	97.784924 
3770.000000	97.783804 
3769.000000	97.782679 
3768.000000	97.781554 
3767.000000	97.780416 
3766.000000	97.779262 
3765.000000	97.778109 
3764.000000	97.776975 
3763.000000	97.775850 
3762.000000	97.774699 
3761.000000	97.773506 
3760.000000	97.772283 
3759.000000	97.771035 
3758.000000	97.769741 
3757.000000	97.768382 
3756.000000	97.766974 
3755.000000	97.765555 
3754.000000	97.764161 
3753.000000	97.762813 
3752.000000	97.761523 
3751.000000	97.760284 
3750.000000	97.759078 
3749.000000	97.757912 
3748.000000	97.756825 
3747.000000	97.755822 
3746.000000	97.754854 
3745.000000	97.753861 
3744.000000	97.752648 
3743.000000	97.751135 
3742.000000	97.750224 
3741.000000	97.749628 
3740.000000	97.747625 
3739.000000	97.744592 
3738.000000	97.742568 
3737.000000	97.741646 
3736.000000	97.739997 
3735.000000	97.738319 
3734.000000	97.738871 
3733.000000	97.739662 
3732.000000	97.736689 
3731.000000	97.731909 
3730.000000	97.731166 
3729.000000	97.734039 
3728.000000	97.733758 
3727.000000	97.727724 
3726.000000	97.721335 
3725.000000	97.720753 
3724.000000	97.724146 
3723.000000	97.726041 
3722.000000	97.726084 
3721.000000	97.726573 
3720.000000	97.727207 
3719.000000	97.723955 
3718.000000	97.714269 
3717.000000	97.702104 
3716.000000	97.694201 
3715.000000	97.691747 
3714.000000	97.691198 
3713.000000	97.692932 
3712.000000	97.698487 
3711.000000	97.702130 
3710.000000	97.698248 
3709.000000	97.687504 
3708.000000	97.672125 
3707.000000	97.653821 
3706.000000	97.634679 
3705.000000	97.616107 
3704.000000	97.597762 
3703.000000	97.579341 
3702.000000	97.560201 
3701.000000	97.539942 
3700.000000	97.521947 
3699.000000	97.508502 
3698.000000	97.494713 
3697.000000	97.477191 
3696.000000	97.461063 
3695.000000	97.451608 
3694.000000	97.444761 
3693.000000	97.433112 
3692.000000	97.417583 
3691.000000	97.405012 
3690.000000	97.397267 
3689.000000	97.387859 
3688.000000	97.374360 
3687.000000	97.365378 
3686.000000	97.364347 
3685.000000	97.362023 
3684.000000	97.352577 
3683.000000	97.340610 
3682.000000	97.330406 
3681.000000	97.318569 
3680.000000	97.300622 
3679.000000	97.280416 
3678.000000	97.264068 
3677.000000	97.251105 
3676.000000	97.235742 
3675.000000	97.216218 
3674.000000	97.201132 
3673.000000	97.194117 
3672.000000	97.186633 
3671.000000	97.173620 
3670.000000	97.158200 
3669.000000	97.144068 
3668.000000	97.132743 
3667.000000	97.122531 
3666.000000	97.111091 
3665.000000	97.098713 
3664.000000	97.086920 
3663.000000	97.075518 
3662.000000	97.062366 
3661.000000	97.046022 
3660.000000	97.028072 
3659.000000	97.012254 
3658.000000	97.000055 
3657.000000	96.988418 
3656.000000	96.972712 
3655.000000	96.956237 
3654.000000	96.945052 
3653.000000	96.933663 
3652.000000	96.914622 
3651.000000	96.896077 
3650.000000	96.890611 
3649.000000	96.893470 
3648.000000	96.890646 
3647.000000	96.881827 
3646.000000	96.877903 
3645.000000	96.882264 
3644.000000	96.888066 
3643.000000	96.888462 
3642.000000	96.884446 
3641.000000	96.880877 
3640.000000	96.878230 
3639.000000	96.871854 
3638.000000	96.860324 
3637.000000	96.849718 
3636.000000	96.842200 
3635.000000	96.829324 
3634.000000	96.804305 
3633.000000	96.775613 
3632.000000	96.756920 
3631.000000	96.750583 
3630.000000	96.751581 
3629.000000	96.746955 
3628.000000	96.730743 
3627.000000	96.724097 
3626.000000	96.732227 
3625.000000	96.733181 
3624.000000	96.720606 
3623.000000	96.704643 
3622.000000	96.689598 
3621.000000	96.672231 
3620.000000	96.655015 
3619.000000	96.646247 
3618.000000	96.651807 
3617.000000	96.673360 
3616.000000	96.703992 
3615.000000	96.731601 
3614.000000	96.750444 
3613.000000	96.763706 
3612.000000	96.777110 
3611.000000	96.791579 
3610.000000	96.803073 
3609.000000	96.810123 
3608.000000	96.816951 
3607.000000	96.827746 
3606.000000	96.841742 
3605.000000	96.855158 
3604.000000	96.867551 
3603.000000	96.882629 
3602.000000	96.899974 
3601.000000	96.912837 
3600.000000	96.917218 
3599.000000	96.916324 
3598.000000	96.915221 
3597.000000	96.919294 
3596.000000	96.931320 
3595.000000	96.947297 
3594.000000	96.958122 
3593.000000	96.958199 
3592.000000	96.949122 
3591.000000	96.935819 
3590.000000	96.923893 
3589.000000	96.919452 
3588.000000	96.925457 
3587.000000	96.938278 
3586.000000	96.953923 
3585.000000	96.970714 
3584.000000	96.985830 
3583.000000	96.997390 
3582.000000	97.005596 
3581.000000	97.010346 
3580.000000	97.010824 
3579.000000	97.007829 
3578.000000	97.003744 
3577.000000	97.001079 
3576.000000	97.000880 
3575.000000	97.001532 
3574.000000	97.000043 
3573.000000	96.993895 
3572.000000	96.982685 
3571.000000	96.968254 
3570.000000	96.954035 
3569.000000	96.944427 
3568.000000	96.943782 
3567.000000	96.952733 
3566.000000	96.967268 
3565.000000	96.982394 
3564.000000	96.993513 
3563.000000	96.998476 
3562.000000	96.999633 
3561.000000	97.001082 
3560.000000	97.004371 
3559.000000	97.007670 
3558.000000	97.008398 
3557.000000	97.005925 
3556.000000	97.002532 
3555.000000	97.001157 
3554.000000	97.002504 
3553.000000	97.004656 
3552.000000	97.005410 
3551.000000	97.004292 
3550.000000	97.001811 
3549.000000	96.998397 
3548.000000	96.995590 
3547.000000	96.995871 
3546.000000	96.999615 
3545.000000	97.004512 
3544.000000	97.008582 
3543.000000	97.011483 
3542.000000	97.013175 
3541.000000	97.013188 
3540.000000	97.011694 
3539.000000	97.009562 
3538.000000	97.007261 
3537.000000	97.004704 
3536.000000	97.002062 
3535.000000	96.999998 
3534.000000	96.998525 
3533.000000	96.996930 
3532.000000	96.995053 
3531.000000	96.993964 
3530.000000	96.994409 
3529.000000	96.995314 
3528.000000	96.994779 
3527.000000	96.992288 
3526.000000	96.989094 
3525.000000	96.986873 
3524.000000	96.986586 
3523.000000	96.988166 
3522.000000	96.990686 
3521.000000	96.992748 
3520.000000	96.993419 
3519.000000	96.992727 
3518.000000	96.991185 
3517.000000	96.989195 
3516.000000	96.986861 
3515.000000	96.984399 
3514.000000	96.982463 
3513.000000	96.981704 
3512.000000	96.981996 
3511.000000	96.982493 
3510.000000	96.982438 
3509.000000	96.981770 
3508.000000	96.980968 
3507.000000	96.980381 
3506.000000	96.979740 
3505.000000	96.978601 
3504.000000	96.976998 
3503.000000	96.975352 
3502.000000	96.973986 
3501.000000	96.972979 
3500.000000	96.972336 
3499.000000	96.972048 
3498.000000	96.971986 
3497.000000	96.971871 
3496.000000	96.971456 
3495.000000	96.970741 
3494.000000	96.970016 
3493.000000	96.969596 
3492.000000	96.969362 
3491.000000	96.968763 
3490.000000	96.967432 
3489.000000	96.965597 
3488.000000	96.963728 
3487.000000	96.961898 
3486.000000	96.959845 
3485.000000	96.957686 
3484.000000	96.956081 
3483.000000	96.955444 
3482.000000	96.955320 
3481.000000	96.954921 
3480.000000	96.954069 
3479.000000	96.953074 
3478.000000	96.951867 
3477.000000	96.949900 
3476.000000	96.947043 
3475.000000	96.944057 
3474.000000	96.941816 
3473.000000	96.940301 
3472.000000	96.938607 
3471.000000	96.935931 
3470.000000	96.932411 
3469.000000	96.928926 
3468.000000	96.926368 
3467.000000	96.925326 
3466.000000	96.926134 
3465.000000	96.928616 
3464.000000	96.931550 
3463.000000	96.932998 
3462.000000	96.931724 
3461.000000	96.928151 
3460.000000	96.923977 
3459.000000	96.920625 
3458.000000	96.918234 
3457.000000	96.916248 
3456.000000	96.914573 
3455.000000	96.913926 
3454.000000	96.914598 
3453.000000	96.915370 
3452.000000	96.914485 
3451.000000	96.911765 
3450.000000	96.908726 
3449.000000	96.906426 
3448.000000	96.904222 
3447.000000	96.901094 
3446.000000	96.897403 
3445.000000	96.894436 
3444.000000	96.892585 
3443.000000	96.891006 
3442.000000	96.888773 
3441.000000	96.885521 
3440.000000	96.881235 
3439.000000	96.876207 
3438.000000	96.871451 
3437.000000	96.868294 
3436.000000	96.867192 
3435.000000	96.867545 
3434.000000	96.868490 
3433.000000	96.869684 
3432.000000	96.871248 
3431.000000	96.873167 
3430.000000	96.874881 
3429.000000	96.875565 
3428.000000	96.874908 
3427.000000	96.873466 
3426.000000	96.872349 
3425.000000	96.872526 
3424.000000	96.874118 
3423.000000	96.875955 
3422.000000	96.876086 
3421.000000	96.873325 
3420.000000	96.868365 
3419.000000	96.863207 
3418.000000	96.859344 
3417.000000	96.856930 
3416.000000	96.855698 
3415.000000	96.855637 
3414.000000	96.856303 
3413.000000	96.856278 
3412.000000	96.854441 
3411.000000	96.851780 
3410.000000	96.851002 
3409.000000	96.853943 
3408.000000	96.859768 
3407.000000	96.865685 
3406.000000	96.869376 
3405.000000	96.870323 
3404.000000	96.869040 
3403.000000	96.866049 
3402.000000	96.862036 
3401.000000	96.858387 
3400.000000	96.856346 
3399.000000	96.855627 
3398.000000	96.854667 
3397.000000	96.852493 
3396.000000	96.849709 
3395.000000	96.847530 
3394.000000	96.846603 
3393.000000	96.846917 
3392.000000	96.848048 
3391.000000	96.848977 
3390.000000	96.848442 
3389.000000	96.846342 
3388.000000	96.844497 
3387.000000	96.845041 
3386.000000	96.847946 
3385.000000	96.850679 
3384.000000	96.850653 
3383.000000	96.847855 
3382.000000	96.844753 
3381.000000	96.843716 
3380.000000	96.844730 
3379.000000	96.845861 
3378.000000	96.845932 
3377.000000	96.846215 
3376.000000	96.848842 
3375.000000	96.854006 
3374.000000	96.859444 
3373.000000	96.862636 
3372.000000	96.863123 
3371.000000	96.862665 
3370.000000	96.863725 
3369.000000	96.867571 
3368.000000	96.873292 
3367.000000	96.878473 
3366.000000	96.881282 
3365.000000	96.881959 
3364.000000	96.882066 
3363.000000	96.882676 
3362.000000	96.883843 
3361.000000	96.885440 
3360.000000	96.887502 
3359.000000	96.889688 
3358.000000	96.891200 
3357.000000	96.891593 
3356.000000	96.891209 
3355.000000	96.890605 
3354.000000	96.890103 
3353.000000	96.890104 
3352.000000	96.891240 
3351.000000	96.893688 
3350.000000	96.896650 
3349.000000	96.898889 
3348.000000	96.899840 
3347.000000	96.900035 
3346.000000	96.900559 
3345.000000	96.902181 
3344.000000	96.904888 
3343.000000	96.908000 
3342.000000	96.910705 
3341.000000	96.912647 
3340.000000	96.914077 
3339.000000	96.915433 
3338.000000	96.916886 
3337.000000	96.918304 
3336.000000	96.919514 
3335.000000	96.920545 
3334.000000	96.921633 
3333.000000	96.922948 
3332.000000	96.924320 
3331.000000	96.925337 
3330.000000	96.925801 
3329.000000	96.926007 
3328.000000	96.926481 
3327.000000	96.927591 
3326.000000	96.929465 
3325.000000	96.931985 
3324.000000	96.934658 
3323.000000	96.936744 
3322.000000	96.937954 
3321.000000	96.938898 
3320.000000	96.940526 
3319.000000	96.943036 
3318.000000	96.945639 
3317.000000	96.947553 
3316.000000	96.948862 
3315.000000	96.950163 
3314.000000	96.951750 
3313.000000	96.953490 
3312.000000	96.955323 
3311.000000	96.957449 
3310.000000	96.959962 
3309.000000	96.962585 
3308.000000	96.964858 
3307.000000	96.966445 
3306.000000	96.967313 
3305.000000	96.967802 
3304.000000	96.968498 
3303.000000	96.969910 
3302.000000	96.972142 
3301.000000	96.974759 
3300.000000	96.976952 
3299.000000	96.977977 
3298.000000	96.977648 
3297.000000	96.976613 
3296.000000	96.976005 
3295.000000	96.976561 
3294.000000	96.978266 
3293.000000	96.980783 
3292.000000	96.983934 
3291.000000	96.987561 
3290.000000	96.991189 
3289.000000	96.994231 
3288.000000	96.996414 
3287.000000	96.997902 
3286.000000	96.999107 
3285.000000	97.000435 
3284.000000	97.002082 
3283.000000	97.003959 
3282.000000	97.005939 
3281.000000	97.008020 
3280.000000	97.009987 
3279.000000	97.011204 
3278.000000	97.011388 
3277.000000	97.011528 
3276.000000	97.013200 
3275.000000	97.016556 
3274.000000	97.019742 
3273.000000	97.021003 
3272.000000	97.020848 
3271.000000	97.021516 
3270.000000	97.024361 
3269.000000	97.028321 
3268.000000	97.031022 
3267.000000	97.031046 
3266.000000	97.029003 
3265.000000	97.026965 
3264.000000	97.026672 
3263.000000	97.028126 
3262.000000	97.030034 
3261.000000	97.031353 
3260.000000	97.031898 
3259.000000	97.031622 
3258.000000	97.030390 
3257.000000	97.028896 
3256.000000	97.028815 
3255.000000	97.031071 
3254.000000	97.034720 
3253.000000	97.038457 
3252.000000	97.042497 
3251.000000	97.047751 
3250.000000	97.053557 
3249.000000	97.057533 
3248.000000	97.058045 
3247.000000	97.056099 
3246.000000	97.054579 
3245.000000	97.055725 
3244.000000	97.059431 
3243.000000	97.063626 
3242.000000	97.066220 
3241.000000	97.066875 
3240.000000	97.066954 
3239.000000	97.068025 
3238.000000	97.070788 
3237.000000	97.075205 
3236.000000	97.080832 
3235.000000	97.086643 
3234.000000	97.091194 
3233.000000	97.093759 
3232.000000	97.095138 
3231.000000	97.096922 
3230.000000	97.100210 
3229.000000	97.105256 
3228.000000	97.111857 
3227.000000	97.119473 
3226.000000	97.127056 
3225.000000	97.133297 
3224.000000	97.137307 
3223.000000	97.139218 
3222.000000	97.140425 
3221.000000	97.143106 
3220.000000	97.148539 
3219.000000	97.155433 
3218.000000	97.160645 
3217.000000	97.161978 
3216.000000	97.159989 
3215.000000	97.157279 
3214.000000	97.156352 
3213.000000	97.158027 
3212.000000	97.161245 
3211.000000	97.163851 
3210.000000	97.164034 
3209.000000	97.161665 
3208.000000	97.158447 
3207.000000	97.156662 
3206.000000	97.157753 
3205.000000	97.161887 
3204.000000	97.168142 
3203.000000	97.174938 
3202.000000	97.180817 
3201.000000	97.185314 
3200.000000	97.188972 
3199.000000	97.192474 
3198.000000	97.195956 
3197.000000	97.199057 
3196.000000	97.201337 
3195.000000	97.202711 
3194.000000	97.203737 
3193.000000	97.205312 
3192.000000	97.207666 
3191.000000	97.209791 
3190.000000	97.210417 
3189.000000	97.209560 
3188.000000	97.208660 
3187.000000	97.209196 
3186.000000	97.211702 
3185.000000	97.215862 
3184.000000	97.220799 
3183.000000	97.225563 
3182.000000	97.229945 
3181.000000	97.234584 
3180.000000	97.239828 
3179.000000	97.244734 
3178.000000	97.247848 
3177.000000	97.248966 
3176.000000	97.249398 
3175.000000	97.250598 
3174.000000	97.253023 
3173.000000	97.256327 
3172.000000	97.259977 
3171.000000	97.263468 
3170.000000	97.266447 
3169.000000	97.268946 
3168.000000	97.271297 
3167.000000	97.273730 
3166.000000	97.276178 
3165.000000	97.278452 
3164.000000	97.280444 
3163.000000	97.282216 
3162.000000	97.284016 
3161.000000	97.286144 
3160.000000	97.288653 
3159.000000	97.291234 
3158.000000	97.293516 
3157.000000	97.295461 
3156.000000	97.297313 
3155.000000	97.299257 
3154.000000	97.301311 
3153.000000	97.303462 
3152.000000	97.305710 
3151.000000	97.307971 
3150.000000	97.310090 
3149.000000	97.312001 
3148.000000	97.313799 
3147.000000	97.315645 
3146.000000	97.317620 
3145.000000	97.319697 
3144.000000	97.321785 
3143.000000	97.323775 
3142.000000	97.325603 
3141.000000	97.327283 
3140.000000	97.328929 
3139.000000	97.330677 
3138.000000	97.332566 
3137.000000	97.334494 
3136.000000	97.336301 
3135.000000	97.337900 
3134.000000	97.339307 
3133.000000	97.340617 
3132.000000	97.341916 
3131.000000	97.343237 
3130.000000	97.344615 
3129.000000	97.346191 
3128.000000	97.348136 
3127.000000	97.350417 
3126.000000	97.352713 
3125.000000	97.354686 
3124.000000	97.356266 
3123.000000	97.357658 
3122.000000	97.359167 
3121.000000	97.360991 
3120.000000	97.363130 
3119.000000	97.365327 
3118.000000	97.367217 
3117.000000	97.368701 
3116.000000	97.370166 
3115.000000	97.372146 
3114.000000	97.374684 
3113.000000	97.377198 
3112.000000	97.379112 
3111.000000	97.380486 
3110.000000	97.381793 
3109.000000	97.383182 
3108.000000	97.384298 
3107.000000	97.384915 
3106.000000	97.385469 
3105.000000	97.386688 
3104.000000	97.388699 
3103.000000	97.390670 
3102.000000	97.391544 
3101.000000	97.391233 
3100.000000	97.390837 
3099.000000	97.391599 
3098.000000	97.393988 
3097.000000	97.397908 
3096.000000	97.402913 
3095.000000	97.407873 
3094.000000	97.411315 
3093.000000	97.412441 
3092.000000	97.411593 
3091.000000	97.409464 
3090.000000	97.406533 
3089.000000	97.403822 
3088.000000	97.403208 
3087.000000	97.405885 
3086.000000	97.410789 
3085.000000	97.415284 
3084.000000	97.417514 
3083.000000	97.417742 
3082.000000	97.418032 
3081.000000	97.421080 
3080.000000	97.428179 
3079.000000	97.437296 
3078.000000	97.444265 
3077.000000	97.447240 
3076.000000	97.448750 
3075.000000	97.452091 
3074.000000	97.456745 
3073.000000	97.459319 
3072.000000	97.458183 
3071.000000	97.454876 
3070.000000	97.451392 
3069.000000	97.448346 
3068.000000	97.445852 
3067.000000	97.444165 
3066.000000	97.443063 
3065.000000	97.442084 
3064.000000	97.441472 
3063.000000	97.441434 
3062.000000	97.440711 
3061.000000	97.437485 
3060.000000	97.431718 
3059.000000	97.425636 
3058.000000	97.422506 
3057.000000	97.425640 
3056.000000	97.436358 
3055.000000	97.450458 
3054.000000	97.458638 
3053.000000	97.454207 
3052.000000	97.440379 
3051.000000	97.427454 
3050.000000	97.422349 
3049.000000	97.423391 
3048.000000	97.425056 
3047.000000	97.423872 
3046.000000	97.418824 
3045.000000	97.410186 
3044.000000	97.400620 
3043.000000	97.394697 
3042.000000	97.394320 
3041.000000	97.395457 
3040.000000	97.391699 
3039.000000	97.380878 
3038.000000	97.366736 
3037.000000	97.354306 
3036.000000	97.344561 
3035.000000	97.333968 
3034.000000	97.319142 
3033.000000	97.301229 
3032.000000	97.284880 
3031.000000	97.273113 
3030.000000	97.264424 
3029.000000	97.255450 
3028.000000	97.244688 
3027.000000	97.232321 
3026.000000	97.218215 
3025.000000	97.202217 
3024.000000	97.185580 
3023.000000	97.169662 
3022.000000	97.153258 
3021.000000	97.133401 
3020.000000	97.108944 
3019.000000	97.081492 
3018.000000	97.052840 
3017.000000	97.023440 
3016.000000	96.993502 
3015.000000	96.963637 
3014.000000	96.934260 
3013.000000	96.905928 
3012.000000	96.879978 
3011.000000	96.856870 
3010.000000	96.834196 
3009.000000	96.808535 
3008.000000	96.779301 
3007.000000	96.748962 
3006.000000	96.719871 
3005.000000	96.693304 
3004.000000	96.671192 
3003.000000	96.655195 
3002.000000	96.642942 
3001.000000	96.628343 
3000.000000	96.607667 
2999.000000	96.583312 
2998.000000	96.560252 
2997.000000	96.540825 
2996.000000	96.524206 
2995.000000	96.508223 
2994.000000	96.488785 
2993.000000	96.459466 
2992.000000	96.416003 
2991.000000	96.362545 
2990.000000	96.311772 
2989.000000	96.277390 
2988.000000	96.266132 
2987.000000	96.275305 
2986.000000	96.295454 
2985.000000	96.315711 
2984.000000	96.329050 
2983.000000	96.334692 
2982.000000	96.336392 
2981.000000	96.338269 
2980.000000	96.341299 
2979.000000	96.342619 
2978.000000	96.338073 
2977.000000	96.326294 
2976.000000	96.310940 
2975.000000	96.298518 
2974.000000	96.293707 
2973.000000	96.296821 
2972.000000	96.304986 
2971.000000	96.314585 
2970.000000	96.322963 
2969.000000	96.329749 
2968.000000	96.337322 
2967.000000	96.348681 
2966.000000	96.364089 
2965.000000	96.380900 
2964.000000	96.397150 
2963.000000	96.413694 
2962.000000	96.431653 
2961.000000	96.449451 
2960.000000	96.464573 
2959.000000	96.477624 
2958.000000	96.492518 
2957.000000	96.512167 
2956.000000	96.535127 
2955.000000	96.556825 
2954.000000	96.573560 
2953.000000	96.585541 
2952.000000	96.596804 
2951.000000	96.611910 
2950.000000	96.631401 
2949.000000	96.650295 
2948.000000	96.662076 
2947.000000	96.664365 
2946.000000	96.660526 
2945.000000	96.656208 
2944.000000	96.654932 
2943.000000	96.657120 
2942.000000	96.661834 
2941.000000	96.667627 
2940.000000	96.672182 
2939.000000	96.673161 
2938.000000	96.670323 
2937.000000	96.666026 
2936.000000	96.662544 
2935.000000	96.659154 
2934.000000	96.653133 
2933.000000	96.643654 
2932.000000	96.633239 
2931.000000	96.624526 
2930.000000	96.616879 
2929.000000	96.607940 
2928.000000	96.597985 
2927.000000	96.590517 
2926.000000	96.587988 
2925.000000	96.588852 
2924.000000	96.590107 
2923.000000	96.591283 
2922.000000	96.594071 
2921.000000	96.598899 
2920.000000	96.604113 
2919.000000	96.608464 
2918.000000	96.612086 
2917.000000	96.614074 
2916.000000	96.611215 
2915.000000	96.601405 
2914.000000	96.587880 
2913.000000	96.577799 
2912.000000	96.575572 
2911.000000	96.578546 
2910.000000	96.579969 
2909.000000	96.575981 
2908.000000	96.569082 
2907.000000	96.564785 
2906.000000	96.565415 
2905.000000	96.567209 
2904.000000	96.563761 
2903.000000	96.553437 
2902.000000	96.543413 
2901.000000	96.544748 
2900.000000	96.562587 
2899.000000	96.591645 
2898.000000	96.620909 
2897.000000	96.642560 
2896.000000	96.655388 
2895.000000	96.661414 
2894.000000	96.663217 
2893.000000	96.664739 
2892.000000	96.670742 
2891.000000	96.682646 
2890.000000	96.696432 
2889.000000	96.706993 
2888.000000	96.713744 
2887.000000	96.719851 
2886.000000	96.727022 
2885.000000	96.734171 
2884.000000	96.741521 
2883.000000	96.752757 
2882.000000	96.771101 
2881.000000	96.794788 
2880.000000	96.818330 
2879.000000	96.837802 
2878.000000	96.853205 
2877.000000	96.866004 
2876.000000	96.876415 
2875.000000	96.884099 
2874.000000	96.890299 
2873.000000	96.897655 
2872.000000	96.907659 
2871.000000	96.919212 
2870.000000	96.930315 
2869.000000	96.940644 
2868.000000	96.951698 
2867.000000	96.964663 
2866.000000	96.979140 
2865.000000	96.994398 
2864.000000	97.011121 
2863.000000	97.030982 
2862.000000	97.054440 
2861.000000	97.079309 
2860.000000	97.101721 
2859.000000	97.118843 
2858.000000	97.131302 
2857.000000	97.143238 
2856.000000	97.158968 
2855.000000	97.178670 
2854.000000	97.197843 
2853.000000	97.211767 
2852.000000	97.220153 
2851.000000	97.227123 
2850.000000	97.237121 
2849.000000	97.251340 
2848.000000	97.267727 
2847.000000	97.283322 
2846.000000	97.296373 
2845.000000	97.307063 
2844.000000	97.316938 
2843.000000	97.327767 
2842.000000	97.340646 
2841.000000	97.355515 
2840.000000	97.370889 
2839.000000	97.384308 
2838.000000	97.393910 
2837.000000	97.400024 
2836.000000	97.404973 
2835.000000	97.411226 
2834.000000	97.419985 
2833.000000	97.431213 
2832.000000	97.443654 
2831.000000	97.454540 
2830.000000	97.460698 
2829.000000	97.461040 
2828.000000	97.457626 
2827.000000	97.454036 
2826.000000	97.453325 
2825.000000	97.457218 
2824.000000	97.465357 
2823.000000	97.474374 
2822.000000	97.479709 
2821.000000	97.480090 
2820.000000	97.479078 
2819.000000	97.480626 
2818.000000	97.484360 
2817.000000	97.487392 
2816.000000	97.489488 
2815.000000	97.493376 
2814.000000	97.500023 
2813.000000	97.506584 
2812.000000	97.510001 
2811.000000	97.510435 
2810.000000	97.510069 
2809.000000	97.510411 
2808.000000	97.512216 
2807.000000	97.516597 
2806.000000	97.524128 
2805.000000	97.533189 
2804.000000	97.540809 
2803.000000	97.545599 
2802.000000	97.549129 
2801.000000	97.554085 
2800.000000	97.561233 
2799.000000	97.568283 
2798.000000	97.571784 
2797.000000	97.570261 
2796.000000	97.565554 
2795.000000	97.561353 
2794.000000	97.560212 
2793.000000	97.561995 
2792.000000	97.564901 
2791.000000	97.567272 
2790.000000	97.568486 
2789.000000	97.568747 
2788.000000	97.568571 
2787.000000	97.568470 
2786.000000	97.568882 
2785.000000	97.570139 
2784.000000	97.572193 
2783.000000	97.574376 
2782.000000	97.575898 
2781.000000	97.576888 
2780.000000	97.578505 
2779.000000	97.581466 
2778.000000	97.584788 
2777.000000	97.586701 
2776.000000	97.586744 
2775.000000	97.586237 
2774.000000	97.586614 
2773.000000	97.588041 
2772.000000	97.589954 
2771.000000	97.592186 
2770.000000	97.594983 
2769.000000	97.598292 
2768.000000	97.601664 
2767.000000	97.604732 
2766.000000	97.607394 
2765.000000	97.609633 
2764.000000	97.611463 
2763.000000	97.612964 
2762.000000	97.614124 
2761.000000	97.614768 
2760.000000	97.614929 
2759.000000	97.615106 
2758.000000	97.615814 
2757.000000	97.616867 
2756.000000	97.617466 
2755.000000	97.617199 
2754.000000	97.616767 
2753.000000	97.617380 
2752.000000	97.619495 
2751.000000	97.622515 
2750.000000	97.625822 
2749.000000	97.629641 
2748.000000	97.634221 
2747.000000	97.638455 
2746.000000	97.640413 
2745.000000	97.639502 
2744.000000	97.637393 
2743.000000	97.636471 
2742.000000	97.637542 
2741.000000	97.639774 
2740.000000	97.642146 
2739.000000	97.643997 
2738.000000	97.644605 
2737.000000	97.643438 
2736.000000	97.641084 
2735.000000	97.639138 
2734.000000	97.638616 
2733.000000	97.639098 
2732.000000	97.639727 
2731.000000	97.640405 
2730.000000	97.641467 
2729.000000	97.642656 
2728.000000	97.643160 
2727.000000	97.642635 
2726.000000	97.641695 
2725.000000	97.641274 
2724.000000	97.641749 
2723.000000	97.642747 
2722.000000	97.643596 
2721.000000	97.643973 
2720.000000	97.644280 
2719.000000	97.645333 
2718.000000	97.647543 
2717.000000	97.650397 
2716.000000	97.652767 
2715.000000	97.653896 
2714.000000	97.653957 
2713.000000	97.653754 
2712.000000	97.653983 
2711.000000	97.654781 
2710.000000	97.655963 
2709.000000	97.657365 
2708.000000	97.658776 
2707.000000	97.659717 
2706.000000	97.659723 
2705.000000	97.658913 
2704.000000	97.658042 
2703.000000	97.657765 
2702.000000	97.658052 
2701.000000	97.658591 
2700.000000	97.659509 
2699.000000	97.661185 
2698.000000	97.663412 
2697.000000	97.665263 
2696.000000	97.666057 
2695.000000	97.666091 
2694.000000	97.666197 
2693.000000	97.666712 
2692.000000	97.667232 
2691.000000	97.667407 
2690.000000	97.667463 
2689.000000	97.667776 
2688.000000	97.668321 
2687.000000	97.668806 
2686.000000	97.669198 
2685.000000	97.669755 
2684.000000	97.670562 
2683.000000	97.671342 
2682.000000	97.671858 
2681.000000	97.672238 
2680.000000	97.672763 
2679.000000	97.673550 
2678.000000	97.674670 
2677.000000	97.676421 
2676.000000	97.678979 
2675.000000	97.681624 
2674.000000	97.682901 
2673.000000	97.681961 
2672.000000	97.679483 
2671.000000	97.676956 
2670.000000	97.675217 
2669.000000	97.674326 
2668.000000	97.674403 
2667.000000	97.675481 
2666.000000	97.676533 
2665.000000	97.675818 
2664.000000	97.672875 
2663.000000	97.669519 
2662.000000	97.668058 
2661.000000	97.668829 
2660.000000	97.670232 
2659.000000	97.670755 
2658.000000	97.670208 
2657.000000	97.669159 
2656.000000	97.668215 
2655.000000	97.667970 
2654.000000	97.668728 
2653.000000	97.669895 
2652.000000	97.670418 
2651.000000	97.670305 
2650.000000	97.671008 
2649.000000	97.673723 
2648.000000	97.677643 
2647.000000	97.680431 
2646.000000	97.680120 
2645.000000	97.676195 
2644.000000	97.669555 
2643.000000	97.662220 
2642.000000	97.656488 
2641.000000	97.653242 
2640.000000	97.651045 
2639.000000	97.647720 
2638.000000	97.643031 
2637.000000	97.639030 
2636.000000	97.637539 
2635.000000	97.638383 
2634.000000	97.640455 
2633.000000	97.643218 
2632.000000	97.646389 
2631.000000	97.649084 
2630.000000	97.650646 
2629.000000	97.652047 
2628.000000	97.654922 
2627.000000	97.659222 
2626.000000	97.663059 
2625.000000	97.665031 
2624.000000	97.665627 
2623.000000	97.665807 
2622.000000	97.665257 
2621.000000	97.663077 
2620.000000	97.659591 
2619.000000	97.656496 
2618.000000	97.655303 
2617.000000	97.656075 
2616.000000	97.657702 
2615.000000	97.658954 
2614.000000	97.659171 
2613.000000	97.658398 
2612.000000	97.657279 
2611.000000	97.656725 
2610.000000	97.657301 
2609.000000	97.658736 
2608.000000	97.660139 
2607.000000	97.660841 
2606.000000	97.660985 
2605.000000	97.661108 
2604.000000	97.661346 
2603.000000	97.661419 
2602.000000	97.661244 
2601.000000	97.661108 
2600.000000	97.661209 
2599.000000	97.661394 
2598.000000	97.661477 
2597.000000	97.661500 
2596.000000	97.661560 
2595.000000	97.661630 
2594.000000	97.661657 
2593.000000	97.661665 
2592.000000	97.661696 
2591.000000	97.661744 
2590.000000	97.661775 
2589.000000	97.661761 
2588.000000	97.661702 
2587.000000	97.661616 
2586.000000	97.661530 
2585.000000	97.661457 
2584.000000	97.661389 
2583.000000	97.661312 
2582.000000	97.661219 
2581.000000	97.661129 
2580.000000	97.661095 
2579.000000	97.661158 
2578.000000	97.661313 
2577.000000	97.661519 
2576.000000	97.661732 
2575.000000	97.661922 
2574.000000	97.662076 
2573.000000	97.662198 
2572.000000	97.662318 
2571.000000	97.662462 
2570.000000	97.662630 
2569.000000	97.662815 
2568.000000	97.663019 
2567.000000	97.663239 
2566.000000	97.663451 
2565.000000	97.663605 
2564.000000	97.663683 
2563.000000	97.663703 
2562.000000	97.663723 
2561.000000	97.663786 
2560.000000	97.663907 
2559.000000	97.664083 
2558.000000	97.664296 
2557.000000	97.664490 
2556.000000	97.664604 
2555.000000	97.664624 
2554.000000	97.664612 
2553.000000	97.664623 
2552.000000	97.664637 
2551.000000	97.664614 
2550.000000	97.664561 
2549.000000	97.664521 
2548.000000	97.664509 
2547.000000	97.664511 
2546.000000	97.664527 
2545.000000	97.664579 
2544.000000	97.664651 
2543.000000	97.664687 
2542.000000	97.664678 
2541.000000	97.664697 
2540.000000	97.664801 
2539.000000	97.664944 
2538.000000	97.665039 
2537.000000	97.665101 
2536.000000	97.665278 
2535.000000	97.665648 
2534.000000	97.665903 
2533.000000	97.665550 
2532.000000	97.664483 
2531.000000	97.663270 
2530.000000	97.662565 
2529.000000	97.662448 
2528.000000	97.662421 
2527.000000	97.661876 
2526.000000	97.660558 
2525.000000	97.658816 
2524.000000	97.657600 
2523.000000	97.657887 
2522.000000	97.659757 
2521.000000	97.661910 
2520.000000	97.662751 
2519.000000	97.662065 
2518.000000	97.661126 
2517.000000	97.660992 
2516.000000	97.661130 
2515.000000	97.660457 
2514.000000	97.659318 
2513.000000	97.659369 
2512.000000	97.661278 
2511.000000	97.663544 
2510.000000	97.664345 
2509.000000	97.663953 
2508.000000	97.664274 
2507.000000	97.666218 
2506.000000	97.668546 
2505.000000	97.669359 
2504.000000	97.667721 
2503.000000	97.663770 
2502.000000	97.658529 
2501.000000	97.654062 
2500.000000	97.652187 
2499.000000	97.652088 
2498.000000	97.650398 
2497.000000	97.645195 
2496.000000	97.639297 
2495.000000	97.637734 
2494.000000	97.642146 
2493.000000	97.649224 
2492.000000	97.654624 
2491.000000	97.657402 
2490.000000	97.659613 
2489.000000	97.662938 
2488.000000	97.667064 
2487.000000	97.670859 
2486.000000	97.673979 
2485.000000	97.677046 
2484.000000	97.680727 
2483.000000	97.684895 
2482.000000	97.688438 
2481.000000	97.689891 
2480.000000	97.688715 
2479.000000	97.686125 
2478.000000	97.684277 
2477.000000	97.684201 
2476.000000	97.684827 
2475.000000	97.684523 
2474.000000	97.683232 
2473.000000	97.682332 
2472.000000	97.682464 
2471.000000	97.682527 
2470.000000	97.681399 
2469.000000	97.679859 
2468.000000	97.679834 
2467.000000	97.681998 
2466.000000	97.685029 
2465.000000	97.687259 
2464.000000	97.688572 
2463.000000	97.690378 
2462.000000	97.694026 
2461.000000	97.699310 
2460.000000	97.704201 
2459.000000	97.706243 
2458.000000	97.704614 
2457.000000	97.700916 
2456.000000	97.698085 
2455.000000	97.697895 
2454.000000	97.699755 
2453.000000	97.701623 
2452.000000	97.701828 
2451.000000	97.700276 
2450.000000	97.698254 
2449.000000	97.697192 
2448.000000	97.697394 
2447.000000	97.698004 
2446.000000	97.698201 
2445.000000	97.698147 
2444.000000	97.698511 
2443.000000	97.699476 
2442.000000	97.700733 
2441.000000	97.702122 
2440.000000	97.703619 
2439.000000	97.704862 
2438.000000	97.705542 
2437.000000	97.706346 
2436.000000	97.708556 
2435.000000	97.712303 
2434.000000	97.715823 
2433.000000	97.717197 
2432.000000	97.716502 
2431.000000	97.715783 
2430.000000	97.717002 
2429.000000	97.720355 
2428.000000	97.724308 
2427.000000	97.726767 
2426.000000	97.726443 
2425.000000	97.723582 
2424.000000	97.720000 
2423.000000	97.717932 
2422.000000	97.718571 
2421.000000	97.721548 
2420.000000	97.725235 
2419.000000	97.727519 
2418.000000	97.727378 
2417.000000	97.726254 
2416.000000	97.726667 
2415.000000	97.728894 
2414.000000	97.730634 
2413.000000	97.730618 
2412.000000	97.730526 
2411.000000	97.731905 
2410.000000	97.733162 
2409.000000	97.731698 
2408.000000	97.727734 
2407.000000	97.723997 
2406.000000	97.722451 
2405.000000	97.722868 
2404.000000	97.723792 
2403.000000	97.723610 
2402.000000	97.721744 
2401.000000	97.720165 
2400.000000	97.722428 
2399.000000	97.729539 
2398.000000	97.738198 
2397.000000	97.744888 
2396.000000	97.749966 
2395.000000	97.755436 
2394.000000	97.760261 
2393.000000	97.761464 
2392.000000	97.759512 
2391.000000	97.759203 
2390.000000	97.764285 
2389.000000	97.773573 
2388.000000	97.783289 
2387.000000	97.791275 
2386.000000	97.797696 
2385.000000	97.802946 
2384.000000	97.806730 
2383.000000	97.808175 
2382.000000	97.805711 
2381.000000	97.797623 
2380.000000	97.783656 
2379.000000	97.766036 
2378.000000	97.748428 
2377.000000	97.734374 
2376.000000	97.727008 
2375.000000	97.728644 
2374.000000	97.738872 
2373.000000	97.753378 
2372.000000	97.766704 
2371.000000	97.776401 
2370.000000	97.783037 
2369.000000	97.786974 
2368.000000	97.787473 
2367.000000	97.784618 
2366.000000	97.780132 
2365.000000	97.776155 
2364.000000	97.774155 
2363.000000	97.774620 
2362.000000	97.777347 
2361.000000	97.781557 
2360.000000	97.786158 
2359.000000	97.790268 
2358.000000	97.792760 
2357.000000	97.793074 
2356.000000	97.792046 
2355.000000	97.791021 
2354.000000	97.790456 
2353.000000	97.790607 
2352.000000	97.791879 
2351.000000	97.793901 
2350.000000	97.795742 
2349.000000	97.796957 
2348.000000	97.797842 
2347.000000	97.798775 
2346.000000	97.799920 
2345.000000	97.801197 
2344.000000	97.802533 
2343.000000	97.803895 
2342.000000	97.805243 
2341.000000	97.806576 
2340.000000	97.807924 
2339.000000	97.809312 
2338.000000	97.810745 
2337.000000	97.812209 
2336.000000	97.813679 
2335.000000	97.815117 
2334.000000	97.816471 
2333.000000	97.817698 
2332.000000	97.818780 
2331.000000	97.819746 
2330.000000	97.820689 
2329.000000	97.821648 
2328.000000	97.822576 
2327.000000	97.823381 
2326.000000	97.823821 
2325.000000	97.823603 
2324.000000	97.823009 
2323.000000	97.822730 
2322.000000	97.822853 
2321.000000	97.822485 
2320.000000	97.821316 
2319.000000	97.820122 
2318.000000	97.819249 
2317.000000	97.817170 
2316.000000	97.812717 
2315.000000	97.807385 
2314.000000	97.804374 
2313.000000	97.804951 
2312.000000	97.808492 
2311.000000	97.814216 
2310.000000	97.820949 
2309.000000	97.825465 
2308.000000	97.824845 
2307.000000	97.820251 
2306.000000	97.816033 
2305.000000	97.814959 
2304.000000	97.815923 
2303.000000	97.816282 
2302.000000	97.815554 
2301.000000	97.814786 
2300.000000	97.813764 
2299.000000	97.810373 
2298.000000	97.804076 
2297.000000	97.796030 
2296.000000	97.787826 
2295.000000	97.779074 
2294.000000	97.768803 
2293.000000	97.757615 
2292.000000	97.748372 
2291.000000	97.742982 
2290.000000	97.740462 
2289.000000	97.738447 
2288.000000	97.735227 
2287.000000	97.729230 
2286.000000	97.718549 
2285.000000	97.703935 
2284.000000	97.690363 
2283.000000	97.683050 
2282.000000	97.681840 
2281.000000	97.682166 
2280.000000	97.680321 
2279.000000	97.675515 
2278.000000	97.667763 
2277.000000	97.657952 
2276.000000	97.650093 
2275.000000	97.648876 
2274.000000	97.653997 
2273.000000	97.659899 
2272.000000	97.662349 
2271.000000	97.662040 
2270.000000	97.661012 
2269.000000	97.659582 
2268.000000	97.658303 
2267.000000	97.659066 
2266.000000	97.662218 
2265.000000	97.664959 
2264.000000	97.664318 
2263.000000	97.660155 
2262.000000	97.654573 
2261.000000	97.649921 
2260.000000	97.647628 
2259.000000	97.647355 
2258.000000	97.647111 
2257.000000	97.645338 
2256.000000	97.642753 
2255.000000	97.641134 
2254.000000	97.640783 
2253.000000	97.640302 
2252.000000	97.638566 
2251.000000	97.635792 
2250.000000	97.632795 
2249.000000	97.630171 
2248.000000	97.628211 
2247.000000	97.626889 
2246.000000	97.625826 
2245.000000	97.624562 
2244.000000	97.622990 
2243.000000	97.621329 
2242.000000	97.619766 
2241.000000	97.618295 
2240.000000	97.616840 
2239.000000	97.615362 
2238.000000	97.613851 
2237.000000	97.612294 
2236.000000	97.610679 
2235.000000	97.608994 
2234.000000	97.607223 
2233.000000	97.605360 
2232.000000	97.603419 
2231.000000	97.601438 
2230.000000	97.599459 
2229.000000	97.597493 
2228.000000	97.595544 
2227.000000	97.593606 
2226.000000	97.591674 
2225.000000	97.589713 
2224.000000	97.587590 
2223.000000	97.585188 
2222.000000	97.582650 
2221.000000	97.580394 
2220.000000	97.578693 
2219.000000	97.577322 
2218.000000	97.575627 
2217.000000	97.573300 
2216.000000	97.570850 
2215.000000	97.568987 
2214.000000	97.567604 
2213.000000	97.565899 
2212.000000	97.563607 
2211.000000	97.561456 
2210.000000	97.560259 
2209.000000	97.560283 
2208.000000	97.561537 
2207.000000	97.563840 
2206.000000	97.566148 
2205.000000	97.566882 
2204.000000	97.565570 
2203.000000	97.563606 
2202.000000	97.562777 
2201.000000	97.563011 
2200.000000	97.562438 
2199.000000	97.559761 
2198.000000	97.555909 
2197.000000	97.552992 
2196.000000	97.551825 
2195.000000	97.550581 
2194.000000	97.546273 
2193.000000	97.538400 
2192.000000	97.530964 
2191.000000	97.529138 
2190.000000	97.534042 
2189.000000	97.541828 
2188.000000	97.547782 
2187.000000	97.550271 
2186.000000	97.549752 
2185.000000	97.546776 
2184.000000	97.542984 
2183.000000	97.542288 
2182.000000	97.548126 
2181.000000	97.559370 
2180.000000	97.570391 
2179.000000	97.576460 
2178.000000	97.577944 
2177.000000	97.578806 
2176.000000	97.581613 
2175.000000	97.584671 
2174.000000	97.584770 
2173.000000	97.581999 
2172.000000	97.580181 
2171.000000	97.581724 
2170.000000	97.583885 
2169.000000	97.582242 
2168.000000	97.576899 
2167.000000	97.572672 
2166.000000	97.572568 
2165.000000	97.573388 
2164.000000	97.569263 
2163.000000	97.558577 
2162.000000	97.546582 
2161.000000	97.541659 
2160.000000	97.549018 
2159.000000	97.566974 
2158.000000	97.587192 
2157.000000	97.600769 
2156.000000	97.604873 
2155.000000	97.602398 
2154.000000	97.598005 
2153.000000	97.595603 
2152.000000	97.597305 
2151.000000	97.602122 
2150.000000	97.606313 
2149.000000	97.607740 
2148.000000	97.609481 
2147.000000	97.616144 
2146.000000	97.627242 
2145.000000	97.637794 
2144.000000	97.645652 
2143.000000	97.653995 
2142.000000	97.664949 
2141.000000	97.674854 
2140.000000	97.678728 
2139.000000	97.676980 
2138.000000	97.675125 
2137.000000	97.677783 
2136.000000	97.684305 
2135.000000	97.689294 
2134.000000	97.686875 
2133.000000	97.676047 
2132.000000	97.662853 
2131.000000	97.655848 
2130.000000	97.658964 
2129.000000	97.669891 
2128.000000	97.683797 
2127.000000	97.696610 
2126.000000	97.705245 
2125.000000	97.708257 
2124.000000	97.707804 
2123.000000	97.708189 
2122.000000	97.710477 
2121.000000	97.710692 
2120.000000	97.705029 
2119.000000	97.694435 
2118.000000	97.682969 
2117.000000	97.674023 
2116.000000	97.668720 
2115.000000	97.665726 
2114.000000	97.661341 
2113.000000	97.652274 
2112.000000	97.640468 
2111.000000	97.632926 
2110.000000	97.634672 
2109.000000	97.643484 
2108.000000	97.652640 
2107.000000	97.657556 
2106.000000	97.658318 
2105.000000	97.657726 
2104.000000	97.658737 
2103.000000	97.662176 
2102.000000	97.665200 
2101.000000	97.663193 
2100.000000	97.654531 
2099.000000	97.642603 
2098.000000	97.632922 
2097.000000	97.629294 
2096.000000	97.632686 
2095.000000	97.641182 
2094.000000	97.649809 
2093.000000	97.653397 
2092.000000	97.651522 
2091.000000	97.648831 
2090.000000	97.649761 
2089.000000	97.654704 
2088.000000	97.661890 
2087.000000	97.669928 
2086.000000	97.676718 
2085.000000	97.678771 
2084.000000	97.674594 
2083.000000	97.667140 
2082.000000	97.660770 
2081.000000	97.656994 
2080.000000	97.655193 
2079.000000	97.655415 
2078.000000	97.657681 
2077.000000	97.659820 
2076.000000	97.659056 
2075.000000	97.655400 
2074.000000	97.651027 
2073.000000	97.646892 
2072.000000	97.641945 
2071.000000	97.635375 
2070.000000	97.627943 
2069.000000	97.621423 
2068.000000	97.618061 
2067.000000	97.619561 
2066.000000	97.624677 
2065.000000	97.628590 
2064.000000	97.627004 
2063.000000	97.620838 
2062.000000	97.615329 
2061.000000	97.615010 
2060.000000	97.620875 
2059.000000	97.631240 
2058.000000	97.642920 
2057.000000	97.652251 
2056.000000	97.656850 
2055.000000	97.656367 
2054.000000	97.651239 
2053.000000	97.642284 
2052.000000	97.632350 
2051.000000	97.625342 
2050.000000	97.622662 
2049.000000	97.621685 
2048.000000	97.619570 
2047.000000	97.617283 
2046.000000	97.617107 
2045.000000	97.618246 
2044.000000	97.618053 
2043.000000	97.616105 
2042.000000	97.614124 
2041.000000	97.612521 
2040.000000	97.610095 
2039.000000	97.607286 
2038.000000	97.606629 
2037.000000	97.609378 
2036.000000	97.614002 
2035.000000	97.618397 
2034.000000	97.621898 
2033.000000	97.625283 
2032.000000	97.629993 
2031.000000	97.635989 
2030.000000	97.639606 
2029.000000	97.636979 
2028.000000	97.630856 
2027.000000	97.629485 
2026.000000	97.635751 
2025.000000	97.642696 
2024.000000	97.644106 
2023.000000	97.644217 
2022.000000	97.650922 
2021.000000	97.662790 
2020.000000	97.670000 
2019.000000	97.666376 
2018.000000	97.654215 
2017.000000	97.638990 
2016.000000	97.624521 
2015.000000	97.611977 
2014.000000	97.598946 
2013.000000	97.581663 
2012.000000	97.563841 
2011.000000	97.559975 
2010.000000	97.581868 
2009.000000	97.623058 
2008.000000	97.661326 
2007.000000	97.681426 
2006.000000	97.688543 
2005.000000	97.697921 
2004.000000	97.718466 
2003.000000	97.747034 
2002.000000	97.772430 
2001.000000	97.781698 
2000.000000	97.769031 
1999.000000	97.741162 
1998.000000	97.711977 
1997.000000	97.690426 
1996.000000	97.675319 
1995.000000	97.662099 
1994.000000	97.649753 
1993.000000	97.639926 
1992.000000	97.633059 
1991.000000	97.629113 
1990.000000	97.630028 
1989.000000	97.637470 
1988.000000	97.648696 
1987.000000	97.657532 
1986.000000	97.660210 
1985.000000	97.658747 
1984.000000	97.657656 
1983.000000	97.658208 
1982.000000	97.657948 
1981.000000	97.655490 
1980.000000	97.653989 
1979.000000	97.656680 
1978.000000	97.660260 
1977.000000	97.657826 
1976.000000	97.648486 
1975.000000	97.639407 
1974.000000	97.636767 
1973.000000	97.639765 
1972.000000	97.644499 
1971.000000	97.648873 
1970.000000	97.650854 
1969.000000	97.646133 
1968.000000	97.632414 
1967.000000	97.615352 
1966.000000	97.605604 
1965.000000	97.609421 
1964.000000	97.625149 
1963.000000	97.647087 
1962.000000	97.669802 
1961.000000	97.688232 
1960.000000	97.697769 
1959.000000	97.696774 
1958.000000	97.688711 
1957.000000	97.680693 
1956.000000	97.677938 
1955.000000	97.679864 
1954.000000	97.682164 
1953.000000	97.682089 
1952.000000	97.679979 
1951.000000	97.677041 
1950.000000	97.674303 
1949.000000	97.673083 
1948.000000	97.674472 
1947.000000	97.676619 
1946.000000	97.674846 
1945.000000	97.666880 
1944.000000	97.656535 
1943.000000	97.649806 
1942.000000	97.647755 
1941.000000	97.646377 
1940.000000	97.642559 
1939.000000	97.636425 
1938.000000	97.629736 
1937.000000	97.625487 
1936.000000	97.627401 
1935.000000	97.636318 
1934.000000	97.647734 
1933.000000	97.656201 
1932.000000	97.660904 
1931.000000	97.664206 
1930.000000	97.666058 
1929.000000	97.663703 
1928.000000	97.658646 
1927.000000	97.656634 
1926.000000	97.660409 
1925.000000	97.665698 
1924.000000	97.666220 
1923.000000	97.661402 
1922.000000	97.655392 
1921.000000	97.651844 
1920.000000	97.651884 
1919.000000	97.654993 
1918.000000	97.658495 
1917.000000	97.658601 
1916.000000	97.655689 
1915.000000	97.654779 
1914.000000	97.659089 
1913.000000	97.666667 
1912.000000	97.672915 
1911.000000	97.675938 
1910.000000	97.677092 
1909.000000	97.678003 
1908.000000	97.680216 
1907.000000	97.684350 
1906.000000	97.688819 
1905.000000	97.690277 
1904.000000	97.687324 
1903.000000	97.683628 
1902.000000	97.682589 
1901.000000	97.682133 
1900.000000	97.678797 
1899.000000	97.673262 
1898.000000	97.669023 
1897.000000	97.667206 
1896.000000	97.665538 
1895.000000	97.662799 
1894.000000	97.660429 
1893.000000	97.660097 
1892.000000	97.662027 
1891.000000	97.665385 
1890.000000	97.668229 
1889.000000	97.668359 
1888.000000	97.666903 
1887.000000	97.668389 
1886.000000	97.674995 
1885.000000	97.683423 
1884.000000	97.688267 
1883.000000	97.688046 
1882.000000	97.685446 
1881.000000	97.683428 
1880.000000	97.683580 
1879.000000	97.685656 
1878.000000	97.687435 
1877.000000	97.686612 
1876.000000	97.683309 
1875.000000	97.680432 
1874.000000	97.680478 
1873.000000	97.682676 
1872.000000	97.684882 
1871.000000	97.686799 
1870.000000	97.689452 
1869.000000	97.692782 
1868.000000	97.696348 
1867.000000	97.701119 
1866.000000	97.706800 
1865.000000	97.710622 
1864.000000	97.711274 
1863.000000	97.711171 
1862.000000	97.713507 
1861.000000	97.718130 
1860.000000	97.722280 
1859.000000	97.724678 
1858.000000	97.726494 
1857.000000	97.728719 
1856.000000	97.730889 
1855.000000	97.732508 
1854.000000	97.733627 
1853.000000	97.733761 
1852.000000	97.733169 
1851.000000	97.733256 
1850.000000	97.734678 
1849.000000	97.737082 
1848.000000	97.740129 
1847.000000	97.744350 
1846.000000	97.749490 
1845.000000	97.753416 
1844.000000	97.754074 
1843.000000	97.752863 
1842.000000	97.752810 
1841.000000	97.753648 
1840.000000	97.754139 
1839.000000	97.754820 
1838.000000	97.756564 
1837.000000	97.758290 
1836.000000	97.758309 
1835.000000	97.757448 
1834.000000	97.757646 
1833.000000	97.758928 
1832.000000	97.760043 
1831.000000	97.760420 
1830.000000	97.760517 
1829.000000	97.761104 
1828.000000	97.762610 
1827.000000	97.765113 
1826.000000	97.768366 
1825.000000	97.771515 
1824.000000	97.773109 
1823.000000	97.773183 
1822.000000	97.773053 
1821.000000	97.772949 
1820.000000	97.772004 
1819.000000	97.770134 
1818.000000	97.768970 
1817.000000	97.769041 
1816.000000	97.768622 
1815.000000	97.767013 
1814.000000	97.765421 
1813.000000	97.765007 
1812.000000	97.765077 
1811.000000	97.764400 
1810.000000	97.763554 
1809.000000	97.763510 
1808.000000	97.763992 
1807.000000	97.764208 
1806.000000	97.763747 
1805.000000	97.762425 
1804.000000	97.760442 
1803.000000	97.759139 
1802.000000	97.759774 
1801.000000	97.761910 
1800.000000	97.763216 
1799.000000	97.762159 
1798.000000	97.759895 
1797.000000	97.758189 
1796.000000	97.757493 
1795.000000	97.757454 
1794.000000	97.757920 
1793.000000	97.758848 
1792.000000	97.759463 
1791.000000	97.759475 
1790.000000	97.760051 
1789.000000	97.761346 
1788.000000	97.762589 
1787.000000	97.763642 
1786.000000	97.764900 
1785.000000	97.765657 
1784.000000	97.764624 
1783.000000	97.762580 
1782.000000	97.761161 
1781.000000	97.761515 
1780.000000	97.763635 
1779.000000	97.766322 
1778.000000	97.769054 
1777.000000	97.771405 
1776.000000	97.773360 
1775.000000	97.774712 
1774.000000	97.775031 
1773.000000	97.774823 
1772.000000	97.775134 
1771.000000	97.776688 
1770.000000	97.780190 
1769.000000	97.784962 
1768.000000	97.788998 
1767.000000	97.790614 
1766.000000	97.789810 
1765.000000	97.788210 
1764.000000	97.787091 
1763.000000	97.787036 
1762.000000	97.787861 
1761.000000	97.789182 
1760.000000	97.790501 
1759.000000	97.791023 
1758.000000	97.790656 
1757.000000	97.790018 
1756.000000	97.790358 
1755.000000	97.791109 
1754.000000	97.790508 
1753.000000	97.788081 
1752.000000	97.785850 
1751.000000	97.785500 
1750.000000	97.786674 
1749.000000	97.787971 
1748.000000	97.788521 
1747.000000	97.788720 
1746.000000	97.788589 
1745.000000	97.788897 
1744.000000	97.790350 
1743.000000	97.792186 
1742.000000	97.793326 
1741.000000	97.793588 
1740.000000	97.793414 
1739.000000	97.793710 
1738.000000	97.795339 
1737.000000	97.797019 
1736.000000	97.796815 
1735.000000	97.795275 
1734.000000	97.793272 
1733.000000	97.790819 
1732.000000	97.790211 
1731.000000	97.791649 
1730.000000	97.793899 
1729.000000	97.795517 
1728.000000	97.795431 
1727.000000	97.793847 
1726.000000	97.791803 
1725.000000	97.790897 
1724.000000	97.791060 
1723.000000	97.791121 
1722.000000	97.791301 
1721.000000	97.791699 
1720.000000	97.791224 
1719.000000	97.789060 
1718.000000	97.786482 
1717.000000	97.784473 
1716.000000	97.782406 
1715.000000	97.780441 
1714.000000	97.779058 
1713.000000	97.777434 
1712.000000	97.774483 
1711.000000	97.771156 
1710.000000	97.768816 
1709.000000	97.766819 
1708.000000	97.763762 
1707.000000	97.759745 
1706.000000	97.756518 
1705.000000	97.754458 
1704.000000	97.752118 
1703.000000	97.748724 
1702.000000	97.744865 
1701.000000	97.741554 
1700.000000	97.736760 
1699.000000	97.730248 
1698.000000	97.725664 
1697.000000	97.722856 
1696.000000	97.719939 
1695.000000	97.715468 
1694.000000	97.710476 
1693.000000	97.705865 
1692.000000	97.700780 
1691.000000	97.695152 
1690.000000	97.689613 
1689.000000	97.684425 
1688.000000	97.679487 
1687.000000	97.674146 
1686.000000	97.668311 
1685.000000	97.662881 
1684.000000	97.657794 
1683.000000	97.652592 
1682.000000	97.647664 
1681.000000	97.642533 
1680.000000	97.637371 
1679.000000	97.632516 
1678.000000	97.627559 
1677.000000	97.622113 
1676.000000	97.616590 
1675.000000	97.611265 
1674.000000	97.605371 
1673.000000	97.598920 
1672.000000	97.592536 
1671.000000	97.587025 
1670.000000	97.582613 
1669.000000	97.577444 
1668.000000	97.571624 
1667.000000	97.566959 
1666.000000	97.563098 
1665.000000	97.558578 
1664.000000	97.553036 
1663.000000	97.547771 
1662.000000	97.542354 
1661.000000	97.535160 
1660.000000	97.527413 
1659.000000	97.520309 
1658.000000	97.513853 
1657.000000	97.508269 
1656.000000	97.503951 
1655.000000	97.500389 
1654.000000	97.501293 
1653.000000	97.498294 
1652.000000	97.481058 
1651.000000	97.472045 
1650.000000	97.470066 
1649.000000	97.464933 
1648.000000	97.460611 
1647.000000	97.462061 
1646.000000	97.464412 
1645.000000	97.464277 
1644.000000	97.463106 
1643.000000	97.461442 
1642.000000	97.457913 
1641.000000	97.452218 
1640.000000	97.447948 
1639.000000	97.446505 
1638.000000	97.445915 
1637.000000	97.444391 
1636.000000	97.442807 
1635.000000	97.438853 
1634.000000	97.434864 
1633.000000	97.434818 
1632.000000	97.433978 
1631.000000	97.432727 
1630.000000	97.433104 
1629.000000	97.434076 
1628.000000	97.434794 
1627.000000	97.438524 
1626.000000	97.445642 
1625.000000	97.452263 
1624.000000	97.457290 
1623.000000	97.463244 
1622.000000	97.470637 
1621.000000	97.477633 
1620.000000	97.483500 
1619.000000	97.487633 
1618.000000	97.491035 
1617.000000	97.491816 
1616.000000	97.489597 
1615.000000	97.492293 
1614.000000	97.501084 
1613.000000	97.507690 
1612.000000	97.508989 
1611.000000	97.508922 
1610.000000	97.510149 
1609.000000	97.513701 
1608.000000	97.522074 
1607.000000	97.535218 
1606.000000	97.545973 
1605.000000	97.550115 
1604.000000	97.553506 
1603.000000	97.560664 
1602.000000	97.568816 
1601.000000	97.574547 
1600.000000	97.580038 
1599.000000	97.587718 
1598.000000	97.595251 
1597.000000	97.600107 
1596.000000	97.603690 
1595.000000	97.608675 
1594.000000	97.614712 
1593.000000	97.619877 
1592.000000	97.624559 
1591.000000	97.630487 
1590.000000	97.637252 
1589.000000	97.642939 
1588.000000	97.647469 
1587.000000	97.652649 
1586.000000	97.659158 
1585.000000	97.665423 
1584.000000	97.671497 
1583.000000	97.678017 
1582.000000	97.683071 
1581.000000	97.685766 
1580.000000	97.688688 
1579.000000	97.693608 
1578.000000	97.698869 
1577.000000	97.703311 
1576.000000	97.706738 
1575.000000	97.710635 
1574.000000	97.716434 
1573.000000	97.722183 
1572.000000	97.726688 
1571.000000	97.731473 
1570.000000	97.736104 
1569.000000	97.737568 
1568.000000	97.738571 
1567.000000	97.741758 
1566.000000	97.744556 
1565.000000	97.745123 
1564.000000	97.745436 
1563.000000	97.746652 
1562.000000	97.746357 
1561.000000	97.743334 
1560.000000	97.746385 
1559.000000	97.757107 
1558.000000	97.758854 
1557.000000	97.754925 
1556.000000	97.752663 
1555.000000	97.752265 
1554.000000	97.752197 
1553.000000	97.751651 
1552.000000	97.751146 
1551.000000	97.750254 
1550.000000	97.748983 
1549.000000	97.746747 
1548.000000	97.743228 
1547.000000	97.739293 
1546.000000	97.735393 
1545.000000	97.732401 
1544.000000	97.730690 
1543.000000	97.729160 
1542.000000	97.726934 
1541.000000	97.724162 
1540.000000	97.719736 
1539.000000	97.713974 
1538.000000	97.710210 
1537.000000	97.708241 
1536.000000	97.705355 
1535.000000	97.702026 
1534.000000	97.699895 
1533.000000	97.698491 
1532.000000	97.695959 
1531.000000	97.691630 
1530.000000	97.686251 
1529.000000	97.680591 
1528.000000	97.675107 
1527.000000	97.670292 
1526.000000	97.666060 
1525.000000	97.661630 
1524.000000	97.656347 
1523.000000	97.650489 
1522.000000	97.645643 
1521.000000	97.641987 
1520.000000	97.637712 
1519.000000	97.631878 
1518.000000	97.624983 
1517.000000	97.619190 
1516.000000	97.615497 
1515.000000	97.612521 
1514.000000	97.608677 
1513.000000	97.603704 
1512.000000	97.597465 
1511.000000	97.589380 
1510.000000	97.579699 
1509.000000	97.569632 
1508.000000	97.562396 
1507.000000	97.559979 
1506.000000	97.556803 
1505.000000	97.549011 
1504.000000	97.540557 
1503.000000	97.532442 
1502.000000	97.524202 
1501.000000	97.516559 
1500.000000	97.509456 
1499.000000	97.501621 
1498.000000	97.493481 
1497.000000	97.488111 
1496.000000	97.485061 
1495.000000	97.482559 
1494.000000	97.481194 
1493.000000	97.480437 
1492.000000	97.478490 
1491.000000	97.475256 
1490.000000	97.472656 
1489.000000	97.470124 
1488.000000	97.463274 
1487.000000	97.451939 
1486.000000	97.440583 
1485.000000	97.428250 
1484.000000	97.414201 
1483.000000	97.400952 
1482.000000	97.391245 
1481.000000	97.384405 
1480.000000	97.375487 
1479.000000	97.363226 
1478.000000	97.351527 
1477.000000	97.344202 
1476.000000	97.338396 
1475.000000	97.330717 
1474.000000	97.322008 
1473.000000	97.315755 
1472.000000	97.311228 
1471.000000	97.304160 
1470.000000	97.294832 
1469.000000	97.283748 
1468.000000	97.270444 
1467.000000	97.256936 
1466.000000	97.246967 
1465.000000	97.241981 
1464.000000	97.239517 
1463.000000	97.234025 
1462.000000	97.223837 
1461.000000	97.210265 
1460.000000	97.195412 
1459.000000	97.181255 
1458.000000	97.171774 
1457.000000	97.168218 
1456.000000	97.162597 
1455.000000	97.151793 
1454.000000	97.137024 
1453.000000	97.122424 
1452.000000	97.113539 
1451.000000	97.110617 
1450.000000	97.111620 
1449.000000	97.117185 
1448.000000	97.127007 
1447.000000	97.136820 
1446.000000	97.139940 
1445.000000	97.136561 
1444.000000	97.132707 
1443.000000	97.128594 
1442.000000	97.122418 
1441.000000	97.114115 
1440.000000	97.104569 
1439.000000	97.091921 
1438.000000	97.080039 
1437.000000	97.079137 
1436.000000	97.086774 
1435.000000	97.088445 
1434.000000	97.080131 
1433.000000	97.069112 
1432.000000	97.061920 
1431.000000	97.058328 
1430.000000	97.054805 
1429.000000	97.051824 
1428.000000	97.048921 
1427.000000	97.043940 
1426.000000	97.034254 
1425.000000	97.024181 
1424.000000	97.021350 
1423.000000	97.020927 
1422.000000	97.013671 
1421.000000	96.999676 
1420.000000	96.988383 
1419.000000	96.981173 
1418.000000	96.970115 
1417.000000	96.955885 
1416.000000	96.942877 
1415.000000	96.929660 
1414.000000	96.911987 
1413.000000	96.890830 
1412.000000	96.872356 
1411.000000	96.859087 
1410.000000	96.849066 
1409.000000	96.841580 
1408.000000	96.837307 
1407.000000	96.838310 
1406.000000	96.845629 
1405.000000	96.859893 
1404.000000	96.880484 
1403.000000	96.900688 
1402.000000	96.915589 
1401.000000	96.928854 
1400.000000	96.948315 
1399.000000	96.971997 
1398.000000	96.985367 
1397.000000	96.977592 
1396.000000	96.953648 
1395.000000	96.933157 
1394.000000	96.934267 
1393.000000	96.960246 
1392.000000	97.000204 
1391.000000	97.037768 
1390.000000	97.062763 
1389.000000	97.075755 
1388.000000	97.082836 
1387.000000	97.086912 
1386.000000	97.086410 
1385.000000	97.082958 
1384.000000	97.083555 
1383.000000	97.092491 
1382.000000	97.107671 
1381.000000	97.123748 
1380.000000	97.138242 
1379.000000	97.153088 
1378.000000	97.170132 
1377.000000	97.188902 
1376.000000	97.208462 
1375.000000	97.229099 
1374.000000	97.250564 
1373.000000	97.272037 
1372.000000	97.293088 
1371.000000	97.313764 
1370.000000	97.333474 
1369.000000	97.352085 
1368.000000	97.370775 
1367.000000	97.388685 
1366.000000	97.403811 
1365.000000	97.416804 
1364.000000	97.432031 
1363.000000	97.452945 
1362.000000	97.477273 
1361.000000	97.499810 
1360.000000	97.519088 
1359.000000	97.537222 
1358.000000	97.555312 
1357.000000	97.572539 
1356.000000	97.588225 
1355.000000	97.602040 
1354.000000	97.614254 
1353.000000	97.626501 
1352.000000	97.639788 
1351.000000	97.654156 
1350.000000	97.667662 
1349.000000	97.677666 
1348.000000	97.683916 
1347.000000	97.687928 
1346.000000	97.692516 
1345.000000	97.699228 
1344.000000	97.706633 
1343.000000	97.711356 
1342.000000	97.712991 
1341.000000	97.716447 
1340.000000	97.727013 
1339.000000	97.742590 
1338.000000	97.755643 
1337.000000	97.762799 
1336.000000	97.766366 
1335.000000	97.768261 
1334.000000	97.768707 
1333.000000	97.769717 
1332.000000	97.774273 
1331.000000	97.781231 
1330.000000	97.785439 
1329.000000	97.784747 
1328.000000	97.783033 
1327.000000	97.784757 
1326.000000	97.789027 
1325.000000	97.791673 
1324.000000	97.790488 
1323.000000	97.785566 
1322.000000	97.778057 
1321.000000	97.770468 
1320.000000	97.766455 
1319.000000	97.767829 
1318.000000	97.772546 
1317.000000	97.776411 
1316.000000	97.776049 
1315.000000	97.770714 
1314.000000	97.763593 
1313.000000	97.760862 
1312.000000	97.766127 
1311.000000	97.775746 
1310.000000	97.782320 
1309.000000	97.782897 
1308.000000	97.780893 
1307.000000	97.780866 
1306.000000	97.784146 
1305.000000	97.790128 
1304.000000	97.797947 
1303.000000	97.804746 
1302.000000	97.806436 
1301.000000	97.802269 
1300.000000	97.796532 
1299.000000	97.793839 
1298.000000	97.794661 
1297.000000	97.796507 
1296.000000	97.797322 
1295.000000	97.796425 
1294.000000	97.794275 
1293.000000	97.792752 
1292.000000	97.793684 
1291.000000	97.796279 
1290.000000	97.797938 
1289.000000	97.797935 
1288.000000	97.797683 
1287.000000	97.797237 
1286.000000	97.795073 
1285.000000	97.792248 
1284.000000	97.792979 
1283.000000	97.798913 
1282.000000	97.805481 
1281.000000	97.806364 
1280.000000	97.800306 
1279.000000	97.791861 
1278.000000	97.786728 
1277.000000	97.787790 
1276.000000	97.793859 
1275.000000	97.800510 
1274.000000	97.803176 
1273.000000	97.800967 
1272.000000	97.796891 
1271.000000	97.794038 
1270.000000	97.792807 
1269.000000	97.792229 
1268.000000	97.791873 
1267.000000	97.791149 
1266.000000	97.788830 
1265.000000	97.784882 
1264.000000	97.781122 
1263.000000	97.778734 
1262.000000	97.776619 
1261.000000	97.773625 
1260.000000	97.771144 
1259.000000	97.771413 
1258.000000	97.773818 
1257.000000	97.774636 
1256.000000	97.770442 
1255.000000	97.761639 
1254.000000	97.752897 
1253.000000	97.749282 
1252.000000	97.750803 
1251.000000	97.751927 
1250.000000	97.748580 
1249.000000	97.744631 
1248.000000	97.748286 
1247.000000	97.761875 
1246.000000	97.777945 
1245.000000	97.785819 
1244.000000	97.780242 
1243.000000	97.765426 
1242.000000	97.754014 
1241.000000	97.759570 
1240.000000	97.784154 
1239.000000	97.812984 
1238.000000	97.826831 
1237.000000	97.820602 
1236.000000	97.805080 
1235.000000	97.791242 
1234.000000	97.779425 
1233.000000	97.765231 
1232.000000	97.748543 
1231.000000	97.732617 
1230.000000	97.719829 
1229.000000	97.712259 
1228.000000	97.711711 
1227.000000	97.715120 
1226.000000	97.713990 
1225.000000	97.702591 
1224.000000	97.683851 
1223.000000	97.664482 
1222.000000	97.647810 
1221.000000	97.633822 
1220.000000	97.621723 
1219.000000	97.608643 
1218.000000	97.589778 
1217.000000	97.563664 
1216.000000	97.534053 
1215.000000	97.503724 
1214.000000	97.470675 
1213.000000	97.433847 
1212.000000	97.397153 
1211.000000	97.362503 
1210.000000	97.323531 
1209.000000	97.273126 
1208.000000	97.214306 
1207.000000	97.156896 
1206.000000	97.104439 
1205.000000	97.050494 
1204.000000	96.988147 
1203.000000	96.918078 
1202.000000	96.846722 
1201.000000	96.779473 
1200.000000	96.715687 
1199.000000	96.648634 
1198.000000	96.571534 
1197.000000	96.485433 
1196.000000	96.399290 
1195.000000	96.320632 
1194.000000	96.248275 
1193.000000	96.175568 
1192.000000	96.097322 
1191.000000	96.011593 
1190.000000	95.919413 
1189.000000	95.826294 
1188.000000	95.739537 
1187.000000	95.659625 
1186.000000	95.577989 
1185.000000	95.487426 
1184.000000	95.390254 
1183.000000	95.291795 
1182.000000	95.191398 
1181.000000	95.086378 
1180.000000	94.979770 
1179.000000	94.875618 
1178.000000	94.769538 
1177.000000	94.652650 
1176.000000	94.523532 
1175.000000	94.389012 
1174.000000	94.254776 
1173.000000	94.122707 
1172.000000	93.995792 
1171.000000	93.876754 
1170.000000	93.761992 
1169.000000	93.645286 
1168.000000	93.528221 
1167.000000	93.420104 
1166.000000	93.328678 
1165.000000	93.259159 
1164.000000	93.221040 
1163.000000	93.224618 
1162.000000	93.267532 
1161.000000	93.331452 
1160.000000	93.393681 
1159.000000	93.436615 
1158.000000	93.447610 
1157.000000	93.419654 
1156.000000	93.355280 
1155.000000	93.264589 
1154.000000	93.157732 
1153.000000	93.042492 
1152.000000	92.927072 
1151.000000	92.817775 
1150.000000	92.713822 
1149.000000	92.611339 
1148.000000	92.512006 
1147.000000	92.420408 
1146.000000	92.333669 
1145.000000	92.242478 
1144.000000	92.142710 
1143.000000	92.038007 
1142.000000	91.931288 
1141.000000	91.822788 
1140.000000	91.716590 
1139.000000	91.618877 
1138.000000	91.527798 
1137.000000	91.434331 
1136.000000	91.334917 
1135.000000	91.234182 
1134.000000	91.133665 
1133.000000	91.028030 
1132.000000	90.915591 
1131.000000	90.803004 
1130.000000	90.695278 
1129.000000	90.588853 
1128.000000	90.478120 
1127.000000	90.361727 
1126.000000	90.240064 
1125.000000	90.114087 
1124.000000	89.989011 
1123.000000	89.871457 
1122.000000	89.760098 
1121.000000	89.646229 
1120.000000	89.525789 
1119.000000	89.403701 
1118.000000	89.285304 
1117.000000	89.171984 
1116.000000	89.066028 
1115.000000	88.969998 
1114.000000	88.879489 
1113.000000	88.786129 
1112.000000	88.689151 
1111.000000	88.594205 
1110.000000	88.500608 
1109.000000	88.401135 
1108.000000	88.294638 
1107.000000	88.187200 
1106.000000	88.080193 
1105.000000	87.969323 
1104.000000	87.856217 
1103.000000	87.747770 
1102.000000	87.642852 
1101.000000	87.533190 
1100.000000	87.419390 
1099.000000	87.312285 
1098.000000	87.216145 
1097.000000	87.124034 
1096.000000	87.031387 
1095.000000	86.939241 
1094.000000	86.840922 
1093.000000	86.722060 
1092.000000	86.580750 
1091.000000	86.435046 
1090.000000	86.303685 
1089.000000	86.189002 
1088.000000	86.082403 
1087.000000	85.974669 
1086.000000	85.857364 
1085.000000	85.726947 
1084.000000	85.592307 
1083.000000	85.467380 
1082.000000	85.353067 
1081.000000	85.237596 
1080.000000	85.116118 
1079.000000	84.996267 
1078.000000	84.882126 
1077.000000	84.767039 
1076.000000	84.645676 
1075.000000	84.519361 
1074.000000	84.386647 
1073.000000	84.242196 
1072.000000	84.085605 
1071.000000	83.914740 
1070.000000	83.709638 
1069.000000	83.445055 
1068.000000	83.127228 
1067.000000	82.802282 
1066.000000	82.517502 
1065.000000	82.284249 
1064.000000	82.083392 
1063.000000	81.887443 
1062.000000	81.668218 
1061.000000	81.403517 
1060.000000	81.094407 
1059.000000	80.768849 
1058.000000	80.457297 
1057.000000	80.169586 
1056.000000	79.898949 
1055.000000	79.635543 
1054.000000	79.369421 
1053.000000	79.093190 
1052.000000	78.810422 
1051.000000	78.531801 
1050.000000	78.258098 
1049.000000	77.979559 
1048.000000	77.694760 
1047.000000	77.413600 
1046.000000	77.139279 
1045.000000	76.864577 
1044.000000	76.588233 
1043.000000	76.318559 
1042.000000	76.058105 
1041.000000	75.800130 
1040.000000	75.543474 
1039.000000	75.296574 
1038.000000	75.064633 
1037.000000	74.846933 
1036.000000	74.647009 
1035.000000	74.470129 
1034.000000	74.311195 
1033.000000	74.160061 
1032.000000	74.015207 
1031.000000	73.875888 
1030.000000	73.729467 
1029.000000	73.570376 
1028.000000	73.424821 
1027.000000	73.327539 
1026.000000	73.275339 
1025.000000	73.230393 
1024.000000	73.169446 
1023.000000	73.101065 
1022.000000	73.033355 
1021.000000	72.957815 
1020.000000	72.871761 
1019.000000	72.787285 
1018.000000	72.708878 
1017.000000	72.627321 
1016.000000	72.543104 
1015.000000	72.470965 
1014.000000	72.413574 
1013.000000	72.354938 
1012.000000	72.287652 
1011.000000	72.223584 
1010.000000	72.170134 
1009.000000	72.118912 
1008.000000	72.066081 
1007.000000	72.022545 
1006.000000	71.995736 
1005.000000	71.980348 
1004.000000	71.972946 
1003.000000	71.976971 
1002.000000	71.989103 
1001.000000	72.000320 
1000.000000	72.014197 
999.000000	 72.044492 
998.000000	 72.091593 
997.000000	 72.140754 
996.000000	 72.185796 
995.000000	 72.235124 
994.000000	 72.293417 
993.000000	 72.357629 
992.000000	 72.430725 
991.000000	 72.517564 
990.000000	 72.607739 
989.000000	 72.685650 
988.000000	 72.757495 
987.000000	 72.844357 
986.000000	 72.949587 
985.000000	 73.058905 
984.000000	 73.172235 
983.000000	 73.306489 
982.000000	 73.463761 
981.000000	 73.624976 
980.000000	 73.781029 
979.000000	 73.944439 
978.000000	 74.123209 
977.000000	 74.308900 
976.000000	 74.498443 
975.000000	 74.703783 
974.000000	 74.930517 
973.000000	 75.167838 
972.000000	 75.407910 
971.000000	 75.656450 
970.000000	 75.916896 
969.000000	 76.181657 
968.000000	 76.445007 
967.000000	 76.708740 
966.000000	 76.971417 
965.000000	 77.228212 
964.000000	 77.483692 
963.000000	 77.748101 
962.000000	 78.019034 
961.000000	 78.282928 
960.000000	 78.535042 
959.000000	 78.781243 
958.000000	 79.020962 
957.000000	 79.246861 
956.000000	 79.461518 
955.000000	 79.676006 
954.000000	 79.891266 
953.000000	 80.098609 
952.000000	 80.298129 
951.000000	 80.497693 
950.000000	 80.694003 
949.000000	 80.874311 
948.000000	 81.037507 
947.000000	 81.194639 
946.000000	 81.348148 
945.000000	 81.489613 
944.000000	 81.618717 
943.000000	 81.745216 
942.000000	 81.870745 
941.000000	 81.987703 
940.000000	 82.097664 
939.000000	 82.211774 
938.000000	 82.330849 
937.000000	 82.443966 
936.000000	 82.549032 
935.000000	 82.656223 
934.000000	 82.769073 
933.000000	 82.880803 
932.000000	 82.991605 
931.000000	 83.110488 
930.000000	 83.236895 
929.000000	 83.358817 
928.000000	 83.472637 
927.000000	 83.587383 
926.000000	 83.705862 
925.000000	 83.817932 
924.000000	 83.915516 
923.000000	 83.999283 
922.000000	 84.069708 
921.000000	 84.127659 
920.000000	 84.184058 
919.000000	 84.251218 
918.000000	 84.323022 
917.000000	 84.381073 
916.000000	 84.422644 
915.000000	 84.466012 
914.000000	 84.526655 
913.000000	 84.605300 
912.000000	 84.700610 
911.000000	 84.815742 
910.000000	 84.949788 
909.000000	 85.099357 
908.000000	 85.270320 
907.000000	 85.472139 
906.000000	 85.700484 
905.000000	 85.940939 
904.000000	 86.188166 
903.000000	 86.445132 
902.000000	 86.707350 
901.000000	 86.966748 
900.000000	 87.227462 
899.000000	 87.498360 
898.000000	 87.773424 
897.000000	 88.039122 
896.000000	 88.296655 
895.000000	 88.555662 
894.000000	 88.810641 
893.000000	 89.047082 
892.000000	 89.268279 
891.000000	 89.491985 
890.000000	 89.720452 
889.000000	 89.936397 
888.000000	 90.129612 
887.000000	 90.306072 
886.000000	 90.470455 
885.000000	 90.620955 
884.000000	 90.762083 
883.000000	 90.900858 
882.000000	 91.029763 
881.000000	 91.136843 
880.000000	 91.234081 
879.000000	 91.350682 
878.000000	 91.494208 
877.000000	 91.643645 
876.000000	 91.785277 
875.000000	 91.928748 
874.000000	 92.082271 
873.000000	 92.239991 
872.000000	 92.402730 
871.000000	 92.585105 
870.000000	 92.790718 
869.000000	 93.001671 
868.000000	 93.202421 
867.000000	 93.395412 
866.000000	 93.585939 
865.000000	 93.770489 
864.000000	 93.948721 
863.000000	 94.130298 
862.000000	 94.320393 
861.000000	 94.511408 
860.000000	 94.695884 
859.000000	 94.875440 
858.000000	 95.052131 
857.000000	 95.223150 
856.000000	 95.387862 
855.000000	 95.547698 
854.000000	 95.696328 
853.000000	 95.823029 
852.000000	 95.928477 
851.000000	 96.025020 
850.000000	 96.120266 
849.000000	 96.213746 
848.000000	 96.309345 
847.000000	 96.413745 
846.000000	 96.520164 
845.000000	 96.610844 
844.000000	 96.679329 
843.000000	 96.734493 
842.000000	 96.779959 
841.000000	 96.806663 
840.000000	 96.810218 
839.000000	 96.798732 
838.000000	 96.777750 
837.000000	 96.743678 
836.000000	 96.699191 
835.000000	 96.659900 
834.000000	 96.636778 
833.000000	 96.624303 
832.000000	 96.613633 
831.000000	 96.605484 
830.000000	 96.603322 
829.000000	 96.606834 
828.000000	 96.620692 
827.000000	 96.658186 
826.000000	 96.727033 
825.000000	 96.820331 
824.000000	 96.925643 
823.000000	 97.031054 
822.000000	 97.121854 
821.000000	 97.188364 
820.000000	 97.238677 
819.000000	 97.287477 
818.000000	 97.331332 
817.000000	 97.350300 
816.000000	 97.334785 
815.000000	 97.294818 
814.000000	 97.238936 
813.000000	 97.158059 
812.000000	 97.035625 
811.000000	 96.860509 
810.000000	 96.624219 
809.000000	 96.318086 
808.000000	 95.941131 
807.000000	 95.502942 
806.000000	 95.015452 
805.000000	 94.492257 
804.000000	 93.958542 
803.000000	 93.447260 
802.000000	 92.979708 
801.000000	 92.563245 
800.000000	 92.210997 
799.000000	 91.945038 
798.000000	 91.773826 
797.000000	 91.684152 
796.000000	 91.660335 
795.000000	 91.692580 
794.000000	 91.762246 
793.000000	 91.840879 
792.000000	 91.912482 
791.000000	 91.980013 
790.000000	 92.044598 
789.000000	 92.094649 
788.000000	 92.118537 
787.000000	 92.110401 
786.000000	 92.060705 
785.000000	 91.959699 
784.000000	 91.814406 
783.000000	 91.645339 
782.000000	 91.464811 
781.000000	 91.277856 
780.000000	 91.105132 
779.000000	 90.979952 
778.000000	 90.916618 
777.000000	 90.904515 
776.000000	 90.938673 
775.000000	 91.030195 
774.000000	 91.177147 
773.000000	 91.349876 
772.000000	 91.517825 
771.000000	 91.672123 
770.000000	 91.813012 
769.000000	 91.935553 
768.000000	 92.038016 
767.000000	 92.126217 
766.000000	 92.200188 
765.000000	 92.253163 
764.000000	 92.290554 
763.000000	 92.331444 
762.000000	 92.383907 
761.000000	 92.437583 
760.000000	 92.487662 
759.000000	 92.545813 
758.000000	 92.619045 
757.000000	 92.698933 
756.000000	 92.781907 
755.000000	 92.879049 
754.000000	 92.993025 
753.000000	 93.103981 
752.000000	 93.191972 
751.000000	 93.259458 
750.000000	 93.321967 
749.000000	 93.390511 
748.000000	 93.471437 
747.000000	 93.567917 
746.000000	 93.671505 
745.000000	 93.766773 
744.000000	 93.853706 
743.000000	 93.951375 
742.000000	 94.071439 
741.000000	 94.203259 
740.000000	 94.333128 
739.000000	 94.462681 
738.000000	 94.599436 
737.000000	 94.742261 
736.000000	 94.884481 
735.000000	 95.020615 
734.000000	 95.145415 
733.000000	 95.256954 
732.000000	 95.361823 
731.000000	 95.464261 
730.000000	 95.551917 
729.000000	 95.610670 
728.000000	 95.648290 
727.000000	 95.686388 
726.000000	 95.735561 
725.000000	 95.793582 
724.000000	 95.862766 
723.000000	 95.947966 
722.000000	 96.038170 
721.000000	 96.112439 
720.000000	 96.167456 
719.000000	 96.219761 
718.000000	 96.277221 
717.000000	 96.330367 
716.000000	 96.376584 
715.000000	 96.426757 
714.000000	 96.481765 
713.000000	 96.528627 
712.000000	 96.567908 
711.000000	 96.620543 
710.000000	 96.694905 
709.000000	 96.774721 
708.000000	 96.838808 
707.000000	 96.877929 
706.000000	 96.891694 
705.000000	 96.881196 
704.000000	 96.852232 
703.000000	 96.814904 
702.000000	 96.763741 
701.000000	 96.669979 
700.000000	 96.507680 
699.000000	 96.275805 
698.000000	 95.998633 
697.000000	 95.715909 
696.000000	 95.472677 
695.000000	 95.308583 
694.000000	 95.238645 
693.000000	 95.252012 
692.000000	 95.331478 
691.000000	 95.456899 
690.000000	 95.601170 
689.000000	 95.739431 
688.000000	 95.863108 
687.000000	 95.975423 
686.000000	 96.071681 
685.000000	 96.147508 
684.000000	 96.221331 
683.000000	 96.315300 
682.000000	 96.420506 
681.000000	 96.508126 
680.000000	 96.575035 
679.000000	 96.644791 
678.000000	 96.726676 
677.000000	 96.809456 
676.000000	 96.884897 
675.000000	 96.957985 
674.000000	 97.029078 
673.000000	 97.076305 
672.000000	 97.078910 
671.000000	 97.022542 
670.000000	 96.905486 
669.000000	 96.741750 
668.000000	 96.671035 
667.000000	 96.826700 
666.000000	 97.078269 
665.000000	 97.261543 
664.000000	 97.373655 
663.000000	 97.447311 
662.000000	 97.507394 
661.000000	 97.564801 
660.000000	 97.622746 
659.000000	 97.681751 
658.000000	 97.734411 
657.000000	 97.770837 
656.000000	 97.780048 
655.000000	 97.760451 
654.000000	 97.729427 
653.000000	 97.712292 
652.000000	 97.722931 
651.000000	 97.758952 
650.000000	 97.806745 

