4000.000000	97.559236 
3999.000000	97.558036 
3998.000000	97.555421 
3997.000000	97.552559 
3996.000000	97.550650 
3995.000000	97.550101 
3994.000000	97.550832 
3993.000000	97.552305 
3992.000000	97.553577 
3991.000000	97.554021 
3990.000000	97.553770 
3989.000000	97.553408 
3988.000000	97.553275 
3987.000000	97.553283 
3986.000000	97.553380 
3985.000000	97.553718 
3984.000000	97.554224 
3983.000000	97.554512 
3982.000000	97.554444 
3981.000000	97.554417 
3980.000000	97.554726 
3979.000000	97.554972 
3978.000000	97.554620 
3977.000000	97.553887 
3976.000000	97.553470 
3975.000000	97.553494 
3974.000000	97.553286 
3973.000000	97.552283 
3972.000000	97.550667 
3971.000000	97.549022 
3970.000000	97.547805 
3969.000000	97.547142 
3968.000000	97.546912 
3967.000000	97.546834 
3966.000000	97.546637 
3965.000000	97.546209 
3964.000000	97.545557 
3963.000000	97.544725 
3962.000000	97.543826 
3961.000000	97.543065 
3960.000000	97.542531 
3959.000000	97.542079 
3958.000000	97.541610 
3957.000000	97.541172 
3956.000000	97.540800 
3955.000000	97.540348 
3954.000000	97.539645 
3953.000000	97.538704 
3952.000000	97.537730 
3951.000000	97.536973 
3950.000000	97.536537 
3949.000000	97.536323 
3948.000000	97.536115 
3947.000000	97.535764 
3946.000000	97.535243 
3945.000000	97.534595 
3944.000000	97.533936 
3943.000000	97.533453 
3942.000000	97.533279 
3941.000000	97.533376 
3940.000000	97.533482 
3939.000000	97.533264 
3938.000000	97.532676 
3937.000000	97.531966 
3936.000000	97.531390 
3935.000000	97.530934 
3934.000000	97.530512 
3933.000000	97.530251 
3932.000000	97.530269 
3931.000000	97.530346 
3930.000000	97.530116 
3929.000000	97.529570 
3928.000000	97.529130 
3927.000000	97.529042 
3926.000000	97.529042 
3925.000000	97.528887 
3924.000000	97.528739 
3923.000000	97.528734 
3922.000000	97.528699 
3921.000000	97.528557 
3920.000000	97.528489 
3919.000000	97.528556 
3918.000000	97.528621 
3917.000000	97.528606 
3916.000000	97.528549 
3915.000000	97.528495 
3914.000000	97.528441 
3913.000000	97.528382 
3912.000000	97.528312 
3911.000000	97.528229 
3910.000000	97.528139 
3909.000000	97.528053 
3908.000000	97.527974 
3907.000000	97.527899 
3906.000000	97.527828 
3905.000000	97.527779 
3904.000000	97.527769 
3903.000000	97.527804 
3902.000000	97.527876 
3901.000000	97.527966 
3900.000000	97.528051 
3899.000000	97.528111 
3898.000000	97.528138 
3897.000000	97.528133 
3896.000000	97.528103 
3895.000000	97.528043 
3894.000000	97.527942 
3893.000000	97.527804 
3892.000000	97.527640 
3891.000000	97.527456 
3890.000000	97.527269 
3889.000000	97.527097 
3888.000000	97.526945 
3887.000000	97.526811 
3886.000000	97.526698 
3885.000000	97.526613 
3884.000000	97.526554 
3883.000000	97.526502 
3882.000000	97.526437 
3881.000000	97.526363 
3880.000000	97.526305 
3879.000000	97.526275 
3878.000000	97.526262 
3877.000000	97.526239 
3876.000000	97.526191 
3875.000000	97.526128 
3874.000000	97.526075 
3873.000000	97.526047 
3872.000000	97.526041 
3871.000000	97.526043 
3870.000000	97.526057 
3869.000000	97.526104 
3868.000000	97.526191 
3867.000000	97.526294 
3866.000000	97.526385 
3865.000000	97.526472 
3864.000000	97.526577 
3863.000000	97.526696 
3862.000000	97.526800 
3861.000000	97.526875 
3860.000000	97.526933 
3859.000000	97.526982 
3858.000000	97.527022 
3857.000000	97.527067 
3856.000000	97.527159 
3855.000000	97.527336 
3854.000000	97.527590 
3853.000000	97.527890 
3852.000000	97.528255 
3851.000000	97.528721 
3850.000000	97.529276 
3849.000000	97.529885 
3848.000000	97.530520 
3847.000000	97.531170 
3846.000000	97.531823 
3845.000000	97.532468 
3844.000000	97.533089 
3843.000000	97.533674 
3842.000000	97.534225 
3841.000000	97.534761 
3840.000000	97.535299 
3839.000000	97.535843 
3838.000000	97.536379 
3837.000000	97.536901 
3836.000000	97.537420 
3835.000000	97.537951 
3834.000000	97.538499 
3833.000000	97.539062 
3832.000000	97.539636 
3831.000000	97.540222 
3830.000000	97.540818 
3829.000000	97.541420 
3828.000000	97.542017 
3827.000000	97.542597 
3826.000000	97.543155 
3825.000000	97.543700 
3824.000000	97.544243 
3823.000000	97.544780 
3822.000000	97.545293 
3821.000000	97.545775 
3820.000000	97.546252 
3819.000000	97.546753 
3818.000000	97.547263 
3817.000000	97.547758 
3816.000000	97.548245 
3815.000000	97.548756 
3814.000000	97.549296 
3813.000000	97.549828 
3812.000000	97.550318 
3811.000000	97.550774 
3810.000000	97.551222 
3809.000000	97.551648 
3808.000000	97.552017 
3807.000000	97.552325 
3806.000000	97.552601 
3805.000000	97.552878 
3804.000000	97.553160 
3803.000000	97.553432 
3802.000000	97.553697 
3801.000000	97.553986 
3800.000000	97.554324 
3799.000000	97.554701 
3798.000000	97.555077 
3797.000000	97.555427 
3796.000000	97.555756 
3795.000000	97.556073 
3794.000000	97.556375 
3793.000000	97.556653 
3792.000000	97.556902 
3791.000000	97.557116 
3790.000000	97.557291 
3789.000000	97.557416 
3788.000000	97.557487 
3787.000000	97.557507 
3786.000000	97.557489 
3785.000000	97.557456 
3784.000000	97.557437 
3783.000000	97.557447 
3782.000000	97.557466 
3781.000000	97.557468 
3780.000000	97.557448 
3779.000000	97.557420 
3778.000000	97.557392 
3777.000000	97.557354 
3776.000000	97.557297 
3775.000000	97.557227 
3774.000000	97.557145 
3773.000000	97.557037 
3772.000000	97.556881 
3771.000000	97.556672 
3770.000000	97.556423 
3769.000000	97.556151 
3768.000000	97.555859 
3767.000000	97.555544 
3766.000000	97.555213 
3765.000000	97.554881 
3764.000000	97.554557 
3763.000000	97.554219 
3762.000000	97.553836 
3761.000000	97.553398 
3760.000000	97.552912 
3759.000000	97.552376 
3758.000000	97.551778 
3757.000000	97.551111 
3756.000000	97.550393 
3755.000000	97.549661 
3754.000000	97.548945 
3753.000000	97.548259 
3752.000000	97.547598 
3751.000000	97.546933 
3750.000000	97.546208 
3749.000000	97.545234 
3748.000000	97.544117 
3747.000000	97.543122 
3746.000000	97.542201 
3745.000000	97.541260 
3744.000000	97.540210 
3743.000000	97.539992 
3742.000000	97.541029 
3741.000000	97.540592 
3740.000000	97.537167 
3739.000000	97.533018 
3738.000000	97.531029 
3737.000000	97.530869 
3736.000000	97.530472 
3735.000000	97.529916 
3734.000000	97.529795 
3733.000000	97.527724 
3732.000000	97.522006 
3731.000000	97.516347 
3730.000000	97.514961 
3729.000000	97.515910 
3728.000000	97.514615 
3727.000000	97.511446 
3726.000000	97.510604 
3725.000000	97.513236 
3724.000000	97.514563 
3723.000000	97.510765 
3722.000000	97.503759 
3721.000000	97.497131 
3720.000000	97.491718 
3719.000000	97.485499 
3718.000000	97.477979 
3717.000000	97.471642 
3716.000000	97.468559 
3715.000000	97.467110 
3714.000000	97.465647 
3713.000000	97.466556 
3712.000000	97.469867 
3711.000000	97.468259 
3710.000000	97.457393 
3709.000000	97.440127 
3708.000000	97.420861 
3707.000000	97.402741 
3706.000000	97.387426 
3705.000000	97.374449 
3704.000000	97.361735 
3703.000000	97.347715 
3702.000000	97.331941 
3701.000000	97.315745 
3700.000000	97.303021 
3699.000000	97.294706 
3698.000000	97.286681 
3697.000000	97.277430 
3696.000000	97.270858 
3695.000000	97.269286 
3694.000000	97.268302 
3693.000000	97.262407 
3692.000000	97.251908 
3691.000000	97.239599 
3690.000000	97.224787 
3689.000000	97.205429 
3688.000000	97.187789 
3687.000000	97.182075 
3686.000000	97.185836 
3685.000000	97.186165 
3684.000000	97.178305 
3683.000000	97.168590 
3682.000000	97.161598 
3681.000000	97.152772 
3680.000000	97.136700 
3679.000000	97.117676 
3678.000000	97.101886 
3677.000000	97.087159 
3676.000000	97.064457 
3675.000000	97.033954 
3674.000000	97.013772 
3673.000000	97.007681 
3672.000000	96.996677 
3671.000000	96.974086 
3670.000000	96.948828 
3669.000000	96.928558 
3668.000000	96.915188 
3667.000000	96.903227 
3666.000000	96.887585 
3665.000000	96.870199 
3664.000000	96.854370 
3663.000000	96.838924 
3662.000000	96.820461 
3661.000000	96.798386 
3660.000000	96.775753 
3659.000000	96.755677 
3658.000000	96.736539 
3657.000000	96.713863 
3656.000000	96.686293 
3655.000000	96.662996 
3654.000000	96.649152 
3653.000000	96.633970 
3652.000000	96.609936 
3651.000000	96.586738 
3650.000000	96.570377 
3649.000000	96.547769 
3648.000000	96.512586 
3647.000000	96.480385 
3646.000000	96.465596 
3645.000000	96.464280 
3644.000000	96.463730 
3643.000000	96.456987 
3642.000000	96.446906 
3641.000000	96.437002 
3640.000000	96.424983 
3639.000000	96.406627 
3638.000000	96.384138 
3637.000000	96.365076 
3636.000000	96.349878 
3635.000000	96.330268 
3634.000000	96.302256 
3633.000000	96.273931 
3632.000000	96.252910 
3631.000000	96.237310 
3630.000000	96.222320 
3629.000000	96.199060 
3628.000000	96.169089 
3627.000000	96.154352 
3626.000000	96.152435 
3625.000000	96.143105 
3624.000000	96.127375 
3623.000000	96.116389 
3622.000000	96.110375 
3621.000000	96.102133 
3620.000000	96.091215 
3619.000000	96.084808 
3618.000000	96.091553 
3617.000000	96.114621 
3616.000000	96.145696 
3615.000000	96.174054 
3614.000000	96.197799 
3613.000000	96.221651 
3612.000000	96.248556 
3611.000000	96.274534 
3610.000000	96.292307 
3609.000000	96.299886 
3608.000000	96.301465 
3607.000000	96.302352 
3606.000000	96.305286 
3605.000000	96.310986 
3604.000000	96.321838 
3603.000000	96.340136 
3602.000000	96.361245 
3601.000000	96.375895 
3600.000000	96.380394 
3599.000000	96.379258 
3598.000000	96.378113 
3597.000000	96.381827 
3596.000000	96.391919 
3595.000000	96.405067 
3594.000000	96.414646 
3593.000000	96.417543 
3592.000000	96.414953 
3591.000000	96.409353 
3590.000000	96.403770 
3589.000000	96.402734 
3588.000000	96.408192 
3587.000000	96.417793 
3586.000000	96.429921 
3585.000000	96.442624 
3584.000000	96.452057 
3583.000000	96.458120 
3582.000000	96.463827 
3581.000000	96.470084 
3580.000000	96.474476 
3579.000000	96.475366 
3578.000000	96.473585 
3577.000000	96.471744 
3576.000000	96.471659 
3575.000000	96.472726 
3574.000000	96.473008 
3573.000000	96.470910 
3572.000000	96.466289 
3571.000000	96.460088 
3570.000000	96.454073 
3569.000000	96.450607 
3568.000000	96.451551 
3567.000000	96.455849 
3566.000000	96.460933 
3565.000000	96.465011 
3564.000000	96.465775 
3563.000000	96.462970 
3562.000000	96.460077 
3561.000000	96.460432 
3560.000000	96.463610 
3559.000000	96.466652 
3558.000000	96.467591 
3557.000000	96.467024 
3556.000000	96.467196 
3555.000000	96.469207 
3554.000000	96.471848 
3553.000000	96.472970 
3552.000000	96.471849 
3551.000000	96.469309 
3550.000000	96.466001 
3549.000000	96.462165 
3548.000000	96.459256 
3547.000000	96.459071 
3546.000000	96.461091 
3545.000000	96.462993 
3544.000000	96.463752 
3543.000000	96.464241 
3542.000000	96.465297 
3541.000000	96.466624 
3540.000000	96.467621 
3539.000000	96.468065 
3538.000000	96.468117 
3537.000000	96.468073 
3536.000000	96.468110 
3535.000000	96.468171 
3534.000000	96.467994 
3533.000000	96.467524 
3532.000000	96.467098 
3531.000000	96.467169 
3530.000000	96.467678 
3529.000000	96.467953 
3528.000000	96.467378 
3527.000000	96.466075 
3526.000000	96.464754 
3525.000000	96.464049 
3524.000000	96.464274 
3523.000000	96.465492 
3522.000000	96.467358 
3521.000000	96.469059 
3520.000000	96.469927 
3519.000000	96.469982 
3518.000000	96.469716 
3517.000000	96.469379 
3516.000000	96.468657 
3515.000000	96.467339 
3514.000000	96.465911 
3513.000000	96.465164 
3512.000000	96.465196 
3511.000000	96.465285 
3510.000000	96.464676 
3509.000000	96.463452 
3508.000000	96.462402 
3507.000000	96.462009 
3506.000000	96.461738 
3505.000000	96.460717 
3504.000000	96.458830 
3503.000000	96.456958 
3502.000000	96.456086 
3501.000000	96.456367 
3500.000000	96.457166 
3499.000000	96.457849 
3498.000000	96.458291 
3497.000000	96.458564 
3496.000000	96.458487 
3495.000000	96.457752 
3494.000000	96.456438 
3493.000000	96.455057 
3492.000000	96.453835 
3491.000000	96.452374 
3490.000000	96.450295 
3489.000000	96.447919 
3488.000000	96.445852 
3487.000000	96.444063 
3486.000000	96.441901 
3485.000000	96.439197 
3484.000000	96.436668 
3483.000000	96.434992 
3482.000000	96.433969 
3481.000000	96.433118 
3480.000000	96.432523 
3479.000000	96.432425 
3478.000000	96.432288 
3477.000000	96.431025 
3476.000000	96.428160 
3475.000000	96.424246 
3474.000000	96.420338 
3473.000000	96.417242 
3472.000000	96.415188 
3471.000000	96.413880 
3470.000000	96.412733 
3469.000000	96.411258 
3468.000000	96.409462 
3467.000000	96.407787 
3466.000000	96.406564 
3465.000000	96.405506 
3464.000000	96.403861 
3463.000000	96.401132 
3462.000000	96.397570 
3461.000000	96.393994 
3460.000000	96.391043 
3459.000000	96.388548 
3458.000000	96.385719 
3457.000000	96.381966 
3456.000000	96.377537 
3455.000000	96.373465 
3454.000000	96.370642 
3453.000000	96.369215 
3452.000000	96.368752 
3451.000000	96.368693 
3450.000000	96.368299 
3449.000000	96.366636 
3448.000000	96.363170 
3447.000000	96.358427 
3446.000000	96.353690 
3445.000000	96.349817 
3444.000000	96.346750 
3443.000000	96.344163 
3442.000000	96.341905 
3441.000000	96.339652 
3440.000000	96.336766 
3439.000000	96.332840 
3438.000000	96.328239 
3437.000000	96.323827 
3436.000000	96.320367 
3435.000000	96.318406 
3434.000000	96.318116 
3433.000000	96.318903 
3432.000000	96.319438 
3431.000000	96.318681 
3430.000000	96.316750 
3429.000000	96.314590 
3428.000000	96.312788 
3427.000000	96.310963 
3426.000000	96.308598 
3425.000000	96.306116 
3424.000000	96.304561 
3423.000000	96.304145 
3422.000000	96.303729 
3421.000000	96.302156 
3420.000000	96.299661 
3419.000000	96.297519 
3418.000000	96.296557 
3417.000000	96.296545 
3416.000000	96.296796 
3415.000000	96.296749 
3414.000000	96.295984 
3413.000000	96.294280 
3412.000000	96.291921 
3411.000000	96.289696 
3410.000000	96.288363 
3409.000000	96.288183 
3408.000000	96.288869 
3407.000000	96.289647 
3406.000000	96.289560 
3405.000000	96.288116 
3404.000000	96.285674 
3403.000000	96.283097 
3402.000000	96.281048 
3401.000000	96.279812 
3400.000000	96.279533 
3399.000000	96.280186 
3398.000000	96.281322 
3397.000000	96.282252 
3396.000000	96.282594 
3395.000000	96.282485 
3394.000000	96.282291 
3393.000000	96.282310 
3392.000000	96.282664 
3391.000000	96.283279 
3390.000000	96.283980 
3389.000000	96.284759 
3388.000000	96.285867 
3387.000000	96.287464 
3386.000000	96.289178 
3385.000000	96.290237 
3384.000000	96.290126 
3383.000000	96.289089 
3382.000000	96.288080 
3381.000000	96.288093 
3380.000000	96.289349 
3379.000000	96.291156 
3378.000000	96.292582 
3377.000000	96.293469 
3376.000000	96.294463 
3375.000000	96.296013 
3374.000000	96.297698 
3373.000000	96.298737 
3372.000000	96.298957 
3371.000000	96.299000 
3370.000000	96.299660 
3369.000000	96.301206 
3368.000000	96.303356 
3367.000000	96.305608 
3366.000000	96.307551 
3365.000000	96.309053 
3364.000000	96.310271 
3363.000000	96.311459 
3362.000000	96.312739 
3361.000000	96.314112 
3360.000000	96.315632 
3359.000000	96.317419 
3358.000000	96.319473 
3357.000000	96.321593 
3356.000000	96.323541 
3355.000000	96.325233 
3354.000000	96.326778 
3353.000000	96.328378 
3352.000000	96.330172 
3351.000000	96.332136 
3350.000000	96.334113 
3349.000000	96.335959 
3348.000000	96.337683 
3347.000000	96.339422 
3346.000000	96.341256 
3345.000000	96.343098 
3344.000000	96.344763 
3343.000000	96.346119 
3342.000000	96.347199 
3341.000000	96.348255 
3340.000000	96.349589 
3339.000000	96.351260 
3338.000000	96.353120 
3337.000000	96.354989 
3336.000000	96.356826 
3335.000000	96.358685 
3334.000000	96.360562 
3333.000000	96.362383 
3332.000000	96.364097 
3331.000000	96.365729 
3330.000000	96.367331 
3329.000000	96.368943 
3328.000000	96.370586 
3327.000000	96.372284 
3326.000000	96.374054 
3325.000000	96.375876 
3324.000000	96.377680 
3323.000000	96.379401 
3322.000000	96.381042 
3321.000000	96.382675 
3320.000000	96.384367 
3319.000000	96.386121 
3318.000000	96.387893 
3317.000000	96.389643 
3316.000000	96.391352 
3315.000000	96.393007 
3314.000000	96.394602 
3313.000000	96.396153 
3312.000000	96.397706 
3311.000000	96.399311 
3310.000000	96.401001 
3309.000000	96.402788 
3308.000000	96.404635 
3307.000000	96.406445 
3306.000000	96.408117 
3305.000000	96.409654 
3304.000000	96.411207 
3303.000000	96.412960 
3302.000000	96.414977 
3301.000000	96.417171 
3300.000000	96.419333 
3299.000000	96.421234 
3298.000000	96.422734 
3297.000000	96.423922 
3296.000000	96.425155 
3295.000000	96.426798 
3294.000000	96.428949 
3293.000000	96.431439 
3292.000000	96.434051 
3291.000000	96.436677 
3290.000000	96.439237 
3289.000000	96.441618 
3288.000000	96.443750 
3287.000000	96.445667 
3286.000000	96.447409 
3285.000000	96.448943 
3284.000000	96.450268 
3283.000000	96.451553 
3282.000000	96.453122 
3281.000000	96.455190 
3280.000000	96.457606 
3279.000000	96.459906 
3278.000000	96.461754 
3277.000000	96.463307 
3276.000000	96.464999 
3275.000000	96.466966 
3274.000000	96.468868 
3273.000000	96.470412 
3272.000000	96.471865 
3271.000000	96.473815 
3270.000000	96.476503 
3269.000000	96.479597 
3268.000000	96.482524 
3267.000000	96.484968 
3266.000000	96.487058 
3265.000000	96.489217 
3264.000000	96.491791 
3263.000000	96.494722 
3262.000000	96.497614 
3261.000000	96.500150 
3260.000000	96.502311 
3259.000000	96.504196 
3258.000000	96.505850 
3257.000000	96.507404 
3256.000000	96.509215 
3255.000000	96.511557 
3254.000000	96.514264 
3253.000000	96.516916 
3252.000000	96.519339 
3251.000000	96.521716 
3250.000000	96.524198 
3249.000000	96.526657 
3248.000000	96.528918 
3247.000000	96.531083 
3246.000000	96.533453 
3245.000000	96.536185 
3244.000000	96.539134 
3243.000000	96.542005 
3242.000000	96.544624 
3241.000000	96.547026 
3240.000000	96.549318 
3239.000000	96.551559 
3238.000000	96.553823 
3237.000000	96.556283 
3236.000000	96.559119 
3235.000000	96.562298 
3234.000000	96.565506 
3233.000000	96.568421 
3232.000000	96.570971 
3231.000000	96.573334 
3230.000000	96.575734 
3229.000000	96.578270 
3228.000000	96.580952 
3227.000000	96.583847 
3226.000000	96.587100 
3225.000000	96.590755 
3224.000000	96.594531 
3223.000000	96.597953 
3222.000000	96.600808 
3221.000000	96.603372 
3220.000000	96.606118 
3219.000000	96.609167 
3218.000000	96.612263 
3217.000000	96.615180 
3216.000000	96.617968 
3215.000000	96.620803 
3214.000000	96.623800 
3213.000000	96.626967 
3212.000000	96.630189 
3211.000000	96.633218 
3210.000000	96.635882 
3209.000000	96.638359 
3208.000000	96.641057 
3207.000000	96.644091 
3206.000000	96.647075 
3205.000000	96.649657 
3204.000000	96.652122 
3203.000000	96.655140 
3202.000000	96.658935 
3201.000000	96.662986 
3200.000000	96.666624 
3199.000000	96.669790 
3198.000000	96.673020 
3197.000000	96.676711 
3196.000000	96.680614 
3195.000000	96.684189 
3194.000000	96.687337 
3193.000000	96.690559 
3192.000000	96.694292 
3191.000000	96.698318 
3190.000000	96.701970 
3189.000000	96.704923 
3188.000000	96.707515 
3187.000000	96.710383 
3186.000000	96.713899 
3185.000000	96.717948 
3184.000000	96.722068 
3183.000000	96.725874 
3182.000000	96.729391 
3181.000000	96.732894 
3180.000000	96.736468 
3179.000000	96.739863 
3178.000000	96.742880 
3177.000000	96.745693 
3176.000000	96.748693 
3175.000000	96.752076 
3174.000000	96.755779 
3173.000000	96.759650 
3172.000000	96.763522 
3171.000000	96.767178 
3170.000000	96.770481 
3169.000000	96.773545 
3168.000000	96.776642 
3167.000000	96.779889 
3166.000000	96.783160 
3165.000000	96.786300 
3164.000000	96.789294 
3163.000000	96.792228 
3162.000000	96.795185 
3161.000000	96.798204 
3160.000000	96.801294 
3159.000000	96.804453 
3158.000000	96.807662 
3157.000000	96.810889 
3156.000000	96.814094 
3155.000000	96.817251 
3154.000000	96.820374 
3153.000000	96.823499 
3152.000000	96.826644 
3151.000000	96.829802 
3150.000000	96.832957 
3149.000000	96.836105 
3148.000000	96.839247 
3147.000000	96.842390 
3146.000000	96.845537 
3145.000000	96.848691 
3144.000000	96.851847 
3143.000000	96.854992 
3142.000000	96.858112 
3141.000000	96.861201 
3140.000000	96.864264 
3139.000000	96.867326 
3138.000000	96.870410 
3137.000000	96.873533 
3136.000000	96.876683 
3135.000000	96.879823 
3134.000000	96.882905 
3133.000000	96.885912 
3132.000000	96.888877 
3131.000000	96.891844 
3130.000000	96.894814 
3129.000000	96.897790 
3128.000000	96.900843 
3127.000000	96.904076 
3126.000000	96.907500 
3125.000000	96.910970 
3124.000000	96.914273 
3123.000000	96.917254 
3122.000000	96.919855 
3121.000000	96.922157 
3120.000000	96.924399 
3119.000000	96.926848 
3118.000000	96.929618 
3117.000000	96.932648 
3116.000000	96.935834 
3115.000000	96.939096 
3114.000000	96.942325 
3113.000000	96.945412 
3112.000000	96.948417 
3111.000000	96.951609 
3110.000000	96.955198 
3109.000000	96.959040 
3108.000000	96.962742 
3107.000000	96.966075 
3106.000000	96.969120 
3105.000000	96.971976 
3104.000000	96.974472 
3103.000000	96.976242 
3102.000000	96.977155 
3101.000000	96.977632 
3100.000000	96.978438 
3099.000000	96.980137 
3098.000000	96.982857 
3097.000000	96.986485 
3096.000000	96.990743 
3095.000000	96.995020 
3094.000000	96.998558 
3093.000000	97.001007 
3092.000000	97.002688 
3091.000000	97.004144 
3090.000000	97.005585 
3089.000000	97.006903 
3088.000000	97.008004 
3087.000000	97.009037 
3086.000000	97.010455 
3085.000000	97.012751 
3084.000000	97.015838 
3083.000000	97.018805 
3082.000000	97.020754 
3081.000000	97.021863 
3080.000000	97.023230 
3079.000000	97.025516 
3078.000000	97.028256 
3077.000000	97.030803 
3076.000000	97.033369 
3075.000000	97.036479 
3074.000000	97.039827 
3073.000000	97.042572 
3072.000000	97.044505 
3071.000000	97.046026 
3070.000000	97.047223 
3069.000000	97.047989 
3068.000000	97.048894 
3067.000000	97.050740 
3066.000000	97.053140 
3065.000000	97.054740 
3064.000000	97.055116 
3063.000000	97.055283 
3062.000000	97.056037 
3061.000000	97.056935 
3060.000000	97.057362 
3059.000000	97.057674 
3058.000000	97.058766 
3057.000000	97.061140 
3056.000000	97.064563 
3055.000000	97.067924 
3054.000000	97.069438 
3053.000000	97.068147 
3052.000000	97.065641 
3051.000000	97.065207 
3050.000000	97.068445 
3049.000000	97.073500 
3048.000000	97.077072 
3047.000000	97.077512 
3046.000000	97.075318 
3045.000000	97.071834 
3044.000000	97.068590 
3043.000000	97.067366 
3042.000000	97.069459 
3041.000000	97.074250 
3040.000000	97.079036 
3039.000000	97.081010 
3038.000000	97.079489 
3037.000000	97.076128 
3036.000000	97.073000 
3035.000000	97.070581 
3034.000000	97.067946 
3033.000000	97.064686 
3032.000000	97.061756 
3031.000000	97.060258 
3030.000000	97.060074 
3029.000000	97.060153 
3028.000000	97.059438 
3027.000000	97.056956 
3026.000000	97.051877 
3025.000000	97.044597 
3024.000000	97.037269 
3023.000000	97.031935 
3022.000000	97.028350 
3021.000000	97.025021 
3020.000000	97.021980 
3019.000000	97.020586 
3018.000000	97.020350 
3017.000000	97.018073 
3016.000000	97.011373 
3015.000000	97.001806 
3014.000000	96.993512 
3013.000000	96.989414 
3012.000000	96.989302 
3011.000000	96.990570 
3010.000000	96.990013 
3009.000000	96.985777 
3008.000000	96.978446 
3007.000000	96.970062 
3006.000000	96.961821 
3005.000000	96.953480 
3004.000000	96.945168 
3003.000000	96.938387 
3002.000000	96.934353 
3001.000000	96.932316 
3000.000000	96.930375 
2999.000000	96.927273 
2998.000000	96.922812 
2997.000000	96.917328 
2996.000000	96.911578 
2995.000000	96.906455 
2994.000000	96.901816 
2993.000000	96.895978 
2992.000000	96.887239 
2991.000000	96.875878 
2990.000000	96.864277 
2989.000000	96.855311 
2988.000000	96.850859 
2987.000000	96.851206 
2986.000000	96.855225 
2985.000000	96.861216 
2984.000000	96.867813 
2983.000000	96.874150 
2982.000000	96.879505 
2981.000000	96.883377 
2980.000000	96.885744 
2979.000000	96.886519 
2978.000000	96.885048 
2977.000000	96.881249 
2976.000000	96.877183 
2975.000000	96.876117 
2974.000000	96.879586 
2973.000000	96.886366 
2972.000000	96.894400 
2971.000000	96.902506 
2970.000000	96.909835 
2969.000000	96.915499 
2968.000000	96.919843 
2967.000000	96.924758 
2966.000000	96.931386 
2965.000000	96.938424 
2964.000000	96.943901 
2963.000000	96.947848 
2962.000000	96.951909 
2961.000000	96.956913 
2960.000000	96.962260 
2959.000000	96.967439 
2958.000000	96.972800 
2957.000000	96.978570 
2956.000000	96.983975 
2955.000000	96.987747 
2954.000000	96.989429 
2953.000000	96.990337 
2952.000000	96.993183 
2951.000000	96.999830 
2950.000000	97.008788 
2949.000000	97.015762 
2948.000000	97.017618 
2947.000000	97.015286 
2946.000000	97.012408 
2945.000000	97.011736 
2944.000000	97.013579 
2943.000000	97.016986 
2942.000000	97.020848 
2941.000000	97.023976 
2940.000000	97.025633 
2939.000000	97.026486 
2938.000000	97.028092 
2937.000000	97.031000 
2936.000000	97.034040 
2935.000000	97.035739 
2934.000000	97.035727 
2933.000000	97.034486 
2932.000000	97.032607 
2931.000000	97.030862 
2930.000000	97.030415 
2929.000000	97.032147 
2928.000000	97.035724 
2927.000000	97.039649 
2926.000000	97.042353 
2925.000000	97.043333 
2924.000000	97.043469 
2923.000000	97.044230 
2922.000000	97.046268 
2921.000000	97.048736 
2920.000000	97.050321 
2919.000000	97.050773 
2918.000000	97.050812 
2917.000000	97.050466 
2916.000000	97.048419 
2915.000000	97.043773 
2914.000000	97.038038 
2913.000000	97.034395 
2912.000000	97.034652 
2911.000000	97.037531 
2910.000000	97.040124 
2909.000000	97.040861 
2908.000000	97.040636 
2907.000000	97.041072 
2906.000000	97.042272 
2905.000000	97.042502 
2904.000000	97.040102 
2903.000000	97.035706 
2902.000000	97.032467 
2901.000000	97.033609 
2900.000000	97.039743 
2899.000000	97.048493 
2898.000000	97.056495 
2897.000000	97.062057 
2896.000000	97.065434 
2895.000000	97.067269 
2894.000000	97.067946 
2893.000000	97.068496 
2892.000000	97.070721 
2891.000000	97.075370 
2890.000000	97.080942 
2889.000000	97.085482 
2888.000000	97.089080 
2887.000000	97.093155 
2886.000000	97.097536 
2885.000000	97.100216 
2884.000000	97.100638 
2883.000000	97.101410 
2882.000000	97.105326 
2881.000000	97.111902 
2880.000000	97.118450 
2879.000000	97.123892 
2878.000000	97.129547 
2877.000000	97.136166 
2876.000000	97.142234 
2875.000000	97.146021 
2874.000000	97.147877 
2873.000000	97.149490 
2872.000000	97.151813 
2871.000000	97.154695 
2870.000000	97.157916 
2869.000000	97.161392 
2868.000000	97.164671 
2867.000000	97.167301 
2866.000000	97.169669 
2865.000000	97.172697 
2864.000000	97.176766 
2863.000000	97.181726 
2862.000000	97.187806 
2861.000000	97.195436 
2860.000000	97.203977 
2859.000000	97.211729 
2858.000000	97.217873 
2857.000000	97.223665 
2856.000000	97.230902 
2855.000000	97.239513 
2854.000000	97.247444 
2853.000000	97.252831 
2852.000000	97.255475 
2851.000000	97.256472 
2850.000000	97.257247 
2849.000000	97.258962 
2848.000000	97.262104 
2847.000000	97.266067 
2846.000000	97.269522 
2845.000000	97.271714 
2844.000000	97.273270 
2843.000000	97.275405 
2842.000000	97.278492 
2841.000000	97.281731 
2840.000000	97.284094 
2839.000000	97.285254 
2838.000000	97.285710 
2837.000000	97.286348 
2836.000000	97.287988 
2835.000000	97.291025 
2834.000000	97.295298 
2833.000000	97.300311 
2832.000000	97.305548 
2831.000000	97.310436 
2830.000000	97.314151 
2829.000000	97.315961 
2828.000000	97.316024 
2827.000000	97.315685 
2826.000000	97.316605 
2825.000000	97.319434 
2824.000000	97.323384 
2823.000000	97.326972 
2822.000000	97.329144 
2821.000000	97.329819 
2820.000000	97.329633 
2819.000000	97.329313 
2818.000000	97.329269 
2817.000000	97.329652 
2816.000000	97.330602 
2815.000000	97.332210 
2814.000000	97.334199 
2813.000000	97.335833 
2812.000000	97.336428 
2811.000000	97.336032 
2810.000000	97.335548 
2809.000000	97.336068 
2808.000000	97.338048 
2807.000000	97.341160 
2806.000000	97.344722 
2805.000000	97.348143 
2804.000000	97.350990 
2803.000000	97.352868 
2802.000000	97.353653 
2801.000000	97.353850 
2800.000000	97.354398 
2799.000000	97.355800 
2798.000000	97.357609 
2797.000000	97.358989 
2796.000000	97.359675 
2795.000000	97.360121 
2794.000000	97.360836 
2793.000000	97.361860 
2792.000000	97.362979 
2791.000000	97.364084 
2790.000000	97.365122 
2789.000000	97.365927 
2788.000000	97.366402 
2787.000000	97.366798 
2786.000000	97.367573 
2785.000000	97.368929 
2784.000000	97.370628 
2783.000000	97.372298 
2782.000000	97.373752 
2781.000000	97.375039 
2780.000000	97.376291 
2779.000000	97.377602 
2778.000000	97.378980 
2777.000000	97.380318 
2776.000000	97.381467 
2775.000000	97.382393 
2774.000000	97.383251 
2773.000000	97.384233 
2772.000000	97.385364 
2771.000000	97.386518 
2770.000000	97.387635 
2769.000000	97.388821 
2768.000000	97.390188 
2767.000000	97.391686 
2766.000000	97.393114 
2765.000000	97.394302 
2764.000000	97.395244 
2763.000000	97.396052 
2762.000000	97.396839 
2761.000000	97.397669 
2760.000000	97.398583 
2759.000000	97.399621 
2758.000000	97.400791 
2757.000000	97.402001 
2756.000000	97.403064 
2755.000000	97.403865 
2754.000000	97.404483 
2753.000000	97.405142 
2752.000000	97.406000 
2751.000000	97.407028 
2750.000000	97.408109 
2749.000000	97.409182 
2748.000000	97.410220 
2747.000000	97.411122 
2746.000000	97.411769 
2745.000000	97.412186 
2744.000000	97.412596 
2743.000000	97.413210 
2742.000000	97.414048 
2741.000000	97.414965 
2740.000000	97.415811 
2739.000000	97.416567 
2738.000000	97.417278 
2737.000000	97.417965 
2736.000000	97.418645 
2735.000000	97.419362 
2734.000000	97.420150 
2733.000000	97.420998 
2732.000000	97.421873 
2731.000000	97.422750 
2730.000000	97.423624 
2729.000000	97.424474 
2728.000000	97.425261 
2727.000000	97.425942 
2726.000000	97.426513 
2725.000000	97.427023 
2724.000000	97.427548 
2723.000000	97.428119 
2722.000000	97.428718 
2721.000000	97.429320 
2720.000000	97.429926 
2719.000000	97.430549 
2718.000000	97.431182 
2717.000000	97.431808 
2716.000000	97.432417 
2715.000000	97.433014 
2714.000000	97.433612 
2713.000000	97.434222 
2712.000000	97.434842 
2711.000000	97.435463 
2710.000000	97.436071 
2709.000000	97.436661 
2708.000000	97.437243 
2707.000000	97.437827 
2706.000000	97.438425 
2705.000000	97.439038 
2704.000000	97.439666 
2703.000000	97.440289 
2702.000000	97.440878 
2701.000000	97.441422 
2700.000000	97.441966 
2699.000000	97.442582 
2698.000000	97.443311 
2697.000000	97.444083 
2696.000000	97.444742 
2695.000000	97.445198 
2694.000000	97.445506 
2693.000000	97.445819 
2692.000000	97.446196 
2691.000000	97.446567 
2690.000000	97.446850 
2689.000000	97.447062 
2688.000000	97.447263 
2687.000000	97.447461 
2686.000000	97.447646 
2685.000000	97.447897 
2684.000000	97.448316 
2683.000000	97.448860 
2682.000000	97.449317 
2681.000000	97.449525 
2680.000000	97.449560 
2679.000000	97.449669 
2678.000000	97.450079 
2677.000000	97.450882 
2676.000000	97.451925 
2675.000000	97.452732 
2674.000000	97.452819 
2673.000000	97.452270 
2672.000000	97.451810 
2671.000000	97.451939 
2670.000000	97.452263 
2669.000000	97.452143 
2668.000000	97.451727 
2667.000000	97.451767 
2666.000000	97.452407 
2665.000000	97.452778 
2664.000000	97.452094 
2663.000000	97.450638 
2662.000000	97.449419 
2661.000000	97.449045 
2660.000000	97.449258 
2659.000000	97.449364 
2658.000000	97.448860 
2657.000000	97.447762 
2656.000000	97.446532 
2655.000000	97.445637 
2654.000000	97.445030 
2653.000000	97.444260 
2652.000000	97.443176 
2651.000000	97.442303 
2650.000000	97.442269 
2649.000000	97.443017 
2648.000000	97.443816 
2647.000000	97.443976 
2646.000000	97.443313 
2645.000000	97.442012 
2644.000000	97.440406 
2643.000000	97.438953 
2642.000000	97.438101 
2641.000000	97.437976 
2640.000000	97.438293 
2639.000000	97.438698 
2638.000000	97.439083 
2637.000000	97.439470 
2636.000000	97.439808 
2635.000000	97.440058 
2634.000000	97.440350 
2633.000000	97.440800 
2632.000000	97.441212 
2631.000000	97.441192 
2630.000000	97.440599 
2629.000000	97.439695 
2628.000000	97.438878 
2627.000000	97.438349 
2626.000000	97.438124 
2625.000000	97.438200 
2624.000000	97.438552 
2623.000000	97.439020 
2622.000000	97.439362 
2621.000000	97.439422 
2620.000000	97.439167 
2619.000000	97.438612 
2618.000000	97.437856 
2617.000000	97.437208 
2616.000000	97.437092 
2615.000000	97.437686 
2614.000000	97.438657 
2613.000000	97.439399 
2612.000000	97.439643 
2611.000000	97.439642 
2610.000000	97.439843 
2609.000000	97.440400 
2608.000000	97.440997 
2607.000000	97.441143 
2606.000000	97.440748 
2605.000000	97.440404 
2604.000000	97.440832 
2603.000000	97.441988 
2602.000000	97.443040 
2601.000000	97.443409 
2600.000000	97.443360 
2599.000000	97.443242 
2598.000000	97.442752 
2597.000000	97.441583 
2596.000000	97.440279 
2595.000000	97.439589 
2594.000000	97.439297 
2593.000000	97.438716 
2592.000000	97.438156 
2591.000000	97.438647 
2590.000000	97.440115 
2589.000000	97.441053 
2588.000000	97.440529 
2587.000000	97.439523 
2586.000000	97.439662 
2585.000000	97.441504 
2584.000000	97.444506 
2583.000000	97.447865 
2582.000000	97.450883 
2581.000000	97.453116 
2580.000000	97.454663 
2579.000000	97.456028 
2578.000000	97.457461 
2577.000000	97.458720 
2576.000000	97.459422 
2575.000000	97.459113 
2574.000000	97.457248 
2573.000000	97.453870 
2572.000000	97.450160 
2571.000000	97.447381 
2570.000000	97.445418 
2569.000000	97.443408 
2568.000000	97.441584 
2567.000000	97.441183 
2566.000000	97.442363 
2565.000000	97.443661 
2564.000000	97.443971 
2563.000000	97.443837 
2562.000000	97.444140 
2561.000000	97.444840 
2560.000000	97.445853 
2559.000000	97.447909 
2558.000000	97.451294 
2557.000000	97.454641 
2556.000000	97.456367 
2555.000000	97.456707 
2554.000000	97.457052 
2553.000000	97.457645 
2552.000000	97.457417 
2551.000000	97.456208 
2550.000000	97.455499 
2549.000000	97.456227 
2548.000000	97.457052 
2547.000000	97.456008 
2546.000000	97.453114 
2545.000000	97.450394 
2544.000000	97.449359 
2543.000000	97.449475 
2542.000000	97.449463 
2541.000000	97.449254 
2540.000000	97.449819 
2539.000000	97.451419 
2538.000000	97.453012 
2537.000000	97.453584 
2536.000000	97.453417 
2535.000000	97.453526 
2534.000000	97.454196 
2533.000000	97.454649 
2532.000000	97.454215 
2531.000000	97.453256 
2530.000000	97.452647 
2529.000000	97.452611 
2528.000000	97.452556 
2527.000000	97.452039 
2526.000000	97.451460 
2525.000000	97.451549 
2524.000000	97.452419 
2523.000000	97.453418 
2522.000000	97.453866 
2521.000000	97.453705 
2520.000000	97.453375 
2519.000000	97.453267 
2518.000000	97.453401 
2517.000000	97.453451 
2516.000000	97.452921 
2515.000000	97.451490 
2514.000000	97.449547 
2513.000000	97.448277 
2512.000000	97.448741 
2511.000000	97.450967 
2510.000000	97.454068 
2509.000000	97.457117 
2508.000000	97.459609 
2507.000000	97.461144 
2506.000000	97.461462 
2505.000000	97.461110 
2504.000000	97.461374 
2503.000000	97.462798 
2502.000000	97.464237 
2501.000000	97.464166 
2500.000000	97.462590 
2499.000000	97.460925 
2498.000000	97.460152 
2497.000000	97.459912 
2496.000000	97.459611 
2495.000000	97.459530 
2494.000000	97.460222 
2493.000000	97.461482 
2492.000000	97.462660 
2491.000000	97.463707 
2490.000000	97.465157 
2489.000000	97.467087 
2488.000000	97.468700 
2487.000000	97.469264 
2486.000000	97.469063 
2485.000000	97.469119 
2484.000000	97.470080 
2483.000000	97.471652 
2482.000000	97.473069 
2481.000000	97.473884 
2480.000000	97.474169 
2479.000000	97.474168 
2478.000000	97.474034 
2477.000000	97.473896 
2476.000000	97.473889 
2475.000000	97.473925 
2474.000000	97.473606 
2473.000000	97.472653 
2472.000000	97.471353 
2471.000000	97.470367 
2470.000000	97.470138 
2469.000000	97.470645 
2468.000000	97.471564 
2467.000000	97.472495 
2466.000000	97.473038 
2465.000000	97.472950 
2464.000000	97.472464 
2463.000000	97.472332 
2462.000000	97.473278 
2461.000000	97.475347 
2460.000000	97.477780 
2459.000000	97.479611 
2458.000000	97.480311 
2457.000000	97.479849 
2456.000000	97.478390 
2455.000000	97.476289 
2454.000000	97.474259 
2453.000000	97.473041 
2452.000000	97.472727 
2451.000000	97.472755 
2450.000000	97.472817 
2449.000000	97.473404 
2448.000000	97.474998 
2447.000000	97.477103 
2446.000000	97.478611 
2445.000000	97.479065 
2444.000000	97.479008 
2443.000000	97.479146 
2442.000000	97.479631 
2441.000000	97.480236 
2440.000000	97.480836 
2439.000000	97.481553 
2438.000000	97.482646 
2437.000000	97.484323 
2436.000000	97.486449 
2435.000000	97.488385 
2434.000000	97.489404 
2433.000000	97.489391 
2432.000000	97.488987 
2431.000000	97.488991 
2430.000000	97.489723 
2429.000000	97.491069 
2428.000000	97.492724 
2427.000000	97.494254 
2426.000000	97.495083 
2425.000000	97.494802 
2424.000000	97.493823 
2423.000000	97.492971 
2422.000000	97.492562 
2421.000000	97.492962 
2420.000000	97.494928 
2419.000000	97.498274 
2418.000000	97.501500 
2417.000000	97.503837 
2416.000000	97.506308 
2415.000000	97.509425 
2414.000000	97.511519 
2413.000000	97.511097 
2412.000000	97.509500 
2411.000000	97.509247 
2410.000000	97.510708 
2409.000000	97.512356 
2408.000000	97.513534 
2407.000000	97.514830 
2406.000000	97.516103 
2405.000000	97.516196 
2404.000000	97.514772 
2403.000000	97.512874 
2402.000000	97.511619 
2401.000000	97.511651 
2400.000000	97.513712 
2399.000000	97.518193 
2398.000000	97.523995 
2397.000000	97.529049 
2396.000000	97.532040 
2395.000000	97.532703 
2394.000000	97.530933 
2393.000000	97.527256 
2392.000000	97.523921 
2391.000000	97.523868 
2390.000000	97.527999 
2389.000000	97.534523 
2388.000000	97.541339 
2387.000000	97.548065 
2386.000000	97.555375 
2385.000000	97.563193 
2384.000000	97.570054 
2383.000000	97.573430 
2382.000000	97.570405 
2381.000000	97.559288 
2380.000000	97.541308 
2379.000000	97.520198 
2378.000000	97.499550 
2377.000000	97.481504 
2376.000000	97.468655 
2375.000000	97.464941 
2374.000000	97.472121 
2373.000000	97.486330 
2372.000000	97.500506 
2371.000000	97.510702 
2370.000000	97.517430 
2369.000000	97.521210 
2368.000000	97.520596 
2367.000000	97.515201 
2366.000000	97.507297 
2365.000000	97.499279 
2364.000000	97.492097 
2363.000000	97.486830 
2362.000000	97.485433 
2361.000000	97.488169 
2360.000000	97.493267 
2359.000000	97.498542 
2358.000000	97.501732 
2357.000000	97.501154 
2356.000000	97.497039 
2355.000000	97.491299 
2354.000000	97.484090 
2353.000000	97.476766 
2352.000000	97.474346 
2351.000000	97.479128 
2350.000000	97.487271 
2349.000000	97.492641 
2348.000000	97.493441 
2347.000000	97.491904 
2346.000000	97.491607 
2345.000000	97.494879 
2344.000000	97.500521 
2343.000000	97.505349 
2342.000000	97.506776 
2341.000000	97.505247 
2340.000000	97.503153 
2339.000000	97.502019 
2338.000000	97.501263 
2337.000000	97.499958 
2336.000000	97.499386 
2335.000000	97.501260 
2334.000000	97.504387 
2333.000000	97.506064 
2332.000000	97.506758 
2331.000000	97.508952 
2330.000000	97.513426 
2329.000000	97.518299 
2328.000000	97.523373 
2327.000000	97.529458 
2326.000000	97.535208 
2325.000000	97.538637 
2324.000000	97.539634 
2323.000000	97.540461 
2322.000000	97.540607 
2321.000000	97.538191 
2320.000000	97.534300 
2319.000000	97.532776 
2318.000000	97.534950 
2317.000000	97.537099 
2316.000000	97.536083 
2315.000000	97.532842 
2314.000000	97.531033 
2313.000000	97.532568 
2312.000000	97.537888 
2311.000000	97.546513 
2310.000000	97.555942 
2309.000000	97.562287 
2308.000000	97.563769 
2307.000000	97.562884 
2306.000000	97.562387 
2305.000000	97.563001 
2304.000000	97.564357 
2303.000000	97.567215 
2302.000000	97.572269 
2301.000000	97.578348 
2300.000000	97.582679 
2299.000000	97.582309 
2298.000000	97.575866 
2297.000000	97.563815 
2296.000000	97.549294 
2295.000000	97.536715 
2294.000000	97.528262 
2293.000000	97.522666 
2292.000000	97.517698 
2291.000000	97.513005 
2290.000000	97.509052 
2289.000000	97.505909 
2288.000000	97.502935 
2287.000000	97.499694 
2286.000000	97.495836 
2285.000000	97.491876 
2284.000000	97.489325 
2283.000000	97.489151 
2282.000000	97.489696 
2281.000000	97.488065 
2280.000000	97.483467 
2279.000000	97.477492 
2278.000000	97.471373 
2277.000000	97.465271 
2276.000000	97.460440 
2275.000000	97.458804 
2274.000000	97.460221 
2273.000000	97.462605 
2272.000000	97.465237 
2271.000000	97.469015 
2270.000000	97.473078 
2269.000000	97.474635 
2268.000000	97.473002 
2267.000000	97.470711 
2266.000000	97.469706 
2265.000000	97.469026 
2264.000000	97.467076 
2263.000000	97.463649 
2262.000000	97.458939 
2261.000000	97.453035 
2260.000000	97.447089 
2259.000000	97.443087 
2258.000000	97.441604 
2257.000000	97.441466 
2256.000000	97.441767 
2255.000000	97.442736 
2254.000000	97.444199 
2253.000000	97.444644 
2252.000000	97.442862 
2251.000000	97.439236 
2250.000000	97.434725 
2249.000000	97.429808 
2248.000000	97.425131 
2247.000000	97.421920 
2246.000000	97.420699 
2245.000000	97.420447 
2244.000000	97.419513 
2243.000000	97.417328 
2242.000000	97.414546 
2241.000000	97.412056 
2240.000000	97.410252 
2239.000000	97.409019 
2238.000000	97.407955 
2237.000000	97.406663 
2236.000000	97.405071 
2235.000000	97.403378 
2234.000000	97.401702 
2233.000000	97.399987 
2232.000000	97.398228 
2231.000000	97.396526 
2230.000000	97.394907 
2229.000000	97.393242 
2228.000000	97.391440 
2227.000000	97.389587 
2226.000000	97.387814 
2225.000000	97.386106 
2224.000000	97.384361 
2223.000000	97.382572 
2222.000000	97.380817 
2221.000000	97.379146 
2220.000000	97.377538 
2219.000000	97.375963 
2218.000000	97.374409 
2217.000000	97.372877 
2216.000000	97.371374 
2215.000000	97.369907 
2214.000000	97.368479 
2213.000000	97.367093 
2212.000000	97.365763 
2211.000000	97.364516 
2210.000000	97.363369 
2209.000000	97.362311 
2208.000000	97.361309 
2207.000000	97.360330 
2206.000000	97.359347 
2205.000000	97.358342 
2204.000000	97.357293 
2203.000000	97.356187 
2202.000000	97.355027 
2201.000000	97.353876 
2200.000000	97.352800 
2199.000000	97.351568 
2198.000000	97.350064 
2197.000000	97.348499 
2196.000000	97.347240 
2195.000000	97.346488 
2194.000000	97.346054 
2193.000000	97.345543 
2192.000000	97.344829 
2191.000000	97.344085 
2190.000000	97.343276 
2189.000000	97.342156 
2188.000000	97.340998 
2187.000000	97.340451 
2186.000000	97.340175 
2185.000000	97.338701 
2184.000000	97.335794 
2183.000000	97.333994 
2182.000000	97.335986 
2181.000000	97.340995 
2180.000000	97.344870 
2179.000000	97.344567 
2178.000000	97.340870 
2177.000000	97.337167 
2176.000000	97.336322 
2175.000000	97.338829 
2174.000000	97.343016 
2173.000000	97.346590 
2172.000000	97.348833 
2171.000000	97.350919 
2170.000000	97.353308 
2169.000000	97.353825 
2168.000000	97.350062 
2167.000000	97.343176 
2166.000000	97.337141 
2165.000000	97.333848 
2164.000000	97.331071 
2163.000000	97.326186 
2162.000000	97.320651 
2161.000000	97.319565 
2160.000000	97.327096 
2159.000000	97.342657 
2158.000000	97.360703 
2157.000000	97.374955 
2156.000000	97.383158 
2155.000000	97.386839 
2154.000000	97.388360 
2153.000000	97.389911 
2152.000000	97.393554 
2151.000000	97.399202 
2150.000000	97.403068 
2149.000000	97.401585 
2148.000000	97.397232 
2147.000000	97.396850 
2146.000000	97.403154 
2145.000000	97.411843 
2144.000000	97.418579 
2143.000000	97.424699 
2142.000000	97.432927 
2141.000000	97.441481 
2140.000000	97.446808 
2139.000000	97.449902 
2138.000000	97.455487 
2137.000000	97.465468 
2136.000000	97.476311 
2135.000000	97.482565 
2134.000000	97.480970 
2133.000000	97.472679 
2132.000000	97.463775 
2131.000000	97.461320 
2130.000000	97.466825 
2129.000000	97.474774 
2128.000000	97.478750 
2127.000000	97.478017 
2126.000000	97.476644 
2125.000000	97.477829 
2124.000000	97.481039 
2123.000000	97.483912 
2122.000000	97.484754 
2121.000000	97.483210 
2120.000000	97.479989 
2119.000000	97.476182 
2118.000000	97.472419 
2117.000000	97.468941 
2116.000000	97.466272 
2115.000000	97.464675 
2114.000000	97.462926 
2113.000000	97.459262 
2112.000000	97.454208 
2111.000000	97.450761 
2110.000000	97.450849 
2109.000000	97.453177 
2108.000000	97.455389 
2107.000000	97.456742 
2106.000000	97.457565 
2105.000000	97.458033 
2104.000000	97.458766 
2103.000000	97.460655 
2102.000000	97.462597 
2101.000000	97.461355 
2100.000000	97.455550 
2099.000000	97.448563 
2098.000000	97.445606 
2097.000000	97.448428 
2096.000000	97.454629 
2095.000000	97.460491 
2094.000000	97.463584 
2093.000000	97.463232 
2092.000000	97.460240 
2091.000000	97.456698 
2090.000000	97.454753 
2089.000000	97.454979 
2088.000000	97.456262 
2087.000000	97.457000 
2086.000000	97.456055 
2085.000000	97.453065 
2084.000000	97.448850 
2083.000000	97.445114 
2082.000000	97.442859 
2081.000000	97.441527 
2080.000000	97.440305 
2079.000000	97.439446 
2078.000000	97.439220 
2077.000000	97.438410 
2076.000000	97.435584 
2075.000000	97.431433 
2074.000000	97.428014 
2073.000000	97.425816 
2072.000000	97.423300 
2071.000000	97.419324 
2070.000000	97.414384 
2069.000000	97.409533 
2068.000000	97.405607 
2067.000000	97.403223 
2066.000000	97.402234 
2065.000000	97.401042 
2064.000000	97.397758 
2063.000000	97.392354 
2062.000000	97.386903 
2061.000000	97.383556 
2060.000000	97.382788 
2059.000000	97.383627 
2058.000000	97.384408 
2057.000000	97.383530 
2056.000000	97.380334 
2055.000000	97.375336 
2054.000000	97.369814 
2053.000000	97.364992 
2052.000000	97.361468 
2051.000000	97.359002 
2050.000000	97.356718 
2049.000000	97.353944 
2048.000000	97.351070 
2047.000000	97.349056 
2046.000000	97.348039 
2045.000000	97.347159 
2044.000000	97.345851 
2043.000000	97.344508 
2042.000000	97.343617 
2041.000000	97.343040 
2040.000000	97.342571 
2039.000000	97.342531 
2038.000000	97.343112 
2037.000000	97.343587 
2036.000000	97.343040 
2035.000000	97.341634 
2034.000000	97.340566 
2033.000000	97.340878 
2032.000000	97.342652 
2031.000000	97.344944 
2030.000000	97.346164 
2029.000000	97.345147 
2028.000000	97.342221 
2027.000000	97.339144 
2026.000000	97.337332 
2025.000000	97.336743 
2024.000000	97.336932 
2023.000000	97.338311 
2022.000000	97.341493 
2021.000000	97.345581 
2020.000000	97.348220 
2019.000000	97.347657 
2018.000000	97.343907 
2017.000000	97.338630 
2016.000000	97.334362 
2015.000000	97.333101 
2014.000000	97.334521 
2013.000000	97.335663 
2012.000000	97.334264 
2011.000000	97.332198 
2010.000000	97.333361 
2009.000000	97.338470 
2008.000000	97.344170 
2007.000000	97.347582 
2006.000000	97.349255 
2005.000000	97.350915 
2004.000000	97.352966 
2003.000000	97.355334 
2002.000000	97.358475 
2001.000000	97.361856 
2000.000000	97.363205 
1999.000000	97.360119 
1998.000000	97.352009 
1997.000000	97.340859 
1996.000000	97.330729 
1995.000000	97.325649 
1994.000000	97.326661 
1993.000000	97.330473 
1992.000000	97.332153 
1991.000000	97.330407 
1990.000000	97.328518 
1989.000000	97.329658 
1988.000000	97.332902 
1987.000000	97.334145 
1986.000000	97.330030 
1985.000000	97.321001 
1984.000000	97.311115 
1983.000000	97.304662 
1982.000000	97.302492 
1981.000000	97.302264 
1980.000000	97.302814 
1979.000000	97.306083 
1978.000000	97.313200 
1977.000000	97.320867 
1976.000000	97.324462 
1975.000000	97.324118 
1974.000000	97.324476 
1973.000000	97.329125 
1972.000000	97.337360 
1971.000000	97.345738 
1970.000000	97.350876 
1969.000000	97.350927 
1968.000000	97.346362 
1967.000000	97.340308 
1966.000000	97.337035 
1965.000000	97.338981 
1964.000000	97.345673 
1963.000000	97.354942 
1962.000000	97.364394 
1961.000000	97.372021 
1960.000000	97.376460 
1959.000000	97.377492 
1958.000000	97.376593 
1957.000000	97.376421 
1956.000000	97.378819 
1955.000000	97.383093 
1954.000000	97.386753 
1953.000000	97.388214 
1952.000000	97.388051 
1951.000000	97.387778 
1950.000000	97.388295 
1949.000000	97.390123 
1948.000000	97.394145 
1947.000000	97.400476 
1946.000000	97.407102 
1945.000000	97.411251 
1944.000000	97.412150 
1943.000000	97.411317 
1942.000000	97.410487 
1941.000000	97.410176 
1940.000000	97.410373 
1939.000000	97.411238 
1938.000000	97.412927 
1937.000000	97.415503 
1936.000000	97.418953 
1935.000000	97.422753 
1934.000000	97.425686 
1933.000000	97.427046 
1932.000000	97.427831 
1931.000000	97.429911 
1930.000000	97.433609 
1929.000000	97.437152 
1928.000000	97.439250 
1927.000000	97.440579 
1926.000000	97.442323 
1925.000000	97.444209 
1924.000000	97.445428 
1923.000000	97.446323 
1922.000000	97.447353 
1921.000000	97.447900 
1920.000000	97.447505 
1919.000000	97.447075 
1918.000000	97.447483 
1917.000000	97.448015 
1916.000000	97.447906 
1915.000000	97.447761 
1914.000000	97.448266 
1913.000000	97.448930 
1912.000000	97.448895 
1911.000000	97.448397 
1910.000000	97.448301 
1909.000000	97.448859 
1908.000000	97.449812 
1907.000000	97.450837 
1906.000000	97.451534 
1905.000000	97.451385 
1904.000000	97.450472 
1903.000000	97.449689 
1902.000000	97.449638 
1901.000000	97.450055 
1900.000000	97.450440 
1899.000000	97.450643 
1898.000000	97.450779 
1897.000000	97.450857 
1896.000000	97.450814 
1895.000000	97.450717 
1894.000000	97.450631 
1893.000000	97.450496 
1892.000000	97.450271 
1891.000000	97.450092 
1890.000000	97.450106 
1889.000000	97.450257 
1888.000000	97.450425 
1887.000000	97.450585 
1886.000000	97.450757 
1885.000000	97.450933 
1884.000000	97.451123 
1883.000000	97.451355 
1882.000000	97.451645 
1881.000000	97.452000 
1880.000000	97.452422 
1879.000000	97.452909 
1878.000000	97.453454 
1877.000000	97.454049 
1876.000000	97.454693 
1875.000000	97.455391 
1874.000000	97.456149 
1873.000000	97.456955 
1872.000000	97.457781 
1871.000000	97.458603 
1870.000000	97.459417 
1869.000000	97.460227 
1868.000000	97.461040 
1867.000000	97.461920 
1866.000000	97.462916 
1865.000000	97.463941 
1864.000000	97.464852 
1863.000000	97.465655 
1862.000000	97.466562 
1861.000000	97.467693 
1860.000000	97.468934 
1859.000000	97.470221 
1858.000000	97.471635 
1857.000000	97.473171 
1856.000000	97.474721 
1855.000000	97.476247 
1854.000000	97.477734 
1853.000000	97.479060 
1852.000000	97.480220 
1851.000000	97.481422 
1850.000000	97.482846 
1849.000000	97.484435 
1848.000000	97.485960 
1847.000000	97.487314 
1846.000000	97.488544 
1845.000000	97.489705 
1844.000000	97.490813 
1843.000000	97.492026 
1842.000000	97.493414 
1841.000000	97.494712 
1840.000000	97.495800 
1839.000000	97.496920 
1838.000000	97.498253 
1837.000000	97.499435 
1836.000000	97.500041 
1835.000000	97.500338 
1834.000000	97.500960 
1833.000000	97.501949 
1832.000000	97.502773 
1831.000000	97.503022 
1830.000000	97.502902 
1829.000000	97.502978 
1828.000000	97.503426 
1827.000000	97.504043 
1826.000000	97.504901 
1825.000000	97.506134 
1824.000000	97.507266 
1823.000000	97.507906 
1822.000000	97.508306 
1821.000000	97.508710 
1820.000000	97.508906 
1819.000000	97.508888 
1818.000000	97.509507 
1817.000000	97.511013 
1816.000000	97.512179 
1815.000000	97.512206 
1814.000000	97.511856 
1813.000000	97.512276 
1812.000000	97.512917 
1811.000000	97.512649 
1810.000000	97.512036 
1809.000000	97.511836 
1808.000000	97.511658 
1807.000000	97.511404 
1806.000000	97.511749 
1805.000000	97.512413 
1804.000000	97.512145 
1803.000000	97.511099 
1802.000000	97.510733 
1801.000000	97.511511 
1800.000000	97.511624 
1799.000000	97.510228 
1798.000000	97.509194 
1797.000000	97.509504 
1796.000000	97.510095 
1795.000000	97.510204 
1794.000000	97.510655 
1793.000000	97.512209 
1792.000000	97.513660 
1791.000000	97.514631 
1790.000000	97.516322 
1789.000000	97.518447 
1788.000000	97.520012 
1787.000000	97.521129 
1786.000000	97.522618 
1785.000000	97.524244 
1784.000000	97.525113 
1783.000000	97.525338 
1782.000000	97.525474 
1781.000000	97.526282 
1780.000000	97.527874 
1779.000000	97.529770 
1778.000000	97.531650 
1777.000000	97.533343 
1776.000000	97.534829 
1775.000000	97.535930 
1774.000000	97.536575 
1773.000000	97.537092 
1772.000000	97.537752 
1771.000000	97.538560 
1770.000000	97.539528 
1769.000000	97.540663 
1768.000000	97.541933 
1767.000000	97.543200 
1766.000000	97.544304 
1765.000000	97.545245 
1764.000000	97.546105 
1763.000000	97.546970 
1762.000000	97.547878 
1761.000000	97.548846 
1760.000000	97.549816 
1759.000000	97.550694 
1758.000000	97.551487 
1757.000000	97.552364 
1756.000000	97.553472 
1755.000000	97.554567 
1754.000000	97.555237 
1753.000000	97.555425 
1752.000000	97.555678 
1751.000000	97.556411 
1750.000000	97.557309 
1749.000000	97.557772 
1748.000000	97.557680 
1747.000000	97.557177 
1746.000000	97.556219 
1745.000000	97.555501 
1744.000000	97.555949 
1743.000000	97.557248 
1742.000000	97.557976 
1741.000000	97.557430 
1740.000000	97.556496 
1739.000000	97.556858 
1738.000000	97.558592 
1737.000000	97.559705 
1736.000000	97.558965 
1735.000000	97.558715 
1734.000000	97.559639 
1733.000000	97.559271 
1732.000000	97.557751 
1731.000000	97.556500 
1730.000000	97.556907 
1729.000000	97.558799 
1728.000000	97.560039 
1727.000000	97.559237 
1726.000000	97.557049 
1725.000000	97.555734 
1724.000000	97.555735 
1723.000000	97.556380 
1722.000000	97.557420 
1721.000000	97.557550 
1720.000000	97.555105 
1719.000000	97.551334 
1718.000000	97.550257 
1717.000000	97.550862 
1716.000000	97.548371 
1715.000000	97.543733 
1714.000000	97.541113 
1713.000000	97.540359 
1712.000000	97.538338 
1711.000000	97.534796 
1710.000000	97.531907 
1709.000000	97.529583 
1708.000000	97.525539 
1707.000000	97.519460 
1706.000000	97.514629 
1705.000000	97.512088 
1704.000000	97.509026 
1703.000000	97.503488 
1702.000000	97.497104 
1701.000000	97.493752 
1700.000000	97.491426 
1699.000000	97.487855 
1698.000000	97.484508 
1697.000000	97.480616 
1696.000000	97.475957 
1695.000000	97.471692 
1694.000000	97.468077 
1693.000000	97.463794 
1692.000000	97.458039 
1691.000000	97.451932 
1690.000000	97.446499 
1689.000000	97.441733 
1688.000000	97.437281 
1687.000000	97.432542 
1686.000000	97.427521 
1685.000000	97.422764 
1684.000000	97.417380 
1683.000000	97.411415 
1682.000000	97.405800 
1681.000000	97.400049 
1680.000000	97.395033 
1679.000000	97.391391 
1678.000000	97.387259 
1677.000000	97.381153 
1676.000000	97.374568 
1675.000000	97.369406 
1674.000000	97.364217 
1673.000000	97.357668 
1672.000000	97.349883 
1671.000000	97.342831 
1670.000000	97.336745 
1669.000000	97.329646 
1668.000000	97.324692 
1667.000000	97.323926 
1666.000000	97.323221 
1665.000000	97.318821 
1664.000000	97.311735 
1663.000000	97.306099 
1662.000000	97.301113 
1661.000000	97.294189 
1660.000000	97.287483 
1659.000000	97.283146 
1658.000000	97.279773 
1657.000000	97.274711 
1656.000000	97.269323 
1655.000000	97.264877 
1654.000000	97.265688 
1653.000000	97.254862 
1652.000000	97.235432 
1651.000000	97.231753 
1650.000000	97.230207 
1649.000000	97.221351 
1648.000000	97.214844 
1647.000000	97.213555 
1646.000000	97.213144 
1645.000000	97.211164 
1644.000000	97.208253 
1643.000000	97.206085 
1642.000000	97.206212 
1641.000000	97.208527 
1640.000000	97.211801 
1639.000000	97.213776 
1638.000000	97.212861 
1637.000000	97.210706 
1636.000000	97.209101 
1635.000000	97.205761 
1634.000000	97.204356 
1633.000000	97.205710 
1632.000000	97.205790 
1631.000000	97.207279 
1630.000000	97.211289 
1629.000000	97.214597 
1628.000000	97.217143 
1627.000000	97.223016 
1626.000000	97.231078 
1625.000000	97.236799 
1624.000000	97.241471 
1623.000000	97.249847 
1622.000000	97.261120 
1621.000000	97.271372 
1620.000000	97.280421 
1619.000000	97.289888 
1618.000000	97.300143 
1617.000000	97.304858 
1616.000000	97.304501 
1615.000000	97.309128 
1614.000000	97.317367 
1613.000000	97.321585 
1612.000000	97.323966 
1611.000000	97.330370 
1610.000000	97.338721 
1609.000000	97.345446 
1608.000000	97.354766 
1607.000000	97.370148 
1606.000000	97.383992 
1605.000000	97.390639 
1604.000000	97.395842 
1603.000000	97.404492 
1602.000000	97.413295 
1601.000000	97.418775 
1600.000000	97.424057 
1599.000000	97.431707 
1598.000000	97.438466 
1597.000000	97.441882 
1596.000000	97.444920 
1595.000000	97.450913 
1594.000000	97.457785 
1593.000000	97.462468 
1592.000000	97.466702 
1591.000000	97.473227 
1590.000000	97.480138 
1589.000000	97.484783 
1588.000000	97.489280 
1587.000000	97.496698 
1586.000000	97.504652 
1585.000000	97.508585 
1584.000000	97.511291 
1583.000000	97.516418 
1582.000000	97.520819 
1581.000000	97.522009 
1580.000000	97.524177 
1579.000000	97.529931 
1578.000000	97.536243 
1577.000000	97.541181 
1576.000000	97.544978 
1575.000000	97.549876 
1574.000000	97.554260 
1573.000000	97.555084 
1572.000000	97.554993 
1571.000000	97.559054 
1570.000000	97.562988 
1569.000000	97.560326 
1568.000000	97.558307 
1567.000000	97.560137 
1566.000000	97.559901 
1565.000000	97.555846 
1564.000000	97.554437 
1563.000000	97.553337 
1562.000000	97.546381 
1561.000000	97.530364 
1560.000000	97.531510 
1559.000000	97.546831 
1558.000000	97.542779 
1557.000000	97.530098 
1556.000000	97.521142 
1555.000000	97.515911 
1554.000000	97.513830 
1553.000000	97.510067 
1552.000000	97.502684 
1551.000000	97.492464 
1550.000000	97.484018 
1549.000000	97.478309 
1548.000000	97.472828 
1547.000000	97.465384 
1546.000000	97.455140 
1545.000000	97.443715 
1544.000000	97.433353 
1543.000000	97.425184 
1542.000000	97.419627 
1541.000000	97.413141 
1540.000000	97.396048 
1539.000000	97.373552 
1538.000000	97.358623 
1537.000000	97.346239 
1536.000000	97.328599 
1535.000000	97.309927 
1534.000000	97.296330 
1533.000000	97.288190 
1532.000000	97.281164 
1531.000000	97.271869 
1530.000000	97.259597 
1529.000000	97.244646 
1528.000000	97.228513 
1527.000000	97.214475 
1526.000000	97.204098 
1525.000000	97.195045 
1524.000000	97.183761 
1523.000000	97.169955 
1522.000000	97.156472 
1521.000000	97.143683 
1520.000000	97.129954 
1519.000000	97.113682 
1518.000000	97.095321 
1517.000000	97.079129 
1516.000000	97.067885 
1515.000000	97.060116 
1514.000000	97.052586 
1513.000000	97.043577 
1512.000000	97.032008 
1511.000000	97.017284 
1510.000000	97.001448 
1509.000000	96.987089 
1508.000000	96.976907 
1507.000000	96.968742 
1506.000000	96.957452 
1505.000000	96.943956 
1504.000000	96.930345 
1503.000000	96.915432 
1502.000000	96.899930 
1501.000000	96.885367 
1500.000000	96.871756 
1499.000000	96.857928 
1498.000000	96.844319 
1497.000000	96.832847 
1496.000000	96.823058 
1495.000000	96.814952 
1494.000000	96.808999 
1493.000000	96.803677 
1492.000000	96.796923 
1491.000000	96.788704 
1490.000000	96.780322 
1489.000000	96.770987 
1488.000000	96.757877 
1487.000000	96.742749 
1486.000000	96.729551 
1485.000000	96.716897 
1484.000000	96.703110 
1483.000000	96.689173 
1482.000000	96.677907 
1481.000000	96.669715 
1480.000000	96.661272 
1479.000000	96.650544 
1478.000000	96.639179 
1477.000000	96.629093 
1476.000000	96.618982 
1475.000000	96.608003 
1474.000000	96.596537 
1473.000000	96.585284 
1472.000000	96.574758 
1471.000000	96.566823 
1470.000000	96.561914 
1469.000000	96.556185 
1468.000000	96.545902 
1467.000000	96.531680 
1466.000000	96.517410 
1465.000000	96.506498 
1464.000000	96.499484 
1463.000000	96.493165 
1462.000000	96.484884 
1461.000000	96.473843 
1460.000000	96.461235 
1459.000000	96.447185 
1458.000000	96.432259 
1457.000000	96.418008 
1456.000000	96.407767 
1455.000000	96.401040 
1454.000000	96.391824 
1453.000000	96.381093 
1452.000000	96.374092 
1451.000000	96.371504 
1450.000000	96.371300 
1449.000000	96.372200 
1448.000000	96.371877 
1447.000000	96.368691 
1446.000000	96.361981 
1445.000000	96.354669 
1444.000000	96.349255 
1443.000000	96.343590 
1442.000000	96.336558 
1441.000000	96.329958 
1440.000000	96.323951 
1439.000000	96.313599 
1438.000000	96.299335 
1437.000000	96.289715 
1436.000000	96.289327 
1435.000000	96.291769 
1434.000000	96.290730 
1433.000000	96.286561 
1432.000000	96.282428 
1431.000000	96.278296 
1430.000000	96.273617 
1429.000000	96.271560 
1428.000000	96.272659 
1427.000000	96.273939 
1426.000000	96.272256 
1425.000000	96.272376 
1424.000000	96.279738 
1423.000000	96.287291 
1422.000000	96.285859 
1421.000000	96.277200 
1420.000000	96.270768 
1419.000000	96.267367 
1418.000000	96.263225 
1417.000000	96.261385 
1416.000000	96.263689 
1415.000000	96.266670 
1414.000000	96.265953 
1413.000000	96.261852 
1412.000000	96.258562 
1411.000000	96.257364 
1410.000000	96.257550 
1409.000000	96.259432 
1408.000000	96.262045 
1407.000000	96.264823 
1406.000000	96.268684 
1405.000000	96.278003 
1404.000000	96.295097 
1403.000000	96.312943 
1402.000000	96.324212 
1401.000000	96.331237 
1400.000000	96.342786 
1399.000000	96.360731 
1398.000000	96.377056 
1397.000000	96.385151 
1396.000000	96.387278 
1395.000000	96.390947 
1394.000000	96.400652 
1393.000000	96.417429 
1392.000000	96.438617 
1391.000000	96.458239 
1390.000000	96.471899 
1389.000000	96.479884 
1388.000000	96.485582 
1387.000000	96.491656 
1386.000000	96.498113 
1385.000000	96.505366 
1384.000000	96.515610 
1383.000000	96.529139 
1382.000000	96.543504 
1381.000000	96.556015 
1380.000000	96.567390 
1379.000000	96.580552 
1378.000000	96.595801 
1377.000000	96.610092 
1376.000000	96.621054 
1375.000000	96.629926 
1374.000000	96.640181 
1373.000000	96.655147 
1372.000000	96.674767 
1371.000000	96.695917 
1370.000000	96.714867 
1369.000000	96.730871 
1368.000000	96.745906 
1367.000000	96.760346 
1366.000000	96.772673 
1365.000000	96.782856 
1364.000000	96.793408 
1363.000000	96.806345 
1362.000000	96.820844 
1361.000000	96.835512 
1360.000000	96.851027 
1359.000000	96.868338 
1358.000000	96.886027 
1357.000000	96.901878 
1356.000000	96.915747 
1355.000000	96.929162 
1354.000000	96.943227 
1353.000000	96.958142 
1352.000000	96.973570 
1351.000000	96.990099 
1350.000000	97.007008 
1349.000000	97.022580 
1348.000000	97.036178 
1347.000000	97.048395 
1346.000000	97.060662 
1345.000000	97.074210 
1344.000000	97.088716 
1343.000000	97.101912 
1342.000000	97.111960 
1341.000000	97.120133 
1340.000000	97.129813 
1339.000000	97.142124 
1338.000000	97.155112 
1337.000000	97.167616 
1336.000000	97.180261 
1335.000000	97.192774 
1334.000000	97.203700 
1333.000000	97.213100 
1332.000000	97.222978 
1331.000000	97.234296 
1330.000000	97.245602 
1329.000000	97.255799 
1328.000000	97.265783 
1327.000000	97.276504 
1326.000000	97.286855 
1325.000000	97.295509 
1324.000000	97.302514 
1323.000000	97.308002 
1322.000000	97.312107 
1321.000000	97.316433 
1320.000000	97.323329 
1319.000000	97.333020 
1318.000000	97.343632 
1317.000000	97.354066 
1316.000000	97.364413 
1315.000000	97.373740 
1314.000000	97.380624 
1313.000000	97.386215 
1312.000000	97.393692 
1311.000000	97.403900 
1310.000000	97.414214 
1309.000000	97.422609 
1308.000000	97.430072 
1307.000000	97.438509 
1306.000000	97.447850 
1305.000000	97.457142 
1304.000000	97.466201 
1303.000000	97.474546 
1302.000000	97.480822 
1301.000000	97.484513 
1300.000000	97.487084 
1299.000000	97.490393 
1298.000000	97.494881 
1297.000000	97.499617 
1296.000000	97.503476 
1295.000000	97.506110 
1294.000000	97.508548 
1293.000000	97.512548 
1292.000000	97.518370 
1291.000000	97.524041 
1290.000000	97.528074 
1289.000000	97.531653 
1288.000000	97.536189 
1287.000000	97.540038 
1286.000000	97.540488 
1285.000000	97.538416 
1284.000000	97.537937 
1283.000000	97.541116 
1282.000000	97.545542 
1281.000000	97.547717 
1280.000000	97.547083 
1279.000000	97.545812 
1278.000000	97.546384 
1277.000000	97.549884 
1276.000000	97.555187 
1275.000000	97.559471 
1274.000000	97.560823 
1273.000000	97.560419 
1272.000000	97.560694 
1271.000000	97.561710 
1270.000000	97.561323 
1269.000000	97.558792 
1268.000000	97.555878 
1267.000000	97.554013 
1266.000000	97.552931 
1265.000000	97.552631 
1264.000000	97.554191 
1263.000000	97.557657 
1262.000000	97.560931 
1261.000000	97.561896 
1260.000000	97.560991 
1259.000000	97.560701 
1258.000000	97.562943 
1257.000000	97.566848 
1256.000000	97.568767 
1255.000000	97.565634 
1254.000000	97.559115 
1253.000000	97.554541 
1252.000000	97.554260 
1251.000000	97.554459 
1250.000000	97.551092 
1249.000000	97.546485 
1248.000000	97.546325 
1247.000000	97.551398 
1246.000000	97.556732 
1245.000000	97.558407 
1244.000000	97.557074 
1243.000000	97.555048 
1242.000000	97.554021 
1241.000000	97.555899 
1240.000000	97.561759 
1239.000000	97.568836 
1238.000000	97.571935 
1237.000000	97.569147 
1236.000000	97.563553 
1235.000000	97.558689 
1234.000000	97.555105 
1233.000000	97.552116 
1232.000000	97.549776 
1231.000000	97.547643 
1230.000000	97.544280 
1229.000000	97.539302 
1228.000000	97.533700 
1227.000000	97.527045 
1226.000000	97.516613 
1225.000000	97.500559 
1224.000000	97.480208 
1223.000000	97.458149 
1222.000000	97.435605 
1221.000000	97.412498 
1220.000000	97.388486 
1219.000000	97.362865 
1218.000000	97.334653 
1217.000000	97.303434 
1216.000000	97.268962 
1215.000000	97.230157 
1214.000000	97.186635 
1213.000000	97.141474 
1212.000000	97.099600 
1211.000000	97.061911 
1210.000000	97.023200 
1209.000000	96.977818 
1208.000000	96.925841 
1207.000000	96.871977 
1206.000000	96.819576 
1205.000000	96.767442 
1204.000000	96.712167 
1203.000000	96.652102 
1202.000000	96.589214 
1201.000000	96.527646 
1200.000000	96.470011 
1199.000000	96.414883 
1198.000000	96.358680 
1197.000000	96.299938 
1196.000000	96.240297 
1195.000000	96.181280 
1194.000000	96.121929 
1193.000000	96.060291 
1192.000000	95.995542 
1191.000000	95.927847 
1190.000000	95.857798 
1189.000000	95.786733 
1188.000000	95.715938 
1187.000000	95.644808 
1186.000000	95.571650 
1185.000000	95.496885 
1184.000000	95.423029 
1183.000000	95.350648 
1182.000000	95.277152 
1181.000000	95.201002 
1180.000000	95.123821 
1179.000000	95.046077 
1178.000000	94.964123 
1177.000000	94.874923 
1176.000000	94.780901 
1175.000000	94.686381 
1174.000000	94.591552 
1173.000000	94.494169 
1172.000000	94.395060 
1171.000000	94.296962 
1170.000000	94.199362 
1169.000000	94.099947 
1168.000000	94.000920 
1167.000000	93.909069 
1166.000000	93.829947 
1165.000000	93.767111 
1164.000000	93.726727 
1163.000000	93.716354 
1162.000000	93.736590 
1161.000000	93.777235 
1160.000000	93.822641 
1159.000000	93.858135 
1158.000000	93.872417 
1157.000000	93.859286 
1156.000000	93.819134 
1155.000000	93.756752 
1154.000000	93.677402 
1153.000000	93.586742 
1152.000000	93.492787 
1151.000000	93.403190 
1150.000000	93.319842 
1149.000000	93.239716 
1148.000000	93.161035 
1147.000000	93.084570 
1146.000000	93.008977 
1145.000000	92.929838 
1144.000000	92.844767 
1143.000000	92.755834 
1142.000000	92.666039 
1141.000000	92.576569 
1140.000000	92.487813 
1139.000000	92.399500 
1138.000000	92.309683 
1137.000000	92.217104 
1136.000000	92.124166 
1135.000000	92.033583 
1134.000000	91.942775 
1133.000000	91.846415 
1132.000000	91.744061 
1131.000000	91.640073 
1130.000000	91.536256 
1129.000000	91.430298 
1128.000000	91.321770 
1127.000000	91.213486 
1126.000000	91.105661 
1125.000000	90.994440 
1124.000000	90.877937 
1123.000000	90.758804 
1122.000000	90.639697 
1121.000000	90.521154 
1120.000000	90.404893 
1119.000000	90.293654 
1118.000000	90.186571 
1117.000000	90.080166 
1116.000000	89.974879 
1115.000000	89.875189 
1114.000000	89.782578 
1113.000000	89.694018 
1112.000000	89.607771 
1111.000000	89.524481 
1110.000000	89.442279 
1109.000000	89.357459 
1108.000000	89.269830 
1107.000000	89.181534 
1106.000000	89.091160 
1105.000000	88.995615 
1104.000000	88.897114 
1103.000000	88.800930 
1102.000000	88.706751 
1101.000000	88.610131 
1100.000000	88.511618 
1099.000000	88.416937 
1098.000000	88.327837 
1097.000000	88.240749 
1096.000000	88.153875 
1095.000000	88.067021 
1094.000000	87.975536 
1093.000000	87.874102 
1092.000000	87.766839 
1091.000000	87.664712 
1090.000000	87.572511 
1089.000000	87.486444 
1088.000000	87.403247 
1087.000000	87.321892 
1086.000000	87.237718 
1085.000000	87.146095 
1084.000000	87.051861 
1083.000000	86.964403 
1082.000000	86.883267 
1081.000000	86.799324 
1080.000000	86.709866 
1079.000000	86.620896 
1078.000000	86.534090 
1077.000000	86.443252 
1076.000000	86.344707 
1075.000000	86.239904 
1074.000000	86.127160 
1073.000000	86.002122 
1072.000000	85.866263 
1071.000000	85.722674 
1070.000000	85.563442 
1069.000000	85.375115 
1068.000000	85.158921 
1067.000000	84.933559 
1066.000000	84.715588 
1065.000000	84.508215 
1064.000000	84.310127 
1063.000000	84.119902 
1062.000000	83.927773 
1061.000000	83.718201 
1060.000000	83.487370 
1059.000000	83.247701 
1058.000000	83.011006 
1057.000000	82.777423 
1056.000000	82.543321 
1055.000000	82.307283 
1054.000000	82.064465 
1053.000000	81.807643 
1052.000000	81.538824 
1051.000000	81.268435 
1050.000000	80.999146 
1049.000000	80.723418 
1048.000000	80.439409 
1047.000000	80.154271 
1046.000000	79.870369 
1045.000000	79.583794 
1044.000000	79.297098 
1043.000000	79.018097 
1042.000000	78.745117 
1041.000000	78.468539 
1040.000000	78.188357 
1039.000000	77.915222 
1038.000000	77.653538 
1037.000000	77.399737 
1036.000000	77.157607 
1035.000000	76.937377 
1034.000000	76.738174 
1033.000000	76.549167 
1032.000000	76.369207 
1031.000000	76.206923 
1030.000000	76.060999 
1029.000000	75.920749 
1028.000000	75.787845 
1027.000000	75.676281 
1026.000000	75.587669 
1025.000000	75.506852 
1024.000000	75.425051 
1023.000000	75.347150 
1022.000000	75.273201 
1021.000000	75.193994 
1020.000000	75.108913 
1019.000000	75.027873 
1018.000000	74.951661 
1017.000000	74.870255 
1016.000000	74.784062 
1015.000000	74.706313 
1014.000000	74.640300 
1013.000000	74.574475 
1012.000000	74.504385 
1011.000000	74.439629 
1010.000000	74.384848 
1009.000000	74.333620 
1008.000000	74.285687 
1007.000000	74.251109 
1006.000000	74.233255 
1005.000000	74.225942 
1004.000000	74.229718 
1003.000000	74.251404 
1002.000000	74.285380 
1001.000000	74.316264 
1000.000000	74.343571 
999.000000	 74.383000 
998.000000	 74.439876 
997.000000	 74.502093 
996.000000	 74.562962 
995.000000	 74.630274 
994.000000	 74.708018 
993.000000	 74.789291 
992.000000	 74.872039 
991.000000	 74.962469 
990.000000	 75.058776 
989.000000	 75.150896 
988.000000	 75.240494 
987.000000	 75.341875 
986.000000	 75.459306 
985.000000	 75.582925 
984.000000	 75.710384 
983.000000	 75.852000 
982.000000	 76.009829 
981.000000	 76.171997 
980.000000	 76.333453 
979.000000	 76.503134 
978.000000	 76.684800 
977.000000	 76.869833 
976.000000	 77.055218 
975.000000	 77.250538 
974.000000	 77.460367 
973.000000	 77.676447 
972.000000	 77.893483 
971.000000	 78.116968 
970.000000	 78.349395 
969.000000	 78.583658 
968.000000	 78.815594 
967.000000	 79.049316 
966.000000	 79.285739 
965.000000	 79.519264 
964.000000	 79.749375 
963.000000	 79.982198 
962.000000	 80.217601 
961.000000	 80.447765 
960.000000	 80.670663 
959.000000	 80.891605 
958.000000	 81.109752 
957.000000	 81.317072 
956.000000	 81.512917 
955.000000	 81.706274 
954.000000	 81.901366 
953.000000	 82.093551 
952.000000	 82.280455 
951.000000	 82.463605 
950.000000	 82.638360 
949.000000	 82.796502 
948.000000	 82.940259 
947.000000	 83.080064 
946.000000	 83.216879 
945.000000	 83.340659 
944.000000	 83.448148 
943.000000	 83.548173 
942.000000	 83.646932 
941.000000	 83.741665 
940.000000	 83.832002 
939.000000	 83.924159 
938.000000	 84.020188 
937.000000	 84.115121 
936.000000	 84.207849 
935.000000	 84.303254 
934.000000	 84.401440 
933.000000	 84.496815 
932.000000	 84.589900 
931.000000	 84.687991 
930.000000	 84.791825 
929.000000	 84.893228 
928.000000	 84.988105 
927.000000	 85.080405 
926.000000	 85.171430 
925.000000	 85.256196 
924.000000	 85.332067 
923.000000	 85.400945 
922.000000	 85.462644 
921.000000	 85.516549 
920.000000	 85.568892 
919.000000	 85.626428 
918.000000	 85.683395 
917.000000	 85.727479 
916.000000	 85.759159 
915.000000	 85.793066 
914.000000	 85.840607 
913.000000	 85.904141 
912.000000	 85.987506 
911.000000	 86.097378 
910.000000	 86.232625 
909.000000	 86.385727 
908.000000	 86.555960 
907.000000	 86.748619 
906.000000	 86.961478 
905.000000	 87.185378 
904.000000	 87.417812 
903.000000	 87.662293 
902.000000	 87.915211 
901.000000	 88.167549 
900.000000	 88.418910 
899.000000	 88.675971 
898.000000	 88.937303 
897.000000	 89.193103 
896.000000	 89.438610 
895.000000	 89.674799 
894.000000	 89.898063 
893.000000	 90.103336 
892.000000	 90.296310 
891.000000	 90.488974 
890.000000	 90.683275 
889.000000	 90.870939 
888.000000	 91.047492 
887.000000	 91.214043 
886.000000	 91.368108 
885.000000	 91.506154 
884.000000	 91.632418 
883.000000	 91.751194 
882.000000	 91.854156 
881.000000	 91.932103 
880.000000	 91.996748 
879.000000	 92.071703 
878.000000	 92.160643 
877.000000	 92.243377 
876.000000	 92.305825 
875.000000	 92.354906 
874.000000	 92.401084 
873.000000	 92.445616 
872.000000	 92.490282 
871.000000	 92.541420 
870.000000	 92.597445 
869.000000	 92.647725 
868.000000	 92.690150 
867.000000	 92.737098 
866.000000	 92.800326 
865.000000	 92.883829 
864.000000	 92.995581 
863.000000	 93.151124 
862.000000	 93.357616 
861.000000	 93.604499 
860.000000	 93.874845 
859.000000	 94.156002 
858.000000	 94.435731 
857.000000	 94.699441 
856.000000	 94.937431 
855.000000	 95.148089 
854.000000	 95.331545 
853.000000	 95.487577 
852.000000	 95.621490 
851.000000	 95.743845 
850.000000	 95.861262 
849.000000	 95.973335 
848.000000	 96.078843 
847.000000	 96.177139 
846.000000	 96.263447 
845.000000	 96.332167 
844.000000	 96.386074 
843.000000	 96.433455 
842.000000	 96.474652 
841.000000	 96.500041 
840.000000	 96.502700 
839.000000	 96.484839 
838.000000	 96.451494 
837.000000	 96.407597 
836.000000	 96.362966 
835.000000	 96.329810 
834.000000	 96.310839 
833.000000	 96.297735 
832.000000	 96.284578 
831.000000	 96.275015 
830.000000	 96.274222 
829.000000	 96.283225 
828.000000	 96.304813 
827.000000	 96.345473 
826.000000	 96.406240 
825.000000	 96.479310 
824.000000	 96.556747 
823.000000	 96.633883 
822.000000	 96.703487 
821.000000	 96.758366 
820.000000	 96.801495 
819.000000	 96.842717 
818.000000	 96.882956 
817.000000	 96.909726 
816.000000	 96.909877 
815.000000	 96.880228 
814.000000	 96.824969 
813.000000	 96.748641 
812.000000	 96.651769 
811.000000	 96.526454 
810.000000	 96.355431 
809.000000	 96.122492 
808.000000	 95.825988 
807.000000	 95.478552 
806.000000	 95.095457 
805.000000	 94.689944 
804.000000	 94.278296 
803.000000	 93.879285 
802.000000	 93.507456 
801.000000	 93.175955 
800.000000	 92.904836 
799.000000	 92.713643 
798.000000	 92.604470 
797.000000	 92.563873 
796.000000	 92.580119 
795.000000	 92.644180 
794.000000	 92.735991 
793.000000	 92.828944 
792.000000	 92.911206 
791.000000	 92.987718 
790.000000	 93.059650 
789.000000	 93.116242 
788.000000	 93.147586 
787.000000	 93.150277 
786.000000	 93.118729 
785.000000	 93.045506 
784.000000	 92.933334 
783.000000	 92.795121 
782.000000	 92.642222 
781.000000	 92.486266 
780.000000	 92.351073 
779.000000	 92.264342 
778.000000	 92.234230 
777.000000	 92.249749 
776.000000	 92.305409 
775.000000	 92.406671 
774.000000	 92.547584 
773.000000	 92.702809 
772.000000	 92.849284 
771.000000	 92.981054 
770.000000	 93.098455 
769.000000	 93.198664 
768.000000	 93.282039 
767.000000	 93.352607 
766.000000	 93.406934 
765.000000	 93.437026 
764.000000	 93.449110 
763.000000	 93.464477 
762.000000	 93.495453 
761.000000	 93.534357 
760.000000	 93.571645 
759.000000	 93.610105 
758.000000	 93.654668 
757.000000	 93.703333 
756.000000	 93.756729 
755.000000	 93.823298 
754.000000	 93.905186 
753.000000	 93.988780 
752.000000	 94.057313 
751.000000	 94.106440 
750.000000	 94.144486 
749.000000	 94.185257 
748.000000	 94.241749 
747.000000	 94.316393 
746.000000	 94.395146 
745.000000	 94.461922 
744.000000	 94.520041 
743.000000	 94.586815 
742.000000	 94.666482 
741.000000	 94.744047 
740.000000	 94.808386 
739.000000	 94.866133 
738.000000	 94.929034 
737.000000	 95.001845 
736.000000	 95.086804 
735.000000	 95.185811 
734.000000	 95.293267 
733.000000	 95.399110 
732.000000	 95.501232 
731.000000	 95.601898 
730.000000	 95.692233 
729.000000	 95.758489 
728.000000	 95.802571 
727.000000	 95.841009 
726.000000	 95.886134 
725.000000	 95.940581 
724.000000	 96.008567 
723.000000	 96.095385 
722.000000	 96.193085 
721.000000	 96.282527 
720.000000	 96.354559 
719.000000	 96.416719 
718.000000	 96.475571 
717.000000	 96.527515 
716.000000	 96.571941 
715.000000	 96.615785 
714.000000	 96.659678 
713.000000	 96.696600 
712.000000	 96.728231 
711.000000	 96.764635 
710.000000	 96.801284 
709.000000	 96.827016 
708.000000	 96.839516 
707.000000	 96.845522 
706.000000	 96.847588 
705.000000	 96.837249 
704.000000	 96.806911 
703.000000	 96.759096 
702.000000	 96.694445 
701.000000	 96.602572 
700.000000	 96.475609 
699.000000	 96.317956 
698.000000	 96.142987 
697.000000	 95.969924 
696.000000	 95.825307 
695.000000	 95.738802 
694.000000	 95.723188 
693.000000	 95.765982 
692.000000	 95.845938 
691.000000	 95.945094 
690.000000	 96.049357 
689.000000	 96.147849 
688.000000	 96.235796 
687.000000	 96.313660 
686.000000	 96.378114 
685.000000	 96.425533 
684.000000	 96.464371 
683.000000	 96.507137 
682.000000	 96.553117 
681.000000	 96.592621 
680.000000	 96.626438 
679.000000	 96.664424 
678.000000	 96.707465 
677.000000	 96.751011 
676.000000	 96.794171 
675.000000	 96.840962 
674.000000	 96.889036 
673.000000	 96.924494 
672.000000	 96.933564 
671.000000	 96.908017 
670.000000	 96.842890 
669.000000	 96.746936 
668.000000	 96.707385 
667.000000	 96.813546 
666.000000	 96.985583 
665.000000	 97.116392 
664.000000	 97.199368 
663.000000	 97.254006 
662.000000	 97.297053 
661.000000	 97.338325 
660.000000	 97.380159 
659.000000	 97.420852 
658.000000	 97.456698 
657.000000	 97.485846 
656.000000	 97.504873 
655.000000	 97.511683 
654.000000	 97.510616 
653.000000	 97.509994 
652.000000	 97.516246 
651.000000	 97.533369 
650.000000	 97.561685 

