4000.000000	98.438750 
3999.000000	98.437633 
3998.000000	98.435679 
3997.000000	98.433794 
3996.000000	98.432674 
3995.000000	98.432547 
3994.000000	98.433312 
3993.000000	98.434551 
3992.000000	98.435597 
3991.000000	98.435873 
3990.000000	98.435288 
3989.000000	98.434202 
3988.000000	98.433025 
3987.000000	98.432055 
3986.000000	98.431616 
3985.000000	98.431913 
3984.000000	98.432688 
3983.000000	98.433345 
3982.000000	98.433711 
3981.000000	98.434226 
3980.000000	98.435165 
3979.000000	98.436009 
3978.000000	98.436067 
3977.000000	98.435450 
3976.000000	98.434964 
3975.000000	98.434981 
3974.000000	98.434937 
3973.000000	98.434129 
3972.000000	98.432491 
3971.000000	98.430562 
3970.000000	98.429035 
3969.000000	98.428362 
3968.000000	98.428530 
3967.000000	98.429152 
3966.000000	98.429750 
3965.000000	98.429980 
3964.000000	98.429644 
3963.000000	98.428710 
3962.000000	98.427456 
3961.000000	98.426414 
3960.000000	98.425846 
3959.000000	98.425532 
3958.000000	98.425162 
3957.000000	98.424782 
3956.000000	98.424565 
3955.000000	98.424488 
3954.000000	98.424404 
3953.000000	98.424235 
3952.000000	98.423999 
3951.000000	98.423694 
3950.000000	98.423299 
3949.000000	98.422832 
3948.000000	98.422391 
3947.000000	98.422101 
3946.000000	98.421974 
3945.000000	98.421889 
3944.000000	98.421738 
3943.000000	98.421565 
3942.000000	98.421437 
3941.000000	98.421333 
3940.000000	98.421226 
3939.000000	98.421127 
3938.000000	98.421041 
3937.000000	98.420971 
3936.000000	98.420916 
3935.000000	98.420878 
3934.000000	98.420853 
3933.000000	98.420835 
3932.000000	98.420828 
3931.000000	98.420839 
3930.000000	98.420876 
3929.000000	98.420937 
3928.000000	98.421008 
3927.000000	98.421077 
3926.000000	98.421140 
3925.000000	98.421206 
3924.000000	98.421286 
3923.000000	98.421378 
3922.000000	98.421474 
3921.000000	98.421572 
3920.000000	98.421683 
3919.000000	98.421819 
3918.000000	98.421971 
3917.000000	98.422121 
3916.000000	98.422260 
3915.000000	98.422395 
3914.000000	98.422543 
3913.000000	98.422707 
3912.000000	98.422874 
3911.000000	98.423032 
3910.000000	98.423187 
3909.000000	98.423351 
3908.000000	98.423520 
3907.000000	98.423676 
3906.000000	98.423801 
3905.000000	98.423899 
3904.000000	98.423985 
3903.000000	98.424068 
3902.000000	98.424149 
3901.000000	98.424215 
3900.000000	98.424260 
3899.000000	98.424292 
3898.000000	98.424321 
3897.000000	98.424352 
3896.000000	98.424375 
3895.000000	98.424390 
3894.000000	98.424411 
3893.000000	98.424449 
3892.000000	98.424496 
3891.000000	98.424542 
3890.000000	98.424583 
3889.000000	98.424622 
3888.000000	98.424652 
3887.000000	98.424659 
3886.000000	98.424644 
3885.000000	98.424623 
3884.000000	98.424605 
3883.000000	98.424573 
3882.000000	98.424508 
3881.000000	98.424416 
3880.000000	98.424330 
3879.000000	98.424273 
3878.000000	98.424240 
3877.000000	98.424209 
3876.000000	98.424165 
3875.000000	98.424115 
3874.000000	98.424078 
3873.000000	98.424057 
3872.000000	98.424028 
3871.000000	98.423963 
3870.000000	98.423867 
3869.000000	98.423776 
3868.000000	98.423710 
3867.000000	98.423650 
3866.000000	98.423576 
3865.000000	98.423501 
3864.000000	98.423454 
3863.000000	98.423432 
3862.000000	98.423413 
3861.000000	98.423392 
3860.000000	98.423389 
3859.000000	98.423417 
3858.000000	98.423467 
3857.000000	98.423527 
3856.000000	98.423582 
3855.000000	98.423616 
3854.000000	98.423628 
3853.000000	98.423630 
3852.000000	98.423614 
3851.000000	98.423563 
3850.000000	98.423471 
3849.000000	98.423347 
3848.000000	98.423214 
3847.000000	98.423093 
3846.000000	98.422996 
3845.000000	98.422927 
3844.000000	98.422880 
3843.000000	98.422853 
3842.000000	98.422854 
3841.000000	98.422898 
3840.000000	98.422988 
3839.000000	98.423107 
3838.000000	98.423232 
3837.000000	98.423348 
3836.000000	98.423453 
3835.000000	98.423558 
3834.000000	98.423673 
3833.000000	98.423798 
3832.000000	98.423928 
3831.000000	98.424063 
3830.000000	98.424204 
3829.000000	98.424354 
3828.000000	98.424515 
3827.000000	98.424678 
3826.000000	98.424833 
3825.000000	98.424985 
3824.000000	98.425138 
3823.000000	98.425280 
3822.000000	98.425394 
3821.000000	98.425492 
3820.000000	98.425608 
3819.000000	98.425749 
3818.000000	98.425884 
3817.000000	98.425977 
3816.000000	98.426034 
3815.000000	98.426089 
3814.000000	98.426153 
3813.000000	98.426212 
3812.000000	98.426259 
3811.000000	98.426313 
3810.000000	98.426402 
3809.000000	98.426533 
3808.000000	98.426688 
3807.000000	98.426853 
3806.000000	98.427032 
3805.000000	98.427229 
3804.000000	98.427428 
3803.000000	98.427600 
3802.000000	98.427741 
3801.000000	98.427876 
3800.000000	98.428017 
3799.000000	98.428133 
3798.000000	98.428195 
3797.000000	98.428214 
3796.000000	98.428221 
3795.000000	98.428233 
3794.000000	98.428234 
3793.000000	98.428209 
3792.000000	98.428158 
3791.000000	98.428094 
3790.000000	98.428022 
3789.000000	98.427955 
3788.000000	98.427907 
3787.000000	98.427887 
3786.000000	98.427900 
3785.000000	98.427957 
3784.000000	98.428070 
3783.000000	98.428229 
3782.000000	98.428409 
3781.000000	98.428596 
3780.000000	98.428799 
3779.000000	98.429025 
3778.000000	98.429251 
3777.000000	98.429440 
3776.000000	98.429584 
3775.000000	98.429708 
3774.000000	98.429837 
3773.000000	98.429980 
3772.000000	98.430129 
3771.000000	98.430291 
3770.000000	98.430487 
3769.000000	98.430723 
3768.000000	98.430976 
3767.000000	98.431217 
3766.000000	98.431441 
3765.000000	98.431667 
3764.000000	98.431910 
3763.000000	98.432161 
3762.000000	98.432400 
3761.000000	98.432620 
3760.000000	98.432833 
3759.000000	98.433043 
3758.000000	98.433239 
3757.000000	98.433419 
3756.000000	98.433605 
3755.000000	98.433810 
3754.000000	98.434027 
3753.000000	98.434251 
3752.000000	98.434494 
3751.000000	98.434758 
3750.000000	98.435058 
3749.000000	98.435231 
3748.000000	98.435371 
3747.000000	98.436324 
3746.000000	98.437761 
3745.000000	98.437931 
3744.000000	98.437862 
3743.000000	98.439664 
3742.000000	98.441138 
3741.000000	98.438964 
3740.000000	98.433359 
3739.000000	98.429046 
3738.000000	98.428333 
3737.000000	98.427057 
3736.000000	98.422061 
3735.000000	98.417780 
3734.000000	98.418660 
3733.000000	98.421184 
3732.000000	98.421022 
3731.000000	98.420473 
3730.000000	98.423700 
3729.000000	98.429324 
3728.000000	98.431059 
3727.000000	98.426610 
3726.000000	98.421867 
3725.000000	98.420958 
3724.000000	98.419845 
3723.000000	98.414359 
3722.000000	98.406967 
3721.000000	98.401604 
3720.000000	98.397886 
3719.000000	98.393622 
3718.000000	98.387852 
3717.000000	98.383532 
3716.000000	98.383696 
3715.000000	98.385358 
3714.000000	98.382811 
3713.000000	98.376942 
3712.000000	98.375498 
3711.000000	98.379596 
3710.000000	98.379939 
3709.000000	98.370119 
3708.000000	98.351780 
3707.000000	98.330939 
3706.000000	98.313127 
3705.000000	98.299561 
3704.000000	98.287259 
3703.000000	98.273131 
3702.000000	98.257365 
3701.000000	98.242234 
3700.000000	98.229525 
3699.000000	98.219083 
3698.000000	98.208515 
3697.000000	98.197260 
3696.000000	98.189132 
3695.000000	98.185409 
3694.000000	98.180831 
3693.000000	98.170531 
3692.000000	98.156402 
3691.000000	98.143605 
3690.000000	98.133576 
3689.000000	98.125214 
3688.000000	98.119002 
3687.000000	98.116125 
3686.000000	98.114753 
3685.000000	98.110931 
3684.000000	98.103847 
3683.000000	98.096984 
3682.000000	98.092006 
3681.000000	98.085425 
3680.000000	98.074866 
3679.000000	98.063256 
3678.000000	98.053736 
3677.000000	98.044005 
3676.000000	98.033240 
3675.000000	98.025817 
3674.000000	98.022874 
3673.000000	98.020890 
3672.000000	98.015717 
3671.000000	98.006807 
3670.000000	97.998070 
3669.000000	97.992121 
3668.000000	97.986968 
3667.000000	97.980504 
3666.000000	97.973013 
3665.000000	97.965765 
3664.000000	97.959501 
3663.000000	97.953969 
3662.000000	97.948328 
3661.000000	97.942260 
3660.000000	97.936452 
3659.000000	97.931488 
3658.000000	97.926824 
3657.000000	97.921232 
3656.000000	97.915319 
3655.000000	97.911130 
3654.000000	97.909248 
3653.000000	97.907457 
3652.000000	97.902346 
3651.000000	97.894310 
3650.000000	97.889196 
3649.000000	97.889550 
3648.000000	97.890596 
3647.000000	97.888953 
3646.000000	97.886660 
3645.000000	97.885986 
3644.000000	97.886294 
3643.000000	97.886075 
3642.000000	97.885360 
3641.000000	97.885419 
3640.000000	97.885985 
3639.000000	97.885398 
3638.000000	97.883880 
3637.000000	97.883321 
3636.000000	97.883488 
3635.000000	97.881193 
3634.000000	97.876461 
3633.000000	97.874613 
3632.000000	97.878731 
3631.000000	97.881809 
3630.000000	97.874205 
3629.000000	97.861436 
3628.000000	97.855975 
3627.000000	97.856791 
3626.000000	97.856125 
3625.000000	97.852004 
3624.000000	97.848762 
3623.000000	97.850369 
3622.000000	97.853564 
3621.000000	97.850702 
3620.000000	97.841221 
3619.000000	97.833773 
3618.000000	97.834370 
3617.000000	97.842016 
3616.000000	97.853414 
3615.000000	97.865163 
3614.000000	97.876343 
3613.000000	97.889170 
3612.000000	97.904388 
3611.000000	97.917810 
3610.000000	97.924097 
3609.000000	97.922865 
3608.000000	97.919124 
3607.000000	97.916779 
3606.000000	97.915237 
3605.000000	97.914078 
3604.000000	97.915543 
3603.000000	97.921726 
3602.000000	97.930944 
3601.000000	97.938510 
3600.000000	97.942332 
3599.000000	97.943536 
3598.000000	97.944101 
3597.000000	97.946054 
3596.000000	97.950847 
3595.000000	97.956770 
3594.000000	97.960921 
3593.000000	97.962093 
3592.000000	97.961845 
3591.000000	97.961959 
3590.000000	97.961105 
3589.000000	97.957155 
3588.000000	97.952596 
3587.000000	97.952140 
3586.000000	97.955362 
3585.000000	97.958314 
3584.000000	97.959316 
3583.000000	97.959791 
3582.000000	97.961607 
3581.000000	97.964462 
3580.000000	97.966417 
3579.000000	97.965867 
3578.000000	97.963174 
3577.000000	97.960313 
3576.000000	97.958953 
3575.000000	97.958751 
3574.000000	97.958001 
3573.000000	97.955930 
3572.000000	97.953452 
3571.000000	97.952112 
3570.000000	97.951515 
3569.000000	97.949328 
3568.000000	97.945464 
3567.000000	97.943432 
3566.000000	97.944947 
3565.000000	97.947602 
3564.000000	97.948402 
3563.000000	97.946611 
3562.000000	97.943658 
3561.000000	97.941321 
3560.000000	97.939930 
3559.000000	97.938552 
3558.000000	97.936454 
3557.000000	97.934087 
3556.000000	97.932491 
3555.000000	97.932045 
3554.000000	97.932082 
3553.000000	97.931773 
3552.000000	97.930935 
3551.000000	97.929829 
3550.000000	97.928606 
3549.000000	97.927197 
3548.000000	97.925581 
3547.000000	97.923851 
3546.000000	97.922075 
3545.000000	97.920313 
3544.000000	97.918752 
3543.000000	97.917556 
3542.000000	97.916653 
3541.000000	97.915845 
3540.000000	97.914992 
3539.000000	97.914034 
3538.000000	97.912913 
3537.000000	97.911620 
3536.000000	97.910258 
3535.000000	97.908952 
3534.000000	97.907728 
3533.000000	97.906522 
3532.000000	97.905313 
3531.000000	97.904159 
3530.000000	97.903063 
3529.000000	97.901898 
3528.000000	97.900527 
3527.000000	97.898951 
3526.000000	97.897303 
3525.000000	97.895774 
3524.000000	97.894540 
3523.000000	97.893667 
3522.000000	97.893024 
3521.000000	97.892353 
3520.000000	97.891468 
3519.000000	97.890363 
3518.000000	97.889128 
3517.000000	97.887831 
3516.000000	97.886473 
3515.000000	97.885086 
3514.000000	97.883793 
3513.000000	97.882694 
3512.000000	97.881749 
3511.000000	97.880789 
3510.000000	97.879683 
3509.000000	97.878463 
3508.000000	97.877259 
3507.000000	97.876137 
3506.000000	97.875025 
3505.000000	97.873822 
3504.000000	97.872524 
3503.000000	97.871236 
3502.000000	97.870042 
3501.000000	97.868912 
3500.000000	97.867736 
3499.000000	97.866436 
3498.000000	97.865043 
3497.000000	97.863682 
3496.000000	97.862450 
3495.000000	97.861290 
3494.000000	97.860074 
3493.000000	97.858805 
3492.000000	97.857623 
3491.000000	97.856569 
3490.000000	97.855503 
3489.000000	97.854296 
3488.000000	97.852983 
3487.000000	97.851619 
3486.000000	97.850140 
3485.000000	97.848583 
3484.000000	97.847257 
3483.000000	97.846415 
3482.000000	97.845930 
3481.000000	97.845488 
3480.000000	97.845041 
3479.000000	97.844680 
3478.000000	97.844115 
3477.000000	97.842763 
3476.000000	97.840494 
3475.000000	97.837897 
3474.000000	97.835665 
3473.000000	97.833986 
3472.000000	97.832523 
3471.000000	97.830819 
3470.000000	97.828749 
3469.000000	97.826659 
3468.000000	97.825101 
3467.000000	97.824498 
3466.000000	97.824924 
3465.000000	97.826002 
3464.000000	97.826888 
3463.000000	97.826572 
3462.000000	97.824598 
3461.000000	97.821496 
3460.000000	97.818281 
3459.000000	97.815344 
3458.000000	97.812210 
3457.000000	97.808450 
3456.000000	97.804523 
3455.000000	97.801452 
3454.000000	97.799840 
3453.000000	97.799505 
3452.000000	97.800060 
3451.000000	97.801194 
3450.000000	97.802274 
3449.000000	97.802260 
3448.000000	97.800514 
3447.000000	97.797467 
3446.000000	97.794045 
3445.000000	97.790763 
3444.000000	97.787764 
3443.000000	97.785347 
3442.000000	97.783830 
3441.000000	97.782901 
3440.000000	97.781607 
3439.000000	97.779200 
3438.000000	97.775817 
3437.000000	97.772290 
3436.000000	97.769545 
3435.000000	97.768208 
3434.000000	97.768406 
3433.000000	97.769600 
3432.000000	97.770887 
3431.000000	97.771546 
3430.000000	97.771332 
3429.000000	97.770363 
3428.000000	97.768809 
3427.000000	97.766783 
3426.000000	97.764522 
3425.000000	97.762625 
3424.000000	97.761714 
3423.000000	97.761702 
3422.000000	97.761666 
3421.000000	97.760804 
3420.000000	97.759296 
3419.000000	97.757913 
3418.000000	97.757009 
3417.000000	97.756311 
3416.000000	97.755566 
3415.000000	97.754842 
3414.000000	97.754090 
3413.000000	97.752953 
3412.000000	97.751277 
3411.000000	97.749558 
3410.000000	97.748599 
3409.000000	97.748815 
3408.000000	97.749951 
3407.000000	97.751227 
3406.000000	97.751863 
3405.000000	97.751635 
3404.000000	97.750909 
3403.000000	97.750121 
3402.000000	97.749362 
3401.000000	97.748593 
3400.000000	97.748054 
3399.000000	97.748099 
3398.000000	97.748722 
3397.000000	97.749560 
3396.000000	97.750310 
3395.000000	97.750935 
3394.000000	97.751465 
3393.000000	97.751846 
3392.000000	97.752032 
3391.000000	97.752110 
3390.000000	97.752262 
3389.000000	97.752672 
3388.000000	97.753439 
3387.000000	97.754495 
3386.000000	97.755579 
3385.000000	97.756352 
3384.000000	97.756624 
3383.000000	97.756486 
3382.000000	97.756345 
3381.000000	97.756671 
3380.000000	97.757616 
3379.000000	97.758862 
3378.000000	97.759942 
3377.000000	97.760826 
3376.000000	97.761915 
3375.000000	97.763424 
3374.000000	97.764968 
3373.000000	97.765982 
3372.000000	97.766390 
3371.000000	97.766679 
3370.000000	97.767351 
3369.000000	97.768448 
3368.000000	97.769684 
3367.000000	97.770830 
3366.000000	97.771857 
3365.000000	97.772858 
3364.000000	97.773987 
3363.000000	97.775352 
3362.000000	97.776817 
3361.000000	97.777995 
3360.000000	97.778609 
3359.000000	97.778816 
3358.000000	97.779084 
3357.000000	97.779741 
3356.000000	97.780770 
3355.000000	97.782039 
3354.000000	97.783611 
3353.000000	97.785745 
3352.000000	97.788593 
3351.000000	97.791875 
3350.000000	97.794874 
3349.000000	97.796894 
3348.000000	97.797770 
3347.000000	97.797973 
3346.000000	97.798145 
3345.000000	97.798525 
3344.000000	97.798870 
3343.000000	97.798853 
3342.000000	97.798611 
3341.000000	97.798802 
3340.000000	97.799941 
3339.000000	97.801883 
3338.000000	97.803931 
3337.000000	97.805532 
3336.000000	97.806790 
3335.000000	97.808165 
3334.000000	97.809841 
3333.000000	97.811528 
3332.000000	97.812853 
3331.000000	97.813757 
3330.000000	97.814444 
3329.000000	97.815136 
3328.000000	97.815973 
3327.000000	97.817080 
3326.000000	97.818535 
3325.000000	97.820282 
3324.000000	97.822105 
3323.000000	97.823731 
3322.000000	97.825003 
3321.000000	97.825966 
3320.000000	97.826830 
3319.000000	97.827816 
3318.000000	97.829017 
3317.000000	97.830370 
3316.000000	97.831755 
3315.000000	97.833108 
3314.000000	97.834430 
3313.000000	97.835732 
3312.000000	97.836985 
3311.000000	97.838174 
3310.000000	97.839377 
3309.000000	97.840752 
3308.000000	97.842359 
3307.000000	97.844007 
3306.000000	97.845380 
3305.000000	97.846375 
3304.000000	97.847275 
3303.000000	97.848527 
3302.000000	97.850256 
3301.000000	97.852028 
3300.000000	97.853198 
3299.000000	97.853495 
3298.000000	97.853206 
3297.000000	97.853034 
3296.000000	97.853534 
3295.000000	97.854821 
3294.000000	97.856686 
3293.000000	97.858843 
3292.000000	97.861057 
3291.000000	97.863107 
3290.000000	97.864821 
3289.000000	97.866185 
3288.000000	97.867329 
3287.000000	97.868400 
3286.000000	97.869451 
3285.000000	97.870465 
3284.000000	97.871459 
3283.000000	97.872514 
3282.000000	97.873744 
3281.000000	97.875194 
3280.000000	97.876760 
3279.000000	97.878248 
3278.000000	97.879561 
3277.000000	97.880788 
3276.000000	97.882087 
3275.000000	97.883488 
3274.000000	97.884884 
3273.000000	97.886197 
3272.000000	97.887464 
3271.000000	97.888766 
3270.000000	97.890125 
3269.000000	97.891489 
3268.000000	97.892810 
3267.000000	97.894096 
3266.000000	97.895397 
3265.000000	97.896764 
3264.000000	97.898200 
3263.000000	97.899679 
3262.000000	97.901161 
3261.000000	97.902622 
3260.000000	97.904062 
3259.000000	97.905495 
3258.000000	97.906934 
3257.000000	97.908398 
3256.000000	97.909906 
3255.000000	97.911451 
3254.000000	97.913009 
3253.000000	97.914556 
3252.000000	97.916083 
3251.000000	97.917592 
3250.000000	97.919087 
3249.000000	97.920576 
3248.000000	97.922055 
3247.000000	97.923486 
3246.000000	97.924851 
3245.000000	97.926257 
3244.000000	97.927799 
3243.000000	97.929326 
3242.000000	97.930562 
3241.000000	97.931457 
3240.000000	97.932244 
3239.000000	97.933209 
3238.000000	97.934544 
3237.000000	97.936356 
3236.000000	97.938629 
3235.000000	97.941110 
3234.000000	97.943390 
3233.000000	97.945190 
3232.000000	97.946532 
3231.000000	97.947687 
3230.000000	97.948979 
3229.000000	97.950548 
3228.000000	97.952244 
3227.000000	97.953822 
3226.000000	97.955286 
3225.000000	97.956923 
3224.000000	97.958893 
3223.000000	97.960905 
3222.000000	97.962497 
3221.000000	97.963558 
3220.000000	97.964403 
3219.000000	97.965394 
3218.000000	97.966677 
3217.000000	97.968155 
3216.000000	97.969582 
3215.000000	97.970831 
3214.000000	97.972143 
3213.000000	97.973879 
3212.000000	97.975872 
3211.000000	97.977294 
3210.000000	97.977467 
3209.000000	97.976715 
3208.000000	97.976187 
3207.000000	97.976712 
3206.000000	97.978177 
3205.000000	97.980185 
3204.000000	97.982846 
3203.000000	97.986493 
3202.000000	97.990845 
3201.000000	97.994785 
3200.000000	97.997223 
3199.000000	97.998068 
3198.000000	97.998325 
3197.000000	97.999191 
3196.000000	98.000944 
3195.000000	98.003011 
3194.000000	98.004983 
3193.000000	98.007167 
3192.000000	98.009966 
3191.000000	98.013069 
3190.000000	98.015603 
3189.000000	98.017027 
3188.000000	98.017604 
3187.000000	98.018140 
3186.000000	98.019370 
3185.000000	98.021550 
3184.000000	98.024408 
3183.000000	98.027441 
3182.000000	98.030373 
3181.000000	98.033212 
3180.000000	98.035870 
3179.000000	98.038021 
3178.000000	98.039526 
3177.000000	98.040728 
3176.000000	98.042065 
3175.000000	98.043688 
3174.000000	98.045813 
3173.000000	98.049016 
3172.000000	98.053506 
3171.000000	98.058294 
3170.000000	98.061863 
3169.000000	98.063769 
3168.000000	98.064867 
3167.000000	98.065964 
3166.000000	98.066844 
3165.000000	98.066887 
3164.000000	98.066040 
3163.000000	98.064951 
3162.000000	98.064515 
3161.000000	98.065447 
3160.000000	98.067891 
3159.000000	98.071252 
3158.000000	98.074761 
3157.000000	98.078254 
3156.000000	98.081915 
3155.000000	98.085335 
3154.000000	98.087517 
3153.000000	98.088096 
3152.000000	98.088002 
3151.000000	98.088525 
3150.000000	98.090027 
3149.000000	98.091953 
3148.000000	98.093786 
3147.000000	98.095728 
3146.000000	98.098625 
3145.000000	98.103279 
3144.000000	98.109383 
3143.000000	98.114915 
3142.000000	98.117436 
3141.000000	98.116331 
3140.000000	98.113466 
3139.000000	98.111501 
3138.000000	98.111383 
3137.000000	98.112102 
3136.000000	98.112443 
3135.000000	98.112394 
3134.000000	98.112853 
3133.000000	98.114284 
3132.000000	98.115928 
3131.000000	98.116521 
3130.000000	98.115794 
3129.000000	98.114941 
3128.000000	98.115406 
3127.000000	98.117472 
3126.000000	98.120326 
3125.000000	98.123203 
3124.000000	98.125922 
3123.000000	98.128279 
3122.000000	98.129639 
3121.000000	98.129595 
3120.000000	98.128594 
3119.000000	98.127502 
3118.000000	98.126868 
3117.000000	98.126898 
3116.000000	98.127867 
3115.000000	98.130124 
3114.000000	98.133718 
3113.000000	98.138262 
3112.000000	98.143094 
3111.000000	98.147389 
3110.000000	98.150263 
3109.000000	98.151102 
3108.000000	98.149993 
3107.000000	98.147900 
3106.000000	98.146180 
3105.000000	98.145649 
3104.000000	98.146188 
3103.000000	98.147254 
3102.000000	98.148704 
3101.000000	98.150951 
3100.000000	98.154090 
3099.000000	98.157285 
3098.000000	98.159635 
3097.000000	98.161410 
3096.000000	98.163593 
3095.000000	98.166238 
3094.000000	98.168174 
3093.000000	98.168734 
3092.000000	98.168873 
3091.000000	98.169845 
3090.000000	98.171487 
3089.000000	98.172593 
3088.000000	98.172506 
3087.000000	98.171727 
3086.000000	98.171328 
3085.000000	98.172089 
3084.000000	98.173640 
3083.000000	98.174158 
3082.000000	98.171877 
3081.000000	98.167549 
3080.000000	98.164333 
3079.000000	98.164441 
3078.000000	98.167055 
3077.000000	98.170159 
3076.000000	98.172978 
3075.000000	98.175505 
3074.000000	98.177185 
3073.000000	98.177728 
3072.000000	98.178196 
3071.000000	98.179562 
3070.000000	98.181217 
3069.000000	98.182589 
3068.000000	98.184922 
3067.000000	98.189229 
3066.000000	98.193361 
3065.000000	98.193789 
3064.000000	98.190093 
3063.000000	98.185366 
3062.000000	98.182232 
3061.000000	98.180502 
3060.000000	98.178919 
3059.000000	98.177452 
3058.000000	98.177385 
3057.000000	98.180063 
3056.000000	98.185286 
3055.000000	98.190029 
3054.000000	98.189724 
3053.000000	98.182646 
3052.000000	98.172871 
3051.000000	98.166942 
3050.000000	98.167188 
3049.000000	98.169813 
3048.000000	98.169477 
3047.000000	98.164075 
3046.000000	98.154951 
3045.000000	98.144781 
3044.000000	98.136470 
3043.000000	98.132547 
3042.000000	98.133682 
3041.000000	98.137332 
3040.000000	98.138637 
3039.000000	98.133622 
3038.000000	98.121993 
3037.000000	98.107053 
3036.000000	98.092614 
3035.000000	98.079841 
3034.000000	98.067541 
3033.000000	98.054719 
3032.000000	98.041436 
3031.000000	98.027607 
3030.000000	98.012843 
3029.000000	97.997758 
3028.000000	97.983502 
3027.000000	97.969268 
3026.000000	97.952321 
3025.000000	97.931880 
3024.000000	97.911177 
3023.000000	97.893692 
3022.000000	97.878790 
3021.000000	97.863479 
3020.000000	97.847098 
3019.000000	97.831234 
3018.000000	97.815419 
3017.000000	97.796159 
3016.000000	97.771226 
3015.000000	97.742798 
3014.000000	97.715466 
3013.000000	97.692236 
3012.000000	97.672679 
3011.000000	97.653575 
3010.000000	97.631024 
3009.000000	97.603113 
3008.000000	97.571050 
3007.000000	97.537428 
3006.000000	97.503874 
3005.000000	97.471222 
3004.000000	97.440868 
3003.000000	97.414027 
3002.000000	97.389995 
3001.000000	97.367009 
3000.000000	97.344616 
2999.000000	97.323182 
2998.000000	97.301497 
2997.000000	97.277535 
2996.000000	97.251937 
2995.000000	97.227742 
2994.000000	97.204797 
2993.000000	97.176884 
2992.000000	97.137654 
2991.000000	97.089440 
2990.000000	97.044091 
2989.000000	97.014114 
2988.000000	97.003732 
2987.000000	97.008067 
2986.000000	97.019029 
2985.000000	97.031142 
2984.000000	97.042321 
2983.000000	97.051376 
2982.000000	97.056939 
2981.000000	97.058705 
2980.000000	97.057864 
2979.000000	97.055198 
2978.000000	97.049914 
2977.000000	97.041529 
2976.000000	97.031996 
2975.000000	97.024493 
2974.000000	97.020715 
2973.000000	97.020879 
2972.000000	97.025763 
2971.000000	97.036611 
2970.000000	97.052846 
2969.000000	97.071897 
2968.000000	97.092012 
2967.000000	97.113593 
2966.000000	97.136788 
2965.000000	97.159286 
2964.000000	97.178024 
2963.000000	97.192459 
2962.000000	97.204921 
2961.000000	97.218008 
2960.000000	97.232594 
2959.000000	97.248201 
2958.000000	97.264372 
2957.000000	97.281139 
2956.000000	97.298173 
2955.000000	97.313923 
2954.000000	97.326493 
2953.000000	97.336114 
2952.000000	97.346058 
2951.000000	97.359696 
2950.000000	97.376385 
2949.000000	97.391463 
2948.000000	97.400760 
2947.000000	97.404084 
2946.000000	97.404345 
2945.000000	97.404807 
2944.000000	97.407673 
2943.000000	97.413704 
2942.000000	97.421386 
2941.000000	97.426997 
2940.000000	97.427503 
2939.000000	97.423918 
2938.000000	97.420552 
2937.000000	97.420494 
2936.000000	97.422722 
2935.000000	97.423871 
2934.000000	97.421767 
2933.000000	97.416541 
2932.000000	97.409263 
2931.000000	97.400897 
2930.000000	97.392737 
2929.000000	97.386648 
2928.000000	97.383770 
2927.000000	97.383023 
2926.000000	97.381854 
2925.000000	97.379080 
2924.000000	97.376473 
2923.000000	97.376726 
2922.000000	97.380013 
2921.000000	97.383562 
2920.000000	97.384992 
2919.000000	97.385051 
2918.000000	97.385981 
2917.000000	97.387536 
2916.000000	97.385970 
2915.000000	97.377763 
2914.000000	97.363857 
2913.000000	97.349493 
2912.000000	97.339771 
2911.000000	97.335706 
2910.000000	97.334476 
2909.000000	97.332854 
2908.000000	97.329901 
2907.000000	97.326347 
2906.000000	97.321767 
2905.000000	97.313103 
2904.000000	97.297164 
2903.000000	97.276075 
2902.000000	97.259406 
2901.000000	97.258345 
2900.000000	97.276841 
2899.000000	97.308052 
2898.000000	97.339793 
2897.000000	97.363758 
2896.000000	97.378836 
2895.000000	97.387379 
2894.000000	97.391957 
2893.000000	97.395867 
2892.000000	97.403043 
2891.000000	97.414665 
2890.000000	97.427189 
2889.000000	97.436148 
2888.000000	97.441355 
2887.000000	97.446309 
2886.000000	97.453039 
2885.000000	97.460229 
2884.000000	97.466972 
2883.000000	97.475639 
2882.000000	97.489158 
2881.000000	97.506915 
2880.000000	97.525513 
2879.000000	97.543094 
2878.000000	97.560792 
2877.000000	97.579670 
2876.000000	97.598100 
2875.000000	97.613425 
2874.000000	97.625226 
2873.000000	97.635629 
2872.000000	97.646574 
2871.000000	97.657898 
2870.000000	97.668380 
2869.000000	97.677772 
2868.000000	97.687219 
2867.000000	97.698216 
2866.000000	97.711811 
2865.000000	97.728551 
2864.000000	97.748374 
2863.000000	97.770363 
2862.000000	97.793005 
2861.000000	97.814840 
2860.000000	97.834761 
2859.000000	97.852043 
2858.000000	97.866883 
2857.000000	97.881033 
2856.000000	97.896840 
2855.000000	97.915034 
2854.000000	97.934054 
2853.000000	97.951796 
2852.000000	97.967498 
2851.000000	97.981755 
2850.000000	97.995291 
2849.000000	98.008146 
2848.000000	98.019745 
2847.000000	98.029442 
2846.000000	98.037238 
2845.000000	98.044213 
2844.000000	98.051951 
2843.000000	98.061382 
2842.000000	98.072332 
2841.000000	98.083999 
2840.000000	98.095322 
2839.000000	98.105048 
2838.000000	98.112444 
2837.000000	98.118341 
2836.000000	98.124784 
2835.000000	98.133143 
2834.000000	98.142916 
2833.000000	98.152679 
2832.000000	98.161498 
2831.000000	98.168900 
2830.000000	98.174131 
2829.000000	98.176381 
2828.000000	98.175807 
2827.000000	98.173992 
2826.000000	98.173426 
2825.000000	98.176368 
2824.000000	98.183412 
2823.000000	98.192604 
2822.000000	98.200510 
2821.000000	98.204908 
2820.000000	98.206348 
2819.000000	98.206974 
2818.000000	98.208358 
2817.000000	98.210910 
2816.000000	98.214657 
2815.000000	98.219522 
2814.000000	98.224739 
2813.000000	98.228670 
2812.000000	98.229718 
2811.000000	98.227572 
2810.000000	98.223847 
2809.000000	98.221440 
2808.000000	98.222580 
2807.000000	98.227157 
2806.000000	98.233148 
2805.000000	98.238685 
2804.000000	98.243202 
2803.000000	98.246533 
2802.000000	98.248061 
2801.000000	98.247644 
2800.000000	98.246670 
2799.000000	98.246964 
2798.000000	98.248629 
2797.000000	98.249983 
2796.000000	98.249839 
2795.000000	98.249149 
2794.000000	98.250003 
2793.000000	98.253417 
2792.000000	98.258498 
2791.000000	98.263371 
2790.000000	98.266581 
2789.000000	98.267819 
2788.000000	98.267794 
2787.000000	98.267686 
2786.000000	98.268505 
2785.000000	98.270548 
2784.000000	98.273290 
2783.000000	98.275837 
2782.000000	98.277670 
2781.000000	98.279008 
2780.000000	98.280425 
2779.000000	98.282208 
2778.000000	98.284194 
2777.000000	98.286071 
2776.000000	98.287664 
2775.000000	98.288952 
2774.000000	98.289979 
2773.000000	98.290822 
2772.000000	98.291557 
2771.000000	98.292237 
2770.000000	98.292928 
2769.000000	98.293748 
2768.000000	98.294777 
2767.000000	98.295961 
2766.000000	98.297239 
2765.000000	98.298713 
2764.000000	98.300496 
2763.000000	98.302433 
2762.000000	98.304210 
2761.000000	98.305747 
2760.000000	98.307211 
2759.000000	98.308588 
2758.000000	98.309531 
2757.000000	98.309746 
2756.000000	98.309276 
2755.000000	98.308397 
2754.000000	98.307481 
2753.000000	98.307062 
2752.000000	98.307718 
2751.000000	98.309663 
2750.000000	98.312552 
2749.000000	98.315656 
2748.000000	98.318164 
2747.000000	98.319370 
2746.000000	98.319007 
2745.000000	98.317652 
2744.000000	98.316572 
2743.000000	98.316661 
2742.000000	98.317779 
2741.000000	98.319240 
2740.000000	98.320690 
2739.000000	98.322184 
2738.000000	98.323620 
2737.000000	98.324715 
2736.000000	98.325514 
2735.000000	98.326494 
2734.000000	98.328005 
2733.000000	98.329929 
2732.000000	98.331953 
2731.000000	98.333968 
2730.000000	98.336131 
2729.000000	98.338574 
2728.000000	98.341041 
2727.000000	98.342807 
2726.000000	98.343212 
2725.000000	98.342357 
2724.000000	98.341174 
2723.000000	98.340610 
2722.000000	98.340814 
2721.000000	98.341415 
2720.000000	98.342290 
2719.000000	98.343706 
2718.000000	98.345705 
2717.000000	98.347743 
2716.000000	98.349165 
2715.000000	98.349891 
2714.000000	98.350452 
2713.000000	98.351377 
2712.000000	98.352614 
2711.000000	98.353643 
2710.000000	98.354101 
2709.000000	98.354223 
2708.000000	98.354612 
2707.000000	98.355643 
2706.000000	98.357216 
2705.000000	98.359033 
2704.000000	98.360841 
2703.000000	98.362385 
2702.000000	98.363398 
2701.000000	98.363857 
2700.000000	98.364172 
2699.000000	98.364801 
2698.000000	98.365694 
2697.000000	98.366327 
2696.000000	98.366277 
2695.000000	98.365646 
2694.000000	98.364985 
2693.000000	98.364872 
2692.000000	98.365501 
2691.000000	98.366587 
2690.000000	98.367567 
2689.000000	98.368034 
2688.000000	98.367998 
2687.000000	98.367733 
2686.000000	98.367512 
2685.000000	98.367485 
2684.000000	98.367697 
2683.000000	98.368094 
2682.000000	98.368553 
2681.000000	98.368985 
2680.000000	98.369378 
2679.000000	98.369691 
2678.000000	98.369824 
2677.000000	98.369775 
2676.000000	98.369705 
2675.000000	98.369712 
2674.000000	98.369682 
2673.000000	98.369507 
2672.000000	98.369293 
2671.000000	98.369181 
2670.000000	98.369094 
2669.000000	98.368857 
2668.000000	98.368476 
2667.000000	98.368097 
2666.000000	98.367755 
2665.000000	98.367349 
2664.000000	98.366852 
2663.000000	98.366393 
2662.000000	98.366102 
2661.000000	98.365957 
2660.000000	98.365845 
2659.000000	98.365675 
2658.000000	98.365444 
2657.000000	98.365192 
2656.000000	98.364950 
2655.000000	98.364722 
2654.000000	98.364486 
2653.000000	98.364229 
2652.000000	98.363955 
2651.000000	98.363692 
2650.000000	98.363460 
2649.000000	98.363256 
2648.000000	98.363055 
2647.000000	98.362835 
2646.000000	98.362591 
2645.000000	98.362324 
2644.000000	98.362044 
2643.000000	98.361773 
2642.000000	98.361539 
2641.000000	98.361358 
2640.000000	98.361219 
2639.000000	98.361098 
2638.000000	98.360971 
2637.000000	98.360828 
2636.000000	98.360677 
2635.000000	98.360555 
2634.000000	98.360503 
2633.000000	98.360520 
2632.000000	98.360546 
2631.000000	98.360517 
2630.000000	98.360433 
2629.000000	98.360350 
2628.000000	98.360316 
2627.000000	98.360317 
2626.000000	98.360300 
2625.000000	98.360236 
2624.000000	98.360168 
2623.000000	98.360170 
2622.000000	98.360244 
2621.000000	98.360263 
2620.000000	98.360053 
2619.000000	98.359554 
2618.000000	98.358911 
2617.000000	98.358410 
2616.000000	98.358281 
2615.000000	98.358529 
2614.000000	98.358929 
2613.000000	98.359222 
2612.000000	98.359347 
2611.000000	98.359461 
2610.000000	98.359758 
2609.000000	98.360274 
2608.000000	98.360855 
2607.000000	98.361254 
2606.000000	98.361297 
2605.000000	98.360988 
2604.000000	98.360497 
2603.000000	98.360082 
2602.000000	98.360015 
2601.000000	98.360501 
2600.000000	98.361523 
2599.000000	98.362732 
2598.000000	98.363695 
2597.000000	98.364359 
2596.000000	98.364983 
2595.000000	98.365541 
2594.000000	98.365571 
2593.000000	98.364875 
2592.000000	98.364015 
2591.000000	98.363757 
2590.000000	98.364068 
2589.000000	98.364300 
2588.000000	98.364185 
2587.000000	98.364214 
2586.000000	98.364842 
2585.000000	98.365864 
2584.000000	98.366752 
2583.000000	98.367321 
2582.000000	98.367753 
2581.000000	98.368205 
2580.000000	98.368672 
2579.000000	98.369124 
2578.000000	98.369535 
2577.000000	98.369814 
2576.000000	98.369907 
2575.000000	98.369934 
2574.000000	98.370107 
2573.000000	98.370501 
2572.000000	98.371007 
2571.000000	98.371475 
2570.000000	98.371829 
2569.000000	98.372087 
2568.000000	98.372346 
2567.000000	98.372700 
2566.000000	98.373108 
2565.000000	98.373355 
2564.000000	98.373275 
2563.000000	98.372979 
2562.000000	98.372785 
2561.000000	98.372903 
2560.000000	98.373373 
2559.000000	98.374186 
2558.000000	98.375239 
2557.000000	98.376179 
2556.000000	98.376615 
2555.000000	98.376551 
2554.000000	98.376417 
2553.000000	98.376459 
2552.000000	98.376390 
2551.000000	98.376034 
2550.000000	98.375886 
2549.000000	98.376474 
2548.000000	98.377400 
2547.000000	98.377641 
2546.000000	98.376866 
2545.000000	98.375800 
2544.000000	98.375274 
2543.000000	98.375208 
2542.000000	98.375009 
2541.000000	98.374614 
2540.000000	98.374627 
2539.000000	98.375412 
2538.000000	98.376467 
2537.000000	98.376952 
2536.000000	98.376613 
2535.000000	98.375813 
2534.000000	98.374850 
2533.000000	98.373664 
2532.000000	98.372330 
2531.000000	98.371345 
2530.000000	98.371081 
2529.000000	98.371200 
2528.000000	98.371061 
2527.000000	98.370641 
2526.000000	98.370560 
2525.000000	98.371187 
2524.000000	98.372196 
2523.000000	98.373058 
2522.000000	98.373587 
2521.000000	98.373800 
2520.000000	98.373594 
2519.000000	98.372905 
2518.000000	98.372034 
2517.000000	98.371473 
2516.000000	98.371389 
2515.000000	98.371536 
2514.000000	98.371743 
2513.000000	98.372262 
2512.000000	98.373433 
2511.000000	98.375182 
2510.000000	98.376950 
2509.000000	98.378069 
2508.000000	98.378268 
2507.000000	98.377811 
2506.000000	98.377361 
2505.000000	98.377486 
2504.000000	98.378272 
2503.000000	98.379386 
2502.000000	98.380392 
2501.000000	98.381086 
2500.000000	98.381523 
2499.000000	98.381822 
2498.000000	98.382002 
2497.000000	98.382047 
2496.000000	98.382067 
2495.000000	98.382294 
2494.000000	98.382837 
2493.000000	98.383525 
2492.000000	98.384121 
2491.000000	98.384704 
2490.000000	98.385614 
2489.000000	98.386924 
2488.000000	98.388140 
2487.000000	98.388669 
2486.000000	98.388482 
2485.000000	98.388163 
2484.000000	98.388285 
2483.000000	98.388866 
2482.000000	98.389593 
2481.000000	98.390279 
2480.000000	98.390929 
2479.000000	98.391540 
2478.000000	98.392109 
2477.000000	98.392651 
2476.000000	98.392981 
2475.000000	98.392733 
2474.000000	98.391928 
2473.000000	98.391314 
2472.000000	98.391642 
2471.000000	98.392610 
2470.000000	98.392912 
2469.000000	98.391603 
2468.000000	98.389233 
2467.000000	98.387333 
2466.000000	98.386707 
2465.000000	98.386656 
2464.000000	98.386089 
2463.000000	98.385194 
2462.000000	98.385334 
2461.000000	98.387287 
2460.000000	98.390289 
2459.000000	98.393016 
2458.000000	98.394935 
2457.000000	98.396132 
2456.000000	98.396436 
2455.000000	98.395631 
2454.000000	98.394218 
2453.000000	98.392916 
2452.000000	98.391501 
2451.000000	98.389329 
2450.000000	98.387000 
2449.000000	98.386041 
2448.000000	98.386632 
2447.000000	98.387123 
2446.000000	98.386499 
2445.000000	98.385968 
2444.000000	98.386996 
2443.000000	98.389089 
2442.000000	98.390794 
2441.000000	98.391848 
2440.000000	98.392950 
2439.000000	98.394209 
2438.000000	98.395163 
2437.000000	98.395869 
2436.000000	98.396765 
2435.000000	98.397831 
2434.000000	98.398892 
2433.000000	98.400318 
2432.000000	98.402521 
2431.000000	98.405316 
2430.000000	98.408515 
2429.000000	98.412322 
2428.000000	98.416102 
2427.000000	98.417810 
2426.000000	98.416008 
2425.000000	98.411807 
2424.000000	98.408160 
2423.000000	98.406802 
2422.000000	98.407147 
2421.000000	98.408476 
2420.000000	98.410977 
2419.000000	98.414039 
2418.000000	98.415781 
2417.000000	98.415400 
2416.000000	98.414369 
2415.000000	98.414357 
2414.000000	98.415550 
2413.000000	98.417688 
2412.000000	98.421062 
2411.000000	98.425232 
2410.000000	98.428246 
2409.000000	98.428736 
2408.000000	98.427824 
2407.000000	98.427563 
2406.000000	98.428165 
2405.000000	98.428032 
2404.000000	98.426183 
2403.000000	98.423603 
2402.000000	98.422315 
2401.000000	98.423825 
2400.000000	98.428250 
2399.000000	98.434455 
2398.000000	98.441178 
2397.000000	98.447960 
2396.000000	98.454538 
2395.000000	98.459606 
2394.000000	98.461392 
2393.000000	98.460049 
2392.000000	98.458276 
2391.000000	98.458744 
2390.000000	98.461621 
2389.000000	98.465459 
2388.000000	98.469905 
2387.000000	98.476373 
2386.000000	98.486116 
2385.000000	98.498392 
2384.000000	98.510540 
2383.000000	98.519274 
2382.000000	98.521715 
2381.000000	98.516135 
2380.000000	98.502698 
2379.000000	98.483818 
2378.000000	98.463427 
2377.000000	98.445836 
2376.000000	98.435146 
2375.000000	98.434549 
2374.000000	98.444489 
2373.000000	98.461378 
2372.000000	98.479444 
2371.000000	98.494700 
2370.000000	98.506076 
2369.000000	98.512965 
2368.000000	98.514167 
2367.000000	98.510146 
2366.000000	98.504324 
2365.000000	98.500677 
2364.000000	98.500796 
2363.000000	98.504162 
2362.000000	98.509982 
2361.000000	98.517356 
2360.000000	98.525036 
2359.000000	98.531308 
2358.000000	98.533599 
2357.000000	98.530864 
2356.000000	98.525032 
2355.000000	98.519662 
2354.000000	98.515083 
2353.000000	98.511552 
2352.000000	98.512154 
2351.000000	98.518274 
2350.000000	98.526754 
2349.000000	98.532637 
2348.000000	98.534115 
2347.000000	98.532468 
2346.000000	98.530611 
2345.000000	98.531457 
2344.000000	98.534946 
2343.000000	98.538713 
2342.000000	98.540012 
2341.000000	98.538946 
2340.000000	98.537677 
2339.000000	98.537473 
2338.000000	98.537375 
2337.000000	98.535863 
2336.000000	98.533923 
2335.000000	98.533307 
2334.000000	98.534169 
2333.000000	98.534858 
2332.000000	98.535666 
2331.000000	98.537101 
2330.000000	98.539313 
2329.000000	98.540886 
2328.000000	98.542792 
2327.000000	98.545339 
2326.000000	98.547130 
2325.000000	98.546741 
2324.000000	98.545880 
2323.000000	98.547007 
2322.000000	98.548415 
2321.000000	98.546176 
2320.000000	98.540921 
2319.000000	98.536268 
2318.000000	98.534382 
2317.000000	98.531485 
2316.000000	98.525301 
2315.000000	98.516028 
2314.000000	98.508738 
2313.000000	98.506881 
2312.000000	98.513799 
2311.000000	98.527151 
2310.000000	98.541319 
2309.000000	98.549279 
2308.000000	98.550862 
2307.000000	98.548903 
2306.000000	98.545608 
2305.000000	98.540195 
2304.000000	98.534874 
2303.000000	98.532194 
2302.000000	98.532916 
2301.000000	98.532982 
2300.000000	98.529633 
2299.000000	98.521141 
2298.000000	98.508649 
2297.000000	98.492871 
2296.000000	98.476912 
2295.000000	98.463451 
2294.000000	98.454009 
2293.000000	98.447411 
2292.000000	98.442524 
2291.000000	98.438415 
2290.000000	98.433959 
2289.000000	98.428762 
2288.000000	98.423796 
2287.000000	98.419766 
2286.000000	98.414468 
2285.000000	98.405399 
2284.000000	98.393341 
2283.000000	98.382470 
2282.000000	98.375552 
2281.000000	98.371846 
2280.000000	98.368451 
2279.000000	98.362769 
2278.000000	98.354001 
2277.000000	98.344471 
2276.000000	98.338969 
2275.000000	98.339987 
2274.000000	98.344975 
2273.000000	98.349761 
2272.000000	98.353759 
2271.000000	98.358109 
2270.000000	98.361141 
2269.000000	98.359982 
2268.000000	98.356146 
2267.000000	98.354750 
2266.000000	98.358366 
2265.000000	98.364817 
2264.000000	98.370774 
2263.000000	98.374297 
2262.000000	98.374179 
2261.000000	98.370364 
2260.000000	98.364702 
2259.000000	98.358890 
2258.000000	98.352042 
2257.000000	98.343545 
2256.000000	98.336983 
2255.000000	98.337324 
2254.000000	98.344448 
2253.000000	98.352557 
2252.000000	98.356645 
2251.000000	98.356012 
2250.000000	98.351378 
2249.000000	98.342747 
2248.000000	98.332030 
2247.000000	98.323472 
2246.000000	98.319148 
2245.000000	98.316275 
2244.000000	98.311020 
2243.000000	98.303359 
2242.000000	98.296611 
2241.000000	98.293539 
2240.000000	98.294563 
2239.000000	98.298559 
2238.000000	98.303426 
2237.000000	98.306693 
2236.000000	98.306911 
2235.000000	98.304425 
2234.000000	98.300669 
2233.000000	98.297170 
2232.000000	98.295114 
2231.000000	98.294909 
2230.000000	98.295545 
2229.000000	98.295028 
2228.000000	98.292205 
2227.000000	98.287749 
2226.000000	98.282935 
2225.000000	98.278064 
2224.000000	98.272988 
2223.000000	98.268425 
2222.000000	98.265736 
2221.000000	98.265382 
2220.000000	98.266314 
2219.000000	98.266997 
2218.000000	98.266695 
2217.000000	98.265730 
2216.000000	98.264681 
2215.000000	98.263361 
2214.000000	98.260752 
2213.000000	98.256169 
2212.000000	98.250328 
2211.000000	98.245010 
2210.000000	98.241672 
2209.000000	98.240587 
2208.000000	98.240866 
2207.000000	98.240890 
2206.000000	98.239298 
2205.000000	98.236258 
2204.000000	98.233767 
2203.000000	98.234004 
2202.000000	98.236922 
2201.000000	98.239722 
2200.000000	98.239140 
2199.000000	98.233739 
2198.000000	98.224538 
2197.000000	98.214660 
2196.000000	98.207424 
2195.000000	98.203314 
2194.000000	98.199354 
2193.000000	98.193006 
2192.000000	98.185795 
2191.000000	98.180751 
2190.000000	98.177893 
2189.000000	98.175625 
2188.000000	98.175178 
2187.000000	98.178816 
2186.000000	98.183822 
2185.000000	98.183584 
2184.000000	98.176618 
2183.000000	98.170037 
2182.000000	98.171333 
2181.000000	98.180004 
2180.000000	98.189211 
2179.000000	98.193258 
2178.000000	98.191310 
2177.000000	98.186219 
2176.000000	98.182296 
2175.000000	98.182081 
2174.000000	98.183704 
2173.000000	98.183259 
2172.000000	98.180628 
2171.000000	98.179930 
2170.000000	98.183043 
2169.000000	98.185918 
2168.000000	98.183456 
2167.000000	98.175455 
2166.000000	98.165361 
2165.000000	98.155377 
2164.000000	98.145622 
2163.000000	98.136986 
2162.000000	98.132432 
2161.000000	98.135835 
2160.000000	98.149995 
2159.000000	98.173855 
2158.000000	98.200770 
2157.000000	98.222050 
2156.000000	98.233500 
2155.000000	98.236590 
2154.000000	98.235237 
2153.000000	98.233866 
2152.000000	98.235836 
2151.000000	98.240496 
2150.000000	98.243553 
2149.000000	98.243309 
2148.000000	98.244260 
2147.000000	98.250533 
2146.000000	98.258552 
2145.000000	98.262014 
2144.000000	98.262588 
2143.000000	98.268390 
2142.000000	98.281588 
2141.000000	98.294602 
2140.000000	98.300735 
2139.000000	98.302521 
2138.000000	98.306539 
2137.000000	98.314552 
2136.000000	98.322901 
2135.000000	98.327326 
2134.000000	98.326046 
2133.000000	98.321314 
2132.000000	98.319732 
2131.000000	98.327565 
2130.000000	98.344102 
2129.000000	98.361645 
2128.000000	98.373343 
2127.000000	98.378637 
2126.000000	98.380063 
2125.000000	98.378565 
2124.000000	98.374122 
2123.000000	98.368024 
2122.000000	98.362070 
2121.000000	98.357066 
2120.000000	98.353350 
2119.000000	98.351293 
2118.000000	98.350589 
2117.000000	98.350472 
2116.000000	98.350871 
2115.000000	98.351625 
2114.000000	98.350818 
2113.000000	98.346676 
2112.000000	98.341313 
2111.000000	98.339254 
2110.000000	98.341557 
2109.000000	98.344601 
2108.000000	98.345443 
2107.000000	98.345156 
2106.000000	98.345466 
2105.000000	98.345725 
2104.000000	98.345218 
2103.000000	98.345255 
2102.000000	98.346299 
2101.000000	98.345592 
2100.000000	98.340690 
2099.000000	98.333692 
2098.000000	98.329469 
2097.000000	98.330114 
2096.000000	98.333422 
2095.000000	98.335854 
2094.000000	98.335646 
2093.000000	98.333166 
2092.000000	98.329695 
2091.000000	98.326394 
2090.000000	98.323812 
2089.000000	98.321934 
2088.000000	98.320466 
2087.000000	98.318789 
2086.000000	98.315990 
2085.000000	98.311661 
2084.000000	98.306696 
2083.000000	98.302626 
2082.000000	98.299985 
2081.000000	98.298008 
2080.000000	98.296302 
2079.000000	98.296005 
2078.000000	98.297890 
2077.000000	98.299988 
2076.000000	98.299411 
2075.000000	98.296194 
2074.000000	98.292638 
2073.000000	98.289121 
2072.000000	98.283537 
2071.000000	98.275289 
2070.000000	98.267030 
2069.000000	98.261776 
2068.000000	98.259814 
2067.000000	98.258859 
2066.000000	98.256075 
2065.000000	98.250062 
2064.000000	98.242124 
2063.000000	98.235549 
2062.000000	98.232866 
2061.000000	98.234042 
2060.000000	98.238007 
2059.000000	98.244193 
2058.000000	98.251133 
2057.000000	98.255369 
2056.000000	98.253987 
2055.000000	98.247251 
2054.000000	98.237701 
2053.000000	98.227806 
2052.000000	98.219484 
2051.000000	98.214339 
2050.000000	98.212176 
2049.000000	98.210193 
2048.000000	98.206020 
2047.000000	98.200978 
2046.000000	98.197972 
2045.000000	98.197224 
2044.000000	98.196611 
2043.000000	98.195074 
2042.000000	98.193018 
2041.000000	98.190298 
2040.000000	98.186756 
2039.000000	98.184117 
2038.000000	98.184419 
2037.000000	98.186962 
2036.000000	98.189384 
2035.000000	98.191597 
2034.000000	98.196105 
2033.000000	98.204344 
2032.000000	98.214424 
2031.000000	98.222187 
2030.000000	98.223357 
2029.000000	98.216296 
2028.000000	98.204437 
2027.000000	98.194557 
2026.000000	98.190393 
2025.000000	98.190395 
2024.000000	98.193040 
2023.000000	98.201012 
2022.000000	98.216471 
2021.000000	98.233954 
2020.000000	98.243350 
2019.000000	98.239929 
2018.000000	98.227071 
2017.000000	98.211135 
2016.000000	98.196418 
2015.000000	98.185188 
2014.000000	98.178324 
2013.000000	98.174374 
2012.000000	98.171373 
2011.000000	98.170716 
2010.000000	98.175796 
2009.000000	98.186166 
2008.000000	98.196483 
2007.000000	98.202582 
2006.000000	98.205007 
2005.000000	98.205903 
2004.000000	98.206564 
2003.000000	98.208852 
2002.000000	98.215078 
2001.000000	98.223538 
2000.000000	98.227803 
1999.000000	98.222562 
1998.000000	98.208342 
1997.000000	98.190477 
1996.000000	98.174751 
1995.000000	98.164355 
1994.000000	98.159442 
1993.000000	98.157867 
1992.000000	98.157279 
1991.000000	98.157896 
1990.000000	98.162002 
1989.000000	98.169952 
1988.000000	98.178229 
1987.000000	98.182260 
1986.000000	98.180261 
1985.000000	98.173721 
1984.000000	98.165381 
1983.000000	98.157531 
1982.000000	98.151755 
1981.000000	98.149239 
1980.000000	98.151458 
1979.000000	98.159106 
1978.000000	98.169778 
1977.000000	98.178348 
1976.000000	98.181598 
1975.000000	98.181646 
1974.000000	98.182784 
1973.000000	98.186314 
1972.000000	98.190073 
1971.000000	98.192058 
1970.000000	98.192228 
1969.000000	98.191039 
1968.000000	98.188493 
1967.000000	98.185388 
1966.000000	98.183951 
1965.000000	98.185998 
1964.000000	98.191271 
1963.000000	98.198049 
1962.000000	98.204572 
1961.000000	98.209439 
1960.000000	98.211599 
1959.000000	98.211017 
1958.000000	98.209326 
1957.000000	98.209087 
1956.000000	98.211860 
1955.000000	98.217212 
1954.000000	98.223339 
1953.000000	98.228631 
1952.000000	98.232471 
1951.000000	98.234945 
1950.000000	98.236491 
1949.000000	98.237808 
1948.000000	98.239826 
1947.000000	98.243115 
1946.000000	98.247138 
1945.000000	98.250476 
1944.000000	98.251988 
1943.000000	98.251831 
1942.000000	98.251358 
1941.000000	98.252013 
1940.000000	98.254338 
1939.000000	98.257642 
1938.000000	98.260549 
1937.000000	98.262546 
1936.000000	98.264761 
1935.000000	98.268453 
1934.000000	98.273143 
1933.000000	98.277600 
1932.000000	98.281880 
1931.000000	98.287439 
1930.000000	98.295058 
1929.000000	98.303164 
1928.000000	98.310193 
1927.000000	98.315586 
1926.000000	98.319120 
1925.000000	98.320087 
1924.000000	98.318283 
1923.000000	98.315648 
1922.000000	98.314091 
1921.000000	98.313316 
1920.000000	98.312711 
1919.000000	98.312725 
1918.000000	98.313605 
1917.000000	98.313380 
1916.000000	98.310478 
1915.000000	98.307059 
1914.000000	98.306233 
1913.000000	98.308480 
1912.000000	98.311857 
1911.000000	98.315103 
1910.000000	98.318725 
1909.000000	98.323092 
1908.000000	98.328117 
1907.000000	98.332915 
1906.000000	98.336024 
1905.000000	98.336012 
1904.000000	98.333026 
1903.000000	98.329886 
1902.000000	98.329384 
1901.000000	98.331433 
1900.000000	98.334311 
1899.000000	98.336896 
1898.000000	98.339248 
1897.000000	98.341311 
1896.000000	98.342302 
1895.000000	98.341895 
1894.000000	98.340678 
1893.000000	98.339414 
1892.000000	98.338567 
1891.000000	98.338336 
1890.000000	98.338667 
1889.000000	98.339230 
1888.000000	98.339889 
1887.000000	98.341007 
1886.000000	98.342612 
1885.000000	98.343890 
1884.000000	98.344055 
1883.000000	98.343430 
1882.000000	98.343226 
1881.000000	98.344230 
1880.000000	98.346218 
1879.000000	98.348260 
1878.000000	98.349553 
1877.000000	98.350028 
1876.000000	98.350054 
1875.000000	98.349980 
1874.000000	98.350081 
1873.000000	98.350578 
1872.000000	98.351593 
1871.000000	98.352919 
1870.000000	98.353889 
1869.000000	98.354047 
1868.000000	98.354005 
1867.000000	98.354956 
1866.000000	98.356717 
1865.000000	98.357157 
1864.000000	98.354607 
1863.000000	98.350263 
1862.000000	98.347345 
1861.000000	98.347479 
1860.000000	98.349642 
1859.000000	98.352317 
1858.000000	98.355203 
1857.000000	98.358552 
1856.000000	98.362476 
1855.000000	98.366762 
1854.000000	98.370651 
1853.000000	98.372678 
1852.000000	98.373135 
1851.000000	98.374298 
1850.000000	98.377477 
1849.000000	98.381525 
1848.000000	98.384336 
1847.000000	98.385374 
1846.000000	98.385440 
1845.000000	98.385510 
1844.000000	98.386451 
1843.000000	98.388260 
1842.000000	98.390060 
1841.000000	98.391255 
1840.000000	98.392467 
1839.000000	98.394745 
1838.000000	98.398080 
1837.000000	98.400592 
1836.000000	98.400832 
1835.000000	98.400025 
1834.000000	98.400390 
1833.000000	98.402097 
1832.000000	98.403645 
1831.000000	98.403741 
1830.000000	98.402942 
1829.000000	98.402981 
1828.000000	98.404428 
1827.000000	98.406572 
1826.000000	98.408436 
1825.000000	98.409833 
1824.000000	98.411206 
1823.000000	98.412891 
1822.000000	98.414871 
1821.000000	98.416685 
1820.000000	98.417859 
1819.000000	98.418311 
1818.000000	98.418529 
1817.000000	98.418776 
1816.000000	98.418632 
1815.000000	98.418037 
1814.000000	98.417581 
1813.000000	98.417921 
1812.000000	98.418853 
1811.000000	98.419538 
1810.000000	98.419998 
1809.000000	98.420779 
1808.000000	98.421736 
1807.000000	98.422387 
1806.000000	98.422606 
1805.000000	98.422350 
1804.000000	98.421252 
1803.000000	98.419500 
1802.000000	98.417867 
1801.000000	98.417378 
1800.000000	98.418238 
1799.000000	98.419806 
1798.000000	98.421506 
1797.000000	98.422635 
1796.000000	98.422552 
1795.000000	98.421623 
1794.000000	98.420481 
1793.000000	98.419361 
1792.000000	98.418017 
1791.000000	98.416579 
1790.000000	98.416183 
1789.000000	98.417336 
1788.000000	98.419114 
1787.000000	98.420291 
1786.000000	98.420487 
1785.000000	98.419948 
1784.000000	98.418909 
1783.000000	98.418208 
1782.000000	98.417951 
1781.000000	98.417914 
1780.000000	98.418236 
1779.000000	98.419101 
1778.000000	98.420601 
1777.000000	98.422238 
1776.000000	98.423650 
1775.000000	98.424754 
1774.000000	98.425296 
1773.000000	98.425400 
1772.000000	98.425676 
1771.000000	98.426028 
1770.000000	98.426250 
1769.000000	98.426504 
1768.000000	98.426856 
1767.000000	98.427341 
1766.000000	98.427919 
1765.000000	98.428558 
1764.000000	98.429161 
1763.000000	98.429647 
1762.000000	98.430060 
1761.000000	98.430527 
1760.000000	98.431035 
1759.000000	98.431504 
1758.000000	98.431890 
1757.000000	98.432233 
1756.000000	98.432638 
1755.000000	98.433105 
1754.000000	98.433547 
1753.000000	98.433886 
1752.000000	98.434149 
1751.000000	98.434484 
1750.000000	98.434998 
1749.000000	98.435665 
1748.000000	98.436325 
1747.000000	98.436891 
1746.000000	98.437238 
1745.000000	98.437358 
1744.000000	98.437430 
1743.000000	98.437538 
1742.000000	98.437580 
1741.000000	98.437532 
1740.000000	98.437441 
1739.000000	98.437454 
1738.000000	98.437638 
1737.000000	98.438039 
1736.000000	98.438100 
1735.000000	98.436924 
1734.000000	98.435803 
1733.000000	98.435530 
1732.000000	98.435528 
1731.000000	98.436334 
1730.000000	98.437839 
1729.000000	98.438665 
1728.000000	98.438315 
1727.000000	98.437702 
1726.000000	98.437283 
1725.000000	98.437323 
1724.000000	98.437338 
1723.000000	98.436856 
1722.000000	98.436941 
1721.000000	98.438111 
1720.000000	98.438970 
1719.000000	98.437497 
1718.000000	98.436389 
1717.000000	98.438568 
1716.000000	98.439128 
1715.000000	98.435910 
1714.000000	98.432818 
1713.000000	98.431222 
1712.000000	98.428712 
1711.000000	98.425153 
1710.000000	98.422919 
1709.000000	98.422243 
1708.000000	98.421620 
1707.000000	98.420423 
1706.000000	98.420045 
1705.000000	98.419825 
1704.000000	98.416073 
1703.000000	98.409274 
1702.000000	98.400914 
1701.000000	98.392647 
1700.000000	98.388569 
1699.000000	98.385495 
1698.000000	98.384077 
1697.000000	98.385034 
1696.000000	98.384260 
1695.000000	98.381475 
1694.000000	98.378482 
1693.000000	98.376432 
1692.000000	98.374470 
1691.000000	98.371582 
1690.000000	98.368441 
1689.000000	98.364948 
1688.000000	98.361309 
1687.000000	98.357686 
1686.000000	98.353415 
1685.000000	98.348772 
1684.000000	98.345544 
1683.000000	98.341200 
1682.000000	98.334456 
1681.000000	98.327335 
1680.000000	98.321575 
1679.000000	98.317823 
1678.000000	98.314840 
1677.000000	98.310754 
1676.000000	98.305768 
1675.000000	98.302333 
1674.000000	98.298770 
1673.000000	98.293541 
1672.000000	98.287890 
1671.000000	98.282747 
1670.000000	98.278471 
1669.000000	98.274307 
1668.000000	98.270091 
1667.000000	98.266574 
1666.000000	98.263234 
1665.000000	98.259610 
1664.000000	98.255761 
1663.000000	98.253643 
1662.000000	98.252113 
1661.000000	98.247532 
1660.000000	98.242479 
1659.000000	98.240399 
1658.000000	98.239748 
1657.000000	98.237695 
1656.000000	98.235299 
1655.000000	98.229679 
1654.000000	98.216908 
1653.000000	98.209317 
1652.000000	98.201194 
1651.000000	98.188506 
1650.000000	98.181538 
1649.000000	98.181439 
1648.000000	98.182696 
1647.000000	98.183742 
1646.000000	98.184509 
1645.000000	98.182877 
1644.000000	98.179069 
1643.000000	98.176130 
1642.000000	98.174302 
1641.000000	98.171216 
1640.000000	98.167818 
1639.000000	98.165521 
1638.000000	98.165081 
1637.000000	98.164242 
1636.000000	98.165058 
1635.000000	98.167804 
1634.000000	98.166781 
1633.000000	98.162886 
1632.000000	98.158964 
1631.000000	98.156981 
1630.000000	98.157585 
1629.000000	98.159041 
1628.000000	98.159293 
1627.000000	98.159692 
1626.000000	98.161341 
1625.000000	98.163938 
1624.000000	98.167934 
1623.000000	98.174549 
1622.000000	98.180194 
1621.000000	98.180843 
1620.000000	98.180398 
1619.000000	98.182849 
1618.000000	98.186726 
1617.000000	98.189065 
1616.000000	98.190237 
1615.000000	98.191981 
1614.000000	98.194799 
1613.000000	98.196474 
1612.000000	98.195438 
1611.000000	98.194959 
1610.000000	98.197049 
1609.000000	98.200514 
1608.000000	98.205723 
1607.000000	98.214415 
1606.000000	98.223121 
1605.000000	98.227668 
1604.000000	98.230698 
1603.000000	98.235599 
1602.000000	98.240988 
1601.000000	98.244291 
1600.000000	98.246556 
1599.000000	98.249839 
1598.000000	98.253441 
1597.000000	98.256339 
1596.000000	98.259317 
1595.000000	98.263424 
1594.000000	98.267872 
1593.000000	98.271354 
1592.000000	98.274329 
1591.000000	98.278131 
1590.000000	98.282674 
1589.000000	98.286883 
1588.000000	98.290847 
1587.000000	98.295285 
1586.000000	98.299868 
1585.000000	98.302928 
1584.000000	98.305147 
1583.000000	98.308585 
1582.000000	98.312883 
1581.000000	98.316565 
1580.000000	98.320447 
1579.000000	98.325996 
1578.000000	98.331954 
1577.000000	98.336809 
1576.000000	98.341833 
1575.000000	98.347058 
1574.000000	98.350395 
1573.000000	98.352577 
1572.000000	98.355733 
1571.000000	98.360628 
1570.000000	98.366345 
1569.000000	98.369617 
1568.000000	98.370693 
1567.000000	98.372359 
1566.000000	98.374986 
1565.000000	98.376807 
1564.000000	98.378366 
1563.000000	98.379930 
1562.000000	98.380724 
1561.000000	98.377673 
1560.000000	98.374619 
1559.000000	98.381836 
1558.000000	98.390234 
1557.000000	98.389710 
1556.000000	98.387800 
1555.000000	98.388586 
1554.000000	98.389261 
1553.000000	98.388504 
1552.000000	98.387928 
1551.000000	98.387357 
1550.000000	98.386058 
1549.000000	98.384412 
1548.000000	98.383658 
1547.000000	98.384295 
1546.000000	98.384234 
1545.000000	98.381405 
1544.000000	98.377248 
1543.000000	98.373802 
1542.000000	98.372255 
1541.000000	98.372551 
1540.000000	98.372766 
1539.000000	98.369471 
1538.000000	98.361237 
1537.000000	98.351663 
1536.000000	98.344026 
1535.000000	98.339567 
1534.000000	98.338017 
1533.000000	98.337879 
1532.000000	98.335948 
1531.000000	98.331457 
1530.000000	98.326738 
1529.000000	98.322262 
1528.000000	98.316363 
1527.000000	98.308867 
1526.000000	98.301163 
1525.000000	98.294594 
1524.000000	98.290076 
1523.000000	98.286934 
1522.000000	98.283257 
1521.000000	98.276966 
1520.000000	98.267452 
1519.000000	98.257918 
1518.000000	98.250543 
1517.000000	98.244131 
1516.000000	98.237262 
1515.000000	98.231202 
1514.000000	98.227626 
1513.000000	98.226197 
1512.000000	98.223309 
1511.000000	98.215931 
1510.000000	98.205303 
1509.000000	98.194251 
1508.000000	98.183391 
1507.000000	98.174923 
1506.000000	98.170411 
1505.000000	98.162937 
1504.000000	98.151896 
1503.000000	98.140671 
1502.000000	98.129754 
1501.000000	98.119300 
1500.000000	98.110227 
1499.000000	98.102235 
1498.000000	98.093938 
1497.000000	98.086291 
1496.000000	98.078975 
1495.000000	98.071790 
1494.000000	98.067508 
1493.000000	98.068129 
1492.000000	98.071237 
1491.000000	98.072459 
1490.000000	98.070204 
1489.000000	98.065563 
1488.000000	98.057986 
1487.000000	98.047734 
1486.000000	98.037604 
1485.000000	98.025695 
1484.000000	98.011358 
1483.000000	97.997437 
1482.000000	97.986492 
1481.000000	97.978719 
1480.000000	97.971500 
1479.000000	97.963550 
1478.000000	97.955336 
1477.000000	97.947529 
1476.000000	97.938508 
1475.000000	97.928233 
1474.000000	97.917728 
1473.000000	97.908727 
1472.000000	97.903286 
1471.000000	97.900384 
1470.000000	97.898377 
1469.000000	97.895398 
1468.000000	97.888361 
1467.000000	97.877472 
1466.000000	97.867024 
1465.000000	97.860486 
1464.000000	97.857306 
1463.000000	97.852059 
1462.000000	97.843594 
1461.000000	97.835380 
1460.000000	97.830833 
1459.000000	97.827771 
1458.000000	97.818497 
1457.000000	97.801683 
1456.000000	97.783186 
1455.000000	97.767525 
1454.000000	97.755066 
1453.000000	97.744372 
1452.000000	97.735688 
1451.000000	97.731603 
1450.000000	97.734372 
1449.000000	97.743818 
1448.000000	97.753971 
1447.000000	97.760195 
1446.000000	97.761667 
1445.000000	97.761902 
1444.000000	97.764809 
1443.000000	97.766978 
1442.000000	97.765017 
1441.000000	97.761122 
1440.000000	97.759630 
1439.000000	97.757514 
1438.000000	97.748409 
1437.000000	97.734672 
1436.000000	97.725917 
1435.000000	97.723237 
1434.000000	97.723231 
1433.000000	97.724989 
1432.000000	97.727369 
1431.000000	97.728867 
1430.000000	97.729064 
1429.000000	97.729883 
1428.000000	97.730549 
1427.000000	97.730264 
1426.000000	97.727916 
1425.000000	97.723358 
1424.000000	97.719038 
1423.000000	97.712845 
1422.000000	97.702161 
1421.000000	97.688414 
1420.000000	97.675074 
1419.000000	97.661562 
1418.000000	97.645120 
1417.000000	97.629971 
1416.000000	97.621562 
1415.000000	97.617276 
1414.000000	97.610068 
1413.000000	97.597701 
1412.000000	97.584364 
1411.000000	97.573183 
1410.000000	97.563822 
1409.000000	97.557129 
1408.000000	97.554081 
1407.000000	97.555448 
1406.000000	97.561193 
1405.000000	97.571847 
1404.000000	97.588688 
1403.000000	97.608270 
1402.000000	97.626530 
1401.000000	97.644201 
1400.000000	97.664288 
1399.000000	97.684457 
1398.000000	97.695131 
1397.000000	97.688811 
1396.000000	97.667335 
1395.000000	97.644952 
1394.000000	97.639961 
1393.000000	97.659831 
1392.000000	97.697346 
1391.000000	97.737535 
1390.000000	97.768021 
1389.000000	97.784763 
1388.000000	97.790439 
1387.000000	97.790378 
1386.000000	97.789523 
1385.000000	97.791576 
1384.000000	97.798937 
1383.000000	97.810620 
1382.000000	97.823831 
1381.000000	97.836654 
1380.000000	97.848715 
1379.000000	97.861274 
1378.000000	97.876301 
1377.000000	97.894946 
1376.000000	97.915888 
1375.000000	97.935919 
1374.000000	97.952658 
1373.000000	97.968295 
1372.000000	97.986864 
1371.000000	98.009425 
1370.000000	98.032775 
1369.000000	98.053684 
1368.000000	98.073181 
1367.000000	98.092953 
1366.000000	98.112205 
1365.000000	98.129354 
1364.000000	98.143795 
1363.000000	98.155694 
1362.000000	98.165941 
1361.000000	98.176722 
1360.000000	98.190814 
1359.000000	98.209247 
1358.000000	98.229657 
1357.000000	98.248554 
1356.000000	98.264660 
1355.000000	98.278730 
1354.000000	98.291382 
1353.000000	98.303551 
1352.000000	98.315330 
1351.000000	98.327093 
1350.000000	98.338337 
1349.000000	98.347280 
1348.000000	98.353591 
1347.000000	98.358519 
1346.000000	98.364203 
1345.000000	98.372153 
1344.000000	98.382156 
1343.000000	98.391886 
1342.000000	98.398244 
1341.000000	98.399808 
1340.000000	98.398463 
1339.000000	98.397625 
1338.000000	98.398711 
1337.000000	98.401114 
1336.000000	98.404252 
1335.000000	98.407895 
1334.000000	98.411697 
1333.000000	98.415402 
1332.000000	98.418934 
1331.000000	98.422382 
1330.000000	98.425601 
1329.000000	98.428382 
1328.000000	98.430306 
1327.000000	98.431251 
1326.000000	98.431373 
1325.000000	98.431166 
1324.000000	98.431189 
1323.000000	98.430565 
1322.000000	98.428272 
1321.000000	98.425762 
1320.000000	98.426030 
1319.000000	98.429444 
1318.000000	98.433170 
1317.000000	98.435124 
1316.000000	98.435454 
1315.000000	98.433785 
1314.000000	98.428825 
1313.000000	98.422161 
1312.000000	98.418558 
1311.000000	98.420386 
1310.000000	98.424505 
1309.000000	98.427217 
1308.000000	98.429150 
1307.000000	98.433445 
1306.000000	98.440313 
1305.000000	98.446678 
1304.000000	98.450307 
1303.000000	98.450718 
1302.000000	98.447486 
1301.000000	98.440415 
1300.000000	98.431620 
1299.000000	98.424986 
1298.000000	98.423086 
1297.000000	98.425474 
1296.000000	98.430035 
1295.000000	98.434943 
1294.000000	98.439221 
1293.000000	98.442629 
1292.000000	98.445063 
1291.000000	98.445892 
1290.000000	98.444558 
1289.000000	98.441820 
1288.000000	98.439413 
1287.000000	98.438155 
1286.000000	98.437415 
1285.000000	98.437040 
1284.000000	98.438263 
1283.000000	98.441396 
1282.000000	98.444018 
1281.000000	98.442996 
1280.000000	98.438275 
1279.000000	98.433292 
1278.000000	98.431505 
1277.000000	98.433384 
1276.000000	98.436596 
1275.000000	98.438397 
1274.000000	98.437664 
1273.000000	98.435224 
1272.000000	98.432264 
1271.000000	98.428496 
1270.000000	98.422377 
1269.000000	98.413185 
1268.000000	98.402257 
1267.000000	98.391643 
1266.000000	98.382223 
1265.000000	98.373916 
1264.000000	98.366885 
1263.000000	98.361407 
1262.000000	98.356877 
1261.000000	98.351833 
1260.000000	98.345578 
1259.000000	98.339029 
1258.000000	98.333266 
1257.000000	98.327574 
1256.000000	98.319718 
1255.000000	98.308849 
1254.000000	98.297570 
1253.000000	98.289617 
1252.000000	98.285560 
1251.000000	98.282799 
1250.000000	98.280681 
1249.000000	98.283339 
1248.000000	98.294938 
1247.000000	98.312679 
1246.000000	98.326835 
1245.000000	98.328382 
1244.000000	98.315901 
1243.000000	98.296920 
1242.000000	98.284294 
1241.000000	98.288411 
1240.000000	98.308822 
1239.000000	98.333265 
1238.000000	98.348049 
1237.000000	98.349383 
1236.000000	98.342181 
1235.000000	98.330428 
1234.000000	98.313986 
1233.000000	98.294162 
1232.000000	98.275885 
1231.000000	98.262157 
1230.000000	98.251326 
1229.000000	98.242299 
1228.000000	98.237578 
1227.000000	98.237825 
1226.000000	98.237567 
1225.000000	98.230594 
1224.000000	98.217083 
1223.000000	98.201731 
1222.000000	98.186862 
1221.000000	98.170973 
1220.000000	98.152843 
1219.000000	98.133470 
1218.000000	98.114109 
1217.000000	98.094660 
1216.000000	98.073692 
1215.000000	98.048852 
1214.000000	98.018447 
1213.000000	97.983987 
1212.000000	97.949322 
1211.000000	97.915498 
1210.000000	97.878386 
1209.000000	97.833722 
1208.000000	97.783231 
1207.000000	97.733496 
1206.000000	97.689172 
1205.000000	97.648689 
1204.000000	97.606279 
1203.000000	97.557330 
1202.000000	97.502667 
1201.000000	97.447961 
1200.000000	97.397632 
1199.000000	97.349610 
1198.000000	97.298402 
1197.000000	97.243042 
1196.000000	97.188233 
1195.000000	97.137148 
1194.000000	97.087220 
1193.000000	97.034671 
1192.000000	96.979205 
1191.000000	96.921645 
1190.000000	96.860613 
1189.000000	96.794834 
1188.000000	96.725955 
1187.000000	96.656037 
1186.000000	96.584793 
1185.000000	96.512000 
1184.000000	96.439571 
1183.000000	96.368137 
1182.000000	96.294769 
1181.000000	96.217621 
1180.000000	96.139657 
1179.000000	96.063591 
1178.000000	95.985997 
1177.000000	95.901162 
1176.000000	95.808436 
1175.000000	95.711392 
1174.000000	95.612460 
1173.000000	95.513545 
1172.000000	95.419277 
1171.000000	95.332869 
1170.000000	95.249852 
1169.000000	95.162557 
1168.000000	95.070963 
1167.000000	94.983738 
1166.000000	94.909423 
1165.000000	94.852942 
1164.000000	94.819881 
1163.000000	94.815925 
1162.000000	94.839407 
1161.000000	94.879197 
1160.000000	94.921401 
1159.000000	94.954402 
1158.000000	94.968246 
1157.000000	94.955713 
1156.000000	94.916227 
1155.000000	94.855447 
1154.000000	94.780176 
1153.000000	94.696198 
1152.000000	94.610247 
1151.000000	94.529161 
1150.000000	94.455659 
1149.000000	94.388068 
1148.000000	94.324182 
1147.000000	94.261850 
1146.000000	94.196894 
1145.000000	94.125604 
1144.000000	94.049674 
1143.000000	93.974298 
1142.000000	93.900992 
1141.000000	93.826355 
1140.000000	93.747954 
1139.000000	93.667170 
1138.000000	93.586232 
1137.000000	93.506362 
1136.000000	93.428476 
1135.000000	93.351794 
1134.000000	93.272482 
1133.000000	93.187843 
1132.000000	93.100734 
1131.000000	93.015628 
1130.000000	92.932119 
1129.000000	92.847315 
1128.000000	92.762425 
1127.000000	92.680573 
1126.000000	92.599542 
1125.000000	92.513474 
1124.000000	92.421198 
1123.000000	92.326733 
1122.000000	92.232412 
1121.000000	92.137856 
1120.000000	92.044714 
1119.000000	91.955280 
1118.000000	91.867047 
1117.000000	91.775898 
1116.000000	91.684213 
1115.000000	91.598678 
1114.000000	91.520632 
1113.000000	91.445731 
1112.000000	91.371764 
1111.000000	91.298627 
1110.000000	91.222359 
1109.000000	91.138702 
1108.000000	91.051381 
1107.000000	90.967907 
1106.000000	90.888200 
1105.000000	90.806340 
1104.000000	90.722508 
1103.000000	90.643394 
1102.000000	90.570544 
1101.000000	90.498354 
1100.000000	90.423829 
1099.000000	90.349928 
1098.000000	90.279093 
1097.000000	90.211052 
1096.000000	90.146755 
1095.000000	90.085446 
1094.000000	90.018407 
1093.000000	89.935158 
1092.000000	89.836638 
1091.000000	89.734384 
1090.000000	89.636928 
1089.000000	89.544640 
1088.000000	89.456128 
1087.000000	89.369913 
1086.000000	89.280946 
1085.000000	89.185877 
1084.000000	89.091060 
1083.000000	89.005156 
1082.000000	88.924933 
1081.000000	88.839595 
1080.000000	88.748236 
1079.000000	88.661007 
1078.000000	88.583150 
1077.000000	88.509980 
1076.000000	88.437790 
1075.000000	88.367065 
1074.000000	88.294507 
1073.000000	88.214360 
1072.000000	88.126757 
1071.000000	88.030301 
1070.000000	87.907104 
1069.000000	87.734089 
1068.000000	87.514965 
1067.000000	87.288021 
1066.000000	87.094486 
1065.000000	86.946927 
1064.000000	86.831358 
1063.000000	86.724152 
1062.000000	86.599905 
1061.000000	86.438649 
1060.000000	86.239392 
1059.000000	86.023110 
1058.000000	85.815860 
1057.000000	85.631126 
1056.000000	85.467882 
1055.000000	85.315578 
1054.000000	85.158569 
1053.000000	84.986632 
1052.000000	84.805769 
1051.000000	84.630484 
1050.000000	84.464376 
1049.000000	84.299720 
1048.000000	84.135307 
1047.000000	83.978898 
1046.000000	83.831382 
1045.000000	83.684127 
1044.000000	83.533558 
1043.000000	83.384936 
1042.000000	83.240178 
1041.000000	83.094314 
1040.000000	82.946426 
1039.000000	82.803712 
1038.000000	82.673559 
1037.000000	82.560880 
1036.000000	82.471133 
1035.000000	82.404223 
1034.000000	82.347536 
1033.000000	82.286697 
1032.000000	82.219451 
1031.000000	82.147363 
1030.000000	82.063330 
1029.000000	81.966385 
1028.000000	81.881779 
1027.000000	81.842041 
1026.000000	81.847928 
1025.000000	81.867518 
1024.000000	81.874121 
1023.000000	81.865488 
1022.000000	81.846290 
1021.000000	81.815982 
1020.000000	81.778713 
1019.000000	81.745034 
1018.000000	81.717606 
1017.000000	81.690353 
1016.000000	81.663857 
1015.000000	81.645360 
1014.000000	81.632700 
1013.000000	81.615714 
1012.000000	81.594660 
1011.000000	81.579793 
1010.000000	81.572277 
1009.000000	81.563720 
1008.000000	81.555322 
1007.000000	81.558801 
1006.000000	81.577261 
1005.000000	81.603407 
1004.000000	81.636684 
1003.000000	81.682354 
1002.000000	81.732959 
1001.000000	81.772053 
1000.000000	81.799638 
999.000000	 81.833865 
998.000000	 81.883892 
997.000000	 81.940259 
996.000000	 81.995325 
995.000000	 82.053881 
994.000000	 82.118910 
993.000000	 82.185186 
992.000000	 82.251831 
991.000000	 82.324449 
990.000000	 82.401469 
989.000000	 82.475280 
988.000000	 82.549337 
987.000000	 82.636046 
986.000000	 82.735252 
985.000000	 82.833907 
984.000000	 82.930039 
983.000000	 83.037066 
982.000000	 83.160149 
981.000000	 83.287766 
980.000000	 83.412148 
979.000000	 83.540206 
978.000000	 83.677714 
977.000000	 83.820252 
976.000000	 83.966388 
975.000000	 84.123235 
974.000000	 84.291913 
973.000000	 84.462467 
972.000000	 84.629637 
971.000000	 84.799874 
970.000000	 84.977255 
969.000000	 85.156178 
968.000000	 85.333017 
967.000000	 85.511686 
966.000000	 85.692701 
965.000000	 85.869444 
964.000000	 86.039795 
963.000000	 86.209591 
962.000000	 86.380988 
961.000000	 86.549144 
960.000000	 86.713027 
959.000000	 86.877151 
958.000000	 87.040187 
957.000000	 87.194564 
956.000000	 87.339963 
955.000000	 87.484798 
954.000000	 87.631806 
953.000000	 87.774288 
952.000000	 87.908718 
951.000000	 88.038253 
950.000000	 88.161932 
949.000000	 88.273906 
948.000000	 88.376094 
947.000000	 88.478477 
946.000000	 88.583397 
945.000000	 88.682027 
944.000000	 88.769623 
943.000000	 88.851913 
942.000000	 88.933513 
941.000000	 89.012537 
940.000000	 89.090083 
939.000000	 89.172204 
938.000000	 89.258284 
937.000000	 89.339674 
936.000000	 89.414257 
935.000000	 89.490708 
934.000000	 89.574071 
933.000000	 89.658687 
932.000000	 89.739966 
931.000000	 89.822009 
930.000000	 89.908569 
929.000000	 89.996325 
928.000000	 90.081958 
927.000000	 90.167043 
926.000000	 90.251800 
925.000000	 90.331880 
924.000000	 90.404383 
923.000000	 90.469938 
922.000000	 90.527946 
921.000000	 90.578158 
920.000000	 90.627083 
919.000000	 90.683045 
918.000000	 90.743762 
917.000000	 90.798515 
916.000000	 90.844113 
915.000000	 90.889578 
914.000000	 90.944106 
913.000000	 91.009866 
912.000000	 91.087114 
911.000000	 91.176247 
910.000000	 91.273773 
909.000000	 91.375976 
908.000000	 91.486921 
907.000000	 91.613341 
906.000000	 91.752672 
905.000000	 91.896565 
904.000000	 92.044633 
903.000000	 92.202581 
902.000000	 92.367604 
901.000000	 92.528499 
900.000000	 92.681322 
899.000000	 92.833812 
898.000000	 92.993242 
897.000000	 93.158953 
896.000000	 93.325600 
895.000000	 93.484265 
894.000000	 93.623492 
893.000000	 93.740869 
892.000000	 93.851469 
891.000000	 93.973061 
890.000000	 94.104170 
889.000000	 94.228243 
888.000000	 94.336371 
887.000000	 94.432478 
886.000000	 94.519441 
885.000000	 94.595533 
884.000000	 94.663486 
883.000000	 94.727315 
882.000000	 94.780824 
881.000000	 94.817129 
880.000000	 94.850886 
879.000000	 94.911272 
878.000000	 95.007149 
877.000000	 95.116923 
876.000000	 95.218538 
875.000000	 95.312132 
874.000000	 95.406873 
873.000000	 95.504850 
872.000000	 95.608043 
871.000000	 95.724537 
870.000000	 95.855779 
869.000000	 95.989387 
868.000000	 96.114032 
867.000000	 96.231750 
866.000000	 96.348772 
865.000000	 96.464468 
864.000000	 96.576620 
863.000000	 96.688452 
862.000000	 96.802644 
861.000000	 96.915316 
860.000000	 97.022385 
859.000000	 97.125937 
858.000000	 97.229499 
857.000000	 97.332800 
856.000000	 97.434752 
855.000000	 97.535192 
854.000000	 97.629986 
853.000000	 97.710757 
852.000000	 97.773467 
851.000000	 97.822874 
850.000000	 97.866707 
849.000000	 97.910141 
848.000000	 97.955876 
847.000000	 98.002928 
846.000000	 98.045423 
845.000000	 98.080013 
844.000000	 98.113539 
843.000000	 98.154499 
842.000000	 98.197835 
841.000000	 98.228372 
840.000000	 98.238871 
839.000000	 98.234019 
838.000000	 98.217748 
837.000000	 98.189972 
836.000000	 98.157988 
835.000000	 98.137214 
834.000000	 98.134268 
833.000000	 98.139830 
832.000000	 98.143686 
831.000000	 98.146541 
830.000000	 98.151797 
829.000000	 98.157025 
828.000000	 98.162077 
827.000000	 98.176862 
826.000000	 98.211599 
825.000000	 98.264770 
824.000000	 98.326458 
823.000000	 98.386121 
822.000000	 98.433163 
821.000000	 98.460421 
820.000000	 98.472514 
819.000000	 98.481870 
818.000000	 98.491597 
817.000000	 98.488839 
816.000000	 98.458740 
815.000000	 98.399413 
814.000000	 98.320152 
813.000000	 98.229287 
812.000000	 98.125659 
811.000000	 97.996934 
810.000000	 97.824477 
809.000000	 97.595446 
808.000000	 97.312484 
807.000000	 96.988615 
806.000000	 96.634216 
805.000000	 96.255711 
804.000000	 95.866065 
803.000000	 95.486618 
802.000000	 95.136903 
801.000000	 94.831864 
800.000000	 94.588648 
799.000000	 94.422583 
798.000000	 94.333323 
797.000000	 94.306092 
796.000000	 94.326809 
795.000000	 94.383246 
794.000000	 94.454081 
793.000000	 94.516023 
792.000000	 94.564636 
791.000000	 94.611781 
790.000000	 94.659682 
789.000000	 94.692691 
788.000000	 94.696661 
787.000000	 94.670576 
786.000000	 94.616444 
785.000000	 94.533718 
784.000000	 94.427773 
783.000000	 94.309228 
782.000000	 94.181728 
781.000000	 94.046428 
780.000000	 93.921623 
779.000000	 93.839077 
778.000000	 93.813909 
777.000000	 93.834200 
776.000000	 93.885807 
775.000000	 93.969423 
774.000000	 94.085037 
773.000000	 94.217247 
772.000000	 94.347110 
771.000000	 94.466282 
770.000000	 94.572142 
769.000000	 94.661961 
768.000000	 94.738669 
767.000000	 94.809381 
766.000000	 94.871795 
765.000000	 94.915396 
764.000000	 94.942638 
763.000000	 94.974564 
762.000000	 95.026837 
761.000000	 95.092518 
760.000000	 95.156185 
759.000000	 95.212736 
758.000000	 95.264915 
757.000000	 95.315804 
756.000000	 95.373523 
755.000000	 95.451423 
754.000000	 95.551688 
753.000000	 95.655710 
752.000000	 95.739337 
751.000000	 95.793544 
750.000000	 95.827964 
749.000000	 95.861740 
748.000000	 95.912580 
747.000000	 95.984522 
746.000000	 96.062356 
745.000000	 96.127520 
744.000000	 96.182235 
743.000000	 96.247002 
742.000000	 96.332519 
741.000000	 96.427596 
740.000000	 96.518092 
739.000000	 96.603515 
738.000000	 96.689005 
737.000000	 96.773412 
736.000000	 96.852895 
735.000000	 96.927063 
734.000000	 96.996246 
733.000000	 97.060208 
732.000000	 97.121329 
731.000000	 97.179418 
730.000000	 97.223742 
729.000000	 97.243923 
728.000000	 97.246277 
727.000000	 97.248828 
726.000000	 97.265102 
725.000000	 97.300635 
724.000000	 97.359717 
723.000000	 97.440681 
722.000000	 97.525222 
721.000000	 97.588491 
720.000000	 97.623944 
719.000000	 97.647149 
718.000000	 97.672067 
717.000000	 97.697193 
716.000000	 97.719116 
715.000000	 97.741947 
714.000000	 97.767775 
713.000000	 97.793846 
712.000000	 97.823493 
711.000000	 97.864581 
710.000000	 97.909275 
709.000000	 97.944625 
708.000000	 97.968318 
707.000000	 97.985023 
706.000000	 97.996376 
705.000000	 97.996649 
704.000000	 97.980013 
703.000000	 97.947389 
702.000000	 97.898790 
701.000000	 97.827341 
700.000000	 97.727482 
699.000000	 97.600046 
698.000000	 97.453936 
697.000000	 97.309332 
696.000000	 97.195190 
695.000000	 97.136428 
694.000000	 97.135430 
693.000000	 97.174556 
692.000000	 97.237973 
691.000000	 97.317815 
690.000000	 97.405447 
689.000000	 97.488100 
688.000000	 97.556593 
687.000000	 97.610560 
686.000000	 97.651059 
685.000000	 97.679212 
684.000000	 97.702941 
683.000000	 97.730933 
682.000000	 97.761959 
681.000000	 97.788902 
680.000000	 97.812022 
679.000000	 97.836179 
678.000000	 97.860515 
677.000000	 97.883747 
676.000000	 97.909343 
675.000000	 97.940838 
674.000000	 97.974070 
673.000000	 97.996285 
672.000000	 97.998899 
671.000000	 97.976650 
670.000000	 97.926385 
669.000000	 97.851831 
668.000000	 97.814352 
667.000000	 97.875301 
666.000000	 97.989882 
665.000000	 98.084786 
664.000000	 98.147421 
663.000000	 98.188062 
662.000000	 98.217448 
661.000000	 98.243892 
660.000000	 98.270503 
659.000000	 98.297066 
658.000000	 98.321244 
657.000000	 98.342207 
656.000000	 98.359261 
655.000000	 98.372719 
654.000000	 98.384967 
653.000000	 98.397437 
652.000000	 98.409508 
651.000000	 98.422601 
650.000000	 98.440840 

