4000.000000	97.975127 
3999.000000	97.974109 
3998.000000	97.971708 
3997.000000	97.968911 
3996.000000	97.966848 
3995.000000	97.965962 
3994.000000	97.966192 
3993.000000	97.967158 
3992.000000	97.968063 
3991.000000	97.968286 
3990.000000	97.967912 
3989.000000	97.967441 
3988.000000	97.967154 
3987.000000	97.966994 
3986.000000	97.966973 
3985.000000	97.967265 
3984.000000	97.967735 
3983.000000	97.967880 
3982.000000	97.967505 
3981.000000	97.967045 
3980.000000	97.966885 
3979.000000	97.966675 
3978.000000	97.965864 
3977.000000	97.964688 
3976.000000	97.964006 
3975.000000	97.964175 
3974.000000	97.964589 
3973.000000	97.964462 
3972.000000	97.963590 
3971.000000	97.962255 
3970.000000	97.960980 
3969.000000	97.960312 
3968.000000	97.960506 
3967.000000	97.961182 
3966.000000	97.961564 
3965.000000	97.961155 
3964.000000	97.960041 
3963.000000	97.958703 
3962.000000	97.957633 
3961.000000	97.957120 
3960.000000	97.956981 
3959.000000	97.956614 
3958.000000	97.955861 
3957.000000	97.955253 
3956.000000	97.955257 
3955.000000	97.955415 
3954.000000	97.954787 
3953.000000	97.953004 
3952.000000	97.950512 
3951.000000	97.948189 
3950.000000	97.946630 
3949.000000	97.945806 
3948.000000	97.945318 
3947.000000	97.944983 
3946.000000	97.944851 
3945.000000	97.944744 
3944.000000	97.944356 
3943.000000	97.943958 
3942.000000	97.944316 
3941.000000	97.945795 
3940.000000	97.947575 
3939.000000	97.948079 
3938.000000	97.946831 
3937.000000	97.944812 
3936.000000	97.943200 
3935.000000	97.941955 
3934.000000	97.940509 
3933.000000	97.939273 
3932.000000	97.939120 
3931.000000	97.939832 
3930.000000	97.940279 
3929.000000	97.940009 
3928.000000	97.939778 
3927.000000	97.939927 
3926.000000	97.939773 
3925.000000	97.939003 
3924.000000	97.938269 
3923.000000	97.937987 
3922.000000	97.937750 
3921.000000	97.937307 
3920.000000	97.936930 
3919.000000	97.936747 
3918.000000	97.936563 
3917.000000	97.936279 
3916.000000	97.935960 
3915.000000	97.935643 
3914.000000	97.935319 
3913.000000	97.934990 
3912.000000	97.934646 
3911.000000	97.934275 
3910.000000	97.933883 
3909.000000	97.933490 
3908.000000	97.933106 
3907.000000	97.932723 
3906.000000	97.932338 
3905.000000	97.931965 
3904.000000	97.931629 
3903.000000	97.931350 
3902.000000	97.931128 
3901.000000	97.930944 
3900.000000	97.930772 
3899.000000	97.930594 
3898.000000	97.930415 
3897.000000	97.930245 
3896.000000	97.930093 
3895.000000	97.929942 
3894.000000	97.929771 
3893.000000	97.929575 
3892.000000	97.929361 
3891.000000	97.929133 
3890.000000	97.928908 
3889.000000	97.928704 
3888.000000	97.928516 
3887.000000	97.928324 
3886.000000	97.928127 
3885.000000	97.927950 
3884.000000	97.927817 
3883.000000	97.927725 
3882.000000	97.927649 
3881.000000	97.927586 
3880.000000	97.927557 
3879.000000	97.927583 
3878.000000	97.927656 
3877.000000	97.927744 
3876.000000	97.927821 
3875.000000	97.927899 
3874.000000	97.928009 
3873.000000	97.928174 
3872.000000	97.928383 
3871.000000	97.928604 
3870.000000	97.928830 
3869.000000	97.929097 
3868.000000	97.929431 
3867.000000	97.929808 
3866.000000	97.930188 
3865.000000	97.930573 
3864.000000	97.930993 
3863.000000	97.931443 
3862.000000	97.931882 
3861.000000	97.932293 
3860.000000	97.932696 
3859.000000	97.933116 
3858.000000	97.933555 
3857.000000	97.934011 
3856.000000	97.934499 
3855.000000	97.935034 
3854.000000	97.935596 
3853.000000	97.936162 
3852.000000	97.936772 
3851.000000	97.937486 
3850.000000	97.938293 
3849.000000	97.939144 
3848.000000	97.940004 
3847.000000	97.940860 
3846.000000	97.941715 
3845.000000	97.942582 
3844.000000	97.943463 
3843.000000	97.944347 
3842.000000	97.945230 
3841.000000	97.946118 
3840.000000	97.947019 
3839.000000	97.947926 
3838.000000	97.948815 
3837.000000	97.949674 
3836.000000	97.950518 
3835.000000	97.951366 
3834.000000	97.952227 
3833.000000	97.953093 
3832.000000	97.953953 
3831.000000	97.954803 
3830.000000	97.955649 
3829.000000	97.956495 
3828.000000	97.957342 
3827.000000	97.958175 
3826.000000	97.958983 
3825.000000	97.959772 
3824.000000	97.960558 
3823.000000	97.961331 
3822.000000	97.962068 
3821.000000	97.962764 
3820.000000	97.963462 
3819.000000	97.964200 
3818.000000	97.964948 
3817.000000	97.965641 
3816.000000	97.966263 
3815.000000	97.966855 
3814.000000	97.967450 
3813.000000	97.968030 
3812.000000	97.968567 
3811.000000	97.969073 
3810.000000	97.969572 
3809.000000	97.970042 
3808.000000	97.970434 
3807.000000	97.970737 
3806.000000	97.970999 
3805.000000	97.971273 
3804.000000	97.971562 
3803.000000	97.971827 
3802.000000	97.972052 
3801.000000	97.972257 
3800.000000	97.972480 
3799.000000	97.972714 
3798.000000	97.972914 
3797.000000	97.973055 
3796.000000	97.973155 
3795.000000	97.973237 
3794.000000	97.973301 
3793.000000	97.973332 
3792.000000	97.973321 
3791.000000	97.973265 
3790.000000	97.973168 
3789.000000	97.973039 
3788.000000	97.972887 
3787.000000	97.972714 
3786.000000	97.972510 
3785.000000	97.972271 
3784.000000	97.972018 
3783.000000	97.971766 
3782.000000	97.971499 
3781.000000	97.971189 
3780.000000	97.970835 
3779.000000	97.970450 
3778.000000	97.970031 
3777.000000	97.969560 
3776.000000	97.969032 
3775.000000	97.968475 
3774.000000	97.967924 
3773.000000	97.967380 
3772.000000	97.966821 
3771.000000	97.966234 
3770.000000	97.965635 
3769.000000	97.965043 
3768.000000	97.964457 
3767.000000	97.963863 
3766.000000	97.963262 
3765.000000	97.962680 
3764.000000	97.962133 
3763.000000	97.961602 
3762.000000	97.961045 
3761.000000	97.960450 
3760.000000	97.959832 
3759.000000	97.959201 
3758.000000	97.958542 
3757.000000	97.957844 
3756.000000	97.957130 
3755.000000	97.956443 
3754.000000	97.955812 
3753.000000	97.955248 
3752.000000	97.954748 
3751.000000	97.954286 
3750.000000	97.953826 
3749.000000	97.953362 
3748.000000	97.952922 
3747.000000	97.952508 
3746.000000	97.952082 
3745.000000	97.951607 
3744.000000	97.951074 
3743.000000	97.950511 
3742.000000	97.949917 
3741.000000	97.949235 
3740.000000	97.948439 
3739.000000	97.947565 
3738.000000	97.946654 
3737.000000	97.945711 
3736.000000	97.944721 
3735.000000	97.943678 
3734.000000	97.942567 
3733.000000	97.941363 
3732.000000	97.940049 
3731.000000	97.938520 
3730.000000	97.937020 
3729.000000	97.935855 
3728.000000	97.934526 
3727.000000	97.932504 
3726.000000	97.930542 
3725.000000	97.929871 
3724.000000	97.929850 
3723.000000	97.928608 
3722.000000	97.925812 
3721.000000	97.922622 
3720.000000	97.919839 
3719.000000	97.916631 
3718.000000	97.912111 
3717.000000	97.907413 
3716.000000	97.904643 
3715.000000	97.903680 
3714.000000	97.902793 
3713.000000	97.902540 
3712.000000	97.904081 
3711.000000	97.904661 
3710.000000	97.901006 
3709.000000	97.892815 
3708.000000	97.881596 
3707.000000	97.869685 
3706.000000	97.859516 
3705.000000	97.851813 
3704.000000	97.845137 
3703.000000	97.837639 
3702.000000	97.828167 
3701.000000	97.817249 
3700.000000	97.807812 
3699.000000	97.801154 
3698.000000	97.794395 
3697.000000	97.785776 
3696.000000	97.777634 
3695.000000	97.771982 
3694.000000	97.766787 
3693.000000	97.759436 
3692.000000	97.750935 
3691.000000	97.743712 
3690.000000	97.737371 
3689.000000	97.729086 
3688.000000	97.719411 
3687.000000	97.712767 
3686.000000	97.709811 
3685.000000	97.706498 
3684.000000	97.700868 
3683.000000	97.694673 
3682.000000	97.689173 
3681.000000	97.683120 
3680.000000	97.675321 
3679.000000	97.667229 
3678.000000	97.660517 
3677.000000	97.654637 
3676.000000	97.647627 
3675.000000	97.639502 
3674.000000	97.633851 
3673.000000	97.631524 
3672.000000	97.628647 
3671.000000	97.623251 
3670.000000	97.617123 
3669.000000	97.612166 
3668.000000	97.608855 
3667.000000	97.605986 
3666.000000	97.602308 
3665.000000	97.598163 
3664.000000	97.594525 
3663.000000	97.591375 
3662.000000	97.587790 
3661.000000	97.583349 
3660.000000	97.578967 
3659.000000	97.575971 
3658.000000	97.574148 
3657.000000	97.571589 
3656.000000	97.566906 
3655.000000	97.562952 
3654.000000	97.562389 
3653.000000	97.561505 
3652.000000	97.556319 
3651.000000	97.550907 
3650.000000	97.551223 
3649.000000	97.554890 
3648.000000	97.555761 
3647.000000	97.554863 
3646.000000	97.557788 
3645.000000	97.565379 
3644.000000	97.573388 
3643.000000	97.578146 
3642.000000	97.580519 
3641.000000	97.583142 
3640.000000	97.586141 
3639.000000	97.587215 
3638.000000	97.586345 
3637.000000	97.586964 
3636.000000	97.589181 
3635.000000	97.587600 
3634.000000	97.579384 
3633.000000	97.570316 
3632.000000	97.566918 
3631.000000	97.568020 
3630.000000	97.569625 
3629.000000	97.566600 
3628.000000	97.559846 
3627.000000	97.561461 
3626.000000	97.570187 
3625.000000	97.572535 
3624.000000	97.567721 
3623.000000	97.563723 
3622.000000	97.562614 
3621.000000	97.560327 
3620.000000	97.555689 
3619.000000	97.551817 
3618.000000	97.552692 
3617.000000	97.560918 
3616.000000	97.573472 
3615.000000	97.584247 
3614.000000	97.591425 
3613.000000	97.598060 
3612.000000	97.607018 
3611.000000	97.616674 
3610.000000	97.622586 
3609.000000	97.623785 
3608.000000	97.624097 
3607.000000	97.626826 
3606.000000	97.631135 
3605.000000	97.634209 
3604.000000	97.636189 
3603.000000	97.640018 
3602.000000	97.645646 
3601.000000	97.649015 
3600.000000	97.648034 
3599.000000	97.644729 
3598.000000	97.641769 
3597.000000	97.641993 
3596.000000	97.646612 
3595.000000	97.653203 
3594.000000	97.656882 
3593.000000	97.655178 
3592.000000	97.649089 
3591.000000	97.640471 
3590.000000	97.631019 
3589.000000	97.623848 
3588.000000	97.622102 
3587.000000	97.625909 
3586.000000	97.633542 
3585.000000	97.642106 
3584.000000	97.648138 
3583.000000	97.651035 
3582.000000	97.652951 
3581.000000	97.655331 
3580.000000	97.657466 
3579.000000	97.658346 
3578.000000	97.657717 
3577.000000	97.656250 
3576.000000	97.654732 
3575.000000	97.653137 
3574.000000	97.650842 
3573.000000	97.647064 
3572.000000	97.641416 
3571.000000	97.634067 
3570.000000	97.625896 
3569.000000	97.618962 
3568.000000	97.616256 
3567.000000	97.618831 
3566.000000	97.624493 
3565.000000	97.629860 
3564.000000	97.632230 
3563.000000	97.631362 
3562.000000	97.629609 
3561.000000	97.629252 
3560.000000	97.630240 
3559.000000	97.630849 
3558.000000	97.629729 
3557.000000	97.626974 
3556.000000	97.623977 
3555.000000	97.622078 
3554.000000	97.621455 
3553.000000	97.621214 
3552.000000	97.620453 
3551.000000	97.618929 
3550.000000	97.616650 
3549.000000	97.613695 
3548.000000	97.610948 
3547.000000	97.609698 
3546.000000	97.609965 
3545.000000	97.610404 
3544.000000	97.610032 
3543.000000	97.609065 
3542.000000	97.608079 
3541.000000	97.607181 
3540.000000	97.606225 
3539.000000	97.605101 
3538.000000	97.603809 
3537.000000	97.602468 
3536.000000	97.601219 
3535.000000	97.600058 
3534.000000	97.598739 
3533.000000	97.597117 
3532.000000	97.595414 
3531.000000	97.594041 
3530.000000	97.593055 
3529.000000	97.592050 
3528.000000	97.590639 
3527.000000	97.588884 
3526.000000	97.587115 
3525.000000	97.585573 
3524.000000	97.584369 
3523.000000	97.583542 
3522.000000	97.583004 
3521.000000	97.582433 
3520.000000	97.581523 
3519.000000	97.580301 
3518.000000	97.578998 
3517.000000	97.577701 
3516.000000	97.576194 
3515.000000	97.574319 
3514.000000	97.572356 
3513.000000	97.570775 
3512.000000	97.569651 
3511.000000	97.568585 
3510.000000	97.567178 
3509.000000	97.565470 
3508.000000	97.563809 
3507.000000	97.562351 
3506.000000	97.560815 
3505.000000	97.558898 
3504.000000	97.556787 
3503.000000	97.555031 
3502.000000	97.553965 
3501.000000	97.553444 
3500.000000	97.552979 
3499.000000	97.552158 
3498.000000	97.550928 
3497.000000	97.549546 
3496.000000	97.548262 
3495.000000	97.547022 
3494.000000	97.545590 
3493.000000	97.543937 
3492.000000	97.542304 
3491.000000	97.540908 
3490.000000	97.539722 
3489.000000	97.538547 
3488.000000	97.537191 
3487.000000	97.535542 
3486.000000	97.533600 
3485.000000	97.531578 
3484.000000	97.529832 
3483.000000	97.528540 
3482.000000	97.527542 
3481.000000	97.526650 
3480.000000	97.525931 
3479.000000	97.525450 
3478.000000	97.524869 
3477.000000	97.523647 
3476.000000	97.521640 
3475.000000	97.519219 
3474.000000	97.516881 
3473.000000	97.514895 
3472.000000	97.513203 
3471.000000	97.511521 
3470.000000	97.509584 
3469.000000	97.507397 
3468.000000	97.505287 
3467.000000	97.503717 
3466.000000	97.502940 
3465.000000	97.502697 
3464.000000	97.502213 
3463.000000	97.500700 
3462.000000	97.498006 
3461.000000	97.494748 
3460.000000	97.491796 
3459.000000	97.489555 
3458.000000	97.487918 
3457.000000	97.486691 
3456.000000	97.485828 
3455.000000	97.485360 
3454.000000	97.485185 
3453.000000	97.485136 
3452.000000	97.485169 
3451.000000	97.485282 
3450.000000	97.485121 
3449.000000	97.484048 
3448.000000	97.481839 
3447.000000	97.479132 
3446.000000	97.476928 
3445.000000	97.475611 
3444.000000	97.474774 
3443.000000	97.473885 
3442.000000	97.472768 
3441.000000	97.471403 
3440.000000	97.469695 
3439.000000	97.467616 
3438.000000	97.465440 
3437.000000	97.463575 
3436.000000	97.462250 
3435.000000	97.461554 
3434.000000	97.461456 
3433.000000	97.461734 
3432.000000	97.462045 
3431.000000	97.462163 
3430.000000	97.462028 
3429.000000	97.461596 
3428.000000	97.460786 
3427.000000	97.459606 
3426.000000	97.458345 
3425.000000	97.457480 
3424.000000	97.457257 
3423.000000	97.457377 
3422.000000	97.457186 
3421.000000	97.456340 
3420.000000	97.455090 
3419.000000	97.453981 
3418.000000	97.453322 
3417.000000	97.453082 
3416.000000	97.453137 
3415.000000	97.453345 
3414.000000	97.453457 
3413.000000	97.453208 
3412.000000	97.452537 
3411.000000	97.451646 
3410.000000	97.450826 
3409.000000	97.450258 
3408.000000	97.449982 
3407.000000	97.449911 
3406.000000	97.449865 
3405.000000	97.449695 
3404.000000	97.449420 
3403.000000	97.449183 
3402.000000	97.449083 
3401.000000	97.449113 
3400.000000	97.449233 
3399.000000	97.449415 
3398.000000	97.449611 
3397.000000	97.449773 
3396.000000	97.449892 
3395.000000	97.450010 
3394.000000	97.450161 
3393.000000	97.450339 
3392.000000	97.450514 
3391.000000	97.450676 
3390.000000	97.450872 
3389.000000	97.451210 
3388.000000	97.451794 
3387.000000	97.452632 
3386.000000	97.453599 
3385.000000	97.454484 
3384.000000	97.455096 
3383.000000	97.455346 
3382.000000	97.455366 
3381.000000	97.455526 
3380.000000	97.456119 
3379.000000	97.457055 
3378.000000	97.457976 
3377.000000	97.458772 
3376.000000	97.459753 
3375.000000	97.461109 
3374.000000	97.462471 
3373.000000	97.463273 
3372.000000	97.463436 
3371.000000	97.463500 
3370.000000	97.464087 
3369.000000	97.465330 
3368.000000	97.466906 
3367.000000	97.468394 
3366.000000	97.469529 
3365.000000	97.470255 
3364.000000	97.470716 
3363.000000	97.471184 
3362.000000	97.471898 
3361.000000	97.472936 
3360.000000	97.474291 
3359.000000	97.475955 
3358.000000	97.477865 
3357.000000	97.479834 
3356.000000	97.481597 
3355.000000	97.482962 
3354.000000	97.483983 
3353.000000	97.484999 
3352.000000	97.486444 
3351.000000	97.488518 
3350.000000	97.491029 
3349.000000	97.493519 
3348.000000	97.495601 
3347.000000	97.497243 
3346.000000	97.498723 
3345.000000	97.500292 
3344.000000	97.501808 
3343.000000	97.502804 
3342.000000	97.503053 
3341.000000	97.503002 
3340.000000	97.503379 
3339.000000	97.504381 
3338.000000	97.505679 
3337.000000	97.507000 
3336.000000	97.508385 
3335.000000	97.509903 
3334.000000	97.511420 
3333.000000	97.512758 
3332.000000	97.513928 
3331.000000	97.515068 
3330.000000	97.516267 
3329.000000	97.517527 
3328.000000	97.518829 
3327.000000	97.520165 
3326.000000	97.521512 
3325.000000	97.522828 
3324.000000	97.524081 
3323.000000	97.525276 
3322.000000	97.526451 
3321.000000	97.527637 
3320.000000	97.528837 
3319.000000	97.530035 
3318.000000	97.531217 
3317.000000	97.532381 
3316.000000	97.533524 
3315.000000	97.534648 
3314.000000	97.535752 
3313.000000	97.536839 
3312.000000	97.537913 
3311.000000	97.538981 
3310.000000	97.540046 
3309.000000	97.541111 
3308.000000	97.542173 
3307.000000	97.543228 
3306.000000	97.544275 
3305.000000	97.545317 
3304.000000	97.546367 
3303.000000	97.547435 
3302.000000	97.548526 
3301.000000	97.549637 
3300.000000	97.550757 
3299.000000	97.551876 
3298.000000	97.552987 
3297.000000	97.554098 
3296.000000	97.555221 
3295.000000	97.556364 
3294.000000	97.557527 
3293.000000	97.558712 
3292.000000	97.559915 
3291.000000	97.561132 
3290.000000	97.562359 
3289.000000	97.563588 
3288.000000	97.564795 
3287.000000	97.565954 
3286.000000	97.567042 
3285.000000	97.568043 
3284.000000	97.568965 
3283.000000	97.569850 
3282.000000	97.570776 
3281.000000	97.571803 
3280.000000	97.572917 
3279.000000	97.574021 
3278.000000	97.575039 
3277.000000	97.576026 
3276.000000	97.577104 
3275.000000	97.578285 
3274.000000	97.579438 
3273.000000	97.580476 
3272.000000	97.581500 
3271.000000	97.582676 
3270.000000	97.584020 
3269.000000	97.585356 
3268.000000	97.586485 
3267.000000	97.587362 
3266.000000	97.588115 
3265.000000	97.588971 
3264.000000	97.590091 
3263.000000	97.591434 
3262.000000	97.592765 
3261.000000	97.593899 
3260.000000	97.594831 
3259.000000	97.595642 
3258.000000	97.596414 
3257.000000	97.597326 
3256.000000	97.598665 
3255.000000	97.600499 
3254.000000	97.602399 
3253.000000	97.603796 
3252.000000	97.604569 
3251.000000	97.605090 
3250.000000	97.605684 
3249.000000	97.606288 
3248.000000	97.606720 
3247.000000	97.606989 
3246.000000	97.607270 
3245.000000	97.607753 
3244.000000	97.608564 
3243.000000	97.609741 
3242.000000	97.611171 
3241.000000	97.612601 
3240.000000	97.613802 
3239.000000	97.614738 
3238.000000	97.615595 
3237.000000	97.616619 
3236.000000	97.617910 
3235.000000	97.619334 
3234.000000	97.620621 
3233.000000	97.621608 
3232.000000	97.622368 
3231.000000	97.623153 
3230.000000	97.624165 
3229.000000	97.625389 
3228.000000	97.626642 
3227.000000	97.627795 
3226.000000	97.628915 
3225.000000	97.630152 
3224.000000	97.631507 
3223.000000	97.632812 
3222.000000	97.633942 
3221.000000	97.634969 
3220.000000	97.636043 
3219.000000	97.637186 
3218.000000	97.638316 
3217.000000	97.639408 
3216.000000	97.640526 
3215.000000	97.641734 
3214.000000	97.643042 
3213.000000	97.644410 
3212.000000	97.645767 
3211.000000	97.647036 
3210.000000	97.648203 
3209.000000	97.649356 
3208.000000	97.650607 
3207.000000	97.651939 
3206.000000	97.653203 
3205.000000	97.654340 
3204.000000	97.655552 
3203.000000	97.657096 
3202.000000	97.658977 
3201.000000	97.660891 
3200.000000	97.662511 
3199.000000	97.663755 
3198.000000	97.664807 
3197.000000	97.665928 
3196.000000	97.667208 
3195.000000	97.668584 
3194.000000	97.670062 
3193.000000	97.671807 
3192.000000	97.673861 
3191.000000	97.675860 
3190.000000	97.677263 
3189.000000	97.677874 
3188.000000	97.678037 
3187.000000	97.678338 
3186.000000	97.679201 
3185.000000	97.680759 
3184.000000	97.682747 
3183.000000	97.684690 
3182.000000	97.686425 
3181.000000	97.688180 
3180.000000	97.690134 
3179.000000	97.692146 
3178.000000	97.694043 
3177.000000	97.695930 
3176.000000	97.697980 
3175.000000	97.700092 
3174.000000	97.702007 
3173.000000	97.703649 
3172.000000	97.705103 
3171.000000	97.706387 
3170.000000	97.707510 
3169.000000	97.708618 
3168.000000	97.709888 
3167.000000	97.711291 
3166.000000	97.712661 
3165.000000	97.713927 
3164.000000	97.715145 
3163.000000	97.716372 
3162.000000	97.717614 
3161.000000	97.718886 
3160.000000	97.720216 
3159.000000	97.721596 
3158.000000	97.722986 
3157.000000	97.724350 
3156.000000	97.725679 
3155.000000	97.726983 
3154.000000	97.728271 
3153.000000	97.729548 
3152.000000	97.730815 
3151.000000	97.732070 
3150.000000	97.733309 
3149.000000	97.734531 
3148.000000	97.735741 
3147.000000	97.736952 
3146.000000	97.738171 
3145.000000	97.739400 
3144.000000	97.740626 
3143.000000	97.741832 
3142.000000	97.743007 
3141.000000	97.744150 
3140.000000	97.745271 
3139.000000	97.746378 
3138.000000	97.747476 
3137.000000	97.748563 
3136.000000	97.749632 
3135.000000	97.750681 
3134.000000	97.751709 
3133.000000	97.752725 
3132.000000	97.753739 
3131.000000	97.754759 
3130.000000	97.755787 
3129.000000	97.756822 
3128.000000	97.757862 
3127.000000	97.758903 
3126.000000	97.759945 
3125.000000	97.760989 
3124.000000	97.762027 
3123.000000	97.763041 
3122.000000	97.764011 
3121.000000	97.764928 
3120.000000	97.765820 
3119.000000	97.766742 
3118.000000	97.767720 
3117.000000	97.768722 
3116.000000	97.769699 
3115.000000	97.770640 
3114.000000	97.771574 
3113.000000	97.772549 
3112.000000	97.773630 
3111.000000	97.774904 
3110.000000	97.776385 
3109.000000	97.777909 
3108.000000	97.779207 
3107.000000	97.780179 
3106.000000	97.781047 
3105.000000	97.782043 
3104.000000	97.782937 
3103.000000	97.783131 
3102.000000	97.782409 
3101.000000	97.781409 
3100.000000	97.781017 
3099.000000	97.781441 
3098.000000	97.782311 
3097.000000	97.783608 
3096.000000	97.785743 
3095.000000	97.788544 
3094.000000	97.790959 
3093.000000	97.792163 
3092.000000	97.792470 
3091.000000	97.792647 
3090.000000	97.792850 
3089.000000	97.792748 
3088.000000	97.792270 
3087.000000	97.791833 
3086.000000	97.792112 
3085.000000	97.793625 
3084.000000	97.795967 
3083.000000	97.797491 
3082.000000	97.796898 
3081.000000	97.795315 
3080.000000	97.795365 
3079.000000	97.797662 
3078.000000	97.800037 
3077.000000	97.800939 
3076.000000	97.801526 
3075.000000	97.803214 
3074.000000	97.805093 
3073.000000	97.805636 
3072.000000	97.805294 
3071.000000	97.805193 
3070.000000	97.804702 
3069.000000	97.802865 
3068.000000	97.801235 
3067.000000	97.802383 
3066.000000	97.805849 
3065.000000	97.808245 
3064.000000	97.807458 
3063.000000	97.804316 
3062.000000	97.800140 
3061.000000	97.795265 
3060.000000	97.790475 
3059.000000	97.787774 
3058.000000	97.788684 
3057.000000	97.792753 
3056.000000	97.797731 
3055.000000	97.800348 
3054.000000	97.797660 
3053.000000	97.789738 
3052.000000	97.781216 
3051.000000	97.777856 
3050.000000	97.780754 
3049.000000	97.785455 
3048.000000	97.786979 
3047.000000	97.783938 
3046.000000	97.777437 
3045.000000	97.768626 
3044.000000	97.759015 
3043.000000	97.751525 
3042.000000	97.748823 
3041.000000	97.750212 
3040.000000	97.751384 
3039.000000	97.747932 
3038.000000	97.738747 
3037.000000	97.726022 
3036.000000	97.712435 
3035.000000	97.698837 
3034.000000	97.684952 
3033.000000	97.671285 
3032.000000	97.659017 
3031.000000	97.648286 
3030.000000	97.637824 
3029.000000	97.626441 
3028.000000	97.613506 
3027.000000	97.597808 
3026.000000	97.577779 
3025.000000	97.554007 
3024.000000	97.530221 
3023.000000	97.510044 
3022.000000	97.493439 
3021.000000	97.477873 
3020.000000	97.462056 
3019.000000	97.446448 
3018.000000	97.430480 
3017.000000	97.411732 
3016.000000	97.388675 
3015.000000	97.362766 
3014.000000	97.337250 
3013.000000	97.314564 
3012.000000	97.294710 
3011.000000	97.274991 
3010.000000	97.251516 
3009.000000	97.222343 
3008.000000	97.189487 
3007.000000	97.157058 
3006.000000	97.127405 
3005.000000	97.099961 
3004.000000	97.073476 
3003.000000	97.047902 
3002.000000	97.023885 
3001.000000	97.001786 
3000.000000	96.981553 
2999.000000	96.962384 
2998.000000	96.942566 
2997.000000	96.920994 
2996.000000	96.898814 
2995.000000	96.877659 
2994.000000	96.855412 
2993.000000	96.825795 
2992.000000	96.784493 
2991.000000	96.735639 
2990.000000	96.690860 
2989.000000	96.661381 
2988.000000	96.651254 
2987.000000	96.656932 
2986.000000	96.671313 
2985.000000	96.687816 
2984.000000	96.701946 
2983.000000	96.711299 
2982.000000	96.715549 
2981.000000	96.716133 
2980.000000	96.714679 
2979.000000	96.711129 
2978.000000	96.704041 
2977.000000	96.693190 
2976.000000	96.681194 
2975.000000	96.671854 
2974.000000	96.667321 
2973.000000	96.667553 
2972.000000	96.671750 
2971.000000	96.679178 
2970.000000	96.688966 
2969.000000	96.700556 
2968.000000	96.714532 
2967.000000	96.731783 
2966.000000	96.751461 
2965.000000	96.770793 
2964.000000	96.787440 
2963.000000	96.801418 
2962.000000	96.814320 
2961.000000	96.827397 
2960.000000	96.840962 
2959.000000	96.855070 
2958.000000	96.870030 
2957.000000	96.886152 
2956.000000	96.903160 
2955.000000	96.919838 
2954.000000	96.934673 
2953.000000	96.947414 
2952.000000	96.959761 
2951.000000	96.973567 
2950.000000	96.988070 
2949.000000	96.999775 
2948.000000	97.005545 
2947.000000	97.005228 
2946.000000	97.001323 
2945.000000	96.997014 
2944.000000	96.994705 
2943.000000	96.995389 
2942.000000	96.998095 
2941.000000	97.000110 
2940.000000	96.999094 
2939.000000	96.995495 
2938.000000	96.992084 
2937.000000	96.990791 
2936.000000	96.990510 
2935.000000	96.988231 
2934.000000	96.981804 
2933.000000	96.971245 
2932.000000	96.958078 
2931.000000	96.944343 
2930.000000	96.932218 
2929.000000	96.923594 
2928.000000	96.919039 
2927.000000	96.917121 
2926.000000	96.915406 
2925.000000	96.912756 
2924.000000	96.910554 
2923.000000	96.911238 
2922.000000	96.915533 
2921.000000	96.921494 
2920.000000	96.926530 
2919.000000	96.929953 
2918.000000	96.932821 
2917.000000	96.935326 
2916.000000	96.935384 
2915.000000	96.930747 
2914.000000	96.922313 
2913.000000	96.914337 
2912.000000	96.910799 
2911.000000	96.911901 
2910.000000	96.914381 
2909.000000	96.915062 
2908.000000	96.913621 
2907.000000	96.911797 
2906.000000	96.910155 
2905.000000	96.906085 
2904.000000	96.896008 
2903.000000	96.880719 
2902.000000	96.868025 
2901.000000	96.867903 
2900.000000	96.884157 
2899.000000	96.911223 
2898.000000	96.938951 
2897.000000	96.960451 
2896.000000	96.974593 
2895.000000	96.982877 
2894.000000	96.987396 
2893.000000	96.991601 
2892.000000	96.999500 
2891.000000	97.011963 
2890.000000	97.025398 
2889.000000	97.035789 
2888.000000	97.042936 
2887.000000	97.049161 
2886.000000	97.055297 
2885.000000	97.060584 
2884.000000	97.066141 
2883.000000	97.075501 
2882.000000	97.090535 
2881.000000	97.108854 
2880.000000	97.126854 
2879.000000	97.144172 
2878.000000	97.163038 
2877.000000	97.183654 
2876.000000	97.202386 
2875.000000	97.215417 
2874.000000	97.222923 
2873.000000	97.228657 
2872.000000	97.236046 
2871.000000	97.245619 
2870.000000	97.255974 
2869.000000	97.265908 
2868.000000	97.275188 
2867.000000	97.284202 
2866.000000	97.293735 
2865.000000	97.304829 
2864.000000	97.318253 
2863.000000	97.334099 
2862.000000	97.351942 
2861.000000	97.370888 
2860.000000	97.389301 
2859.000000	97.405446 
2858.000000	97.419326 
2857.000000	97.433254 
2856.000000	97.449285 
2855.000000	97.466406 
2854.000000	97.481551 
2853.000000	97.493355 
2852.000000	97.503496 
2851.000000	97.514361 
2850.000000	97.526918 
2849.000000	97.541204 
2848.000000	97.557206 
2847.000000	97.574168 
2846.000000	97.590195 
2845.000000	97.603937 
2844.000000	97.616183 
2843.000000	97.628782 
2842.000000	97.642300 
2841.000000	97.655437 
2840.000000	97.666423 
2839.000000	97.674415 
2838.000000	97.679947 
2837.000000	97.684655 
2836.000000	97.690326 
2835.000000	97.697653 
2834.000000	97.706139 
2833.000000	97.715372 
2832.000000	97.725564 
2831.000000	97.736184 
2830.000000	97.744874 
2829.000000	97.749087 
2828.000000	97.748868 
2827.000000	97.747307 
2826.000000	97.748142 
2825.000000	97.753049 
2824.000000	97.760884 
2823.000000	97.768799 
2822.000000	97.774231 
2821.000000	97.776599 
2820.000000	97.777341 
2819.000000	97.778125 
2818.000000	97.779212 
2817.000000	97.780000 
2816.000000	97.780717 
2815.000000	97.782630 
2814.000000	97.786286 
2813.000000	97.790246 
2812.000000	97.792185 
2811.000000	97.791223 
2810.000000	97.788948 
2809.000000	97.788049 
2808.000000	97.790088 
2807.000000	97.794735 
2806.000000	97.800855 
2805.000000	97.807590 
2804.000000	97.814032 
2803.000000	97.818655 
2802.000000	97.820320 
2801.000000	97.819959 
2800.000000	97.820218 
2799.000000	97.822768 
2798.000000	97.826452 
2797.000000	97.828611 
2796.000000	97.827918 
2795.000000	97.825539 
2794.000000	97.823937 
2793.000000	97.824810 
2792.000000	97.827985 
2791.000000	97.831823 
2790.000000	97.834635 
2789.000000	97.835896 
2788.000000	97.836231 
2787.000000	97.836492 
2786.000000	97.837165 
2785.000000	97.838469 
2784.000000	97.840444 
2783.000000	97.842801 
2782.000000	97.844999 
2781.000000	97.846720 
2780.000000	97.848129 
2779.000000	97.849536 
2778.000000	97.851008 
2777.000000	97.852383 
2776.000000	97.853531 
2775.000000	97.854536 
2774.000000	97.855620 
2773.000000	97.856949 
2772.000000	97.858477 
2771.000000	97.860003 
2770.000000	97.861391 
2769.000000	97.862708 
2768.000000	97.864105 
2767.000000	97.865574 
2766.000000	97.866923 
2765.000000	97.868000 
2764.000000	97.868858 
2763.000000	97.869625 
2762.000000	97.870346 
2761.000000	97.871015 
2760.000000	97.871703 
2759.000000	97.872547 
2758.000000	97.873610 
2757.000000	97.874773 
2756.000000	97.875807 
2755.000000	97.876595 
2754.000000	97.877278 
2753.000000	97.878158 
2752.000000	97.879382 
2751.000000	97.880820 
2750.000000	97.882228 
2749.000000	97.883503 
2748.000000	97.884646 
2747.000000	97.885557 
2746.000000	97.886093 
2745.000000	97.886319 
2744.000000	97.886572 
2743.000000	97.887173 
2742.000000	97.888161 
2741.000000	97.889347 
2740.000000	97.890514 
2739.000000	97.891547 
2738.000000	97.892401 
2737.000000	97.893073 
2736.000000	97.893654 
2735.000000	97.894307 
2734.000000	97.895142 
2733.000000	97.896147 
2732.000000	97.897230 
2731.000000	97.898302 
2730.000000	97.899342 
2729.000000	97.900396 
2728.000000	97.901496 
2727.000000	97.902555 
2726.000000	97.903407 
2725.000000	97.903993 
2724.000000	97.904450 
2723.000000	97.904971 
2722.000000	97.905616 
2721.000000	97.906321 
2720.000000	97.907043 
2719.000000	97.907820 
2718.000000	97.908674 
2717.000000	97.909539 
2716.000000	97.910319 
2715.000000	97.911006 
2714.000000	97.911696 
2713.000000	97.912470 
2712.000000	97.913298 
2711.000000	97.914082 
2710.000000	97.914778 
2709.000000	97.915445 
2708.000000	97.916162 
2707.000000	97.916945 
2706.000000	97.917744 
2705.000000	97.918512 
2704.000000	97.919217 
2703.000000	97.919828 
2702.000000	97.920329 
2701.000000	97.920783 
2700.000000	97.921313 
2699.000000	97.921992 
2698.000000	97.922765 
2697.000000	97.923477 
2696.000000	97.923997 
2695.000000	97.924326 
2694.000000	97.924584 
2693.000000	97.924882 
2692.000000	97.925238 
2691.000000	97.925598 
2690.000000	97.925915 
2689.000000	97.926184 
2688.000000	97.926425 
2687.000000	97.926639 
2686.000000	97.926822 
2685.000000	97.926989 
2684.000000	97.927161 
2683.000000	97.927341 
2682.000000	97.927517 
2681.000000	97.927667 
2680.000000	97.927783 
2679.000000	97.927879 
2678.000000	97.927970 
2677.000000	97.928060 
2676.000000	97.928138 
2675.000000	97.928172 
2674.000000	97.928118 
2673.000000	97.927974 
2672.000000	97.927804 
2671.000000	97.927673 
2670.000000	97.927583 
2669.000000	97.927489 
2668.000000	97.927355 
2667.000000	97.927169 
2666.000000	97.926927 
2665.000000	97.926640 
2664.000000	97.926355 
2663.000000	97.926117 
2662.000000	97.925930 
2661.000000	97.925747 
2660.000000	97.925511 
2659.000000	97.925203 
2658.000000	97.924845 
2657.000000	97.924483 
2656.000000	97.924153 
2655.000000	97.923855 
2654.000000	97.923534 
2653.000000	97.923121 
2652.000000	97.922618 
2651.000000	97.922137 
2650.000000	97.921806 
2649.000000	97.921649 
2648.000000	97.921559 
2647.000000	97.921386 
2646.000000	97.921035 
2645.000000	97.920483 
2644.000000	97.919787 
2643.000000	97.919090 
2642.000000	97.918557 
2641.000000	97.918273 
2640.000000	97.918200 
2639.000000	97.918215 
2638.000000	97.918218 
2637.000000	97.918173 
2636.000000	97.918111 
2635.000000	97.918110 
2634.000000	97.918242 
2633.000000	97.918456 
2632.000000	97.918533 
2631.000000	97.918248 
2630.000000	97.917625 
2629.000000	97.916999 
2628.000000	97.916712 
2627.000000	97.916748 
2626.000000	97.916797 
2625.000000	97.916679 
2624.000000	97.916589 
2623.000000	97.916827 
2622.000000	97.917390 
2621.000000	97.917902 
2620.000000	97.917923 
2619.000000	97.917258 
2618.000000	97.916033 
2617.000000	97.914684 
2616.000000	97.913722 
2615.000000	97.913375 
2614.000000	97.913528 
2613.000000	97.913968 
2612.000000	97.914613 
2611.000000	97.915400 
2610.000000	97.916138 
2609.000000	97.916613 
2608.000000	97.916724 
2607.000000	97.916464 
2606.000000	97.915949 
2605.000000	97.915536 
2604.000000	97.915648 
2603.000000	97.916330 
2602.000000	97.917190 
2601.000000	97.917906 
2600.000000	97.918523 
2599.000000	97.919079 
2598.000000	97.919313 
2597.000000	97.919049 
2596.000000	97.918518 
2595.000000	97.917996 
2594.000000	97.917377 
2593.000000	97.916555 
2592.000000	97.915975 
2591.000000	97.916212 
2590.000000	97.917141 
2589.000000	97.918037 
2588.000000	97.918476 
2587.000000	97.918652 
2586.000000	97.918824 
2585.000000	97.919071 
2584.000000	97.919538 
2583.000000	97.920325 
2582.000000	97.921091 
2581.000000	97.921321 
2580.000000	97.921095 
2579.000000	97.921134 
2578.000000	97.921950 
2577.000000	97.923318 
2576.000000	97.924573 
2575.000000	97.925134 
2574.000000	97.924764 
2573.000000	97.923748 
2572.000000	97.922822 
2571.000000	97.922407 
2570.000000	97.922039 
2569.000000	97.921080 
2568.000000	97.919932 
2567.000000	97.919761 
2566.000000	97.920942 
2565.000000	97.922656 
2564.000000	97.924038 
2563.000000	97.925091 
2562.000000	97.926048 
2561.000000	97.926711 
2560.000000	97.926975 
2559.000000	97.927379 
2558.000000	97.928467 
2557.000000	97.929926 
2556.000000	97.930937 
2555.000000	97.931185 
2554.000000	97.930984 
2553.000000	97.930597 
2552.000000	97.930016 
2551.000000	97.929445 
2550.000000	97.929391 
2549.000000	97.929958 
2548.000000	97.930415 
2547.000000	97.929961 
2546.000000	97.928726 
2545.000000	97.927700 
2544.000000	97.927546 
2543.000000	97.927896 
2542.000000	97.928023 
2541.000000	97.927932 
2540.000000	97.928266 
2539.000000	97.929233 
2538.000000	97.930202 
2537.000000	97.930518 
2536.000000	97.930340 
2535.000000	97.930332 
2534.000000	97.930751 
2533.000000	97.931240 
2532.000000	97.931452 
2531.000000	97.931445 
2530.000000	97.931362 
2529.000000	97.931093 
2528.000000	97.930488 
2527.000000	97.929718 
2526.000000	97.929214 
2525.000000	97.929250 
2524.000000	97.929740 
2523.000000	97.930360 
2522.000000	97.930808 
2521.000000	97.931008 
2520.000000	97.931073 
2519.000000	97.931143 
2518.000000	97.931214 
2517.000000	97.931142 
2516.000000	97.930799 
2515.000000	97.930215 
2514.000000	97.929594 
2513.000000	97.929189 
2512.000000	97.929153 
2511.000000	97.929510 
2510.000000	97.930188 
2509.000000	97.931029 
2508.000000	97.931771 
2507.000000	97.932180 
2506.000000	97.932256 
2505.000000	97.932264 
2504.000000	97.932502 
2503.000000	97.932973 
2502.000000	97.933419 
2501.000000	97.933645 
2500.000000	97.933706 
2499.000000	97.933796 
2498.000000	97.934036 
2497.000000	97.934380 
2496.000000	97.934721 
2495.000000	97.935025 
2494.000000	97.935319 
2493.000000	97.935605 
2492.000000	97.935885 
2491.000000	97.936227 
2490.000000	97.936722 
2489.000000	97.937329 
2488.000000	97.937825 
2487.000000	97.938010 
2486.000000	97.937928 
2485.000000	97.937850 
2484.000000	97.937976 
2483.000000	97.938235 
2482.000000	97.938407 
2481.000000	97.938400 
2480.000000	97.938343 
2479.000000	97.938433 
2478.000000	97.938747 
2477.000000	97.939218 
2476.000000	97.939682 
2475.000000	97.939944 
2474.000000	97.939917 
2473.000000	97.939764 
2472.000000	97.939743 
2471.000000	97.939883 
2470.000000	97.939988 
2469.000000	97.939992 
2468.000000	97.940072 
2467.000000	97.940284 
2466.000000	97.940361 
2465.000000	97.940104 
2464.000000	97.939802 
2463.000000	97.940018 
2462.000000	97.941077 
2461.000000	97.942933 
2460.000000	97.945236 
2459.000000	97.947342 
2458.000000	97.948430 
2457.000000	97.947982 
2456.000000	97.946158 
2455.000000	97.943736 
2454.000000	97.941655 
2453.000000	97.940472 
2452.000000	97.940108 
2451.000000	97.940048 
2450.000000	97.940007 
2449.000000	97.940359 
2448.000000	97.941593 
2447.000000	97.943433 
2446.000000	97.944899 
2445.000000	97.945331 
2444.000000	97.944909 
2443.000000	97.944176 
2442.000000	97.943499 
2441.000000	97.943124 
2440.000000	97.943325 
2439.000000	97.944203 
2438.000000	97.945566 
2437.000000	97.947163 
2436.000000	97.948794 
2435.000000	97.950138 
2434.000000	97.950853 
2433.000000	97.950978 
2432.000000	97.950981 
2431.000000	97.951323 
2430.000000	97.952246 
2429.000000	97.953888 
2428.000000	97.956090 
2427.000000	97.958083 
2426.000000	97.958795 
2425.000000	97.957583 
2424.000000	97.955036 
2423.000000	97.952669 
2422.000000	97.951345 
2421.000000	97.951140 
2420.000000	97.952309 
2419.000000	97.954878 
2418.000000	97.957951 
2417.000000	97.960639 
2416.000000	97.963008 
2415.000000	97.965045 
2414.000000	97.965818 
2413.000000	97.965229 
2412.000000	97.965168 
2411.000000	97.966987 
2410.000000	97.969139 
2409.000000	97.969542 
2408.000000	97.969104 
2407.000000	97.970426 
2406.000000	97.973665 
2405.000000	97.976084 
2404.000000	97.975593 
2403.000000	97.972810 
2402.000000	97.969715 
2401.000000	97.968078 
2400.000000	97.969094 
2399.000000	97.972778 
2398.000000	97.977599 
2397.000000	97.981978 
2396.000000	97.985797 
2395.000000	97.989283 
2394.000000	97.991295 
2393.000000	97.990779 
2392.000000	97.989316 
2391.000000	97.989989 
2390.000000	97.993680 
2389.000000	97.998630 
2388.000000	98.003730 
2387.000000	98.010097 
2386.000000	98.018699 
2385.000000	98.028155 
2384.000000	98.035854 
2383.000000	98.039883 
2382.000000	98.038914 
2381.000000	98.031892 
2380.000000	98.019181 
2379.000000	98.003224 
2378.000000	97.986866 
2377.000000	97.971942 
2376.000000	97.960760 
2375.000000	97.957255 
2374.000000	97.963830 
2373.000000	97.977665 
2372.000000	97.992316 
2371.000000	98.003604 
2370.000000	98.011532 
2369.000000	98.016526 
2368.000000	98.017533 
2367.000000	98.014583 
2366.000000	98.010292 
2365.000000	98.007487 
2364.000000	98.006906 
2363.000000	98.008025 
2362.000000	98.010636 
2361.000000	98.014593 
2360.000000	98.019336 
2359.000000	98.023992 
2358.000000	98.026883 
2357.000000	98.026853 
2356.000000	98.024497 
2355.000000	98.021694 
2354.000000	98.019044 
2353.000000	98.017285 
2352.000000	98.018147 
2351.000000	98.021759 
2350.000000	98.025919 
2349.000000	98.028301 
2348.000000	98.028744 
2347.000000	98.028531 
2346.000000	98.029148 
2345.000000	98.031192 
2344.000000	98.034018 
2343.000000	98.036596 
2342.000000	98.038302 
2341.000000	98.039333 
2340.000000	98.040268 
2339.000000	98.041512 
2338.000000	98.042946 
2337.000000	98.044159 
2336.000000	98.045307 
2335.000000	98.046832 
2334.000000	98.048683 
2333.000000	98.050090 
2332.000000	98.051150 
2331.000000	98.052528 
2330.000000	98.054855 
2329.000000	98.057470 
2328.000000	98.060298 
2327.000000	98.063310 
2326.000000	98.065987 
2325.000000	98.067415 
2324.000000	98.068203 
2323.000000	98.069792 
2322.000000	98.071581 
2321.000000	98.071108 
2320.000000	98.068435 
2319.000000	98.065892 
2318.000000	98.065461 
2317.000000	98.064734 
2316.000000	98.061940 
2315.000000	98.057225 
2314.000000	98.054499 
2313.000000	98.055726 
2312.000000	98.062179 
2311.000000	98.071599 
2310.000000	98.080440 
2309.000000	98.083779 
2308.000000	98.081413 
2307.000000	98.076508 
2306.000000	98.073196 
2305.000000	98.072112 
2304.000000	98.073023 
2303.000000	98.074796 
2302.000000	98.077565 
2301.000000	98.080138 
2300.000000	98.081193 
2299.000000	98.077240 
2298.000000	98.066925 
2297.000000	98.050903 
2296.000000	98.033997 
2295.000000	98.020321 
2294.000000	98.010732 
2293.000000	98.002207 
2292.000000	97.992686 
2291.000000	97.982786 
2290.000000	97.974475 
2289.000000	97.969259 
2288.000000	97.967263 
2287.000000	97.966776 
2286.000000	97.964293 
2285.000000	97.958037 
2284.000000	97.950165 
2283.000000	97.944759 
2282.000000	97.942583 
2281.000000	97.940588 
2280.000000	97.935755 
2279.000000	97.927962 
2278.000000	97.918788 
2277.000000	97.910098 
2276.000000	97.904183 
2275.000000	97.902323 
2274.000000	97.903351 
2273.000000	97.905308 
2272.000000	97.908556 
2271.000000	97.913972 
2270.000000	97.919278 
2269.000000	97.920689 
2268.000000	97.918358 
2267.000000	97.916064 
2266.000000	97.915661 
2265.000000	97.915395 
2264.000000	97.913762 
2263.000000	97.911049 
2262.000000	97.906758 
2261.000000	97.899600 
2260.000000	97.890497 
2259.000000	97.882478 
2258.000000	97.876771 
2257.000000	97.872293 
2256.000000	97.869026 
2255.000000	97.868387 
2254.000000	97.869564 
2253.000000	97.868829 
2252.000000	97.864311 
2251.000000	97.858254 
2250.000000	97.853297 
2249.000000	97.848881 
2248.000000	97.843586 
2247.000000	97.838574 
2246.000000	97.836242 
2245.000000	97.836568 
2244.000000	97.837066 
2243.000000	97.835786 
2242.000000	97.833029 
2241.000000	97.830250 
2240.000000	97.828500 
2239.000000	97.827793 
2238.000000	97.827292 
2237.000000	97.826051 
2236.000000	97.823927 
2235.000000	97.821522 
2234.000000	97.819387 
2233.000000	97.817570 
2232.000000	97.815872 
2231.000000	97.814127 
2230.000000	97.812226 
2229.000000	97.810120 
2228.000000	97.807887 
2227.000000	97.805689 
2226.000000	97.803590 
2225.000000	97.801517 
2224.000000	97.799381 
2223.000000	97.797191 
2222.000000	97.795004 
2221.000000	97.792860 
2220.000000	97.790754 
2219.000000	97.788670 
2218.000000	97.786596 
2217.000000	97.784524 
2216.000000	97.782449 
2215.000000	97.780363 
2214.000000	97.778257 
2213.000000	97.776129 
2212.000000	97.773992 
2211.000000	97.771867 
2210.000000	97.769763 
2209.000000	97.767659 
2208.000000	97.765525 
2207.000000	97.763334 
2206.000000	97.761078 
2205.000000	97.758723 
2204.000000	97.756160 
2203.000000	97.753554 
2202.000000	97.751697 
2201.000000	97.751250 
2200.000000	97.751523 
2199.000000	97.750819 
2198.000000	97.747872 
2197.000000	97.742768 
2196.000000	97.736936 
2195.000000	97.732106 
2194.000000	97.729016 
2193.000000	97.727315 
2192.000000	97.726444 
2191.000000	97.725611 
2190.000000	97.723237 
2189.000000	97.718412 
2188.000000	97.713018 
2187.000000	97.709716 
2186.000000	97.707241 
2185.000000	97.701116 
2184.000000	97.691080 
2183.000000	97.684435 
2182.000000	97.688208 
2181.000000	97.700108 
2180.000000	97.710081 
2179.000000	97.710812 
2178.000000	97.703279 
2177.000000	97.693176 
2176.000000	97.685326 
2175.000000	97.681477 
2174.000000	97.681129 
2173.000000	97.683205 
2172.000000	97.687408 
2171.000000	97.693521 
2170.000000	97.698849 
2169.000000	97.698327 
2168.000000	97.689336 
2167.000000	97.675387 
2166.000000	97.662727 
2165.000000	97.653597 
2164.000000	97.644885 
2163.000000	97.633612 
2162.000000	97.622360 
2161.000000	97.618688 
2160.000000	97.629398 
2159.000000	97.654748 
2158.000000	97.687190 
2157.000000	97.716683 
2156.000000	97.737728 
2155.000000	97.750220 
2154.000000	97.756513 
2153.000000	97.760399 
2152.000000	97.765739 
2151.000000	97.772012 
2150.000000	97.773327 
2149.000000	97.766350 
2148.000000	97.757818 
2147.000000	97.758513 
2146.000000	97.770080 
2145.000000	97.783716 
2144.000000	97.792592 
2143.000000	97.799220 
2142.000000	97.807983 
2141.000000	97.817076 
2140.000000	97.822530 
2139.000000	97.825967 
2138.000000	97.832955 
2137.000000	97.845396 
2136.000000	97.859266 
2135.000000	97.868907 
2134.000000	97.871313 
2133.000000	97.867947 
2132.000000	97.864571 
2131.000000	97.867507 
2130.000000	97.878257 
2129.000000	97.892494 
2128.000000	97.904606 
2127.000000	97.911803 
2126.000000	97.913869 
2125.000000	97.911929 
2124.000000	97.908482 
2123.000000	97.906028 
2122.000000	97.904428 
2121.000000	97.901352 
2120.000000	97.895883 
2119.000000	97.889683 
2118.000000	97.884282 
2117.000000	97.879518 
2116.000000	97.874918 
2115.000000	97.870054 
2114.000000	97.863354 
2113.000000	97.853708 
2112.000000	97.844109 
2111.000000	97.840300 
2110.000000	97.844288 
2109.000000	97.851908 
2108.000000	97.857926 
2107.000000	97.861041 
2106.000000	97.862378 
2105.000000	97.862580 
2104.000000	97.862585 
2103.000000	97.863964 
2102.000000	97.865675 
2101.000000	97.863230 
2100.000000	97.854373 
2099.000000	97.843735 
2098.000000	97.838978 
2097.000000	97.843036 
2096.000000	97.852475 
2095.000000	97.861640 
2094.000000	97.866714 
2093.000000	97.866639 
2092.000000	97.862580 
2091.000000	97.857224 
2090.000000	97.853129 
2089.000000	97.851156 
2088.000000	97.850627 
2087.000000	97.850244 
2086.000000	97.848500 
2085.000000	97.844434 
2084.000000	97.839001 
2083.000000	97.834695 
2082.000000	97.832808 
2081.000000	97.831997 
2080.000000	97.830606 
2079.000000	97.829060 
2078.000000	97.828362 
2077.000000	97.827627 
2076.000000	97.825553 
2075.000000	97.823397 
2074.000000	97.823143 
2073.000000	97.823207 
2072.000000	97.819259 
2071.000000	97.809798 
2070.000000	97.798163 
2069.000000	97.788259 
2068.000000	97.780905 
2067.000000	97.774998 
2066.000000	97.770054 
2065.000000	97.766252 
2064.000000	97.763220 
2063.000000	97.760427 
2062.000000	97.758399 
2061.000000	97.758513 
2060.000000	97.761506 
2059.000000	97.766187 
2058.000000	97.769398 
2057.000000	97.767974 
2056.000000	97.761146 
2055.000000	97.750614 
2054.000000	97.738955 
2053.000000	97.728334 
2052.000000	97.720226 
2051.000000	97.714790 
2050.000000	97.710427 
2049.000000	97.705260 
2048.000000	97.699428 
2047.000000	97.694618 
2046.000000	97.691270 
2045.000000	97.688122 
2044.000000	97.684872 
2043.000000	97.683077 
2042.000000	97.683531 
2041.000000	97.684709 
2040.000000	97.685079 
2039.000000	97.685379 
2038.000000	97.686752 
2037.000000	97.688007 
2036.000000	97.686780 
2035.000000	97.682738 
2034.000000	97.678176 
2033.000000	97.675892 
2032.000000	97.677156 
2031.000000	97.680820 
2030.000000	97.683351 
2029.000000	97.681189 
2028.000000	97.674173 
2027.000000	97.665893 
2026.000000	97.659728 
2025.000000	97.656021 
2024.000000	97.654389 
2023.000000	97.656437 
2022.000000	97.663908 
2021.000000	97.674934 
2020.000000	97.684261 
2019.000000	97.687604 
2018.000000	97.684142 
2017.000000	97.676055 
2016.000000	97.667470 
2015.000000	97.662257 
2014.000000	97.660976 
2013.000000	97.660282 
2012.000000	97.657222 
2011.000000	97.654023 
2010.000000	97.655854 
2009.000000	97.664061 
2008.000000	97.674324 
2007.000000	97.682034 
2006.000000	97.686632 
2005.000000	97.689486 
2004.000000	97.690950 
2003.000000	97.691408 
2002.000000	97.693096 
2001.000000	97.697516 
2000.000000	97.702220 
1999.000000	97.702046 
1998.000000	97.693740 
1997.000000	97.679379 
1996.000000	97.665225 
1995.000000	97.656925 
1994.000000	97.655562 
1993.000000	97.657851 
1992.000000	97.659291 
1991.000000	97.658308 
1990.000000	97.657236 
1989.000000	97.659145 
1988.000000	97.664023 
1987.000000	97.667986 
1986.000000	97.666677 
1985.000000	97.660005 
1984.000000	97.652805 
1983.000000	97.649759 
1982.000000	97.650623 
1981.000000	97.651603 
1980.000000	97.651254 
1979.000000	97.652201 
1978.000000	97.656124 
1977.000000	97.660563 
1976.000000	97.662062 
1975.000000	97.660792 
1974.000000	97.659859 
1973.000000	97.661940 
1972.000000	97.667729 
1971.000000	97.676067 
1970.000000	97.684232 
1969.000000	97.689192 
1968.000000	97.689804 
1967.000000	97.687797 
1966.000000	97.686420 
1965.000000	97.688014 
1964.000000	97.693001 
1963.000000	97.700404 
1962.000000	97.708512 
1961.000000	97.715376 
1960.000000	97.719547 
1959.000000	97.720781 
1958.000000	97.720436 
1957.000000	97.721031 
1956.000000	97.724378 
1955.000000	97.730029 
1954.000000	97.735609 
1953.000000	97.739260 
1952.000000	97.741228 
1951.000000	97.742864 
1950.000000	97.744931 
1949.000000	97.747496 
1948.000000	97.750970 
1947.000000	97.755714 
1946.000000	97.760829 
1945.000000	97.764636 
1944.000000	97.766558 
1943.000000	97.767621 
1942.000000	97.769099 
1941.000000	97.771342 
1940.000000	97.774173 
1939.000000	97.777345 
1938.000000	97.780538 
1937.000000	97.783589 
1936.000000	97.786812 
1935.000000	97.790520 
1934.000000	97.794307 
1933.000000	97.797599 
1932.000000	97.800690 
1931.000000	97.804538 
1930.000000	97.809350 
1929.000000	97.813739 
1928.000000	97.816552 
1927.000000	97.818174 
1926.000000	97.819780 
1925.000000	97.821675 
1924.000000	97.823258 
1923.000000	97.824706 
1922.000000	97.826561 
1921.000000	97.828604 
1920.000000	97.830265 
1919.000000	97.831668 
1918.000000	97.833146 
1917.000000	97.834311 
1916.000000	97.834965 
1915.000000	97.835847 
1914.000000	97.837449 
1913.000000	97.839247 
1912.000000	97.840441 
1911.000000	97.841232 
1910.000000	97.842396 
1909.000000	97.844089 
1908.000000	97.846010 
1907.000000	97.847739 
1906.000000	97.848912 
1905.000000	97.849367 
1904.000000	97.849366 
1903.000000	97.849701 
1902.000000	97.850748 
1901.000000	97.852162 
1900.000000	97.853470 
1899.000000	97.854558 
1898.000000	97.855539 
1897.000000	97.856476 
1896.000000	97.857351 
1895.000000	97.858173 
1894.000000	97.858954 
1893.000000	97.859703 
1892.000000	97.860433 
1891.000000	97.861162 
1890.000000	97.861910 
1889.000000	97.862681 
1888.000000	97.863472 
1887.000000	97.864285 
1886.000000	97.865124 
1885.000000	97.865983 
1884.000000	97.866855 
1883.000000	97.867747 
1882.000000	97.868672 
1881.000000	97.869645 
1880.000000	97.870665 
1879.000000	97.871725 
1878.000000	97.872818 
1877.000000	97.873938 
1876.000000	97.875090 
1875.000000	97.876281 
1874.000000	97.877514 
1873.000000	97.878777 
1872.000000	97.880053 
1871.000000	97.881335 
1870.000000	97.882628 
1869.000000	97.883939 
1868.000000	97.885273 
1867.000000	97.886638 
1866.000000	97.888034 
1865.000000	97.889460 
1864.000000	97.890914 
1863.000000	97.892408 
1862.000000	97.893950 
1861.000000	97.895533 
1860.000000	97.897137 
1859.000000	97.898757 
1858.000000	97.900394 
1857.000000	97.902049 
1856.000000	97.903714 
1855.000000	97.905382 
1854.000000	97.907053 
1853.000000	97.908728 
1852.000000	97.910413 
1851.000000	97.912110 
1850.000000	97.913818 
1849.000000	97.915522 
1848.000000	97.917206 
1847.000000	97.918861 
1846.000000	97.920486 
1845.000000	97.922079 
1844.000000	97.923639 
1843.000000	97.925174 
1842.000000	97.926697 
1841.000000	97.928202 
1840.000000	97.929679 
1839.000000	97.931119 
1838.000000	97.932515 
1837.000000	97.933863 
1836.000000	97.935162 
1835.000000	97.936419 
1834.000000	97.937644 
1833.000000	97.938835 
1832.000000	97.939987 
1831.000000	97.941090 
1830.000000	97.942126 
1829.000000	97.943105 
1828.000000	97.944084 
1827.000000	97.945122 
1826.000000	97.946250 
1825.000000	97.947449 
1824.000000	97.948571 
1823.000000	97.949471 
1822.000000	97.950145 
1821.000000	97.950657 
1820.000000	97.951067 
1819.000000	97.951460 
1818.000000	97.952016 
1817.000000	97.952733 
1816.000000	97.953283 
1815.000000	97.953532 
1814.000000	97.953710 
1813.000000	97.954112 
1812.000000	97.954633 
1811.000000	97.954921 
1810.000000	97.954999 
1809.000000	97.955090 
1808.000000	97.955245 
1807.000000	97.955438 
1806.000000	97.955679 
1805.000000	97.955882 
1804.000000	97.955896 
1803.000000	97.955830 
1802.000000	97.955929 
1801.000000	97.956251 
1800.000000	97.956569 
1799.000000	97.956710 
1798.000000	97.956893 
1797.000000	97.957197 
1796.000000	97.957437 
1795.000000	97.957532 
1794.000000	97.957664 
1793.000000	97.958003 
1792.000000	97.958404 
1791.000000	97.958752 
1790.000000	97.959205 
1789.000000	97.959663 
1788.000000	97.959997 
1787.000000	97.960301 
1786.000000	97.960723 
1785.000000	97.961184 
1784.000000	97.961487 
1783.000000	97.961668 
1782.000000	97.961824 
1781.000000	97.962043 
1780.000000	97.962384 
1779.000000	97.962810 
1778.000000	97.963286 
1777.000000	97.963750 
1776.000000	97.964197 
1775.000000	97.964616 
1774.000000	97.964963 
1773.000000	97.965240 
1772.000000	97.965502 
1771.000000	97.965828 
1770.000000	97.966269 
1769.000000	97.966802 
1768.000000	97.967354 
1767.000000	97.967827 
1766.000000	97.968165 
1765.000000	97.968403 
1764.000000	97.968635 
1763.000000	97.968938 
1762.000000	97.969298 
1761.000000	97.969663 
1760.000000	97.970025 
1759.000000	97.970371 
1758.000000	97.970706 
1757.000000	97.971026 
1756.000000	97.971390 
1755.000000	97.971710 
1754.000000	97.971769 
1753.000000	97.971522 
1752.000000	97.971364 
1751.000000	97.971570 
1750.000000	97.971915 
1749.000000	97.971991 
1748.000000	97.971659 
1747.000000	97.971208 
1746.000000	97.970650 
1745.000000	97.970269 
1744.000000	97.970621 
1743.000000	97.971604 
1742.000000	97.972541 
1741.000000	97.972817 
1740.000000	97.972270 
1739.000000	97.971511 
1738.000000	97.971605 
1737.000000	97.972186 
1736.000000	97.972339 
1735.000000	97.972832 
1734.000000	97.973430 
1733.000000	97.972559 
1732.000000	97.971972 
1731.000000	97.972397 
1730.000000	97.973519 
1729.000000	97.974637 
1728.000000	97.974936 
1727.000000	97.974375 
1726.000000	97.973446 
1725.000000	97.973283 
1724.000000	97.973738 
1723.000000	97.973748 
1722.000000	97.973666 
1721.000000	97.973550 
1720.000000	97.972665 
1719.000000	97.971067 
1718.000000	97.970288 
1717.000000	97.970105 
1716.000000	97.968873 
1715.000000	97.967167 
1714.000000	97.966561 
1713.000000	97.966574 
1712.000000	97.965320 
1711.000000	97.962964 
1710.000000	97.961139 
1709.000000	97.960172 
1708.000000	97.959035 
1707.000000	97.957028 
1706.000000	97.954686 
1705.000000	97.952415 
1704.000000	97.950028 
1703.000000	97.947497 
1702.000000	97.945324 
1701.000000	97.944275 
1700.000000	97.942291 
1699.000000	97.938724 
1698.000000	97.936086 
1697.000000	97.933978 
1696.000000	97.931495 
1695.000000	97.928516 
1694.000000	97.925728 
1693.000000	97.922915 
1692.000000	97.919729 
1691.000000	97.916491 
1690.000000	97.913382 
1689.000000	97.910316 
1688.000000	97.907215 
1687.000000	97.904076 
1686.000000	97.900921 
1685.000000	97.897759 
1684.000000	97.894588 
1683.000000	97.891414 
1682.000000	97.888245 
1681.000000	97.885078 
1680.000000	97.881911 
1679.000000	97.878748 
1678.000000	97.875586 
1677.000000	97.872417 
1676.000000	97.869234 
1675.000000	97.866037 
1674.000000	97.862826 
1673.000000	97.859611 
1672.000000	97.856403 
1671.000000	97.853216 
1670.000000	97.850056 
1669.000000	97.846922 
1668.000000	97.843818 
1667.000000	97.840749 
1666.000000	97.837710 
1665.000000	97.834697 
1664.000000	97.831713 
1663.000000	97.828759 
1662.000000	97.825833 
1661.000000	97.822931 
1660.000000	97.820056 
1659.000000	97.817211 
1658.000000	97.814395 
1657.000000	97.811618 
1656.000000	97.808892 
1655.000000	97.806220 
1654.000000	97.803596 
1653.000000	97.800988 
1652.000000	97.798390 
1651.000000	97.795853 
1650.000000	97.793396 
1649.000000	97.791020 
1648.000000	97.788733 
1647.000000	97.786533 
1646.000000	97.784405 
1645.000000	97.782338 
1644.000000	97.780329 
1643.000000	97.778379 
1642.000000	97.776486 
1641.000000	97.774652 
1640.000000	97.772875 
1639.000000	97.771154 
1638.000000	97.769493 
1637.000000	97.767894 
1636.000000	97.766362 
1635.000000	97.764899 
1634.000000	97.763514 
1633.000000	97.762213 
1632.000000	97.760996 
1631.000000	97.759866 
1630.000000	97.758825 
1629.000000	97.757859 
1628.000000	97.756945 
1627.000000	97.756109 
1626.000000	97.755426 
1625.000000	97.754871 
1624.000000	97.754337 
1623.000000	97.753820 
1622.000000	97.753430 
1621.000000	97.753248 
1620.000000	97.753355 
1619.000000	97.753718 
1618.000000	97.754189 
1617.000000	97.753591 
1616.000000	97.751238 
1615.000000	97.749861 
1614.000000	97.750838 
1613.000000	97.751689 
1612.000000	97.750879 
1611.000000	97.749950 
1610.000000	97.749846 
1609.000000	97.749975 
1608.000000	97.751274 
1607.000000	97.755274 
1606.000000	97.759526 
1605.000000	97.760984 
1604.000000	97.761487 
1603.000000	97.763232 
1602.000000	97.765304 
1601.000000	97.766439 
1600.000000	97.767938 
1599.000000	97.771027 
1598.000000	97.774327 
1597.000000	97.776383 
1596.000000	97.777977 
1595.000000	97.780636 
1594.000000	97.784038 
1593.000000	97.786776 
1592.000000	97.788963 
1591.000000	97.791757 
1590.000000	97.795104 
1589.000000	97.798150 
1588.000000	97.801307 
1587.000000	97.805586 
1586.000000	97.810349 
1585.000000	97.813552 
1584.000000	97.816160 
1583.000000	97.820279 
1582.000000	97.824338 
1581.000000	97.826573 
1580.000000	97.828838 
1579.000000	97.833221 
1578.000000	97.838794 
1577.000000	97.844258 
1576.000000	97.847946 
1575.000000	97.851007 
1574.000000	97.855748 
1573.000000	97.860269 
1572.000000	97.863795 
1571.000000	97.868351 
1570.000000	97.873179 
1569.000000	97.874875 
1568.000000	97.876599 
1567.000000	97.880467 
1566.000000	97.882945 
1565.000000	97.882416 
1564.000000	97.881767 
1563.000000	97.882843 
1562.000000	97.883053 
1561.000000	97.881533 
1560.000000	97.888662 
1559.000000	97.902341 
1558.000000	97.903324 
1557.000000	97.900827 
1556.000000	97.900163 
1555.000000	97.900946 
1554.000000	97.902088 
1553.000000	97.902328 
1552.000000	97.901737 
1551.000000	97.900239 
1550.000000	97.899325 
1549.000000	97.898989 
1548.000000	97.897740 
1547.000000	97.895200 
1546.000000	97.891315 
1545.000000	97.887646 
1544.000000	97.885592 
1543.000000	97.884476 
1542.000000	97.883247 
1541.000000	97.881042 
1540.000000	97.873887 
1539.000000	97.863257 
1538.000000	97.856974 
1537.000000	97.853954 
1536.000000	97.849156 
1535.000000	97.843855 
1534.000000	97.840746 
1533.000000	97.838830 
1532.000000	97.835822 
1531.000000	97.830379 
1530.000000	97.822987 
1529.000000	97.814971 
1528.000000	97.807544 
1527.000000	97.801973 
1526.000000	97.797931 
1525.000000	97.793475 
1524.000000	97.787150 
1523.000000	97.779406 
1522.000000	97.772596 
1521.000000	97.767002 
1520.000000	97.760754 
1519.000000	97.752413 
1518.000000	97.741889 
1517.000000	97.732145 
1516.000000	97.725343 
1515.000000	97.720478 
1514.000000	97.715171 
1513.000000	97.708506 
1512.000000	97.700485 
1511.000000	97.691152 
1510.000000	97.681401 
1509.000000	97.672449 
1508.000000	97.665972 
1507.000000	97.661480 
1506.000000	97.655000 
1505.000000	97.645878 
1504.000000	97.636473 
1503.000000	97.626892 
1502.000000	97.616913 
1501.000000	97.607250 
1500.000000	97.598283 
1499.000000	97.589428 
1498.000000	97.580467 
1497.000000	97.572622 
1496.000000	97.565755 
1495.000000	97.559754 
1494.000000	97.555294 
1493.000000	97.551377 
1492.000000	97.546676 
1491.000000	97.541763 
1490.000000	97.538477 
1489.000000	97.535846 
1488.000000	97.529333 
1487.000000	97.518266 
1486.000000	97.507258 
1485.000000	97.496188 
1484.000000	97.483918 
1483.000000	97.471870 
1482.000000	97.462335 
1481.000000	97.455756 
1480.000000	97.448392 
1479.000000	97.438514 
1478.000000	97.428400 
1477.000000	97.421247 
1476.000000	97.415355 
1475.000000	97.409078 
1474.000000	97.403127 
1473.000000	97.398701 
1472.000000	97.394868 
1471.000000	97.389574 
1470.000000	97.383123 
1469.000000	97.374436 
1468.000000	97.363130 
1467.000000	97.352109 
1466.000000	97.345180 
1465.000000	97.342479 
1464.000000	97.341667 
1463.000000	97.338013 
1462.000000	97.329289 
1461.000000	97.316496 
1460.000000	97.303013 
1459.000000	97.292224 
1458.000000	97.286325 
1457.000000	97.283039 
1456.000000	97.276842 
1455.000000	97.268942 
1454.000000	97.257937 
1453.000000	97.245864 
1452.000000	97.238531 
1451.000000	97.237614 
1450.000000	97.242581 
1449.000000	97.253522 
1448.000000	97.267071 
1447.000000	97.277674 
1446.000000	97.280654 
1445.000000	97.278326 
1444.000000	97.277555 
1443.000000	97.277580 
1442.000000	97.276092 
1441.000000	97.273454 
1440.000000	97.271408 
1439.000000	97.267897 
1438.000000	97.265084 
1437.000000	97.269384 
1436.000000	97.276542 
1435.000000	97.276327 
1434.000000	97.267889 
1433.000000	97.258180 
1432.000000	97.252870 
1431.000000	97.251423 
1430.000000	97.250366 
1429.000000	97.249935 
1428.000000	97.248767 
1427.000000	97.244985 
1426.000000	97.237399 
1425.000000	97.230795 
1424.000000	97.231726 
1423.000000	97.234106 
1422.000000	97.229017 
1421.000000	97.217322 
1420.000000	97.208312 
1419.000000	97.202561 
1418.000000	97.193533 
1417.000000	97.183045 
1416.000000	97.173535 
1415.000000	97.163145 
1414.000000	97.149140 
1413.000000	97.133095 
1412.000000	97.119918 
1411.000000	97.110647 
1410.000000	97.103136 
1409.000000	97.097087 
1408.000000	97.092935 
1407.000000	97.092818 
1406.000000	97.099156 
1405.000000	97.113942 
1404.000000	97.136482 
1403.000000	97.158504 
1402.000000	97.173878 
1401.000000	97.186238 
1400.000000	97.204000 
1399.000000	97.226453 
1398.000000	97.240822 
1397.000000	97.236590 
1396.000000	97.216795 
1395.000000	97.198621 
1394.000000	97.199302 
1393.000000	97.223081 
1392.000000	97.260617 
1391.000000	97.296785 
1390.000000	97.321802 
1389.000000	97.335053 
1388.000000	97.341219 
1387.000000	97.344327 
1386.000000	97.345851 
1385.000000	97.347538 
1384.000000	97.352649 
1383.000000	97.361900 
1382.000000	97.373258 
1381.000000	97.384769 
1380.000000	97.396921 
1379.000000	97.411429 
1378.000000	97.427696 
1377.000000	97.443859 
1376.000000	97.460229 
1375.000000	97.479496 
1374.000000	97.502185 
1373.000000	97.525810 
1372.000000	97.547716 
1371.000000	97.567513 
1370.000000	97.585945 
1369.000000	97.604036 
1368.000000	97.623079 
1367.000000	97.641520 
1366.000000	97.656660 
1365.000000	97.668785 
1364.000000	97.682129 
1363.000000	97.700122 
1362.000000	97.720794 
1361.000000	97.739378 
1360.000000	97.754659 
1359.000000	97.769094 
1358.000000	97.784050 
1357.000000	97.798773 
1356.000000	97.813018 
1355.000000	97.826918 
1354.000000	97.839829 
1353.000000	97.851361 
1352.000000	97.861708 
1351.000000	97.872646 
1350.000000	97.884439 
1349.000000	97.894741 
1348.000000	97.902507 
1347.000000	97.908343 
1346.000000	97.914034 
1345.000000	97.919860 
1344.000000	97.924401 
1343.000000	97.925896 
1342.000000	97.924952 
1341.000000	97.925306 
1340.000000	97.931153 
1339.000000	97.942221 
1338.000000	97.953747 
1337.000000	97.962216 
1336.000000	97.967661 
1335.000000	97.970660 
1334.000000	97.971102 
1333.000000	97.970016 
1332.000000	97.969708 
1331.000000	97.971202 
1330.000000	97.973258 
1329.000000	97.974734 
1328.000000	97.975867 
1327.000000	97.976858 
1326.000000	97.976544 
1325.000000	97.974095 
1324.000000	97.970325 
1323.000000	97.965580 
1322.000000	97.959781 
1321.000000	97.954634 
1320.000000	97.953335 
1319.000000	97.956705 
1318.000000	97.961953 
1317.000000	97.965962 
1316.000000	97.967718 
1315.000000	97.967224 
1314.000000	97.965070 
1313.000000	97.963732 
1312.000000	97.965950 
1311.000000	97.970709 
1310.000000	97.973617 
1309.000000	97.972595 
1308.000000	97.970417 
1307.000000	97.970912 
1306.000000	97.974165 
1305.000000	97.977568 
1304.000000	97.979670 
1303.000000	97.980139 
1302.000000	97.978518 
1301.000000	97.974964 
1300.000000	97.971530 
1299.000000	97.970630 
1298.000000	97.972708 
1297.000000	97.975964 
1296.000000	97.977981 
1295.000000	97.977318 
1294.000000	97.974532 
1293.000000	97.972141 
1292.000000	97.972239 
1291.000000	97.974155 
1290.000000	97.975807 
1289.000000	97.976884 
1288.000000	97.978451 
1287.000000	97.979655 
1286.000000	97.977746 
1285.000000	97.972111 
1284.000000	97.965725 
1283.000000	97.961532 
1282.000000	97.959038 
1281.000000	97.955751 
1280.000000	97.950960 
1279.000000	97.946302 
1278.000000	97.943432 
1277.000000	97.942517 
1276.000000	97.942098 
1275.000000	97.939918 
1274.000000	97.934707 
1273.000000	97.927676 
1272.000000	97.921142 
1271.000000	97.915480 
1270.000000	97.908761 
1269.000000	97.899755 
1268.000000	97.889614 
1267.000000	97.879635 
1266.000000	97.869134 
1265.000000	97.857013 
1264.000000	97.844168 
1263.000000	97.832917 
1262.000000	97.824458 
1261.000000	97.817929 
1260.000000	97.811975 
1259.000000	97.806153 
1258.000000	97.800533 
1257.000000	97.794520 
1256.000000	97.786529 
1255.000000	97.775660 
1254.000000	97.763693 
1253.000000	97.754035 
1252.000000	97.747839 
1251.000000	97.742715 
1250.000000	97.736867 
1249.000000	97.733080 
1248.000000	97.735962 
1247.000000	97.745325 
1246.000000	97.754440 
1245.000000	97.755226 
1244.000000	97.744365 
1243.000000	97.726356 
1242.000000	97.712446 
1241.000000	97.713506 
1240.000000	97.729712 
1239.000000	97.748005 
1238.000000	97.753749 
1237.000000	97.744348 
1236.000000	97.728003 
1235.000000	97.711411 
1234.000000	97.694304 
1233.000000	97.675808 
1232.000000	97.658940 
1231.000000	97.645960 
1230.000000	97.634615 
1229.000000	97.622393 
1228.000000	97.610468 
1227.000000	97.600328 
1226.000000	97.589903 
1225.000000	97.576281 
1224.000000	97.559661 
1223.000000	97.541777 
1222.000000	97.522644 
1221.000000	97.501375 
1220.000000	97.478347 
1219.000000	97.454416 
1218.000000	97.429649 
1217.000000	97.404121 
1216.000000	97.377688 
1215.000000	97.347972 
1214.000000	97.311895 
1213.000000	97.271046 
1212.000000	97.231905 
1211.000000	97.198001 
1210.000000	97.164908 
1209.000000	97.126239 
1208.000000	97.081766 
1207.000000	97.036205 
1206.000000	96.992235 
1205.000000	96.948324 
1204.000000	96.902269 
1203.000000	96.853577 
1202.000000	96.803088 
1201.000000	96.752529 
1200.000000	96.703613 
1199.000000	96.656037 
1198.000000	96.607705 
1197.000000	96.558070 
1196.000000	96.509109 
1195.000000	96.461861 
1194.000000	96.414570 
1193.000000	96.365810 
1192.000000	96.316715 
1191.000000	96.268069 
1190.000000	96.217894 
1189.000000	96.164289 
1188.000000	96.108157 
1187.000000	96.050867 
1186.000000	95.991856 
1185.000000	95.930872 
1184.000000	95.869753 
1183.000000	95.809408 
1182.000000	95.747878 
1181.000000	95.684045 
1180.000000	95.619992 
1179.000000	95.556371 
1178.000000	95.488827 
1177.000000	95.413214 
1176.000000	95.331603 
1175.000000	95.249116 
1174.000000	95.167586 
1173.000000	95.086673 
1172.000000	95.008128 
1171.000000	94.933204 
1170.000000	94.858209 
1169.000000	94.778878 
1168.000000	94.698083 
1167.000000	94.623657 
1166.000000	94.560136 
1165.000000	94.508931 
1164.000000	94.475234 
1163.000000	94.466877 
1162.000000	94.484579 
1161.000000	94.518134 
1160.000000	94.553130 
1159.000000	94.577750 
1158.000000	94.584076 
1157.000000	94.568773 
1156.000000	94.533965 
1155.000000	94.484187 
1154.000000	94.422453 
1153.000000	94.351967 
1152.000000	94.279605 
1151.000000	94.212305 
1150.000000	94.150313 
1149.000000	94.089034 
1148.000000	94.027000 
1147.000000	93.966566 
1146.000000	93.907133 
1145.000000	93.844044 
1144.000000	93.775423 
1143.000000	93.704924 
1142.000000	93.636294 
1141.000000	93.569485 
1140.000000	93.503047 
1139.000000	93.436167 
1138.000000	93.367763 
1137.000000	93.297516 
1136.000000	93.227835 
1135.000000	93.160755 
1134.000000	93.093412 
1133.000000	93.021372 
1132.000000	92.945789 
1131.000000	92.871900 
1130.000000	92.800671 
1129.000000	92.727737 
1128.000000	92.650922 
1127.000000	92.573046 
1126.000000	92.496558 
1125.000000	92.420734 
1124.000000	92.345084 
1123.000000	92.270460 
1122.000000	92.196063 
1121.000000	92.120075 
1120.000000	92.043561 
1119.000000	91.968872 
1118.000000	91.894506 
1117.000000	91.817095 
1116.000000	91.738169 
1115.000000	91.663056 
1114.000000	91.592999 
1113.000000	91.524150 
1112.000000	91.454292 
1111.000000	91.384515 
1110.000000	91.314478 
1109.000000	91.242291 
1108.000000	91.168479 
1107.000000	91.094958 
1106.000000	91.021128 
1105.000000	90.946005 
1104.000000	90.872869 
1103.000000	90.805729 
1102.000000	90.742402 
1101.000000	90.677307 
1100.000000	90.610197 
1099.000000	90.546079 
1098.000000	90.487359 
1097.000000	90.432049 
1096.000000	90.378503 
1095.000000	90.325150 
1094.000000	90.266116 
1093.000000	90.194606 
1092.000000	90.111878 
1091.000000	90.027317 
1090.000000	89.948772 
1089.000000	89.877358 
1088.000000	89.810802 
1087.000000	89.745736 
1086.000000	89.677402 
1085.000000	89.603936 
1084.000000	89.530845 
1083.000000	89.465008 
1082.000000	89.405105 
1081.000000	89.344987 
1080.000000	89.285328 
1079.000000	89.233467 
1078.000000	89.191871 
1077.000000	89.155384 
1076.000000	89.120211 
1075.000000	89.086816 
1074.000000	89.053584 
1073.000000	89.016358 
1072.000000	88.973638 
1071.000000	88.921841 
1070.000000	88.845915 
1069.000000	88.728664 
1068.000000	88.574438 
1067.000000	88.414964 
1066.000000	88.284909 
1065.000000	88.195833 
1064.000000	88.135863 
1063.000000	88.083290 
1062.000000	88.015468 
1061.000000	87.915911 
1060.000000	87.784246 
1059.000000	87.638491 
1058.000000	87.501992 
1057.000000	87.387265 
1056.000000	87.291855 
1055.000000	87.204323 
1054.000000	87.112842 
1053.000000	87.013872 
1052.000000	86.914944 
1051.000000	86.825275 
1050.000000	86.744029 
1049.000000	86.663058 
1048.000000	86.578733 
1047.000000	86.493441 
1046.000000	86.408279 
1045.000000	86.322737 
1044.000000	86.239222 
1043.000000	86.159902 
1042.000000	86.080949 
1041.000000	85.997336 
1040.000000	85.911788 
1039.000000	85.832612 
1038.000000	85.765709 
1037.000000	85.714872 
1036.000000	85.684406 
1035.000000	85.672574 
1034.000000	85.667390 
1033.000000	85.657829 
1032.000000	85.643110 
1031.000000	85.622220 
1030.000000	85.585282 
1029.000000	85.530787 
1028.000000	85.483001 
1027.000000	85.472439 
1026.000000	85.500930 
1025.000000	85.541415 
1024.000000	85.570416 
1023.000000	85.584736 
1022.000000	85.588148 
1021.000000	85.581459 
1020.000000	85.568821 
1019.000000	85.558085 
1018.000000	85.550554 
1017.000000	85.541760 
1016.000000	85.533377 
1015.000000	85.532386 
1014.000000	85.538373 
1013.000000	85.544226 
1012.000000	85.549326 
1011.000000	85.559245 
1010.000000	85.572823 
1009.000000	85.583006 
1008.000000	85.590895 
1007.000000	85.606095 
1006.000000	85.632650 
1005.000000	85.666475 
1004.000000	85.705614 
1003.000000	85.750133 
1002.000000	85.793086 
1001.000000	85.826040 
1000.000000	85.854054 
999.000000	 85.891399 
998.000000	 85.941542 
997.000000	 85.994161 
996.000000	 86.042422 
995.000000	 86.090465 
994.000000	 86.142998 
993.000000	 86.200051 
992.000000	 86.262616 
991.000000	 86.331182 
990.000000	 86.398567 
989.000000	 86.456769 
988.000000	 86.511175 
987.000000	 86.575357 
986.000000	 86.652272 
985.000000	 86.733735 
984.000000	 86.817544 
983.000000	 86.910383 
982.000000	 87.013385 
981.000000	 87.119098 
980.000000	 87.224396 
979.000000	 87.333647 
978.000000	 87.447238 
977.000000	 87.560064 
976.000000	 87.673520 
975.000000	 87.796274 
974.000000	 87.930258 
973.000000	 88.067194 
972.000000	 88.201508 
971.000000	 88.336305 
970.000000	 88.474514 
969.000000	 88.614204 
968.000000	 88.754455 
967.000000	 88.896597 
966.000000	 89.038452 
965.000000	 89.176042 
964.000000	 89.311169 
963.000000	 89.448661 
962.000000	 89.586851 
961.000000	 89.719902 
960.000000	 89.848196 
959.000000	 89.976375 
958.000000	 90.102259 
957.000000	 90.218396 
956.000000	 90.324481 
955.000000	 90.428432 
954.000000	 90.535117 
953.000000	 90.642849 
952.000000	 90.750032 
951.000000	 90.855440 
950.000000	 90.953167 
949.000000	 91.037702 
948.000000	 91.113339 
947.000000	 91.188915 
946.000000	 91.264194 
945.000000	 91.331824 
944.000000	 91.391668 
943.000000	 91.452136 
942.000000	 91.517180 
941.000000	 91.582790 
940.000000	 91.647052 
939.000000	 91.712753 
938.000000	 91.778909 
937.000000	 91.840159 
936.000000	 91.896591 
935.000000	 91.955017 
934.000000	 92.018766 
933.000000	 92.084634 
932.000000	 92.150788 
931.000000	 92.219093 
930.000000	 92.288625 
929.000000	 92.355097 
928.000000	 92.417887 
927.000000	 92.480253 
926.000000	 92.542111 
925.000000	 92.599524 
924.000000	 92.651211 
923.000000	 92.698955 
922.000000	 92.742686 
921.000000	 92.782271 
920.000000	 92.822491 
919.000000	 92.868412 
918.000000	 92.916998 
917.000000	 92.960669 
916.000000	 92.997999 
915.000000	 93.034119 
914.000000	 93.072786 
913.000000	 93.115381 
912.000000	 93.165031 
911.000000	 93.223571 
910.000000	 93.286701 
909.000000	 93.350330 
908.000000	 93.419105 
907.000000	 93.500319 
906.000000	 93.592584 
905.000000	 93.688898 
904.000000	 93.787318 
903.000000	 93.889408 
902.000000	 93.992047 
901.000000	 94.090852 
900.000000	 94.188648 
899.000000	 94.291092 
898.000000	 94.396721 
897.000000	 94.499925 
896.000000	 94.599423 
895.000000	 94.694561 
894.000000	 94.779114 
893.000000	 94.850206 
892.000000	 94.918550 
891.000000	 94.997176 
890.000000	 95.082541 
889.000000	 95.158753 
888.000000	 95.217270 
887.000000	 95.260739 
886.000000	 95.292118 
885.000000	 95.313628 
884.000000	 95.333144 
883.000000	 95.356603 
882.000000	 95.376339 
881.000000	 95.383484 
880.000000	 95.390717 
879.000000	 95.423809 
878.000000	 95.488695 
877.000000	 95.565068 
876.000000	 95.635581 
875.000000	 95.703693 
874.000000	 95.777519 
873.000000	 95.855729 
872.000000	 95.937699 
871.000000	 96.030640 
870.000000	 96.136584 
869.000000	 96.244531 
868.000000	 96.343659 
867.000000	 96.434531 
866.000000	 96.521677 
865.000000	 96.605293 
864.000000	 96.686170 
863.000000	 96.769611 
862.000000	 96.857887 
861.000000	 96.945438 
860.000000	 97.026371 
859.000000	 97.100919 
858.000000	 97.171815 
857.000000	 97.240483 
856.000000	 97.308442 
855.000000	 97.375405 
854.000000	 97.434620 
853.000000	 97.477919 
852.000000	 97.507195 
851.000000	 97.533954 
850.000000	 97.566573 
849.000000	 97.605126 
848.000000	 97.648144 
847.000000	 97.694780 
846.000000	 97.739780 
845.000000	 97.776357 
844.000000	 97.805483 
843.000000	 97.833540 
842.000000	 97.860342 
841.000000	 97.878703 
840.000000	 97.885683 
839.000000	 97.884080 
838.000000	 97.873382 
837.000000	 97.851303 
836.000000	 97.825576 
835.000000	 97.811554 
834.000000	 97.813775 
833.000000	 97.820859 
832.000000	 97.822814 
831.000000	 97.822420 
830.000000	 97.824850 
829.000000	 97.827792 
828.000000	 97.829787 
827.000000	 97.838773 
826.000000	 97.862863 
825.000000	 97.898860 
824.000000	 97.936890 
823.000000	 97.969757 
822.000000	 97.992896 
821.000000	 98.003648 
820.000000	 98.005653 
819.000000	 98.006462 
818.000000	 98.006546 
817.000000	 97.996278 
816.000000	 97.966056 
815.000000	 97.914075 
814.000000	 97.842661 
813.000000	 97.752550 
812.000000	 97.642324 
811.000000	 97.507513 
810.000000	 97.338101 
809.000000	 97.122832 
808.000000	 96.859178 
807.000000	 96.556239 
806.000000	 96.228138 
805.000000	 95.889271 
804.000000	 95.554773 
803.000000	 95.237648 
802.000000	 94.945195 
801.000000	 94.686294 
800.000000	 94.480442 
799.000000	 94.347560 
798.000000	 94.288089 
797.000000	 94.284042 
796.000000	 94.318631 
795.000000	 94.381878 
794.000000	 94.459343 
793.000000	 94.533250 
792.000000	 94.597727 
791.000000	 94.658555 
790.000000	 94.715197 
789.000000	 94.755549 
788.000000	 94.769563 
787.000000	 94.755194 
786.000000	 94.710104 
785.000000	 94.631034 
784.000000	 94.523538 
783.000000	 94.400426 
782.000000	 94.270015 
781.000000	 94.139114 
780.000000	 94.027173 
779.000000	 93.960574 
778.000000	 93.949417 
777.000000	 93.984251 
776.000000	 94.056912 
775.000000	 94.167479 
774.000000	 94.307584 
773.000000	 94.455257 
772.000000	 94.593340 
771.000000	 94.719345 
770.000000	 94.833233 
769.000000	 94.930310 
768.000000	 95.010336 
767.000000	 95.078898 
766.000000	 95.135431 
765.000000	 95.174782 
764.000000	 95.205148 
763.000000	 95.248084 
762.000000	 95.313046 
761.000000	 95.385800 
760.000000	 95.449364 
759.000000	 95.503536 
758.000000	 95.557264 
757.000000	 95.615609 
756.000000	 95.682526 
755.000000	 95.763403 
754.000000	 95.854194 
753.000000	 95.937159 
752.000000	 95.996195 
751.000000	 96.030961 
750.000000	 96.052989 
749.000000	 96.075875 
748.000000	 96.111334 
747.000000	 96.163919 
746.000000	 96.224389 
745.000000	 96.277756 
744.000000	 96.322155 
743.000000	 96.370532 
742.000000	 96.431475 
741.000000	 96.499717 
740.000000	 96.568218 
739.000000	 96.637250 
738.000000	 96.707303 
737.000000	 96.773934 
736.000000	 96.834073 
735.000000	 96.887907 
734.000000	 96.932786 
733.000000	 96.965658 
732.000000	 96.992207 
731.000000	 97.021140 
730.000000	 97.048624 
729.000000	 97.063345 
728.000000	 97.065382 
727.000000	 97.067342 
726.000000	 97.079835 
725.000000	 97.105911 
724.000000	 97.148002 
723.000000	 97.206593 
722.000000	 97.270650 
721.000000	 97.323254 
720.000000	 97.359996 
719.000000	 97.390485 
718.000000	 97.419580 
717.000000	 97.441982 
716.000000	 97.459389 
715.000000	 97.484438 
714.000000	 97.520709 
713.000000	 97.555540 
712.000000	 97.579880 
711.000000	 97.600172 
710.000000	 97.621385 
709.000000	 97.644496 
708.000000	 97.669444 
707.000000	 97.694394 
706.000000	 97.713358 
705.000000	 97.717053 
704.000000	 97.701163 
703.000000	 97.671017 
702.000000	 97.630875 
701.000000	 97.575383 
700.000000	 97.497807 
699.000000	 97.397862 
698.000000	 97.283888 
697.000000	 97.173112 
696.000000	 97.088320 
695.000000	 97.049099 
694.000000	 97.057694 
693.000000	 97.099389 
692.000000	 97.158907 
691.000000	 97.226826 
690.000000	 97.295562 
689.000000	 97.357532 
688.000000	 97.408801 
687.000000	 97.450282 
686.000000	 97.481737 
685.000000	 97.503565 
684.000000	 97.523573 
683.000000	 97.549380 
682.000000	 97.577541 
681.000000	 97.599392 
680.000000	 97.616050 
679.000000	 97.635323 
678.000000	 97.658054 
677.000000	 97.680397 
676.000000	 97.701271 
675.000000	 97.722655 
674.000000	 97.743418 
673.000000	 97.754737 
672.000000	 97.750267 
671.000000	 97.725497 
670.000000	 97.678203 
669.000000	 97.611218 
668.000000	 97.576444 
667.000000	 97.625036 
666.000000	 97.717549 
665.000000	 97.789545 
664.000000	 97.834337 
663.000000	 97.862532 
662.000000	 97.883566 
661.000000	 97.902366 
660.000000	 97.920104 
659.000000	 97.936880 
658.000000	 97.950901 
657.000000	 97.960298 
656.000000	 97.963244 
655.000000	 97.961007 
654.000000	 97.958095 
653.000000	 97.956807 
652.000000	 97.956221 
651.000000	 97.957763 
650.000000	 97.965363 

