4000.000000	97.789122 
3999.000000	97.787850 
3998.000000	97.786501 
3997.000000	97.785098 
3996.000000	97.783921 
3995.000000	97.783428 
3994.000000	97.783628 
3993.000000	97.784023 
3992.000000	97.783973 
3991.000000	97.783380 
3990.000000	97.782778 
3989.000000	97.782639 
3988.000000	97.782889 
3987.000000	97.783111 
3986.000000	97.783044 
3985.000000	97.782795 
3984.000000	97.782542 
3983.000000	97.782325 
3982.000000	97.782093 
3981.000000	97.781780 
3980.000000	97.781375 
3979.000000	97.780904 
3978.000000	97.780427 
3977.000000	97.779993 
3976.000000	97.779600 
3975.000000	97.779219 
3974.000000	97.778829 
3973.000000	97.778419 
3972.000000	97.777988 
3971.000000	97.777538 
3970.000000	97.777082 
3969.000000	97.776641 
3968.000000	97.776230 
3967.000000	97.775846 
3966.000000	97.775472 
3965.000000	97.775093 
3964.000000	97.774700 
3963.000000	97.774289 
3962.000000	97.773858 
3961.000000	97.773411 
3960.000000	97.772952 
3959.000000	97.772487 
3958.000000	97.772027 
3957.000000	97.771593 
3956.000000	97.771200 
3955.000000	97.770844 
3954.000000	97.770502 
3953.000000	97.770145 
3952.000000	97.769756 
3951.000000	97.769340 
3950.000000	97.768913 
3949.000000	97.768496 
3948.000000	97.768099 
3947.000000	97.767710 
3946.000000	97.767307 
3945.000000	97.766873 
3944.000000	97.766420 
3943.000000	97.765977 
3942.000000	97.765569 
3941.000000	97.765192 
3940.000000	97.764824 
3939.000000	97.764444 
3938.000000	97.764046 
3937.000000	97.763643 
3936.000000	97.763252 
3935.000000	97.762876 
3934.000000	97.762502 
3933.000000	97.762110 
3932.000000	97.761704 
3931.000000	97.761307 
3930.000000	97.760953 
3929.000000	97.760652 
3928.000000	97.760379 
3927.000000	97.760094 
3926.000000	97.759775 
3925.000000	97.759433 
3924.000000	97.759096 
3923.000000	97.758776 
3922.000000	97.758470 
3921.000000	97.758185 
3920.000000	97.757948 
3919.000000	97.757780 
3918.000000	97.757669 
3917.000000	97.757575 
3916.000000	97.757464 
3915.000000	97.757324 
3914.000000	97.757158 
3913.000000	97.756950 
3912.000000	97.756675 
3911.000000	97.756336 
3910.000000	97.755979 
3909.000000	97.755658 
3908.000000	97.755389 
3907.000000	97.755144 
3906.000000	97.754884 
3905.000000	97.754608 
3904.000000	97.754349 
3903.000000	97.754139 
3902.000000	97.753970 
3901.000000	97.753798 
3900.000000	97.753579 
3899.000000	97.753307 
3898.000000	97.753015 
3897.000000	97.752730 
3896.000000	97.752460 
3895.000000	97.752210 
3894.000000	97.751991 
3893.000000	97.751801 
3892.000000	97.751622 
3891.000000	97.751445 
3890.000000	97.751285 
3889.000000	97.751149 
3888.000000	97.751009 
3887.000000	97.750824 
3886.000000	97.750594 
3885.000000	97.750363 
3884.000000	97.750164 
3883.000000	97.749975 
3882.000000	97.749752 
3881.000000	97.749478 
3880.000000	97.749182 
3879.000000	97.748898 
3878.000000	97.748622 
3877.000000	97.748321 
3876.000000	97.747974 
3875.000000	97.747603 
3874.000000	97.747260 
3873.000000	97.746974 
3872.000000	97.746719 
3871.000000	97.746456 
3870.000000	97.746206 
3869.000000	97.746029 
3868.000000	97.745925 
3867.000000	97.745821 
3866.000000	97.745645 
3865.000000	97.745403 
3864.000000	97.745133 
3863.000000	97.744840 
3862.000000	97.744503 
3861.000000	97.744134 
3860.000000	97.743787 
3859.000000	97.743508 
3858.000000	97.743313 
3857.000000	97.743200 
3856.000000	97.743150 
3855.000000	97.743129 
3854.000000	97.743122 
3853.000000	97.743139 
3852.000000	97.743163 
3851.000000	97.743153 
3850.000000	97.743077 
3849.000000	97.742929 
3848.000000	97.742720 
3847.000000	97.742474 
3846.000000	97.742223 
3845.000000	97.741991 
3844.000000	97.741777 
3843.000000	97.741572 
3842.000000	97.741380 
3841.000000	97.741220 
3840.000000	97.741104 
3839.000000	97.741034 
3838.000000	97.741005 
3837.000000	97.741008 
3836.000000	97.741034 
3835.000000	97.741077 
3834.000000	97.741130 
3833.000000	97.741183 
3832.000000	97.741237 
3831.000000	97.741304 
3830.000000	97.741401 
3829.000000	97.741547 
3828.000000	97.741741 
3827.000000	97.741956 
3826.000000	97.742179 
3825.000000	97.742435 
3824.000000	97.742748 
3823.000000	97.743102 
3822.000000	97.743470 
3821.000000	97.743881 
3820.000000	97.744392 
3819.000000	97.744997 
3818.000000	97.745599 
3817.000000	97.746091 
3816.000000	97.746462 
3815.000000	97.746777 
3814.000000	97.747077 
3813.000000	97.747352 
3812.000000	97.747587 
3811.000000	97.747803 
3810.000000	97.748031 
3809.000000	97.748288 
3808.000000	97.748573 
3807.000000	97.748906 
3806.000000	97.749339 
3805.000000	97.749895 
3804.000000	97.750525 
3803.000000	97.751145 
3802.000000	97.751721 
3801.000000	97.752304 
3800.000000	97.752929 
3799.000000	97.753562 
3798.000000	97.754155 
3797.000000	97.754699 
3796.000000	97.755216 
3795.000000	97.755704 
3794.000000	97.756133 
3793.000000	97.756487 
3792.000000	97.756782 
3791.000000	97.757035 
3790.000000	97.757258 
3789.000000	97.757456 
3788.000000	97.757628 
3787.000000	97.757742 
3786.000000	97.757772 
3785.000000	97.757737 
3784.000000	97.757675 
3783.000000	97.757596 
3782.000000	97.757476 
3781.000000	97.757300 
3780.000000	97.757100 
3779.000000	97.756905 
3778.000000	97.756695 
3777.000000	97.756427 
3776.000000	97.756099 
3775.000000	97.755756 
3774.000000	97.755440 
3773.000000	97.755144 
3772.000000	97.754832 
3771.000000	97.754499 
3770.000000	97.754182 
3769.000000	97.753914 
3768.000000	97.753681 
3767.000000	97.753445 
3766.000000	97.753186 
3765.000000	97.752902 
3764.000000	97.752581 
3763.000000	97.752190 
3762.000000	97.751703 
3761.000000	97.751152 
3760.000000	97.750599 
3759.000000	97.750072 
3758.000000	97.749546 
3757.000000	97.749001 
3756.000000	97.748454 
3755.000000	97.747918 
3754.000000	97.747386 
3753.000000	97.746860 
3752.000000	97.746370 
3751.000000	97.745937 
3750.000000	97.745539 
3749.000000	97.745153 
3748.000000	97.744778 
3747.000000	97.744387 
3746.000000	97.743910 
3745.000000	97.743308 
3744.000000	97.742635 
3743.000000	97.741921 
3742.000000	97.741104 
3741.000000	97.740114 
3740.000000	97.738946 
3739.000000	97.737644 
3738.000000	97.736215 
3737.000000	97.734616 
3736.000000	97.732806 
3735.000000	97.730795 
3734.000000	97.728607 
3733.000000	97.726255 
3732.000000	97.723753 
3731.000000	97.721116 
3730.000000	97.718346 
3729.000000	97.715598 
3728.000000	97.712940 
3727.000000	97.709987 
3726.000000	97.706701 
3725.000000	97.703486 
3724.000000	97.700052 
3723.000000	97.695771 
3722.000000	97.690990 
3721.000000	97.686646 
3720.000000	97.682873 
3719.000000	97.678712 
3718.000000	97.673351 
3717.000000	97.667542 
3716.000000	97.662471 
3715.000000	97.657304 
3714.000000	97.649746 
3713.000000	97.639836 
3712.000000	97.631272 
3711.000000	97.626700 
3710.000000	97.624068 
3709.000000	97.619370 
3708.000000	97.610314 
3707.000000	97.597573 
3706.000000	97.583959 
3705.000000	97.571896 
3704.000000	97.561751 
3703.000000	97.552301 
3702.000000	97.542309 
3701.000000	97.531487 
3700.000000	97.520461 
3699.000000	97.509404 
3698.000000	97.497271 
3697.000000	97.484284 
3696.000000	97.472950 
3695.000000	97.464291 
3694.000000	97.456485 
3693.000000	97.448235 
3692.000000	97.440365 
3691.000000	97.433276 
3690.000000	97.425206 
3689.000000	97.415201 
3688.000000	97.404977 
3687.000000	97.396300 
3686.000000	97.388462 
3685.000000	97.379668 
3684.000000	97.369796 
3683.000000	97.360586 
3682.000000	97.352748 
3681.000000	97.344873 
3680.000000	97.336364 
3679.000000	97.328888 
3678.000000	97.323071 
3677.000000	97.315600 
3676.000000	97.304477 
3675.000000	97.293660 
3674.000000	97.287039 
3673.000000	97.284153 
3672.000000	97.281156 
3671.000000	97.275482 
3670.000000	97.269993 
3669.000000	97.267458 
3668.000000	97.265888 
3667.000000	97.262694 
3666.000000	97.258000 
3665.000000	97.253264 
3664.000000	97.249249 
3663.000000	97.245267 
3662.000000	97.240139 
3661.000000	97.234206 
3660.000000	97.229648 
3659.000000	97.228131 
3658.000000	97.228397 
3657.000000	97.227136 
3656.000000	97.223613 
3655.000000	97.220150 
3654.000000	97.218498 
3653.000000	97.217529 
3652.000000	97.214586 
3651.000000	97.210497 
3650.000000	97.210586 
3649.000000	97.216298 
3648.000000	97.222921 
3647.000000	97.227790 
3646.000000	97.232579 
3645.000000	97.238185 
3644.000000	97.242596 
3643.000000	97.243699 
3642.000000	97.242050 
3641.000000	97.240154 
3640.000000	97.239022 
3639.000000	97.238165 
3638.000000	97.238245 
3637.000000	97.240332 
3636.000000	97.242794 
3635.000000	97.242171 
3634.000000	97.239111 
3633.000000	97.239004 
3632.000000	97.244784 
3631.000000	97.251244 
3630.000000	97.250718 
3629.000000	97.246274 
3628.000000	97.246464 
3627.000000	97.250832 
3626.000000	97.253579 
3625.000000	97.252430 
3624.000000	97.250395 
3623.000000	97.251696 
3622.000000	97.255979 
3621.000000	97.258717 
3620.000000	97.257827 
3619.000000	97.256486 
3618.000000	97.258054 
3617.000000	97.263065 
3616.000000	97.270214 
3615.000000	97.277306 
3614.000000	97.283667 
3613.000000	97.290682 
3612.000000	97.298806 
3611.000000	97.305740 
3610.000000	97.308957 
3609.000000	97.309155 
3608.000000	97.309729 
3607.000000	97.312339 
3606.000000	97.315478 
3605.000000	97.318153 
3604.000000	97.321604 
3603.000000	97.327167 
3602.000000	97.333459 
3601.000000	97.337526 
3600.000000	97.338509 
3599.000000	97.337908 
3598.000000	97.338001 
3597.000000	97.340883 
3596.000000	97.347138 
3595.000000	97.354401 
3594.000000	97.359270 
3593.000000	97.360233 
3592.000000	97.359257 
3591.000000	97.359596 
3590.000000	97.361295 
3589.000000	97.361512 
3588.000000	97.359911 
3587.000000	97.359646 
3586.000000	97.361954 
3585.000000	97.364895 
3584.000000	97.366773 
3583.000000	97.367687 
3582.000000	97.368520 
3581.000000	97.369635 
3580.000000	97.370884 
3579.000000	97.371903 
3578.000000	97.372434 
3577.000000	97.372447 
3576.000000	97.372164 
3575.000000	97.371694 
3574.000000	97.371022 
3573.000000	97.370290 
3572.000000	97.369988 
3571.000000	97.370716 
3570.000000	97.372237 
3569.000000	97.373518 
3568.000000	97.374229 
3567.000000	97.375021 
3566.000000	97.375807 
3565.000000	97.375689 
3564.000000	97.374462 
3563.000000	97.372847 
3562.000000	97.371736 
3561.000000	97.371404 
3560.000000	97.371528 
3559.000000	97.371688 
3558.000000	97.371760 
3557.000000	97.371874 
3556.000000	97.372122 
3555.000000	97.372419 
3554.000000	97.372626 
3553.000000	97.372726 
3552.000000	97.372789 
3551.000000	97.372862 
3550.000000	97.372942 
3549.000000	97.373021 
3548.000000	97.373111 
3547.000000	97.373230 
3546.000000	97.373388 
3545.000000	97.373569 
3544.000000	97.373753 
3543.000000	97.373930 
3542.000000	97.374111 
3541.000000	97.374309 
3540.000000	97.374524 
3539.000000	97.374745 
3538.000000	97.374949 
3537.000000	97.375122 
3536.000000	97.375271 
3535.000000	97.375426 
3534.000000	97.375622 
3533.000000	97.375880 
3532.000000	97.376197 
3531.000000	97.376546 
3530.000000	97.376889 
3529.000000	97.377188 
3528.000000	97.377431 
3527.000000	97.377632 
3526.000000	97.377814 
3525.000000	97.377996 
3524.000000	97.378185 
3523.000000	97.378389 
3522.000000	97.378614 
3521.000000	97.378859 
3520.000000	97.379108 
3519.000000	97.379336 
3518.000000	97.379517 
3517.000000	97.379633 
3516.000000	97.379679 
3515.000000	97.379665 
3514.000000	97.379613 
3513.000000	97.379547 
3512.000000	97.379476 
3511.000000	97.379399 
3510.000000	97.379307 
3509.000000	97.379198 
3508.000000	97.379079 
3507.000000	97.378955 
3506.000000	97.378824 
3505.000000	97.378676 
3504.000000	97.378499 
3503.000000	97.378290 
3502.000000	97.378056 
3501.000000	97.377800 
3500.000000	97.377520 
3499.000000	97.377209 
3498.000000	97.376863 
3497.000000	97.376478 
3496.000000	97.376058 
3495.000000	97.375609 
3494.000000	97.375137 
3493.000000	97.374640 
3492.000000	97.374108 
3491.000000	97.373521 
3490.000000	97.372865 
3489.000000	97.372138 
3488.000000	97.371356 
3487.000000	97.370545 
3486.000000	97.369727 
3485.000000	97.368910 
3484.000000	97.368087 
3483.000000	97.367241 
3482.000000	97.366355 
3481.000000	97.365420 
3480.000000	97.364435 
3479.000000	97.363405 
3478.000000	97.362336 
3477.000000	97.361233 
3476.000000	97.360108 
3475.000000	97.358975 
3474.000000	97.357851 
3473.000000	97.356745 
3472.000000	97.355651 
3471.000000	97.354553 
3470.000000	97.353435 
3469.000000	97.352291 
3468.000000	97.351128 
3467.000000	97.349956 
3466.000000	97.348784 
3465.000000	97.347617 
3464.000000	97.346463 
3463.000000	97.345324 
3462.000000	97.344195 
3461.000000	97.343062 
3460.000000	97.341906 
3459.000000	97.340716 
3458.000000	97.339496 
3457.000000	97.338260 
3456.000000	97.337022 
3455.000000	97.335796 
3454.000000	97.334605 
3453.000000	97.333465 
3452.000000	97.332389 
3451.000000	97.331369 
3450.000000	97.330375 
3449.000000	97.329371 
3448.000000	97.328344 
3447.000000	97.327318 
3446.000000	97.326330 
3445.000000	97.325389 
3444.000000	97.324477 
3443.000000	97.323565 
3442.000000	97.322633 
3441.000000	97.321665 
3440.000000	97.320662 
3439.000000	97.319684 
3438.000000	97.318827 
3437.000000	97.318132 
3436.000000	97.317551 
3435.000000	97.316978 
3434.000000	97.316351 
3433.000000	97.315657 
3432.000000	97.314923 
3431.000000	97.314201 
3430.000000	97.313535 
3429.000000	97.312942 
3428.000000	97.312395 
3427.000000	97.311837 
3426.000000	97.311232 
3425.000000	97.310626 
3424.000000	97.310115 
3423.000000	97.309747 
3422.000000	97.309437 
3421.000000	97.309021 
3420.000000	97.308419 
3419.000000	97.307683 
3418.000000	97.306931 
3417.000000	97.306276 
3416.000000	97.305795 
3415.000000	97.305519 
3414.000000	97.305379 
3413.000000	97.305204 
3412.000000	97.304853 
3411.000000	97.304334 
3410.000000	97.303814 
3409.000000	97.303499 
3408.000000	97.303475 
3407.000000	97.303615 
3406.000000	97.303627 
3405.000000	97.303275 
3404.000000	97.302573 
3403.000000	97.301801 
3402.000000	97.301265 
3401.000000	97.301069 
3400.000000	97.301123 
3399.000000	97.301300 
3398.000000	97.301550 
3397.000000	97.301870 
3396.000000	97.302245 
3395.000000	97.302643 
3394.000000	97.303054 
3393.000000	97.303484 
3392.000000	97.303889 
3391.000000	97.304181 
3390.000000	97.304385 
3389.000000	97.304746 
3388.000000	97.305524 
3387.000000	97.306684 
3386.000000	97.307835 
3385.000000	97.308528 
3384.000000	97.308561 
3383.000000	97.308111 
3382.000000	97.307758 
3381.000000	97.308237 
3380.000000	97.309911 
3379.000000	97.312359 
3378.000000	97.314527 
3377.000000	97.315679 
3376.000000	97.315980 
3375.000000	97.316038 
3374.000000	97.315993 
3373.000000	97.315543 
3372.000000	97.314743 
3371.000000	97.314299 
3370.000000	97.314973 
3369.000000	97.316909 
3368.000000	97.319518 
3367.000000	97.321927 
3366.000000	97.323541 
3365.000000	97.324267 
3364.000000	97.324354 
3363.000000	97.324084 
3362.000000	97.323627 
3361.000000	97.323144 
3360.000000	97.322903 
3359.000000	97.323193 
3358.000000	97.324098 
3357.000000	97.325461 
3356.000000	97.327021 
3355.000000	97.328543 
3354.000000	97.329865 
3353.000000	97.330945 
3352.000000	97.331884 
3351.000000	97.332814 
3350.000000	97.333729 
3349.000000	97.334469 
3348.000000	97.334947 
3347.000000	97.335329 
3346.000000	97.335915 
3345.000000	97.336837 
3344.000000	97.337945 
3343.000000	97.339022 
3342.000000	97.340058 
3341.000000	97.341197 
3340.000000	97.342432 
3339.000000	97.343453 
3338.000000	97.343916 
3337.000000	97.343847 
3336.000000	97.343657 
3335.000000	97.343783 
3334.000000	97.344380 
3333.000000	97.345334 
3332.000000	97.346380 
3331.000000	97.347208 
3330.000000	97.347653 
3329.000000	97.347779 
3328.000000	97.347826 
3327.000000	97.348023 
3326.000000	97.348432 
3325.000000	97.348978 
3324.000000	97.349560 
3323.000000	97.350109 
3322.000000	97.350590 
3321.000000	97.350998 
3320.000000	97.351339 
3319.000000	97.351639 
3318.000000	97.351931 
3317.000000	97.352219 
3316.000000	97.352476 
3315.000000	97.352689 
3314.000000	97.352871 
3313.000000	97.353056 
3312.000000	97.353257 
3311.000000	97.353461 
3310.000000	97.353649 
3309.000000	97.353844 
3308.000000	97.354106 
3307.000000	97.354456 
3306.000000	97.354852 
3305.000000	97.355236 
3304.000000	97.355597 
3303.000000	97.355947 
3302.000000	97.356298 
3301.000000	97.356648 
3300.000000	97.356994 
3299.000000	97.357336 
3298.000000	97.357677 
3297.000000	97.358027 
3296.000000	97.358402 
3295.000000	97.358816 
3294.000000	97.359272 
3293.000000	97.359759 
3292.000000	97.360257 
3291.000000	97.360748 
3290.000000	97.361233 
3289.000000	97.361722 
3288.000000	97.362225 
3287.000000	97.362747 
3286.000000	97.363287 
3285.000000	97.363845 
3284.000000	97.364421 
3283.000000	97.365008 
3282.000000	97.365595 
3281.000000	97.366174 
3280.000000	97.366745 
3279.000000	97.367322 
3278.000000	97.367929 
3277.000000	97.368594 
3276.000000	97.369330 
3275.000000	97.370128 
3274.000000	97.370961 
3273.000000	97.371800 
3272.000000	97.372626 
3271.000000	97.373433 
3270.000000	97.374220 
3269.000000	97.374986 
3268.000000	97.375733 
3267.000000	97.376465 
3266.000000	97.377186 
3265.000000	97.377908 
3264.000000	97.378641 
3263.000000	97.379385 
3262.000000	97.380135 
3261.000000	97.380883 
3260.000000	97.381623 
3259.000000	97.382362 
3258.000000	97.383110 
3257.000000	97.383882 
3256.000000	97.384693 
3255.000000	97.385546 
3254.000000	97.386433 
3253.000000	97.387337 
3252.000000	97.388240 
3251.000000	97.389133 
3250.000000	97.390019 
3249.000000	97.390910 
3248.000000	97.391825 
3247.000000	97.392765 
3246.000000	97.393707 
3245.000000	97.394619 
3244.000000	97.395478 
3243.000000	97.396283 
3242.000000	97.397060 
3241.000000	97.397882 
3240.000000	97.398836 
3239.000000	97.399955 
3238.000000	97.401205 
3237.000000	97.402550 
3236.000000	97.403936 
3235.000000	97.405204 
3234.000000	97.406169 
3233.000000	97.406786 
3232.000000	97.407208 
3231.000000	97.407719 
3230.000000	97.408505 
3229.000000	97.409603 
3228.000000	97.410913 
3227.000000	97.412261 
3226.000000	97.413553 
3225.000000	97.414807 
3224.000000	97.416056 
3223.000000	97.417286 
3222.000000	97.418472 
3221.000000	97.419630 
3220.000000	97.420816 
3219.000000	97.422058 
3218.000000	97.423343 
3217.000000	97.424648 
3216.000000	97.425959 
3215.000000	97.427269 
3214.000000	97.428572 
3213.000000	97.429858 
3212.000000	97.431117 
3211.000000	97.432351 
3210.000000	97.433567 
3209.000000	97.434783 
3208.000000	97.436013 
3207.000000	97.437268 
3206.000000	97.438547 
3205.000000	97.439849 
3204.000000	97.441167 
3203.000000	97.442499 
3202.000000	97.443842 
3201.000000	97.445197 
3200.000000	97.446563 
3199.000000	97.447931 
3198.000000	97.449288 
3197.000000	97.450619 
3196.000000	97.451929 
3195.000000	97.453244 
3194.000000	97.454600 
3193.000000	97.456026 
3192.000000	97.457519 
3191.000000	97.459045 
3190.000000	97.460555 
3189.000000	97.462013 
3188.000000	97.463413 
3187.000000	97.464768 
3186.000000	97.466104 
3185.000000	97.467436 
3184.000000	97.468773 
3183.000000	97.470114 
3182.000000	97.471451 
3181.000000	97.472782 
3180.000000	97.474111 
3179.000000	97.475443 
3178.000000	97.476775 
3177.000000	97.478100 
3176.000000	97.479412 
3175.000000	97.480715 
3174.000000	97.482016 
3173.000000	97.483316 
3172.000000	97.484604 
3171.000000	97.485862 
3170.000000	97.487087 
3169.000000	97.488296 
3168.000000	97.489517 
3167.000000	97.490761 
3166.000000	97.492020 
3165.000000	97.493267 
3164.000000	97.494483 
3163.000000	97.495667 
3162.000000	97.496837 
3161.000000	97.498017 
3160.000000	97.499219 
3159.000000	97.500437 
3158.000000	97.501647 
3157.000000	97.502830 
3156.000000	97.503992 
3155.000000	97.505158 
3154.000000	97.506351 
3153.000000	97.507570 
3152.000000	97.508790 
3151.000000	97.509975 
3150.000000	97.511101 
3149.000000	97.512174 
3148.000000	97.513228 
3147.000000	97.514303 
3146.000000	97.515424 
3145.000000	97.516587 
3144.000000	97.517770 
3143.000000	97.518946 
3142.000000	97.520096 
3141.000000	97.521219 
3140.000000	97.522325 
3139.000000	97.523430 
3138.000000	97.524539 
3137.000000	97.525652 
3136.000000	97.526763 
3135.000000	97.527871 
3134.000000	97.528976 
3133.000000	97.530078 
3132.000000	97.531173 
3131.000000	97.532259 
3130.000000	97.533348 
3129.000000	97.534461 
3128.000000	97.535618 
3127.000000	97.536819 
3126.000000	97.538042 
3125.000000	97.539260 
3124.000000	97.540459 
3123.000000	97.541642 
3122.000000	97.542817 
3121.000000	97.543985 
3120.000000	97.545135 
3119.000000	97.546251 
3118.000000	97.547322 
3117.000000	97.548353 
3116.000000	97.549365 
3115.000000	97.550376 
3114.000000	97.551386 
3113.000000	97.552375 
3112.000000	97.553322 
3111.000000	97.554222 
3110.000000	97.555093 
3109.000000	97.555966 
3108.000000	97.556872 
3107.000000	97.557821 
3106.000000	97.558802 
3105.000000	97.559786 
3104.000000	97.560745 
3103.000000	97.561663 
3102.000000	97.562539 
3101.000000	97.563388 
3100.000000	97.564227 
3099.000000	97.565065 
3098.000000	97.565894 
3097.000000	97.566689 
3096.000000	97.567432 
3095.000000	97.568115 
3094.000000	97.568756 
3093.000000	97.569351 
3092.000000	97.569886 
3091.000000	97.570419 
3090.000000	97.571114 
3089.000000	97.572035 
3088.000000	97.572836 
3087.000000	97.572881 
3086.000000	97.571966 
3085.000000	97.571052 
3084.000000	97.571678 
3083.000000	97.574096 
3082.000000	97.576273 
3081.000000	97.575718 
3080.000000	97.572179 
3079.000000	97.567894 
3078.000000	97.565202 
3077.000000	97.564939 
3076.000000	97.566834 
3075.000000	97.569754 
3074.000000	97.571415 
3073.000000	97.569956 
3072.000000	97.566601 
3071.000000	97.565152 
3070.000000	97.568497 
3069.000000	97.576870 
3068.000000	97.588626 
3067.000000	97.600176 
3066.000000	97.605716 
3065.000000	97.600914 
3064.000000	97.588178 
3063.000000	97.575776 
3062.000000	97.570200 
3061.000000	97.571209 
3060.000000	97.574474 
3059.000000	97.576243 
3058.000000	97.574825 
3057.000000	97.570535 
3056.000000	97.565853 
3055.000000	97.563644 
3054.000000	97.564110 
3053.000000	97.565180 
3052.000000	97.566042 
3051.000000	97.567369 
3050.000000	97.567782 
3049.000000	97.563828 
3048.000000	97.555027 
3047.000000	97.545683 
3046.000000	97.539316 
3045.000000	97.533912 
3044.000000	97.525355 
3043.000000	97.513784 
3042.000000	97.503980 
3041.000000	97.500075 
3040.000000	97.501061 
3039.000000	97.500719 
3038.000000	97.491386 
3037.000000	97.470163 
3036.000000	97.443355 
3035.000000	97.423286 
3034.000000	97.417286 
3033.000000	97.419221 
3032.000000	97.414080 
3031.000000	97.391643 
3030.000000	97.354953 
3029.000000	97.316244 
3028.000000	97.285867 
3027.000000	97.265452 
3026.000000	97.249867 
3025.000000	97.233193 
3024.000000	97.212242 
3023.000000	97.186466 
3022.000000	97.157580 
3021.000000	97.129906 
3020.000000	97.108309 
3019.000000	97.093317 
3018.000000	97.079513 
3017.000000	97.060912 
3016.000000	97.036556 
3015.000000	97.008347 
3014.000000	96.975459 
3013.000000	96.935280 
3012.000000	96.889549 
3011.000000	96.844950 
3010.000000	96.806254 
3009.000000	96.772465 
3008.000000	96.740901 
3007.000000	96.711025 
3006.000000	96.681956 
3005.000000	96.649981 
3004.000000	96.612787 
3003.000000	96.574360 
3002.000000	96.541350 
3001.000000	96.514531 
3000.000000	96.486842 
2999.000000	96.450994 
2998.000000	96.407881 
2997.000000	96.366529 
2996.000000	96.335551 
2995.000000	96.314110 
2994.000000	96.290765 
2993.000000	96.252359 
2992.000000	96.195580 
2991.000000	96.130290 
2990.000000	96.072250 
2989.000000	96.033594 
2988.000000	96.018853 
2987.000000	96.025399 
2986.000000	96.044737 
2985.000000	96.065292 
2984.000000	96.078233 
2983.000000	96.082383 
2982.000000	96.082461 
2981.000000	96.082611 
2980.000000	96.082855 
2979.000000	96.081455 
2978.000000	96.078348 
2977.000000	96.074774 
2976.000000	96.070630 
2975.000000	96.064226 
2974.000000	96.055374 
2973.000000	96.047616 
2972.000000	96.045953 
2971.000000	96.052312 
2970.000000	96.064392 
2969.000000	96.079441 
2968.000000	96.097913 
2967.000000	96.122378 
2966.000000	96.153772 
2965.000000	96.189907 
2964.000000	96.226559 
2963.000000	96.258456 
2962.000000	96.280672 
2961.000000	96.292321 
2960.000000	96.299183 
2959.000000	96.309802 
2958.000000	96.327646 
2957.000000	96.348884 
2956.000000	96.368612 
2955.000000	96.386870 
2954.000000	96.407042 
2953.000000	96.430261 
2952.000000	96.453615 
2951.000000	96.472865 
2950.000000	96.485197 
2949.000000	96.490391 
2948.000000	96.491173 
2947.000000	96.492179 
2946.000000	96.496989 
2945.000000	96.505746 
2944.000000	96.516225 
2943.000000	96.526738 
2942.000000	96.536810 
2941.000000	96.545295 
2940.000000	96.549823 
2939.000000	96.549421 
2938.000000	96.547126 
2937.000000	96.548424 
2936.000000	96.555748 
2935.000000	96.564671 
2934.000000	96.567212 
2933.000000	96.559743 
2932.000000	96.546574 
2931.000000	96.534734 
2930.000000	96.526562 
2929.000000	96.519692 
2928.000000	96.512934 
2927.000000	96.508313 
2926.000000	96.506890 
2925.000000	96.506481 
2924.000000	96.505415 
2923.000000	96.505458 
2922.000000	96.508335 
2921.000000	96.511746 
2920.000000	96.512267 
2919.000000	96.510905 
2918.000000	96.512128 
2917.000000	96.517074 
2916.000000	96.520527 
2915.000000	96.515862 
2914.000000	96.501645 
2913.000000	96.482673 
2912.000000	96.465627 
2911.000000	96.454266 
2910.000000	96.448105 
2909.000000	96.444762 
2908.000000	96.442871 
2907.000000	96.442050 
2906.000000	96.439999 
2905.000000	96.431328 
2904.000000	96.411687 
2903.000000	96.384520 
2902.000000	96.362133 
2901.000000	96.357790 
2900.000000	96.376426 
2899.000000	96.411584 
2898.000000	96.450190 
2897.000000	96.480836 
2896.000000	96.498842 
2895.000000	96.505801 
2894.000000	96.507030 
2893.000000	96.509294 
2892.000000	96.517875 
2891.000000	96.532992 
2890.000000	96.549242 
2889.000000	96.560588 
2888.000000	96.566326 
2887.000000	96.570974 
2886.000000	96.578698 
2885.000000	96.590046 
2884.000000	96.604287 
2883.000000	96.621830 
2882.000000	96.642422 
2881.000000	96.663188 
2880.000000	96.681348 
2879.000000	96.698180 
2878.000000	96.717720 
2877.000000	96.741474 
2876.000000	96.766118 
2875.000000	96.786531 
2874.000000	96.800028 
2873.000000	96.808196 
2872.000000	96.816117 
2871.000000	96.829114 
2870.000000	96.848158 
2869.000000	96.868302 
2868.000000	96.883514 
2867.000000	96.893394 
2866.000000	96.903479 
2865.000000	96.918938 
2864.000000	96.940448 
2863.000000	96.966794 
2862.000000	96.997985 
2861.000000	97.032955 
2860.000000	97.066434 
2859.000000	97.092354 
2858.000000	97.110837 
2857.000000	97.128837 
2856.000000	97.152170 
2855.000000	97.178647 
2854.000000	97.201162 
2853.000000	97.216431 
2852.000000	97.228191 
2851.000000	97.241922 
2850.000000	97.258779 
2849.000000	97.276160 
2848.000000	97.292503 
2847.000000	97.308776 
2846.000000	97.325278 
2845.000000	97.339661 
2844.000000	97.349757 
2843.000000	97.356883 
2842.000000	97.364260 
2841.000000	97.372571 
2840.000000	97.379291 
2839.000000	97.383021 
2838.000000	97.386699 
2837.000000	97.395230 
2836.000000	97.410546 
2835.000000	97.430027 
2834.000000	97.449313 
2833.000000	97.465405 
2832.000000	97.476926 
2831.000000	97.482887 
2830.000000	97.482857 
2829.000000	97.478581 
2828.000000	97.474390 
2827.000000	97.474616 
2826.000000	97.480184 
2825.000000	97.488213 
2824.000000	97.495115 
2823.000000	97.499738 
2822.000000	97.503474 
2821.000000	97.508208 
2820.000000	97.514720 
2819.000000	97.522588 
2818.000000	97.530745 
2817.000000	97.538168 
2816.000000	97.544576 
2815.000000	97.550369 
2814.000000	97.555419 
2813.000000	97.558287 
2812.000000	97.557540 
2811.000000	97.553938 
2810.000000	97.550749 
2809.000000	97.551445 
2808.000000	97.557149 
2807.000000	97.566013 
2806.000000	97.574367 
2805.000000	97.578787 
2804.000000	97.578233 
2803.000000	97.574873 
2802.000000	97.572644 
2801.000000	97.574216 
2800.000000	97.579192 
2799.000000	97.585134 
2798.000000	97.589849 
2797.000000	97.592653 
2796.000000	97.593960 
2795.000000	97.594405 
2794.000000	97.594553 
2793.000000	97.594969 
2792.000000	97.596029 
2791.000000	97.597666 
2790.000000	97.599472 
2789.000000	97.601102 
2788.000000	97.602562 
2787.000000	97.604081 
2786.000000	97.605776 
2785.000000	97.607480 
2784.000000	97.608919 
2783.000000	97.610028 
2782.000000	97.611019 
2781.000000	97.612153 
2780.000000	97.613516 
2779.000000	97.615031 
2778.000000	97.616552 
2777.000000	97.617917 
2776.000000	97.619018 
2775.000000	97.619871 
2774.000000	97.620616 
2773.000000	97.621442 
2772.000000	97.622450 
2771.000000	97.623615 
2770.000000	97.624841 
2769.000000	97.626040 
2768.000000	97.627192 
2767.000000	97.628321 
2766.000000	97.629433 
2765.000000	97.630501 
2764.000000	97.631493 
2763.000000	97.632396 
2762.000000	97.633206 
2761.000000	97.633947 
2760.000000	97.634677 
2759.000000	97.635466 
2758.000000	97.636340 
2757.000000	97.637257 
2756.000000	97.638132 
2755.000000	97.638922 
2754.000000	97.639653 
2753.000000	97.640395 
2752.000000	97.641215 
2751.000000	97.642133 
2750.000000	97.643135 
2749.000000	97.644188 
2748.000000	97.645252 
2747.000000	97.646263 
2746.000000	97.647164 
2745.000000	97.647948 
2744.000000	97.648699 
2743.000000	97.649529 
2742.000000	97.650481 
2741.000000	97.651485 
2740.000000	97.652417 
2739.000000	97.653224 
2738.000000	97.653991 
2737.000000	97.654895 
2736.000000	97.656051 
2735.000000	97.657420 
2734.000000	97.658852 
2733.000000	97.660220 
2732.000000	97.661490 
2731.000000	97.662697 
2730.000000	97.663888 
2729.000000	97.665099 
2728.000000	97.666343 
2727.000000	97.667592 
2726.000000	97.668793 
2725.000000	97.669930 
2724.000000	97.671059 
2723.000000	97.672262 
2722.000000	97.673569 
2721.000000	97.674950 
2720.000000	97.676338 
2719.000000	97.677681 
2718.000000	97.678968 
2717.000000	97.680208 
2716.000000	97.681410 
2715.000000	97.682604 
2714.000000	97.683889 
2713.000000	97.685411 
2712.000000	97.687223 
2711.000000	97.689143 
2710.000000	97.690893 
2709.000000	97.692358 
2708.000000	97.693666 
2707.000000	97.694944 
2706.000000	97.696106 
2705.000000	97.696989 
2704.000000	97.697612 
2703.000000	97.698218 
2702.000000	97.699029 
2701.000000	97.700105 
2700.000000	97.701469 
2699.000000	97.703171 
2698.000000	97.705134 
2697.000000	97.707057 
2696.000000	97.708582 
2695.000000	97.709569 
2694.000000	97.710100 
2693.000000	97.710344 
2692.000000	97.710524 
2691.000000	97.710977 
2690.000000	97.712000 
2689.000000	97.713444 
2688.000000	97.714597 
2687.000000	97.714814 
2686.000000	97.714417 
2685.000000	97.714632 
2684.000000	97.716384 
2683.000000	97.719222 
2682.000000	97.721685 
2681.000000	97.722773 
2680.000000	97.722672 
2679.000000	97.722276 
2678.000000	97.722461 
2677.000000	97.723849 
2676.000000	97.726586 
2675.000000	97.729730 
2674.000000	97.731425 
2673.000000	97.730428 
2672.000000	97.727363 
2671.000000	97.723967 
2670.000000	97.721260 
2669.000000	97.719217 
2668.000000	97.717825 
2667.000000	97.717463 
2666.000000	97.718118 
2665.000000	97.718942 
2664.000000	97.719060 
2663.000000	97.718478 
2662.000000	97.717761 
2661.000000	97.717071 
2660.000000	97.715998 
2659.000000	97.714310 
2658.000000	97.712435 
2657.000000	97.711032 
2656.000000	97.710285 
2655.000000	97.709807 
2654.000000	97.709126 
2653.000000	97.708175 
2652.000000	97.707236 
2651.000000	97.706535 
2650.000000	97.706032 
2649.000000	97.705562 
2648.000000	97.705046 
2647.000000	97.704459 
2646.000000	97.703706 
2645.000000	97.702673 
2644.000000	97.701389 
2643.000000	97.700053 
2642.000000	97.698914 
2641.000000	97.698086 
2640.000000	97.697497 
2639.000000	97.696997 
2638.000000	97.696459 
2637.000000	97.695842 
2636.000000	97.695179 
2635.000000	97.694507 
2634.000000	97.693842 
2633.000000	97.693196 
2632.000000	97.692582 
2631.000000	97.692002 
2630.000000	97.691456 
2629.000000	97.690952 
2628.000000	97.690505 
2627.000000	97.690125 
2626.000000	97.689806 
2625.000000	97.689521 
2624.000000	97.689233 
2623.000000	97.688912 
2622.000000	97.688550 
2621.000000	97.688163 
2620.000000	97.687785 
2619.000000	97.687444 
2618.000000	97.687165 
2617.000000	97.686957 
2616.000000	97.686810 
2615.000000	97.686700 
2614.000000	97.686592 
2613.000000	97.686460 
2612.000000	97.686295 
2611.000000	97.686110 
2610.000000	97.685925 
2609.000000	97.685756 
2608.000000	97.685611 
2607.000000	97.685489 
2606.000000	97.685393 
2605.000000	97.685328 
2604.000000	97.685304 
2603.000000	97.685326 
2602.000000	97.685394 
2601.000000	97.685502 
2600.000000	97.685640 
2599.000000	97.685791 
2598.000000	97.685942 
2597.000000	97.686084 
2596.000000	97.686219 
2595.000000	97.686357 
2594.000000	97.686524 
2593.000000	97.686753 
2592.000000	97.687082 
2591.000000	97.687555 
2590.000000	97.688207 
2589.000000	97.688985 
2588.000000	97.689763 
2587.000000	97.690454 
2586.000000	97.691091 
2585.000000	97.691666 
2584.000000	97.691984 
2583.000000	97.691819 
2582.000000	97.691309 
2581.000000	97.691159 
2580.000000	97.691999 
2579.000000	97.693788 
2578.000000	97.695799 
2577.000000	97.697308 
2576.000000	97.698199 
2575.000000	97.698647 
2574.000000	97.698711 
2573.000000	97.698462 
2572.000000	97.698263 
2571.000000	97.698560 
2570.000000	97.699407 
2569.000000	97.700510 
2568.000000	97.701682 
2567.000000	97.702943 
2566.000000	97.704219 
2565.000000	97.705309 
2564.000000	97.706209 
2563.000000	97.707142 
2562.000000	97.708173 
2561.000000	97.709036 
2560.000000	97.709563 
2559.000000	97.709963 
2558.000000	97.710537 
2557.000000	97.711338 
2556.000000	97.712197 
2555.000000	97.712971 
2554.000000	97.713601 
2553.000000	97.714101 
2552.000000	97.714608 
2551.000000	97.715310 
2550.000000	97.716222 
2549.000000	97.716999 
2548.000000	97.717188 
2547.000000	97.716759 
2546.000000	97.716097 
2545.000000	97.715613 
2544.000000	97.715403 
2543.000000	97.715359 
2542.000000	97.715395 
2541.000000	97.715482 
2540.000000	97.715589 
2539.000000	97.715669 
2538.000000	97.715686 
2537.000000	97.715636 
2536.000000	97.715561 
2535.000000	97.715525 
2534.000000	97.715558 
2533.000000	97.715649 
2532.000000	97.715762 
2531.000000	97.715869 
2530.000000	97.715953 
2529.000000	97.716006 
2528.000000	97.716014 
2527.000000	97.715970 
2526.000000	97.715879 
2525.000000	97.715761 
2524.000000	97.715638 
2523.000000	97.715528 
2522.000000	97.715430 
2521.000000	97.715315 
2520.000000	97.715135 
2519.000000	97.714843 
2518.000000	97.714426 
2517.000000	97.713929 
2516.000000	97.713431 
2515.000000	97.713003 
2514.000000	97.712669 
2513.000000	97.712405 
2512.000000	97.712170 
2511.000000	97.711938 
2510.000000	97.711702 
2509.000000	97.711470 
2508.000000	97.711258 
2507.000000	97.711084 
2506.000000	97.710962 
2505.000000	97.710892 
2504.000000	97.710863 
2503.000000	97.710870 
2502.000000	97.710908 
2501.000000	97.710963 
2500.000000	97.710999 
2499.000000	97.710978 
2498.000000	97.710889 
2497.000000	97.710767 
2496.000000	97.710675 
2495.000000	97.710659 
2494.000000	97.710721 
2493.000000	97.710818 
2492.000000	97.710897 
2491.000000	97.710918 
2490.000000	97.710866 
2489.000000	97.710750 
2488.000000	97.710594 
2487.000000	97.710430 
2486.000000	97.710293 
2485.000000	97.710204 
2484.000000	97.710162 
2483.000000	97.710149 
2482.000000	97.710138 
2481.000000	97.710107 
2480.000000	97.710050 
2479.000000	97.709979 
2478.000000	97.709923 
2477.000000	97.709920 
2476.000000	97.709997 
2475.000000	97.710152 
2474.000000	97.710363 
2473.000000	97.710601 
2472.000000	97.710843 
2471.000000	97.711072 
2470.000000	97.711304 
2469.000000	97.711525 
2468.000000	97.711689 
2467.000000	97.711849 
2466.000000	97.712156 
2465.000000	97.712679 
2464.000000	97.713276 
2463.000000	97.713758 
2462.000000	97.714089 
2461.000000	97.714427 
2460.000000	97.714926 
2459.000000	97.715526 
2458.000000	97.715983 
2457.000000	97.716185 
2456.000000	97.716303 
2455.000000	97.716582 
2454.000000	97.717018 
2453.000000	97.717433 
2452.000000	97.717818 
2451.000000	97.718312 
2450.000000	97.718884 
2449.000000	97.719304 
2448.000000	97.719432 
2447.000000	97.719309 
2446.000000	97.718947 
2445.000000	97.718292 
2444.000000	97.717585 
2443.000000	97.717504 
2442.000000	97.718598 
2441.000000	97.720683 
2440.000000	97.723008 
2439.000000	97.724958 
2438.000000	97.726580 
2437.000000	97.728358 
2436.000000	97.730554 
2435.000000	97.732898 
2434.000000	97.734908 
2433.000000	97.736409 
2432.000000	97.737584 
2431.000000	97.738642 
2430.000000	97.739660 
2429.000000	97.740719 
2428.000000	97.742020 
2427.000000	97.743738 
2426.000000	97.745896 
2425.000000	97.748253 
2424.000000	97.750328 
2423.000000	97.751732 
2422.000000	97.752359 
2421.000000	97.752621 
2420.000000	97.753251 
2419.000000	97.754756 
2418.000000	97.757102 
2417.000000	97.759632 
2416.000000	97.761704 
2415.000000	97.763169 
2414.000000	97.764246 
2413.000000	97.765267 
2412.000000	97.766606 
2411.000000	97.768510 
2410.000000	97.770760 
2409.000000	97.772866 
2408.000000	97.774832 
2407.000000	97.777131 
2406.000000	97.779487 
2405.000000	97.780453 
2404.000000	97.778991 
2403.000000	97.776035 
2402.000000	97.773887 
2401.000000	97.774148 
2400.000000	97.776844 
2399.000000	97.780770 
2398.000000	97.784122 
2397.000000	97.785343 
2396.000000	97.784202 
2395.000000	97.781920 
2394.000000	97.779910 
2393.000000	97.778931 
2392.000000	97.779740 
2391.000000	97.783230 
2390.000000	97.788906 
2389.000000	97.794389 
2388.000000	97.797866 
2387.000000	97.800221 
2386.000000	97.803184 
2385.000000	97.805947 
2384.000000	97.805382 
2383.000000	97.799311 
2382.000000	97.787884 
2381.000000	97.772983 
2380.000000	97.758280 
2379.000000	97.748168 
2378.000000	97.744074 
2377.000000	97.742258 
2376.000000	97.737832 
2375.000000	97.731855 
2374.000000	97.730405 
2373.000000	97.736033 
2372.000000	97.744078 
2371.000000	97.748914 
2370.000000	97.750145 
2369.000000	97.750002 
2368.000000	97.748726 
2367.000000	97.746122 
2366.000000	97.744311 
2365.000000	97.744752 
2364.000000	97.744648 
2363.000000	97.740799 
2362.000000	97.734821 
2361.000000	97.731543 
2360.000000	97.733851 
2359.000000	97.739446 
2358.000000	97.742504 
2357.000000	97.740390 
2356.000000	97.735760 
2355.000000	97.733698 
2354.000000	97.733742 
2353.000000	97.732961 
2352.000000	97.731535 
2351.000000	97.731137 
2350.000000	97.732100 
2349.000000	97.732881 
2348.000000	97.733018 
2347.000000	97.732680 
2346.000000	97.732442 
2345.000000	97.734074 
2344.000000	97.737265 
2343.000000	97.740729 
2342.000000	97.741946 
2341.000000	97.740619 
2340.000000	97.738673 
2339.000000	97.737404 
2338.000000	97.736229 
2337.000000	97.733668 
2336.000000	97.731816 
2335.000000	97.732321 
2334.000000	97.733832 
2333.000000	97.732663 
2332.000000	97.731896 
2331.000000	97.735356 
2330.000000	97.744765 
2329.000000	97.754141 
2328.000000	97.761087 
2327.000000	97.765177 
2326.000000	97.766969 
2325.000000	97.766288 
2324.000000	97.764672 
2323.000000	97.766271 
2322.000000	97.772379 
2321.000000	97.779758 
2320.000000	97.784549 
2319.000000	97.784580 
2318.000000	97.782028 
2317.000000	97.778608 
2316.000000	97.778146 
2315.000000	97.780443 
2314.000000	97.784329 
2313.000000	97.785346 
2312.000000	97.784525 
2311.000000	97.784493 
2310.000000	97.788254 
2309.000000	97.792992 
2308.000000	97.795918 
2307.000000	97.795769 
2306.000000	97.795222 
2305.000000	97.796409 
2304.000000	97.800894 
2303.000000	97.807125 
2302.000000	97.812188 
2301.000000	97.811590 
2300.000000	97.804376 
2299.000000	97.792859 
2298.000000	97.782757 
2297.000000	97.777278 
2296.000000	97.776877 
2295.000000	97.779036 
2294.000000	97.780954 
2293.000000	97.780198 
2292.000000	97.776222 
2291.000000	97.770016 
2290.000000	97.762936 
2289.000000	97.755947 
2288.000000	97.750083 
2287.000000	97.746969 
2286.000000	97.747533 
2285.000000	97.750956 
2284.000000	97.754524 
2283.000000	97.755816 
2282.000000	97.753910 
2281.000000	97.749860 
2280.000000	97.745885 
2279.000000	97.743477 
2278.000000	97.741740 
2277.000000	97.738364 
2276.000000	97.732599 
2275.000000	97.726118 
2274.000000	97.721144 
2273.000000	97.718593 
2272.000000	97.718736 
2271.000000	97.721750 
2270.000000	97.726472 
2269.000000	97.729844 
2268.000000	97.729657 
2267.000000	97.726715 
2266.000000	97.723417 
2265.000000	97.720649 
2264.000000	97.717107 
2263.000000	97.711500 
2262.000000	97.704341 
2261.000000	97.697859 
2260.000000	97.694346 
2259.000000	97.694361 
2258.000000	97.696008 
2257.000000	97.696509 
2256.000000	97.695004 
2255.000000	97.692916 
2254.000000	97.691381 
2253.000000	97.689497 
2252.000000	97.686164 
2251.000000	97.681768 
2250.000000	97.676943 
2249.000000	97.671150 
2248.000000	97.664079 
2247.000000	97.657356 
2246.000000	97.653260 
2245.000000	97.651979 
2244.000000	97.651302 
2243.000000	97.648839 
2242.000000	97.644115 
2241.000000	97.638573 
2240.000000	97.634449 
2239.000000	97.633081 
2238.000000	97.633922 
2237.000000	97.634956 
2236.000000	97.634511 
2235.000000	97.632698 
2234.000000	97.630477 
2233.000000	97.628052 
2232.000000	97.624868 
2231.000000	97.620813 
2230.000000	97.616468 
2229.000000	97.612522 
2228.000000	97.609226 
2227.000000	97.606407 
2226.000000	97.603727 
2225.000000	97.600877 
2224.000000	97.597837 
2223.000000	97.594803 
2222.000000	97.591883 
2221.000000	97.589071 
2220.000000	97.586362 
2219.000000	97.583725 
2218.000000	97.581135 
2217.000000	97.578583 
2216.000000	97.576081 
2215.000000	97.573638 
2214.000000	97.571254 
2213.000000	97.568928 
2212.000000	97.566687 
2211.000000	97.564588 
2210.000000	97.562681 
2209.000000	97.560969 
2208.000000	97.559407 
2207.000000	97.557952 
2206.000000	97.556585 
2205.000000	97.555292 
2204.000000	97.554046 
2203.000000	97.552809 
2202.000000	97.551569 
2201.000000	97.550343 
2200.000000	97.549158 
2199.000000	97.548029 
2198.000000	97.546964 
2197.000000	97.545967 
2196.000000	97.545042 
2195.000000	97.544188 
2194.000000	97.543417 
2193.000000	97.542756 
2192.000000	97.542256 
2191.000000	97.541976 
2190.000000	97.541934 
2189.000000	97.542093 
2188.000000	97.542378 
2187.000000	97.542734 
2186.000000	97.543160 
2185.000000	97.543702 
2184.000000	97.544421 
2183.000000	97.545361 
2182.000000	97.546517 
2181.000000	97.547826 
2180.000000	97.549204 
2179.000000	97.550606 
2178.000000	97.552064 
2177.000000	97.553662 
2176.000000	97.555465 
2175.000000	97.557492 
2174.000000	97.559717 
2173.000000	97.562110 
2172.000000	97.564656 
2171.000000	97.567356 
2170.000000	97.570258 
2169.000000	97.573350 
2168.000000	97.576487 
2167.000000	97.579478 
2166.000000	97.582315 
2165.000000	97.585101 
2164.000000	97.587680 
2163.000000	97.589651 
2162.000000	97.591054 
2161.000000	97.592870 
2160.000000	97.596206 
2159.000000	97.601117 
2158.000000	97.606414 
2157.000000	97.610992 
2156.000000	97.614933 
2155.000000	97.619011 
2154.000000	97.623545 
2153.000000	97.628030 
2152.000000	97.631856 
2151.000000	97.634913 
2150.000000	97.637169 
2149.000000	97.638284 
2148.000000	97.638591 
2147.000000	97.640139 
2146.000000	97.645219 
2145.000000	97.654023 
2144.000000	97.663979 
2143.000000	97.671906 
2142.000000	97.676354 
2141.000000	97.677241 
2140.000000	97.675317 
2139.000000	97.672627 
2138.000000	97.672205 
2137.000000	97.676215 
2136.000000	97.684274 
2135.000000	97.693441 
2134.000000	97.700058 
2133.000000	97.702034 
2132.000000	97.700199 
2131.000000	97.697945 
2130.000000	97.698275 
2129.000000	97.700651 
2128.000000	97.701774 
2127.000000	97.699857 
2126.000000	97.696960 
2125.000000	97.696285 
2124.000000	97.698026 
2123.000000	97.699367 
2122.000000	97.698195 
2121.000000	97.695415 
2120.000000	97.693415 
2119.000000	97.693186 
2118.000000	97.693519 
2117.000000	97.692505 
2116.000000	97.689422 
2115.000000	97.685267 
2114.000000	97.681639 
2113.000000	97.679075 
2112.000000	97.676877 
2111.000000	97.674715 
2110.000000	97.673684 
2109.000000	97.675045 
2108.000000	97.678354 
2107.000000	97.681436 
2106.000000	97.682117 
2105.000000	97.679853 
2104.000000	97.675974 
2103.000000	97.672727 
2102.000000	97.671345 
2101.000000	97.671013 
2100.000000	97.670288 
2099.000000	97.669267 
2098.000000	97.669440 
2097.000000	97.671224 
2096.000000	97.672862 
2095.000000	97.672264 
2094.000000	97.669421 
2093.000000	97.665828 
2092.000000	97.662383 
2091.000000	97.659344 
2090.000000	97.656995 
2089.000000	97.655347 
2088.000000	97.653947 
2087.000000	97.652305 
2086.000000	97.650332 
2085.000000	97.648227 
2084.000000	97.646148 
2083.000000	97.644164 
2082.000000	97.642301 
2081.000000	97.640537 
2080.000000	97.638822 
2079.000000	97.637138 
2078.000000	97.635455 
2077.000000	97.633695 
2076.000000	97.631784 
2075.000000	97.629680 
2074.000000	97.627380 
2073.000000	97.624920 
2072.000000	97.622367 
2071.000000	97.619790 
2070.000000	97.617229 
2069.000000	97.614670 
2068.000000	97.612062 
2067.000000	97.609364 
2066.000000	97.606584 
2065.000000	97.603775 
2064.000000	97.601002 
2063.000000	97.598305 
2062.000000	97.595695 
2061.000000	97.593164 
2060.000000	97.590689 
2059.000000	97.588234 
2058.000000	97.585754 
2057.000000	97.583215 
2056.000000	97.580613 
2055.000000	97.577984 
2054.000000	97.575394 
2053.000000	97.572913 
2052.000000	97.570582 
2051.000000	97.568394 
2050.000000	97.566289 
2049.000000	97.564196 
2048.000000	97.562077 
2047.000000	97.559960 
2046.000000	97.557918 
2045.000000	97.556026 
2044.000000	97.554322 
2043.000000	97.552796 
2042.000000	97.551420 
2041.000000	97.550170 
2040.000000	97.549029 
2039.000000	97.547968 
2038.000000	97.546939 
2037.000000	97.545890 
2036.000000	97.544786 
2035.000000	97.543611 
2034.000000	97.542359 
2033.000000	97.541080 
2032.000000	97.539975 
2031.000000	97.539288 
2030.000000	97.539103 
2029.000000	97.539160 
2028.000000	97.539057 
2027.000000	97.538580 
2026.000000	97.537770 
2025.000000	97.536927 
2024.000000	97.536390 
2023.000000	97.536343 
2022.000000	97.536782 
2021.000000	97.537563 
2020.000000	97.538308 
2019.000000	97.538252 
2018.000000	97.536581 
2017.000000	97.533357 
2016.000000	97.530046 
2015.000000	97.528349 
2014.000000	97.528306 
2013.000000	97.528023 
2012.000000	97.525958 
2011.000000	97.523236 
2010.000000	97.522428 
2009.000000	97.524008 
2008.000000	97.525585 
2007.000000	97.525618 
2006.000000	97.525741 
2005.000000	97.527580 
2004.000000	97.529214 
2003.000000	97.527682 
2002.000000	97.523975 
2001.000000	97.522658 
2000.000000	97.525908 
1999.000000	97.530040 
1998.000000	97.529567 
1997.000000	97.523472 
1996.000000	97.515451 
1995.000000	97.508758 
1994.000000	97.502833 
1993.000000	97.496017 
1992.000000	97.489407 
1991.000000	97.486149 
1990.000000	97.487797 
1989.000000	97.493009 
1988.000000	97.498712 
1987.000000	97.501623 
1986.000000	97.499383 
1985.000000	97.492106 
1984.000000	97.483719 
1983.000000	97.479651 
1982.000000	97.482351 
1981.000000	97.489391 
1980.000000	97.496493 
1979.000000	97.502100 
1978.000000	97.507364 
1977.000000	97.512629 
1976.000000	97.515954 
1975.000000	97.515815 
1974.000000	97.513899 
1973.000000	97.514043 
1972.000000	97.518165 
1971.000000	97.524107 
1970.000000	97.527691 
1969.000000	97.526831 
1968.000000	97.522898 
1967.000000	97.519156 
1966.000000	97.518019 
1965.000000	97.519720 
1964.000000	97.523200 
1963.000000	97.527180 
1962.000000	97.530752 
1961.000000	97.533468 
1960.000000	97.535201 
1959.000000	97.536087 
1958.000000	97.536513 
1957.000000	97.536981 
1956.000000	97.537843 
1955.000000	97.539374 
1954.000000	97.541956 
1953.000000	97.545807 
1952.000000	97.550405 
1951.000000	97.554539 
1950.000000	97.557395 
1949.000000	97.559243 
1948.000000	97.561060 
1947.000000	97.563614 
1946.000000	97.566953 
1945.000000	97.570626 
1944.000000	97.573933 
1943.000000	97.576135 
1942.000000	97.576837 
1941.000000	97.576435 
1940.000000	97.576156 
1939.000000	97.577169 
1938.000000	97.579772 
1937.000000	97.583275 
1936.000000	97.586589 
1935.000000	97.589104 
1934.000000	97.590902 
1933.000000	97.592788 
1932.000000	97.595818 
1931.000000	97.600291 
1930.000000	97.605272 
1929.000000	97.609355 
1928.000000	97.612473 
1927.000000	97.615527 
1926.000000	97.618772 
1925.000000	97.621384 
1924.000000	97.622682 
1923.000000	97.623244 
1922.000000	97.624067 
1921.000000	97.625535 
1920.000000	97.627755 
1919.000000	97.630496 
1918.000000	97.632645 
1917.000000	97.632829 
1916.000000	97.631385 
1915.000000	97.630254 
1914.000000	97.630587 
1913.000000	97.631698 
1912.000000	97.632258 
1911.000000	97.631854 
1910.000000	97.631215 
1909.000000	97.631351 
1908.000000	97.632745 
1907.000000	97.634930 
1906.000000	97.636857 
1905.000000	97.637931 
1904.000000	97.638469 
1903.000000	97.639148 
1902.000000	97.640163 
1901.000000	97.641234 
1900.000000	97.642154 
1899.000000	97.642974 
1898.000000	97.643763 
1897.000000	97.644492 
1896.000000	97.645149 
1895.000000	97.645738 
1894.000000	97.646263 
1893.000000	97.646722 
1892.000000	97.647115 
1891.000000	97.647464 
1890.000000	97.647806 
1889.000000	97.648185 
1888.000000	97.648638 
1887.000000	97.649179 
1886.000000	97.649798 
1885.000000	97.650480 
1884.000000	97.651224 
1883.000000	97.652058 
1882.000000	97.653010 
1881.000000	97.654076 
1880.000000	97.655216 
1879.000000	97.656373 
1878.000000	97.657501 
1877.000000	97.658590 
1876.000000	97.659679 
1875.000000	97.660833 
1874.000000	97.662087 
1873.000000	97.663421 
1872.000000	97.664783 
1871.000000	97.666143 
1870.000000	97.667526 
1869.000000	97.668983 
1868.000000	97.670545 
1867.000000	97.672201 
1866.000000	97.673913 
1865.000000	97.675640 
1864.000000	97.677362 
1863.000000	97.679086 
1862.000000	97.680834 
1861.000000	97.682612 
1860.000000	97.684413 
1859.000000	97.686231 
1858.000000	97.688073 
1857.000000	97.689952 
1856.000000	97.691873 
1855.000000	97.693836 
1854.000000	97.695829 
1853.000000	97.697826 
1852.000000	97.699809 
1851.000000	97.701778 
1850.000000	97.703750 
1849.000000	97.705736 
1848.000000	97.707728 
1847.000000	97.709701 
1846.000000	97.711614 
1845.000000	97.713419 
1844.000000	97.715088 
1843.000000	97.716635 
1842.000000	97.718106 
1841.000000	97.719546 
1840.000000	97.720973 
1839.000000	97.722375 
1838.000000	97.723720 
1837.000000	97.724975 
1836.000000	97.726135 
1835.000000	97.727226 
1834.000000	97.728283 
1833.000000	97.729313 
1832.000000	97.730297 
1831.000000	97.731219 
1830.000000	97.732082 
1829.000000	97.732905 
1828.000000	97.733696 
1827.000000	97.734442 
1826.000000	97.735111 
1825.000000	97.735673 
1824.000000	97.736113 
1823.000000	97.736431 
1822.000000	97.736649 
1821.000000	97.736802 
1820.000000	97.736927 
1819.000000	97.737049 
1818.000000	97.737181 
1817.000000	97.737317 
1816.000000	97.737441 
1815.000000	97.737538 
1814.000000	97.737604 
1813.000000	97.737639 
1812.000000	97.737638 
1811.000000	97.737600 
1810.000000	97.737534 
1809.000000	97.737458 
1808.000000	97.737385 
1807.000000	97.737323 
1806.000000	97.737275 
1805.000000	97.737236 
1804.000000	97.737195 
1803.000000	97.737166 
1802.000000	97.737186 
1801.000000	97.737292 
1800.000000	97.737486 
1799.000000	97.737723 
1798.000000	97.737946 
1797.000000	97.738124 
1796.000000	97.738273 
1795.000000	97.738451 
1794.000000	97.738720 
1793.000000	97.739116 
1792.000000	97.739631 
1791.000000	97.740232 
1790.000000	97.740885 
1789.000000	97.741573 
1788.000000	97.742292 
1787.000000	97.743042 
1786.000000	97.743829 
1785.000000	97.744661 
1784.000000	97.745547 
1783.000000	97.746502 
1782.000000	97.747546 
1781.000000	97.748695 
1780.000000	97.749948 
1779.000000	97.751280 
1778.000000	97.752650 
1777.000000	97.754006 
1776.000000	97.755310 
1775.000000	97.756545 
1774.000000	97.757703 
1773.000000	97.758793 
1772.000000	97.759870 
1771.000000	97.760988 
1770.000000	97.762164 
1769.000000	97.763384 
1768.000000	97.764626 
1767.000000	97.765891 
1766.000000	97.767199 
1765.000000	97.768559 
1764.000000	97.769879 
1763.000000	97.770981 
1762.000000	97.771813 
1761.000000	97.772642 
1760.000000	97.773651 
1759.000000	97.774762 
1758.000000	97.775742 
1757.000000	97.776460 
1756.000000	97.777380 
1755.000000	97.778780 
1754.000000	97.780337 
1753.000000	97.781504 
1752.000000	97.782289 
1751.000000	97.783223 
1750.000000	97.784546 
1749.000000	97.785653 
1748.000000	97.785993 
1747.000000	97.785844 
1746.000000	97.785664 
1745.000000	97.786069 
1744.000000	97.787275 
1743.000000	97.788625 
1742.000000	97.789444 
1741.000000	97.789813 
1740.000000	97.789816 
1739.000000	97.789248 
1738.000000	97.788103 
1737.000000	97.787040 
1736.000000	97.786240 
1735.000000	97.785483 
1734.000000	97.785931 
1733.000000	97.786937 
1732.000000	97.787250 
1731.000000	97.787724 
1730.000000	97.788676 
1729.000000	97.789263 
1728.000000	97.789069 
1727.000000	97.788491 
1726.000000	97.787811 
1725.000000	97.787297 
1724.000000	97.786952 
1723.000000	97.786755 
1722.000000	97.787016 
1721.000000	97.787581 
1720.000000	97.787613 
1719.000000	97.786400 
1718.000000	97.784949 
1717.000000	97.784530 
1716.000000	97.784114 
1715.000000	97.782953 
1714.000000	97.781753 
1713.000000	97.780846 
1712.000000	97.779800 
1711.000000	97.778562 
1710.000000	97.777494 
1709.000000	97.776497 
1708.000000	97.775228 
1707.000000	97.773798 
1706.000000	97.772966 
1705.000000	97.772660 
1704.000000	97.771430 
1703.000000	97.768985 
1702.000000	97.765717 
1701.000000	97.762431 
1700.000000	97.760410 
1699.000000	97.758487 
1698.000000	97.756466 
1697.000000	97.754640 
1696.000000	97.752263 
1695.000000	97.749508 
1694.000000	97.747094 
1693.000000	97.745325 
1692.000000	97.743670 
1691.000000	97.741457 
1690.000000	97.738744 
1689.000000	97.735895 
1688.000000	97.733344 
1687.000000	97.731066 
1686.000000	97.728585 
1685.000000	97.726064 
1684.000000	97.724317 
1683.000000	97.722765 
1682.000000	97.720711 
1681.000000	97.718364 
1680.000000	97.716007 
1679.000000	97.713736 
1678.000000	97.711437 
1677.000000	97.708998 
1676.000000	97.706542 
1675.000000	97.704313 
1674.000000	97.702174 
1673.000000	97.700024 
1672.000000	97.697922 
1671.000000	97.695865 
1670.000000	97.693837 
1669.000000	97.691840 
1668.000000	97.689933 
1667.000000	97.688154 
1666.000000	97.686460 
1665.000000	97.684809 
1664.000000	97.683187 
1663.000000	97.681600 
1662.000000	97.680052 
1661.000000	97.678544 
1660.000000	97.677086 
1659.000000	97.675676 
1658.000000	97.674296 
1657.000000	97.672928 
1656.000000	97.671571 
1655.000000	97.670229 
1654.000000	97.668910 
1653.000000	97.667639 
1652.000000	97.666405 
1651.000000	97.665204 
1650.000000	97.664069 
1649.000000	97.663029 
1648.000000	97.662096 
1647.000000	97.661258 
1646.000000	97.660486 
1645.000000	97.659749 
1644.000000	97.659046 
1643.000000	97.658404 
1642.000000	97.657846 
1641.000000	97.657382 
1640.000000	97.657037 
1639.000000	97.656824 
1638.000000	97.656720 
1637.000000	97.656693 
1636.000000	97.656784 
1635.000000	97.657040 
1634.000000	97.657349 
1633.000000	97.657633 
1632.000000	97.657917 
1631.000000	97.658272 
1630.000000	97.658764 
1629.000000	97.659437 
1628.000000	97.660357 
1627.000000	97.661577 
1626.000000	97.662922 
1625.000000	97.664111 
1624.000000	97.665136 
1623.000000	97.666357 
1622.000000	97.667780 
1621.000000	97.669003 
1620.000000	97.670184 
1619.000000	97.671736 
1618.000000	97.673618 
1617.000000	97.675473 
1616.000000	97.677026 
1615.000000	97.678241 
1614.000000	97.679539 
1613.000000	97.681217 
1612.000000	97.683396 
1611.000000	97.686583 
1610.000000	97.690375 
1609.000000	97.693488 
1608.000000	97.695986 
1607.000000	97.699343 
1606.000000	97.703499 
1605.000000	97.707260 
1604.000000	97.711084 
1603.000000	97.715349 
1602.000000	97.718618 
1601.000000	97.719927 
1600.000000	97.720870 
1599.000000	97.723564 
1598.000000	97.727892 
1597.000000	97.732367 
1596.000000	97.736136 
1595.000000	97.739205 
1594.000000	97.741570 
1593.000000	97.743427 
1592.000000	97.745840 
1591.000000	97.749847 
1590.000000	97.754688 
1589.000000	97.758181 
1588.000000	97.759277 
1587.000000	97.758916 
1586.000000	97.758935 
1585.000000	97.760203 
1584.000000	97.763744 
1583.000000	97.769498 
1582.000000	97.774263 
1581.000000	97.775466 
1580.000000	97.775441 
1579.000000	97.777706 
1578.000000	97.781011 
1577.000000	97.782835 
1576.000000	97.784953 
1575.000000	97.787704 
1574.000000	97.787889 
1573.000000	97.786077 
1572.000000	97.785251 
1571.000000	97.787155 
1570.000000	97.791769 
1569.000000	97.794272 
1568.000000	97.792465 
1567.000000	97.788350 
1566.000000	97.782606 
1565.000000	97.775140 
1564.000000	97.770631 
1563.000000	97.771882 
1562.000000	97.776100 
1561.000000	97.773495 
1560.000000	97.763543 
1559.000000	97.765915 
1558.000000	97.770864 
1557.000000	97.762074 
1556.000000	97.754326 
1555.000000	97.756026 
1554.000000	97.760910 
1553.000000	97.762766 
1552.000000	97.761484 
1551.000000	97.756801 
1550.000000	97.748379 
1549.000000	97.737614 
1548.000000	97.727625 
1547.000000	97.720395 
1546.000000	97.713184 
1545.000000	97.703446 
1544.000000	97.694522 
1543.000000	97.689032 
1542.000000	97.685627 
1541.000000	97.680963 
1540.000000	97.673100 
1539.000000	97.659423 
1538.000000	97.639236 
1537.000000	97.618591 
1536.000000	97.601808 
1535.000000	97.589943 
1534.000000	97.583019 
1533.000000	97.579155 
1532.000000	97.572292 
1531.000000	97.560418 
1530.000000	97.546968 
1529.000000	97.532721 
1528.000000	97.516187 
1527.000000	97.499036 
1526.000000	97.484772 
1525.000000	97.474321 
1524.000000	97.465704 
1523.000000	97.455268 
1522.000000	97.441053 
1521.000000	97.424277 
1520.000000	97.406733 
1519.000000	97.390280 
1518.000000	97.374629 
1517.000000	97.358364 
1516.000000	97.341872 
1515.000000	97.327120 
1514.000000	97.314586 
1513.000000	97.302690 
1512.000000	97.288842 
1511.000000	97.272286 
1510.000000	97.254379 
1509.000000	97.236227 
1508.000000	97.218140 
1507.000000	97.202891 
1506.000000	97.191335 
1505.000000	97.178808 
1504.000000	97.163871 
1503.000000	97.147848 
1502.000000	97.131394 
1501.000000	97.115174 
1500.000000	97.099891 
1499.000000	97.085298 
1498.000000	97.070382 
1497.000000	97.054967 
1496.000000	97.039355 
1495.000000	97.024419 
1494.000000	97.011566 
1493.000000	97.001439 
1492.000000	96.992584 
1491.000000	96.982174 
1490.000000	96.968465 
1489.000000	96.951629 
1488.000000	96.932754 
1487.000000	96.914725 
1486.000000	96.901018 
1485.000000	96.889694 
1484.000000	96.877017 
1483.000000	96.862022 
1482.000000	96.846310 
1481.000000	96.831765 
1480.000000	96.817916 
1479.000000	96.804167 
1478.000000	96.791130 
1477.000000	96.779732 
1476.000000	96.768490 
1475.000000	96.756570 
1474.000000	96.744610 
1473.000000	96.734160 
1472.000000	96.724757 
1471.000000	96.712596 
1470.000000	96.697585 
1469.000000	96.682234 
1468.000000	96.666663 
1467.000000	96.651687 
1466.000000	96.640201 
1465.000000	96.633049 
1464.000000	96.626511 
1463.000000	96.614827 
1462.000000	96.600822 
1461.000000	96.592497 
1460.000000	96.593543 
1459.000000	96.596139 
1458.000000	96.584211 
1457.000000	96.555085 
1456.000000	96.523941 
1455.000000	96.503274 
1454.000000	96.493023 
1453.000000	96.488207 
1452.000000	96.485864 
1451.000000	96.486190 
1450.000000	96.490943 
1449.000000	96.502029 
1448.000000	96.516035 
1447.000000	96.526918 
1446.000000	96.528603 
1445.000000	96.521574 
1444.000000	96.512448 
1443.000000	96.503531 
1442.000000	96.495211 
1441.000000	96.489489 
1440.000000	96.489338 
1439.000000	96.492313 
1438.000000	96.494125 
1437.000000	96.496898 
1436.000000	96.502421 
1435.000000	96.503901 
1434.000000	96.501594 
1433.000000	96.503302 
1432.000000	96.511805 
1431.000000	96.522719 
1430.000000	96.529006 
1429.000000	96.528487 
1428.000000	96.522201 
1427.000000	96.515958 
1426.000000	96.514811 
1425.000000	96.520271 
1424.000000	96.530583 
1423.000000	96.536025 
1422.000000	96.530957 
1421.000000	96.519880 
1420.000000	96.509633 
1419.000000	96.498699 
1418.000000	96.479805 
1417.000000	96.456638 
1416.000000	96.439583 
1415.000000	96.430721 
1414.000000	96.425034 
1413.000000	96.419773 
1412.000000	96.416031 
1411.000000	96.412324 
1410.000000	96.406305 
1409.000000	96.401515 
1408.000000	96.402030 
1407.000000	96.408453 
1406.000000	96.418728 
1405.000000	96.433642 
1404.000000	96.457373 
1403.000000	96.487814 
1402.000000	96.520024 
1401.000000	96.553686 
1400.000000	96.590371 
1399.000000	96.624003 
1398.000000	96.640588 
1397.000000	96.632501 
1396.000000	96.606717 
1395.000000	96.584713 
1394.000000	96.588113 
1393.000000	96.621835 
1392.000000	96.674763 
1391.000000	96.730179 
1390.000000	96.775497 
1389.000000	96.805787 
1388.000000	96.821322 
1387.000000	96.825817 
1386.000000	96.826398 
1385.000000	96.831253 
1384.000000	96.845009 
1383.000000	96.865188 
1382.000000	96.886839 
1381.000000	96.907955 
1380.000000	96.929163 
1379.000000	96.951575 
1378.000000	96.975949 
1377.000000	97.002960 
1376.000000	97.031847 
1375.000000	97.059865 
1374.000000	97.084434 
1373.000000	97.107891 
1372.000000	97.135467 
1371.000000	97.169243 
1370.000000	97.204993 
1369.000000	97.236840 
1368.000000	97.263960 
1367.000000	97.288219 
1366.000000	97.310149 
1365.000000	97.328999 
1364.000000	97.344415 
1363.000000	97.357975 
1362.000000	97.373464 
1361.000000	97.394858 
1360.000000	97.423660 
1359.000000	97.457462 
1358.000000	97.490432 
1357.000000	97.517289 
1356.000000	97.536957 
1355.000000	97.551791 
1354.000000	97.564904 
1353.000000	97.579500 
1352.000000	97.595815 
1351.000000	97.612480 
1350.000000	97.627393 
1349.000000	97.639277 
1348.000000	97.650548 
1347.000000	97.664683 
1346.000000	97.682309 
1345.000000	97.699613 
1344.000000	97.711332 
1343.000000	97.715151 
1342.000000	97.713779 
1341.000000	97.712809 
1340.000000	97.715860 
1339.000000	97.721071 
1338.000000	97.724162 
1337.000000	97.725309 
1336.000000	97.729210 
1335.000000	97.738765 
1334.000000	97.751963 
1333.000000	97.764493 
1332.000000	97.772641 
1331.000000	97.774132 
1330.000000	97.768754 
1329.000000	97.760474 
1328.000000	97.756694 
1327.000000	97.763290 
1326.000000	97.778557 
1325.000000	97.793855 
1324.000000	97.801216 
1323.000000	97.798719 
1322.000000	97.790778 
1321.000000	97.784378 
1320.000000	97.783727 
1319.000000	97.786958 
1318.000000	97.788624 
1317.000000	97.785707 
1316.000000	97.780004 
1315.000000	97.775092 
1314.000000	97.773186 
1313.000000	97.775093 
1312.000000	97.780368 
1311.000000	97.786453 
1310.000000	97.789385 
1309.000000	97.787604 
1308.000000	97.784126 
1307.000000	97.784291 
1306.000000	97.790140 
1305.000000	97.797897 
1304.000000	97.801588 
1303.000000	97.798405 
1302.000000	97.791129 
1301.000000	97.785031 
1300.000000	97.782723 
1299.000000	97.782677 
1298.000000	97.783014 
1297.000000	97.784643 
1296.000000	97.789293 
1295.000000	97.795901 
1294.000000	97.800984 
1293.000000	97.802159 
1292.000000	97.799135 
1291.000000	97.792294 
1290.000000	97.783244 
1289.000000	97.776484 
1288.000000	97.777109 
1287.000000	97.785285 
1286.000000	97.794907 
1285.000000	97.798913 
1284.000000	97.794650 
1283.000000	97.784092 
1282.000000	97.771006 
1281.000000	97.758935 
1280.000000	97.750667 
1279.000000	97.747409 
1278.000000	97.748365 
1277.000000	97.751541 
1276.000000	97.754627 
1275.000000	97.755433 
1274.000000	97.752626 
1273.000000	97.746726 
1272.000000	97.739527 
1271.000000	97.731852 
1270.000000	97.722390 
1269.000000	97.709267 
1268.000000	97.692437 
1267.000000	97.674186 
1266.000000	97.657975 
1265.000000	97.647129 
1264.000000	97.643132 
1263.000000	97.643491 
1262.000000	97.641608 
1261.000000	97.630605 
1260.000000	97.609227 
1259.000000	97.584260 
1258.000000	97.565911 
1257.000000	97.559225 
1256.000000	97.559088 
1255.000000	97.554012 
1254.000000	97.536237 
1253.000000	97.508665 
1252.000000	97.482115 
1251.000000	97.466967 
1250.000000	97.467611 
1249.000000	97.482196 
1248.000000	97.504050 
1247.000000	97.522540 
1246.000000	97.525938 
1245.000000	97.507457 
1244.000000	97.470744 
1243.000000	97.430680 
1242.000000	97.406631 
1241.000000	97.409919 
1240.000000	97.434771 
1239.000000	97.462423 
1238.000000	97.476791 
1237.000000	97.475422 
1236.000000	97.464336 
1235.000000	97.446814 
1234.000000	97.422060 
1233.000000	97.391940 
1232.000000	97.362109 
1231.000000	97.335892 
1230.000000	97.312582 
1229.000000	97.292698 
1228.000000	97.279047 
1227.000000	97.270029 
1226.000000	97.256747 
1225.000000	97.230739 
1224.000000	97.192139 
1223.000000	97.147774 
1222.000000	97.103807 
1221.000000	97.062717 
1220.000000	97.025056 
1219.000000	96.990148 
1218.000000	96.955017 
1217.000000	96.915051 
1216.000000	96.866186 
1215.000000	96.806413 
1214.000000	96.736851 
1213.000000	96.662443 
1212.000000	96.589679 
1211.000000	96.521525 
1210.000000	96.454991 
1209.000000	96.384857 
1208.000000	96.309398 
1207.000000	96.231661 
1206.000000	96.155725 
1205.000000	96.082344 
1204.000000	96.008198 
1203.000000	95.929515 
1202.000000	95.846630 
1201.000000	95.764112 
1200.000000	95.685567 
1199.000000	95.609523 
1198.000000	95.531967 
1197.000000	95.451623 
1196.000000	95.370298 
1195.000000	95.289615 
1194.000000	95.210366 
1193.000000	95.133426 
1192.000000	95.057174 
1191.000000	94.974902 
1190.000000	94.880102 
1189.000000	94.775022 
1188.000000	94.669382 
1187.000000	94.569603 
1186.000000	94.473564 
1185.000000	94.376433 
1184.000000	94.275792 
1183.000000	94.169781 
1182.000000	94.057208 
1181.000000	93.942703 
1180.000000	93.835066 
1179.000000	93.735378 
1178.000000	93.631799 
1177.000000	93.511567 
1176.000000	93.373859 
1175.000000	93.226303 
1174.000000	93.074195 
1173.000000	92.919914 
1172.000000	92.768887 
1171.000000	92.627254 
1170.000000	92.494398 
1169.000000	92.364645 
1168.000000	92.236320 
1167.000000	92.114325 
1166.000000	92.005685 
1165.000000	91.918452 
1164.000000	91.862935 
1163.000000	91.846500 
1162.000000	91.866185 
1161.000000	91.909839 
1160.000000	91.962442 
1159.000000	92.007913 
1158.000000	92.030065 
1157.000000	92.019218 
1156.000000	91.975994 
1155.000000	91.904673 
1154.000000	91.807289 
1153.000000	91.689400 
1152.000000	91.565939 
1151.000000	91.452348 
1150.000000	91.351610 
1149.000000	91.257103 
1148.000000	91.165078 
1147.000000	91.075844 
1146.000000	90.985487 
1145.000000	90.886435 
1144.000000	90.776509 
1143.000000	90.660140 
1142.000000	90.541120 
1141.000000	90.420758 
1140.000000	90.301875 
1139.000000	90.187585 
1138.000000	90.077567 
1137.000000	89.971883 
1136.000000	89.875269 
1135.000000	89.789797 
1134.000000	89.706670 
1133.000000	89.614369 
1132.000000	89.511511 
1131.000000	89.402306 
1130.000000	89.283974 
1129.000000	89.151153 
1128.000000	89.010693 
1127.000000	88.878907 
1126.000000	88.763249 
1125.000000	88.657820 
1124.000000	88.556534 
1123.000000	88.457729 
1122.000000	88.354655 
1121.000000	88.235662 
1120.000000	88.099602 
1119.000000	87.961246 
1118.000000	87.835861 
1117.000000	87.724949 
1116.000000	87.619678 
1115.000000	87.510880 
1114.000000	87.394167 
1113.000000	87.272870 
1112.000000	87.157772 
1111.000000	87.056923 
1110.000000	86.964771 
1109.000000	86.867975 
1108.000000	86.760278 
1107.000000	86.644601 
1106.000000	86.524467 
1105.000000	86.403889 
1104.000000	86.292582 
1103.000000	86.197878 
1102.000000	86.111727 
1101.000000	86.018898 
1100.000000	85.917846 
1099.000000	85.821285 
1098.000000	85.736561 
1097.000000	85.657891 
1096.000000	85.578103 
1095.000000	85.494105 
1094.000000	85.400218 
1093.000000	85.290866 
1092.000000	85.173148 
1091.000000	85.063885 
1090.000000	84.970561 
1089.000000	84.885914 
1088.000000	84.802429 
1087.000000	84.719802 
1086.000000	84.636768 
1085.000000	84.548645 
1084.000000	84.455307 
1083.000000	84.360399 
1082.000000	84.262984 
1081.000000	84.163322 
1080.000000	84.076123 
1079.000000	84.021276 
1078.000000	83.998115 
1077.000000	83.983605 
1076.000000	83.958502 
1075.000000	83.920380 
1074.000000	83.870419 
1073.000000	83.804994 
1072.000000	83.723066 
1071.000000	83.623708 
1070.000000	83.492064 
1069.000000	83.307757 
1068.000000	83.076466 
1067.000000	82.838980 
1066.000000	82.637754 
1065.000000	82.483219 
1064.000000	82.358510 
1063.000000	82.240497 
1062.000000	82.106753 
1061.000000	81.938329 
1060.000000	81.732374 
1059.000000	81.508575 
1058.000000	81.294540 
1057.000000	81.106432 
1056.000000	80.944251 
1055.000000	80.796463 
1054.000000	80.646969 
1053.000000	80.488540 
1052.000000	80.332772 
1051.000000	80.196230 
1050.000000	80.075765 
1049.000000	79.951864 
1048.000000	79.816593 
1047.000000	79.680483 
1046.000000	79.550961 
1045.000000	79.422439 
1044.000000	79.290499 
1043.000000	79.160107 
1042.000000	79.035148 
1041.000000	78.911192 
1040.000000	78.782662 
1039.000000	78.650060 
1038.000000	78.521287 
1037.000000	78.413620 
1036.000000	78.347988 
1035.000000	78.327633 
1034.000000	78.326322 
1033.000000	78.310973 
1032.000000	78.270852 
1031.000000	78.211786 
1030.000000	78.135441 
1029.000000	78.047651 
1028.000000	77.977105 
1027.000000	77.955371 
1026.000000	77.977528 
1025.000000	78.006787 
1024.000000	78.019521 
1023.000000	78.021823 
1022.000000	78.021306 
1021.000000	78.011278 
1020.000000	77.989378 
1019.000000	77.967186 
1018.000000	77.951569 
1017.000000	77.934982 
1016.000000	77.911087 
1015.000000	77.883260 
1014.000000	77.853875 
1013.000000	77.823187 
1012.000000	77.801906 
1011.000000	77.805134 
1010.000000	77.828679 
1009.000000	77.849380 
1008.000000	77.854190 
1007.000000	77.853453 
1006.000000	77.863184 
1005.000000	77.890673 
1004.000000	77.938047 
1003.000000	78.001013 
1002.000000	78.062152 
1001.000000	78.104731 
1000.000000	78.135948 
999.000000	 78.178471 
998.000000	 78.237992 
997.000000	 78.298338 
996.000000	 78.349709 
995.000000	 78.401335 
994.000000	 78.463551 
993.000000	 78.537500 
992.000000	 78.624766 
991.000000	 78.725885 
990.000000	 78.825890 
989.000000	 78.903868 
988.000000	 78.963867 
987.000000	 79.035715 
986.000000	 79.138200 
985.000000	 79.260576 
984.000000	 79.385844 
983.000000	 79.513110 
982.000000	 79.649273 
981.000000	 79.796306 
980.000000	 79.955620 
979.000000	 80.130029 
978.000000	 80.313238 
977.000000	 80.490255 
976.000000	 80.654400 
975.000000	 80.813092 
974.000000	 80.975364 
973.000000	 81.147202 
972.000000	 81.338975 
971.000000	 81.559126 
970.000000	 81.795970 
969.000000	 82.022385 
968.000000	 82.225172 
967.000000	 82.416834 
966.000000	 82.614573 
965.000000	 82.821193 
964.000000	 83.030285 
963.000000	 83.236083 
962.000000	 83.433214 
961.000000	 83.618998 
960.000000	 83.800568 
959.000000	 83.989361 
958.000000	 84.185842 
957.000000	 84.379565 
956.000000	 84.564551 
955.000000	 84.743015 
954.000000	 84.914520 
953.000000	 85.075098 
952.000000	 85.227991 
951.000000	 85.381795 
950.000000	 85.536638 
949.000000	 85.685247 
948.000000	 85.828085 
947.000000	 85.972576 
946.000000	 86.115849 
945.000000	 86.244207 
944.000000	 86.353543 
943.000000	 86.456043 
942.000000	 86.561598 
941.000000	 86.665568 
940.000000	 86.761990 
939.000000	 86.857683 
938.000000	 86.965820 
937.000000	 87.092406 
936.000000	 87.232810 
935.000000	 87.374452 
934.000000	 87.501690 
933.000000	 87.607594 
932.000000	 87.703609 
931.000000	 87.809924 
930.000000	 87.934525 
929.000000	 88.068660 
928.000000	 88.201544 
927.000000	 88.329014 
926.000000	 88.447850 
925.000000	 88.553602 
924.000000	 88.646982 
923.000000	 88.733895 
922.000000	 88.817444 
921.000000	 88.897119 
920.000000	 88.975548 
919.000000	 89.057484 
918.000000	 89.142087 
917.000000	 89.223995 
916.000000	 89.301446 
915.000000	 89.376289 
914.000000	 89.448879 
913.000000	 89.521690 
912.000000	 89.604591 
911.000000	 89.706155 
910.000000	 89.822141 
909.000000	 89.943196 
908.000000	 90.070803 
907.000000	 90.213133 
906.000000	 90.368061 
905.000000	 90.524087 
904.000000	 90.677287 
903.000000	 90.834595 
902.000000	 91.000625 
901.000000	 91.173042 
900.000000	 91.350054 
899.000000	 91.530759 
898.000000	 91.708846 
897.000000	 91.876586 
896.000000	 92.033290 
895.000000	 92.180081 
894.000000	 92.311062 
893.000000	 92.422644 
892.000000	 92.527899 
891.000000	 92.646636 
890.000000	 92.780961 
889.000000	 92.913189 
888.000000	 93.026024 
887.000000	 93.111500 
886.000000	 93.164674 
885.000000	 93.187044 
884.000000	 93.196699 
883.000000	 93.216555 
882.000000	 93.248673 
881.000000	 93.278234 
880.000000	 93.307113 
879.000000	 93.362710 
878.000000	 93.462980 
877.000000	 93.589671 
876.000000	 93.707985 
875.000000	 93.801294 
874.000000	 93.878381 
873.000000	 93.960552 
872.000000	 94.071712 
871.000000	 94.227559 
870.000000	 94.420716 
869.000000	 94.622226 
868.000000	 94.805536 
867.000000	 94.964020 
866.000000	 95.104097 
865.000000	 95.234003 
864.000000	 95.365358 
863.000000	 95.513110 
862.000000	 95.681450 
861.000000	 95.854219 
860.000000	 96.007985 
859.000000	 96.133227 
858.000000	 96.239810 
857.000000	 96.346015 
856.000000	 96.465085 
855.000000	 96.596627 
854.000000	 96.725589 
853.000000	 96.832446 
852.000000	 96.908058 
851.000000	 96.958640 
850.000000	 96.998303 
849.000000	 97.041529 
848.000000	 97.100898 
847.000000	 97.181849 
846.000000	 97.275598 
845.000000	 97.363620 
844.000000	 97.432470 
843.000000	 97.480783 
842.000000	 97.512868 
841.000000	 97.531682 
840.000000	 97.538287 
839.000000	 97.532334 
838.000000	 97.513706 
837.000000	 97.489972 
836.000000	 97.479553 
835.000000	 97.496862 
834.000000	 97.533192 
833.000000	 97.562573 
832.000000	 97.569276 
831.000000	 97.561387 
830.000000	 97.556558 
829.000000	 97.565188 
828.000000	 97.590798 
827.000000	 97.633920 
826.000000	 97.686783 
825.000000	 97.733534 
824.000000	 97.765092 
823.000000	 97.787794 
822.000000	 97.811540 
821.000000	 97.836550 
820.000000	 97.855963 
819.000000	 97.862407 
818.000000	 97.846299 
817.000000	 97.794273 
816.000000	 97.696183 
815.000000	 97.554310 
814.000000	 97.385412 
813.000000	 97.212483 
812.000000	 97.046648 
811.000000	 96.867530 
810.000000	 96.624623 
809.000000	 96.271845 
808.000000	 95.805658 
807.000000	 95.263779 
806.000000	 94.686782 
805.000000	 94.092032 
804.000000	 93.488501 
803.000000	 92.900540 
802.000000	 92.363922 
801.000000	 91.907245 
800.000000	 91.546892 
799.000000	 91.290441 
798.000000	 91.134626 
797.000000	 91.066850 
796.000000	 91.074858 
795.000000	 91.147903 
794.000000	 91.266695 
793.000000	 91.402829 
792.000000	 91.531025 
791.000000	 91.634623 
790.000000	 91.702095 
789.000000	 91.729461 
788.000000	 91.722556 
787.000000	 91.682789 
786.000000	 91.593072 
785.000000	 91.434018 
784.000000	 91.214344 
783.000000	 90.969920 
782.000000	 90.732650 
781.000000	 90.517639 
780.000000	 90.341451 
779.000000	 90.229799 
778.000000	 90.198217 
777.000000	 90.242315 
776.000000	 90.353743 
775.000000	 90.527854 
774.000000	 90.748328 
773.000000	 90.982769 
772.000000	 91.204306 
771.000000	 91.405730 
770.000000	 91.587910 
769.000000	 91.749793 
768.000000	 91.895816 
767.000000	 92.036522 
766.000000	 92.172175 
765.000000	 92.289176 
764.000000	 92.381991 
763.000000	 92.466604 
762.000000	 92.563013 
761.000000	 92.674710 
760.000000	 92.793571 
759.000000	 92.914166 
758.000000	 93.034308 
757.000000	 93.151818 
756.000000	 93.271652 
755.000000	 93.408604 
754.000000	 93.569962 
753.000000	 93.736532 
752.000000	 93.869963 
751.000000	 93.943718 
750.000000	 93.968973 
749.000000	 93.990677 
748.000000	 94.053210 
747.000000	 94.163535 
746.000000	 94.288829 
745.000000	 94.393819 
744.000000	 94.475429 
743.000000	 94.555422 
742.000000	 94.648875 
741.000000	 94.753020 
740.000000	 94.861098 
739.000000	 94.971008 
738.000000	 95.080480 
737.000000	 95.186056 
736.000000	 95.287480 
735.000000	 95.383840 
734.000000	 95.468096 
733.000000	 95.535221 
732.000000	 95.591369 
731.000000	 95.643481 
730.000000	 95.685727 
729.000000	 95.711780 
728.000000	 95.731764 
727.000000	 95.761770 
726.000000	 95.805418 
725.000000	 95.858741 
724.000000	 95.926298 
723.000000	 96.015924 
722.000000	 96.120754 
721.000000	 96.222530 
720.000000	 96.310706 
719.000000	 96.383764 
718.000000	 96.434553 
717.000000	 96.453472 
716.000000	 96.449748 
715.000000	 96.452730 
714.000000	 96.487205 
713.000000	 96.558874 
712.000000	 96.660288 
711.000000	 96.773720 
710.000000	 96.869614 
709.000000	 96.931865 
708.000000	 96.975830 
707.000000	 97.025900 
706.000000	 97.080379 
705.000000	 97.110258 
704.000000	 97.092096 
703.000000	 97.028695 
702.000000	 96.930899 
701.000000	 96.796130 
700.000000	 96.615115 
699.000000	 96.383962 
698.000000	 96.110547 
697.000000	 95.821858 
696.000000	 95.566601 
695.000000	 95.399674 
694.000000	 95.348597 
693.000000	 95.402101 
692.000000	 95.530285 
691.000000	 95.698567 
690.000000	 95.873086 
689.000000	 96.031786 
688.000000	 96.175390 
687.000000	 96.317341 
686.000000	 96.455380 
685.000000	 96.571976 
684.000000	 96.663826 
683.000000	 96.744140 
682.000000	 96.818175 
681.000000	 96.878071 
680.000000	 96.927202 
679.000000	 96.982688 
678.000000	 97.051508 
677.000000	 97.124290 
676.000000	 97.184308 
675.000000	 97.227038 
674.000000	 97.259999 
673.000000	 97.282685 
672.000000	 97.286295 
671.000000	 97.248076 
670.000000	 97.145953 
669.000000	 96.977780 
668.000000	 96.894068 
667.000000	 97.053249 
666.000000	 97.307343 
665.000000	 97.488789 
664.000000	 97.599086 
663.000000	 97.664087 
662.000000	 97.700007 
661.000000	 97.726528 
660.000000	 97.766503 
659.000000	 97.825427 
658.000000	 97.876232 
657.000000	 97.886583 
656.000000	 97.847219 
655.000000	 97.785274 
654.000000	 97.741855 
653.000000	 97.730515 
652.000000	 97.735428 
651.000000	 97.745549 
650.000000	 97.766956 

