4000.000000	97.669267 
3999.000000	97.667137 
3998.000000	97.663255 
3997.000000	97.659105 
3996.000000	97.655948 
3995.000000	97.654357 
3994.000000	97.654498 
3993.000000	97.655844 
3992.000000	97.657167 
3991.000000	97.657510 
3990.000000	97.657058 
3989.000000	97.656725 
3988.000000	97.656989 
3987.000000	97.657614 
3986.000000	97.658403 
3985.000000	97.659517 
3984.000000	97.660795 
3983.000000	97.661556 
3982.000000	97.661506 
3981.000000	97.661191 
3980.000000	97.661103 
3979.000000	97.660771 
3978.000000	97.659529 
3977.000000	97.657863 
3976.000000	97.657080 
3975.000000	97.657582 
3974.000000	97.658269 
3973.000000	97.657913 
3972.000000	97.656402 
3971.000000	97.654414 
3970.000000	97.652751 
3969.000000	97.651984 
3968.000000	97.652310 
3967.000000	97.653365 
3966.000000	97.654394 
3965.000000	97.654716 
3964.000000	97.653968 
3963.000000	97.652215 
3962.000000	97.650068 
3961.000000	97.648584 
3960.000000	97.648353 
3959.000000	97.648789 
3958.000000	97.649065 
3957.000000	97.649000 
3956.000000	97.648715 
3955.000000	97.647809 
3954.000000	97.645715 
3953.000000	97.642642 
3952.000000	97.639561 
3951.000000	97.637475 
3950.000000	97.636663 
3949.000000	97.636587 
3948.000000	97.636441 
3947.000000	97.636009 
3946.000000	97.635601 
3945.000000	97.635257 
3944.000000	97.634639 
3943.000000	97.633909 
3942.000000	97.634057 
3941.000000	97.635952 
3940.000000	97.638947 
3939.000000	97.640846 
3938.000000	97.640472 
3937.000000	97.638728 
3936.000000	97.637064 
3935.000000	97.635515 
3934.000000	97.633376 
3933.000000	97.631338 
3932.000000	97.630728 
3931.000000	97.631364 
3930.000000	97.631653 
3929.000000	97.630910 
3928.000000	97.630336 
3927.000000	97.630666 
3926.000000	97.630762 
3925.000000	97.629682 
3924.000000	97.628443 
3923.000000	97.628158 
3922.000000	97.628027 
3921.000000	97.627054 
3920.000000	97.625989 
3919.000000	97.625943 
3918.000000	97.626623 
3917.000000	97.627037 
3916.000000	97.626992 
3915.000000	97.626858 
3914.000000	97.626660 
3913.000000	97.626171 
3912.000000	97.625527 
3911.000000	97.624897 
3910.000000	97.624376 
3909.000000	97.623939 
3908.000000	97.623517 
3907.000000	97.623102 
3906.000000	97.622698 
3905.000000	97.622319 
3904.000000	97.621988 
3903.000000	97.621722 
3902.000000	97.621525 
3901.000000	97.621380 
3900.000000	97.621258 
3899.000000	97.621129 
3898.000000	97.620983 
3897.000000	97.620820 
3896.000000	97.620645 
3895.000000	97.620447 
3894.000000	97.620209 
3893.000000	97.619933 
3892.000000	97.619634 
3891.000000	97.619322 
3890.000000	97.619016 
3889.000000	97.618738 
3888.000000	97.618487 
3887.000000	97.618245 
3886.000000	97.618008 
3885.000000	97.617793 
3884.000000	97.617619 
3883.000000	97.617479 
3882.000000	97.617345 
3881.000000	97.617209 
3880.000000	97.617088 
3879.000000	97.617006 
3878.000000	97.616962 
3877.000000	97.616924 
3876.000000	97.616866 
3875.000000	97.616788 
3874.000000	97.616720 
3873.000000	97.616692 
3872.000000	97.616706 
3871.000000	97.616746 
3870.000000	97.616811 
3869.000000	97.616935 
3868.000000	97.617147 
3867.000000	97.617420 
3866.000000	97.617706 
3865.000000	97.617991 
3864.000000	97.618297 
3863.000000	97.618615 
3862.000000	97.618909 
3861.000000	97.619160 
3860.000000	97.619389 
3859.000000	97.619617 
3858.000000	97.619854 
3857.000000	97.620111 
3856.000000	97.620421 
3855.000000	97.620820 
3854.000000	97.621300 
3853.000000	97.621835 
3852.000000	97.622455 
3851.000000	97.623212 
3850.000000	97.624086 
3849.000000	97.625015 
3848.000000	97.625954 
3847.000000	97.626884 
3846.000000	97.627808 
3845.000000	97.628734 
3844.000000	97.629667 
3843.000000	97.630600 
3842.000000	97.631528 
3841.000000	97.632459 
3840.000000	97.633407 
3839.000000	97.634369 
3838.000000	97.635326 
3837.000000	97.636262 
3836.000000	97.637187 
3835.000000	97.638117 
3834.000000	97.639062 
3833.000000	97.640018 
3832.000000	97.640975 
3831.000000	97.641928 
3830.000000	97.642875 
3829.000000	97.643817 
3828.000000	97.644747 
3827.000000	97.645652 
3826.000000	97.646518 
3825.000000	97.647353 
3824.000000	97.648178 
3823.000000	97.648995 
3822.000000	97.649786 
3821.000000	97.650543 
3820.000000	97.651305 
3819.000000	97.652115 
3818.000000	97.652953 
3817.000000	97.653756 
3816.000000	97.654502 
3815.000000	97.655216 
3814.000000	97.655927 
3813.000000	97.656612 
3812.000000	97.657230 
3811.000000	97.657786 
3810.000000	97.658304 
3809.000000	97.658773 
3808.000000	97.659153 
3807.000000	97.659442 
3806.000000	97.659689 
3805.000000	97.659953 
3804.000000	97.660244 
3803.000000	97.660527 
3802.000000	97.660780 
3801.000000	97.661014 
3800.000000	97.661263 
3799.000000	97.661524 
3798.000000	97.661753 
3797.000000	97.661920 
3796.000000	97.662040 
3795.000000	97.662133 
3794.000000	97.662202 
3793.000000	97.662235 
3792.000000	97.662220 
3791.000000	97.662150 
3790.000000	97.662025 
3789.000000	97.661849 
3788.000000	97.661631 
3787.000000	97.661376 
3786.000000	97.661078 
3785.000000	97.660732 
3784.000000	97.660363 
3783.000000	97.659991 
3782.000000	97.659601 
3781.000000	97.659164 
3780.000000	97.658673 
3779.000000	97.658140 
3778.000000	97.657572 
3777.000000	97.656952 
3776.000000	97.656272 
3775.000000	97.655553 
3774.000000	97.654825 
3773.000000	97.654091 
3772.000000	97.653333 
3771.000000	97.652539 
3770.000000	97.651723 
3769.000000	97.650908 
3768.000000	97.650100 
3767.000000	97.649286 
3766.000000	97.648465 
3765.000000	97.647654 
3764.000000	97.646870 
3763.000000	97.646094 
3762.000000	97.645288 
3761.000000	97.644434 
3760.000000	97.643545 
3759.000000	97.642633 
3758.000000	97.641686 
3757.000000	97.640697 
3756.000000	97.639686 
3755.000000	97.638696 
3754.000000	97.637762 
3753.000000	97.636898 
3752.000000	97.636108 
3751.000000	97.635370 
3750.000000	97.634651 
3749.000000	97.633946 
3748.000000	97.633282 
3747.000000	97.632661 
3746.000000	97.632052 
3745.000000	97.631415 
3744.000000	97.630739 
3743.000000	97.630049 
3742.000000	97.629350 
3741.000000	97.628586 
3740.000000	97.627719 
3739.000000	97.626780 
3738.000000	97.625811 
3737.000000	97.624818 
3736.000000	97.623784 
3735.000000	97.622696 
3734.000000	97.621545 
3733.000000	97.620306 
3732.000000	97.618969 
3731.000000	97.617458 
3730.000000	97.615947 
3729.000000	97.614738 
3728.000000	97.613490 
3727.000000	97.611699 
3726.000000	97.609814 
3725.000000	97.608834 
3724.000000	97.608429 
3723.000000	97.607128 
3722.000000	97.604560 
3721.000000	97.601615 
3720.000000	97.598998 
3719.000000	97.596119 
3718.000000	97.592205 
3717.000000	97.588020 
3716.000000	97.585134 
3715.000000	97.583552 
3714.000000	97.582208 
3713.000000	97.581968 
3712.000000	97.583711 
3711.000000	97.584452 
3710.000000	97.581075 
3709.000000	97.573633 
3708.000000	97.563631 
3707.000000	97.552835 
3706.000000	97.542999 
3705.000000	97.534887 
3704.000000	97.527874 
3703.000000	97.520944 
3702.000000	97.513125 
3701.000000	97.504339 
3700.000000	97.496527 
3699.000000	97.490728 
3698.000000	97.484799 
3697.000000	97.477302 
3696.000000	97.469893 
3695.000000	97.464213 
3694.000000	97.459096 
3693.000000	97.452767 
3692.000000	97.445607 
3691.000000	97.438840 
3690.000000	97.432282 
3689.000000	97.424835 
3688.000000	97.417138 
3687.000000	97.410978 
3686.000000	97.406016 
3685.000000	97.400502 
3684.000000	97.394012 
3683.000000	97.387282 
3682.000000	97.380655 
3681.000000	97.373949 
3680.000000	97.367159 
3679.000000	97.360518 
3678.000000	97.354086 
3677.000000	97.347760 
3676.000000	97.341491 
3675.000000	97.335286 
3674.000000	97.329183 
3673.000000	97.323202 
3672.000000	97.317310 
3671.000000	97.311477 
3670.000000	97.305712 
3669.000000	97.300051 
3668.000000	97.294533 
3667.000000	97.289162 
3666.000000	97.283914 
3665.000000	97.278766 
3664.000000	97.273702 
3663.000000	97.268718 
3662.000000	97.263745 
3661.000000	97.258625 
3660.000000	97.253326 
3659.000000	97.248152 
3658.000000	97.243374 
3657.000000	97.238559 
3656.000000	97.232780 
3655.000000	97.226861 
3654.000000	97.222526 
3653.000000	97.218237 
3652.000000	97.211386 
3651.000000	97.204275 
3650.000000	97.201027 
3649.000000	97.199961 
3648.000000	97.196522 
3647.000000	97.191751 
3646.000000	97.190496 
3645.000000	97.193810 
3644.000000	97.198146 
3643.000000	97.200174 
3642.000000	97.200515 
3641.000000	97.201438 
3640.000000	97.202722 
3639.000000	97.201574 
3638.000000	97.197335 
3637.000000	97.193577 
3636.000000	97.191462 
3635.000000	97.186084 
3634.000000	97.173721 
3633.000000	97.159331 
3632.000000	97.150276 
3631.000000	97.147182 
3630.000000	97.147247 
3629.000000	97.143322 
3628.000000	97.133843 
3627.000000	97.133623 
3626.000000	97.143336 
3625.000000	97.146230 
3624.000000	97.139409 
3623.000000	97.131791 
3622.000000	97.126665 
3621.000000	97.120192 
3620.000000	97.111161 
3619.000000	97.103125 
3618.000000	97.100976 
3617.000000	97.108298 
3616.000000	97.122052 
3615.000000	97.135099 
3614.000000	97.144405 
3613.000000	97.151983 
3612.000000	97.160603 
3611.000000	97.169805 
3610.000000	97.176414 
3609.000000	97.179346 
3608.000000	97.180951 
3607.000000	97.183508 
3606.000000	97.186736 
3605.000000	97.189013 
3604.000000	97.191222 
3603.000000	97.196407 
3602.000000	97.203847 
3601.000000	97.208246 
3600.000000	97.206742 
3599.000000	97.201859 
3598.000000	97.197275 
3597.000000	97.196330 
3596.000000	97.200404 
3595.000000	97.207038 
3594.000000	97.211198 
3593.000000	97.210150 
3592.000000	97.204545 
3591.000000	97.195955 
3590.000000	97.186634 
3589.000000	97.180630 
3588.000000	97.180951 
3587.000000	97.186381 
3586.000000	97.194577 
3585.000000	97.203307 
3584.000000	97.209501 
3583.000000	97.212406 
3582.000000	97.214187 
3581.000000	97.216523 
3580.000000	97.218789 
3579.000000	97.219779 
3578.000000	97.219160 
3577.000000	97.217887 
3576.000000	97.217231 
3575.000000	97.217123 
3574.000000	97.216100 
3573.000000	97.212428 
3572.000000	97.205533 
3571.000000	97.196356 
3570.000000	97.187032 
3569.000000	97.180343 
3568.000000	97.178756 
3567.000000	97.182261 
3566.000000	97.188460 
3565.000000	97.194827 
3564.000000	97.198922 
3563.000000	97.199669 
3562.000000	97.198677 
3561.000000	97.198286 
3560.000000	97.199006 
3559.000000	97.199616 
3558.000000	97.198957 
3557.000000	97.197069 
3556.000000	97.195210 
3555.000000	97.194538 
3554.000000	97.194884 
3553.000000	97.194923 
3552.000000	97.193600 
3551.000000	97.191035 
3550.000000	97.187817 
3549.000000	97.184426 
3548.000000	97.182073 
3547.000000	97.182288 
3546.000000	97.184747 
3545.000000	97.187293 
3544.000000	97.188585 
3543.000000	97.189124 
3542.000000	97.189746 
3541.000000	97.190435 
3540.000000	97.190872 
3539.000000	97.190970 
3538.000000	97.190777 
3537.000000	97.190413 
3536.000000	97.190088 
3535.000000	97.189943 
3534.000000	97.189679 
3533.000000	97.188977 
3532.000000	97.188132 
3531.000000	97.187880 
3530.000000	97.188271 
3529.000000	97.188336 
3528.000000	97.187257 
3527.000000	97.185406 
3526.000000	97.183859 
3525.000000	97.183287 
3524.000000	97.183760 
3523.000000	97.185066 
3522.000000	97.186798 
3521.000000	97.188312 
3520.000000	97.189151 
3519.000000	97.189416 
3518.000000	97.189440 
3517.000000	97.189223 
3516.000000	97.188370 
3515.000000	97.186765 
3514.000000	97.185041 
3513.000000	97.184079 
3512.000000	97.184063 
3511.000000	97.184399 
3510.000000	97.184397 
3509.000000	97.183960 
3508.000000	97.183516 
3507.000000	97.183362 
3506.000000	97.183263 
3505.000000	97.182833 
3504.000000	97.182036 
3503.000000	97.181189 
3502.000000	97.180624 
3501.000000	97.180422 
3500.000000	97.180410 
3499.000000	97.180349 
3498.000000	97.180094 
3497.000000	97.179636 
3496.000000	97.179041 
3495.000000	97.178368 
3494.000000	97.177683 
3493.000000	97.177095 
3492.000000	97.176676 
3491.000000	97.176369 
3490.000000	97.176036 
3489.000000	97.175594 
3488.000000	97.175046 
3487.000000	97.174383 
3486.000000	97.173538 
3485.000000	97.172502 
3484.000000	97.171430 
3483.000000	97.170508 
3482.000000	97.169798 
3481.000000	97.169258 
3480.000000	97.168840 
3479.000000	97.168475 
3478.000000	97.167994 
3477.000000	97.167224 
3476.000000	97.166159 
3475.000000	97.164964 
3474.000000	97.163842 
3473.000000	97.162910 
3472.000000	97.162118 
3471.000000	97.161267 
3470.000000	97.160168 
3469.000000	97.158849 
3468.000000	97.157551 
3467.000000	97.156518 
3466.000000	97.155829 
3465.000000	97.155342 
3464.000000	97.154748 
3463.000000	97.153769 
3462.000000	97.152340 
3461.000000	97.150665 
3460.000000	97.149068 
3459.000000	97.147721 
3458.000000	97.146541 
3457.000000	97.145331 
3456.000000	97.143997 
3455.000000	97.142687 
3454.000000	97.141632 
3453.000000	97.140896 
3452.000000	97.140348 
3451.000000	97.139802 
3450.000000	97.139117 
3449.000000	97.138194 
3448.000000	97.137007 
3447.000000	97.135639 
3446.000000	97.134230 
3445.000000	97.132886 
3444.000000	97.131670 
3443.000000	97.130649 
3442.000000	97.129844 
3441.000000	97.129119 
3440.000000	97.128247 
3439.000000	97.127115 
3438.000000	97.125804 
3437.000000	97.124507 
3436.000000	97.123377 
3435.000000	97.122502 
3434.000000	97.121889 
3433.000000	97.121420 
3432.000000	97.120894 
3431.000000	97.120201 
3430.000000	97.119385 
3429.000000	97.118563 
3428.000000	97.117785 
3427.000000	97.117013 
3426.000000	97.116230 
3425.000000	97.115502 
3424.000000	97.114887 
3423.000000	97.114329 
3422.000000	97.113707 
3421.000000	97.113003 
3420.000000	97.112316 
3419.000000	97.111741 
3418.000000	97.111252 
3417.000000	97.110773 
3416.000000	97.110290 
3415.000000	97.109834 
3414.000000	97.109393 
3413.000000	97.108905 
3412.000000	97.108347 
3411.000000	97.107765 
3410.000000	97.107243 
3409.000000	97.106843 
3408.000000	97.106568 
3407.000000	97.106364 
3406.000000	97.106160 
3405.000000	97.105929 
3404.000000	97.105685 
3403.000000	97.105450 
3402.000000	97.105234 
3401.000000	97.105044 
3400.000000	97.104899 
3399.000000	97.104816 
3398.000000	97.104784 
3397.000000	97.104775 
3396.000000	97.104771 
3395.000000	97.104779 
3394.000000	97.104810 
3393.000000	97.104872 
3392.000000	97.104966 
3391.000000	97.105091 
3390.000000	97.105247 
3389.000000	97.105444 
3388.000000	97.105698 
3387.000000	97.106023 
3386.000000	97.106408 
3385.000000	97.106821 
3384.000000	97.107215 
3383.000000	97.107565 
3382.000000	97.107909 
3381.000000	97.108343 
3380.000000	97.108927 
3379.000000	97.109612 
3378.000000	97.110272 
3377.000000	97.110867 
3376.000000	97.111500 
3375.000000	97.112266 
3374.000000	97.113094 
3373.000000	97.113797 
3372.000000	97.114286 
3371.000000	97.114686 
3370.000000	97.115249 
3369.000000	97.116116 
3368.000000	97.117222 
3367.000000	97.118355 
3366.000000	97.119314 
3365.000000	97.120041 
3364.000000	97.120671 
3363.000000	97.121413 
3362.000000	97.122336 
3361.000000	97.123321 
3360.000000	97.124239 
3359.000000	97.125117 
3358.000000	97.126095 
3357.000000	97.127274 
3356.000000	97.128629 
3355.000000	97.130004 
3354.000000	97.131236 
3353.000000	97.132330 
3352.000000	97.133523 
3351.000000	97.135057 
3350.000000	97.136879 
3349.000000	97.138634 
3348.000000	97.139995 
3347.000000	97.140954 
3346.000000	97.141736 
3345.000000	97.142528 
3344.000000	97.143269 
3343.000000	97.143689 
3342.000000	97.143656 
3341.000000	97.143497 
3340.000000	97.143755 
3339.000000	97.144593 
3338.000000	97.145701 
3337.000000	97.146710 
3336.000000	97.147575 
3335.000000	97.148468 
3334.000000	97.149457 
3333.000000	97.150440 
3332.000000	97.151293 
3331.000000	97.151963 
3330.000000	97.152470 
3329.000000	97.152907 
3328.000000	97.153411 
3327.000000	97.154070 
3326.000000	97.154858 
3325.000000	97.155678 
3324.000000	97.156442 
3323.000000	97.157121 
3322.000000	97.157740 
3321.000000	97.158343 
3320.000000	97.158963 
3319.000000	97.159602 
3318.000000	97.160242 
3317.000000	97.160871 
3316.000000	97.161479 
3315.000000	97.162060 
3314.000000	97.162608 
3313.000000	97.163132 
3312.000000	97.163648 
3311.000000	97.164171 
3310.000000	97.164708 
3309.000000	97.165254 
3308.000000	97.165803 
3307.000000	97.166349 
3306.000000	97.166893 
3305.000000	97.167439 
3304.000000	97.167999 
3303.000000	97.168578 
3302.000000	97.169181 
3301.000000	97.169805 
3300.000000	97.170441 
3299.000000	97.171070 
3298.000000	97.171668 
3297.000000	97.172229 
3296.000000	97.172795 
3295.000000	97.173425 
3294.000000	97.174146 
3293.000000	97.174938 
3292.000000	97.175764 
3291.000000	97.176592 
3290.000000	97.177384 
3289.000000	97.178104 
3288.000000	97.178750 
3287.000000	97.179355 
3286.000000	97.179931 
3285.000000	97.180441 
3284.000000	97.180851 
3283.000000	97.181206 
3282.000000	97.181644 
3281.000000	97.182286 
3280.000000	97.183113 
3279.000000	97.183946 
3278.000000	97.184629 
3277.000000	97.185196 
3276.000000	97.185800 
3275.000000	97.186488 
3274.000000	97.187144 
3273.000000	97.187711 
3272.000000	97.188356 
3271.000000	97.189287 
3270.000000	97.190498 
3269.000000	97.191734 
3268.000000	97.192716 
3267.000000	97.193360 
3266.000000	97.193821 
3265.000000	97.194399 
3264.000000	97.195322 
3263.000000	97.196537 
3262.000000	97.197727 
3261.000000	97.198627 
3260.000000	97.199225 
3259.000000	97.199670 
3258.000000	97.200086 
3257.000000	97.200602 
3256.000000	97.201411 
3255.000000	97.202542 
3254.000000	97.203646 
3253.000000	97.204300 
3252.000000	97.204512 
3251.000000	97.204746 
3250.000000	97.205366 
3249.000000	97.206222 
3248.000000	97.206891 
3247.000000	97.207203 
3246.000000	97.207431 
3245.000000	97.207993 
3244.000000	97.209047 
3243.000000	97.210389 
3242.000000	97.211660 
3241.000000	97.212652 
3240.000000	97.213396 
3239.000000	97.214056 
3238.000000	97.214832 
3237.000000	97.215930 
3236.000000	97.217479 
3235.000000	97.219361 
3234.000000	97.221156 
3233.000000	97.222427 
3232.000000	97.223055 
3231.000000	97.223288 
3230.000000	97.223519 
3229.000000	97.224009 
3228.000000	97.224831 
3227.000000	97.226003 
3226.000000	97.227595 
3225.000000	97.229641 
3224.000000	97.231918 
3223.000000	97.233956 
3222.000000	97.235395 
3221.000000	97.236303 
3220.000000	97.237049 
3219.000000	97.237846 
3218.000000	97.238627 
3217.000000	97.239297 
3216.000000	97.239889 
3215.000000	97.240542 
3214.000000	97.241456 
3213.000000	97.242782 
3212.000000	97.244413 
3211.000000	97.245963 
3210.000000	97.247114 
3209.000000	97.247952 
3208.000000	97.248817 
3207.000000	97.249850 
3206.000000	97.250900 
3205.000000	97.251859 
3204.000000	97.252888 
3203.000000	97.254201 
3202.000000	97.255785 
3201.000000	97.257397 
3200.000000	97.258787 
3199.000000	97.259909 
3198.000000	97.260927 
3197.000000	97.262037 
3196.000000	97.263285 
3195.000000	97.264580 
3194.000000	97.265867 
3193.000000	97.267225 
3192.000000	97.268737 
3191.000000	97.270338 
3190.000000	97.271845 
3189.000000	97.273141 
3188.000000	97.274274 
3187.000000	97.275416 
3186.000000	97.276738 
3185.000000	97.278283 
3184.000000	97.279929 
3183.000000	97.281498 
3182.000000	97.282948 
3181.000000	97.284369 
3180.000000	97.285826 
3179.000000	97.287267 
3178.000000	97.288626 
3177.000000	97.289930 
3176.000000	97.291273 
3175.000000	97.292717 
3174.000000	97.294262 
3173.000000	97.295878 
3172.000000	97.297494 
3171.000000	97.298996 
3170.000000	97.300321 
3169.000000	97.301529 
3168.000000	97.302759 
3167.000000	97.304079 
3166.000000	97.305446 
3165.000000	97.306792 
3164.000000	97.308091 
3163.000000	97.309357 
3162.000000	97.310615 
3161.000000	97.311882 
3160.000000	97.313164 
3159.000000	97.314456 
3158.000000	97.315753 
3157.000000	97.317063 
3156.000000	97.318386 
3155.000000	97.319706 
3154.000000	97.320997 
3153.000000	97.322256 
3152.000000	97.323501 
3151.000000	97.324742 
3150.000000	97.325972 
3149.000000	97.327179 
3148.000000	97.328370 
3147.000000	97.329565 
3146.000000	97.330783 
3145.000000	97.332029 
3144.000000	97.333289 
3143.000000	97.334526 
3142.000000	97.335701 
3141.000000	97.336801 
3140.000000	97.337856 
3139.000000	97.338931 
3138.000000	97.340071 
3137.000000	97.341283 
3136.000000	97.342520 
3135.000000	97.343708 
3134.000000	97.344786 
3133.000000	97.345750 
3132.000000	97.346668 
3131.000000	97.347617 
3130.000000	97.348640 
3129.000000	97.349788 
3128.000000	97.351138 
3127.000000	97.352703 
3126.000000	97.354366 
3125.000000	97.355932 
3124.000000	97.357242 
3123.000000	97.358234 
3122.000000	97.358928 
3121.000000	97.359490 
3120.000000	97.360186 
3119.000000	97.361180 
3118.000000	97.362418 
3117.000000	97.363760 
3116.000000	97.365171 
3115.000000	97.366669 
3114.000000	97.368181 
3113.000000	97.369595 
3112.000000	97.370939 
3111.000000	97.372362 
3110.000000	97.373910 
3109.000000	97.375419 
3108.000000	97.376700 
3107.000000	97.377758 
3106.000000	97.378778 
3105.000000	97.379902 
3104.000000	97.381062 
3103.000000	97.382009 
3102.000000	97.382499 
3101.000000	97.382530 
3100.000000	97.382400 
3099.000000	97.382514 
3098.000000	97.383242 
3097.000000	97.384929 
3096.000000	97.387699 
3095.000000	97.391044 
3094.000000	97.393932 
3093.000000	97.395633 
3092.000000	97.396310 
3091.000000	97.396605 
3090.000000	97.396855 
3089.000000	97.396954 
3088.000000	97.396795 
3087.000000	97.396593 
3086.000000	97.396847 
3085.000000	97.397960 
3084.000000	97.399603 
3083.000000	97.400532 
3082.000000	97.399738 
3081.000000	97.398071 
3080.000000	97.397805 
3079.000000	97.399941 
3078.000000	97.403019 
3077.000000	97.405430 
3076.000000	97.407603 
3075.000000	97.410468 
3074.000000	97.413030 
3073.000000	97.413535 
3072.000000	97.412270 
3071.000000	97.410981 
3070.000000	97.410002 
3069.000000	97.408358 
3068.000000	97.406602 
3067.000000	97.407010 
3066.000000	97.410329 
3065.000000	97.414377 
3064.000000	97.416595 
3063.000000	97.416231 
3062.000000	97.413571 
3061.000000	97.409014 
3060.000000	97.403799 
3059.000000	97.400166 
3058.000000	97.399847 
3057.000000	97.402955 
3056.000000	97.408096 
3055.000000	97.412492 
3054.000000	97.412655 
3053.000000	97.407247 
3052.000000	97.399825 
3051.000000	97.396512 
3050.000000	97.399631 
3049.000000	97.405143 
3048.000000	97.407196 
3047.000000	97.403674 
3046.000000	97.396409 
3045.000000	97.388087 
3044.000000	97.380934 
3043.000000	97.377215 
3042.000000	97.378468 
3041.000000	97.383287 
3040.000000	97.387082 
3039.000000	97.385351 
3038.000000	97.377244 
3037.000000	97.365788 
3036.000000	97.354623 
3035.000000	97.344678 
3034.000000	97.334516 
3033.000000	97.323344 
3032.000000	97.312367 
3031.000000	97.303134 
3030.000000	97.295730 
3029.000000	97.289086 
3028.000000	97.281790 
3027.000000	97.271950 
3026.000000	97.257797 
3025.000000	97.239955 
3024.000000	97.222156 
3023.000000	97.207837 
3022.000000	97.196475 
3021.000000	97.185063 
3020.000000	97.172511 
3019.000000	97.160191 
3018.000000	97.148170 
3017.000000	97.133645 
3016.000000	97.114305 
3015.000000	97.091527 
3014.000000	97.069253 
3013.000000	97.050749 
3012.000000	97.036717 
3011.000000	97.025021 
3010.000000	97.011602 
3009.000000	96.993131 
3008.000000	96.969817 
3007.000000	96.945041 
3006.000000	96.921887 
3005.000000	96.900957 
3004.000000	96.881628 
3003.000000	96.863783 
3002.000000	96.847352 
3001.000000	96.831464 
3000.000000	96.815157 
2999.000000	96.798127 
2998.000000	96.780354 
2997.000000	96.762044 
2996.000000	96.744359 
2995.000000	96.728540 
2994.000000	96.712952 
2993.000000	96.692364 
2992.000000	96.662543 
2991.000000	96.625944 
2990.000000	96.591607 
2989.000000	96.568823 
2988.000000	96.561221 
2987.000000	96.566142 
2986.000000	96.577949 
2985.000000	96.591523 
2984.000000	96.603556 
2983.000000	96.612286 
2982.000000	96.617204 
2981.000000	96.618985 
2980.000000	96.618760 
2979.000000	96.616750 
2978.000000	96.611988 
2977.000000	96.604011 
2976.000000	96.594582 
2975.000000	96.586975 
2974.000000	96.583661 
2973.000000	96.585320 
2972.000000	96.591599 
2971.000000	96.601565 
2970.000000	96.613354 
2969.000000	96.624904 
2968.000000	96.635801 
2967.000000	96.647524 
2966.000000	96.661248 
2965.000000	96.676139 
2964.000000	96.690370 
2963.000000	96.703039 
2962.000000	96.714374 
2961.000000	96.724781 
2960.000000	96.734705 
2959.000000	96.745194 
2958.000000	96.757650 
2957.000000	96.772565 
2956.000000	96.788521 
2955.000000	96.802509 
2954.000000	96.811961 
2953.000000	96.817412 
2952.000000	96.823018 
2951.000000	96.833053 
2950.000000	96.847139 
2949.000000	96.859946 
2948.000000	96.866472 
2947.000000	96.866738 
2946.000000	96.864919 
2945.000000	96.864957 
2944.000000	96.867897 
2943.000000	96.872536 
2942.000000	96.876836 
2941.000000	96.878717 
2940.000000	96.877279 
2939.000000	96.874033 
2938.000000	96.871878 
2937.000000	96.872316 
2936.000000	96.874318 
2935.000000	96.875943 
2934.000000	96.876085 
2933.000000	96.874380 
2932.000000	96.870647 
2931.000000	96.865400 
2930.000000	96.860394 
2929.000000	96.857592 
2928.000000	96.857383 
2927.000000	96.858191 
2926.000000	96.857995 
2925.000000	96.856269 
2924.000000	96.854533 
2923.000000	96.854954 
2922.000000	96.858111 
2921.000000	96.862195 
2920.000000	96.864869 
2919.000000	96.865778 
2918.000000	96.866305 
2917.000000	96.866550 
2916.000000	96.863843 
2915.000000	96.855633 
2914.000000	96.843512 
2913.000000	96.832789 
2912.000000	96.827484 
2911.000000	96.826715 
2910.000000	96.826544 
2909.000000	96.824600 
2908.000000	96.821863 
2907.000000	96.820125 
2906.000000	96.818821 
2905.000000	96.814779 
2904.000000	96.805211 
2903.000000	96.791593 
2902.000000	96.780645 
2901.000000	96.780273 
2900.000000	96.793323 
2899.000000	96.815085 
2898.000000	96.836888 
2897.000000	96.852725 
2896.000000	96.861983 
2895.000000	96.866718 
2894.000000	96.869011 
2893.000000	96.871205 
2892.000000	96.876042 
2891.000000	96.884317 
2890.000000	96.893455 
2889.000000	96.900313 
2888.000000	96.904871 
2887.000000	96.909362 
2886.000000	96.914393 
2885.000000	96.918524 
2884.000000	96.922076 
2883.000000	96.928550 
2882.000000	96.940516 
2881.000000	96.955915 
2880.000000	96.970600 
2879.000000	96.983637 
2878.000000	96.997502 
2877.000000	97.013139 
2876.000000	97.027462 
2875.000000	97.036918 
2874.000000	97.041791 
2873.000000	97.045558 
2872.000000	97.050961 
2871.000000	97.058151 
2870.000000	97.066126 
2869.000000	97.074291 
2868.000000	97.082428 
2867.000000	97.090525 
2866.000000	97.099135 
2865.000000	97.109082 
2864.000000	97.120463 
2863.000000	97.132767 
2862.000000	97.146240 
2861.000000	97.161939 
2860.000000	97.179718 
2859.000000	97.197306 
2858.000000	97.212661 
2857.000000	97.226657 
2856.000000	97.241964 
2855.000000	97.259247 
2854.000000	97.275934 
2853.000000	97.289060 
2852.000000	97.298136 
2851.000000	97.304963 
2850.000000	97.311648 
2849.000000	97.319276 
2848.000000	97.327757 
2847.000000	97.336213 
2846.000000	97.343682 
2845.000000	97.349906 
2844.000000	97.355430 
2843.000000	97.360974 
2842.000000	97.367014 
2841.000000	97.373780 
2840.000000	97.380992 
2839.000000	97.387569 
2838.000000	97.392373 
2837.000000	97.395564 
2836.000000	97.398752 
2835.000000	97.403498 
2834.000000	97.410084 
2833.000000	97.417973 
2832.000000	97.426601 
2831.000000	97.435078 
2830.000000	97.441688 
2829.000000	97.444812 
2828.000000	97.444582 
2827.000000	97.443253 
2826.000000	97.443757 
2825.000000	97.447691 
2824.000000	97.454271 
2823.000000	97.460867 
2822.000000	97.464862 
2821.000000	97.465537 
2820.000000	97.464293 
2819.000000	97.463113 
2818.000000	97.462971 
2817.000000	97.463808 
2816.000000	97.465465 
2815.000000	97.468006 
2814.000000	97.471164 
2813.000000	97.473935 
2812.000000	97.475081 
2811.000000	97.474190 
2810.000000	97.472340 
2809.000000	97.471530 
2808.000000	97.473104 
2807.000000	97.476760 
2806.000000	97.481207 
2805.000000	97.485486 
2804.000000	97.489181 
2803.000000	97.491756 
2802.000000	97.492766 
2801.000000	97.492962 
2800.000000	97.494157 
2799.000000	97.497215 
2798.000000	97.500718 
2797.000000	97.502429 
2796.000000	97.501817 
2795.000000	97.500496 
2794.000000	97.500368 
2793.000000	97.501845 
2792.000000	97.504010 
2791.000000	97.505890 
2790.000000	97.507229 
2789.000000	97.508298 
2788.000000	97.509382 
2787.000000	97.510575 
2786.000000	97.511883 
2785.000000	97.513310 
2784.000000	97.514797 
2783.000000	97.516200 
2782.000000	97.517423 
2781.000000	97.518544 
2780.000000	97.519726 
2779.000000	97.521042 
2778.000000	97.522445 
2777.000000	97.523834 
2776.000000	97.525109 
2775.000000	97.526222 
2774.000000	97.527215 
2773.000000	97.528188 
2772.000000	97.529211 
2771.000000	97.530288 
2770.000000	97.531429 
2769.000000	97.532735 
2768.000000	97.534321 
2767.000000	97.536105 
2766.000000	97.537744 
2765.000000	97.538942 
2764.000000	97.539748 
2763.000000	97.540458 
2762.000000	97.541261 
2761.000000	97.542110 
2760.000000	97.542941 
2759.000000	97.543845 
2758.000000	97.544937 
2757.000000	97.546110 
2756.000000	97.547060 
2755.000000	97.547676 
2754.000000	97.548309 
2753.000000	97.549461 
2752.000000	97.551142 
2751.000000	97.552763 
2750.000000	97.553865 
2749.000000	97.554721 
2748.000000	97.555801 
2747.000000	97.556843 
2746.000000	97.557074 
2745.000000	97.556336 
2744.000000	97.555495 
2743.000000	97.555477 
2742.000000	97.556297 
2741.000000	97.557341 
2740.000000	97.558249 
2739.000000	97.559084 
2738.000000	97.559828 
2737.000000	97.560323 
2736.000000	97.560698 
2735.000000	97.561380 
2734.000000	97.562586 
2733.000000	97.564109 
2732.000000	97.565657 
2731.000000	97.567168 
2730.000000	97.568732 
2729.000000	97.570331 
2728.000000	97.571746 
2727.000000	97.572661 
2726.000000	97.572896 
2725.000000	97.572645 
2724.000000	97.572442 
2723.000000	97.572715 
2722.000000	97.573392 
2721.000000	97.574086 
2720.000000	97.574617 
2719.000000	97.575193 
2718.000000	97.576043 
2717.000000	97.577052 
2716.000000	97.577896 
2715.000000	97.578454 
2714.000000	97.578926 
2713.000000	97.579554 
2712.000000	97.580329 
2711.000000	97.581070 
2710.000000	97.581691 
2709.000000	97.582298 
2708.000000	97.583038 
2707.000000	97.583955 
2706.000000	97.584998 
2705.000000	97.586070 
2704.000000	97.587005 
2703.000000	97.587598 
2702.000000	97.587794 
2701.000000	97.587878 
2700.000000	97.588358 
2699.000000	97.589563 
2698.000000	97.591342 
2697.000000	97.593056 
2696.000000	97.594035 
2695.000000	97.594088 
2694.000000	97.593665 
2693.000000	97.593499 
2692.000000	97.593877 
2691.000000	97.594415 
2690.000000	97.594571 
2689.000000	97.594254 
2688.000000	97.593765 
2687.000000	97.593295 
2686.000000	97.592834 
2685.000000	97.592542 
2684.000000	97.592780 
2683.000000	97.593605 
2682.000000	97.594511 
2681.000000	97.594922 
2680.000000	97.594801 
2679.000000	97.594591 
2678.000000	97.594740 
2677.000000	97.595437 
2676.000000	97.596489 
2675.000000	97.597194 
2674.000000	97.596738 
2673.000000	97.595104 
2672.000000	97.593383 
2671.000000	97.592668 
2670.000000	97.592833 
2669.000000	97.592942 
2668.000000	97.592592 
2667.000000	97.592167 
2666.000000	97.591837 
2665.000000	97.591143 
2664.000000	97.589881 
2663.000000	97.588696 
2662.000000	97.588273 
2661.000000	97.588280 
2660.000000	97.587644 
2659.000000	97.585767 
2658.000000	97.583139 
2657.000000	97.580799 
2656.000000	97.579357 
2655.000000	97.578570 
2654.000000	97.577703 
2653.000000	97.576337 
2652.000000	97.574845 
2651.000000	97.574023 
2650.000000	97.574268 
2649.000000	97.575177 
2648.000000	97.575927 
2647.000000	97.575890 
2646.000000	97.574865 
2645.000000	97.573004 
2644.000000	97.570779 
2643.000000	97.568888 
2642.000000	97.567878 
2641.000000	97.567737 
2640.000000	97.567938 
2639.000000	97.567968 
2638.000000	97.567797 
2637.000000	97.567745 
2636.000000	97.568051 
2635.000000	97.568678 
2634.000000	97.569432 
2633.000000	97.570066 
2632.000000	97.570317 
2631.000000	97.570038 
2630.000000	97.569386 
2629.000000	97.568727 
2628.000000	97.568285 
2627.000000	97.567989 
2626.000000	97.567726 
2625.000000	97.567575 
2624.000000	97.567667 
2623.000000	97.567967 
2622.000000	97.568287 
2621.000000	97.568450 
2620.000000	97.568400 
2619.000000	97.568197 
2618.000000	97.567981 
2617.000000	97.567919 
2616.000000	97.568066 
2615.000000	97.568341 
2614.000000	97.568621 
2613.000000	97.568851 
2612.000000	97.569061 
2611.000000	97.569280 
2610.000000	97.569507 
2609.000000	97.569731 
2608.000000	97.569951 
2607.000000	97.570170 
2606.000000	97.570392 
2605.000000	97.570622 
2604.000000	97.570860 
2603.000000	97.571105 
2602.000000	97.571348 
2601.000000	97.571587 
2600.000000	97.571824 
2599.000000	97.572064 
2598.000000	97.572311 
2597.000000	97.572564 
2596.000000	97.572822 
2595.000000	97.573082 
2594.000000	97.573342 
2593.000000	97.573602 
2592.000000	97.573864 
2591.000000	97.574132 
2590.000000	97.574420 
2589.000000	97.574726 
2588.000000	97.575022 
2587.000000	97.575296 
2586.000000	97.575582 
2585.000000	97.575915 
2584.000000	97.576285 
2583.000000	97.576655 
2582.000000	97.576988 
2581.000000	97.577254 
2580.000000	97.577479 
2579.000000	97.577751 
2578.000000	97.578137 
2577.000000	97.578596 
2576.000000	97.579016 
2575.000000	97.579315 
2574.000000	97.579473 
2573.000000	97.579545 
2572.000000	97.579613 
2571.000000	97.579709 
2570.000000	97.579774 
2569.000000	97.579770 
2568.000000	97.579805 
2567.000000	97.580031 
2566.000000	97.580431 
2565.000000	97.580811 
2564.000000	97.581016 
2563.000000	97.581075 
2562.000000	97.581119 
2561.000000	97.581288 
2560.000000	97.581690 
2559.000000	97.582359 
2558.000000	97.583178 
2557.000000	97.583879 
2556.000000	97.584273 
2555.000000	97.584367 
2554.000000	97.584317 
2553.000000	97.584267 
2552.000000	97.584233 
2551.000000	97.584206 
2550.000000	97.584238 
2549.000000	97.584367 
2548.000000	97.584532 
2547.000000	97.584631 
2546.000000	97.584655 
2545.000000	97.584699 
2544.000000	97.584814 
2543.000000	97.584935 
2542.000000	97.584983 
2541.000000	97.585003 
2540.000000	97.585107 
2539.000000	97.585307 
2538.000000	97.585484 
2537.000000	97.585548 
2536.000000	97.585579 
2535.000000	97.585739 
2534.000000	97.586061 
2533.000000	97.586387 
2532.000000	97.586541 
2531.000000	97.586523 
2530.000000	97.586498 
2529.000000	97.586603 
2528.000000	97.586788 
2527.000000	97.586917 
2526.000000	97.586979 
2525.000000	97.587137 
2524.000000	97.587522 
2523.000000	97.588044 
2522.000000	97.588470 
2521.000000	97.588710 
2520.000000	97.588921 
2519.000000	97.589268 
2518.000000	97.589644 
2517.000000	97.589725 
2516.000000	97.589269 
2515.000000	97.588358 
2514.000000	97.587448 
2513.000000	97.587167 
2512.000000	97.587866 
2511.000000	97.589341 
2510.000000	97.590958 
2509.000000	97.592209 
2508.000000	97.593047 
2507.000000	97.593615 
2506.000000	97.594004 
2505.000000	97.594413 
2504.000000	97.595219 
2503.000000	97.596538 
2502.000000	97.597871 
2501.000000	97.598563 
2500.000000	97.598559 
2499.000000	97.598378 
2498.000000	97.598414 
2497.000000	97.598620 
2496.000000	97.598902 
2495.000000	97.599358 
2494.000000	97.599940 
2493.000000	97.600311 
2492.000000	97.600359 
2491.000000	97.600567 
2490.000000	97.601519 
2489.000000	97.603157 
2488.000000	97.604747 
2487.000000	97.605654 
2486.000000	97.605916 
2485.000000	97.606059 
2484.000000	97.606509 
2483.000000	97.607248 
2482.000000	97.607988 
2481.000000	97.608521 
2480.000000	97.608866 
2479.000000	97.609165 
2478.000000	97.609589 
2477.000000	97.610251 
2476.000000	97.610928 
2475.000000	97.610954 
2474.000000	97.609778 
2473.000000	97.607778 
2472.000000	97.606134 
2471.000000	97.605620 
2470.000000	97.605968 
2469.000000	97.606576 
2468.000000	97.607342 
2467.000000	97.608352 
2466.000000	97.609132 
2465.000000	97.608957 
2464.000000	97.607896 
2463.000000	97.606961 
2462.000000	97.607082 
2461.000000	97.608343 
2460.000000	97.610276 
2459.000000	97.612401 
2458.000000	97.614196 
2457.000000	97.614918 
2456.000000	97.613985 
2455.000000	97.611641 
2454.000000	97.609091 
2453.000000	97.607620 
2452.000000	97.607543 
2451.000000	97.608179 
2450.000000	97.608853 
2449.000000	97.609590 
2448.000000	97.610546 
2447.000000	97.611166 
2446.000000	97.610585 
2445.000000	97.608835 
2444.000000	97.606984 
2443.000000	97.605908 
2442.000000	97.605524 
2441.000000	97.605471 
2440.000000	97.605935 
2439.000000	97.607455 
2438.000000	97.610308 
2437.000000	97.614335 
2436.000000	97.618889 
2435.000000	97.622815 
2434.000000	97.625011 
2433.000000	97.625285 
2432.000000	97.624497 
2431.000000	97.623797 
2430.000000	97.623936 
2429.000000	97.625263 
2428.000000	97.627717 
2427.000000	97.630531 
2426.000000	97.632344 
2425.000000	97.632124 
2424.000000	97.630221 
2423.000000	97.627951 
2422.000000	97.626239 
2421.000000	97.625987 
2420.000000	97.628506 
2419.000000	97.633831 
2418.000000	97.639625 
2417.000000	97.643428 
2416.000000	97.645286 
2415.000000	97.646682 
2414.000000	97.648175 
2413.000000	97.649590 
2412.000000	97.651162 
2411.000000	97.652815 
2410.000000	97.653384 
2409.000000	97.652347 
2408.000000	97.651416 
2407.000000	97.652613 
2406.000000	97.655414 
2405.000000	97.657376 
2404.000000	97.657182 
2403.000000	97.655550 
2402.000000	97.653702 
2401.000000	97.652542 
2400.000000	97.652911 
2399.000000	97.655146 
2398.000000	97.658444 
2397.000000	97.661774 
2396.000000	97.664938 
2395.000000	97.667688 
2394.000000	97.668656 
2393.000000	97.666968 
2392.000000	97.664364 
2391.000000	97.664051 
2390.000000	97.667448 
2389.000000	97.673382 
2388.000000	97.680286 
2387.000000	97.687716 
2386.000000	97.695553 
2385.000000	97.702959 
2384.000000	97.708540 
2383.000000	97.710412 
2382.000000	97.705941 
2381.000000	97.693153 
2380.000000	97.673074 
2379.000000	97.649846 
2378.000000	97.627824 
2377.000000	97.609624 
2376.000000	97.597644 
2375.000000	97.595100 
2374.000000	97.603006 
2373.000000	97.617204 
2372.000000	97.631024 
2371.000000	97.641081 
2370.000000	97.647901 
2369.000000	97.651429 
2368.000000	97.649626 
2367.000000	97.641924 
2366.000000	97.631133 
2365.000000	97.621158 
2364.000000	97.614527 
2363.000000	97.612171 
2362.000000	97.613924 
2361.000000	97.618287 
2360.000000	97.623160 
2359.000000	97.627311 
2358.000000	97.629371 
2357.000000	97.628337 
2356.000000	97.624777 
2355.000000	97.620461 
2354.000000	97.615666 
2353.000000	97.611459 
2352.000000	97.610890 
2351.000000	97.614690 
2350.000000	97.619679 
2349.000000	97.622206 
2348.000000	97.621802 
2347.000000	97.620287 
2346.000000	97.619882 
2345.000000	97.621551 
2344.000000	97.624412 
2343.000000	97.626970 
2342.000000	97.628396 
2341.000000	97.629020 
2340.000000	97.629575 
2339.000000	97.630496 
2338.000000	97.631637 
2337.000000	97.632659 
2336.000000	97.633914 
2335.000000	97.635933 
2334.000000	97.638487 
2333.000000	97.640608 
2332.000000	97.642396 
2331.000000	97.644585 
2330.000000	97.647589 
2329.000000	97.650576 
2328.000000	97.653492 
2327.000000	97.656551 
2326.000000	97.659324 
2325.000000	97.660847 
2324.000000	97.661788 
2323.000000	97.663674 
2322.000000	97.666065 
2321.000000	97.666566 
2320.000000	97.665370 
2319.000000	97.664993 
2318.000000	97.667133 
2317.000000	97.668892 
2316.000000	97.667968 
2315.000000	97.664521 
2314.000000	97.662052 
2313.000000	97.662180 
2312.000000	97.666480 
2311.000000	97.674649 
2310.000000	97.684777 
2309.000000	97.691985 
2308.000000	97.694411 
2307.000000	97.693927 
2306.000000	97.693848 
2305.000000	97.694633 
2304.000000	97.696505 
2303.000000	97.699498 
2302.000000	97.704266 
2301.000000	97.709188 
2300.000000	97.712194 
2299.000000	97.709853 
2298.000000	97.700954 
2297.000000	97.685733 
2296.000000	97.668491 
2295.000000	97.654104 
2294.000000	97.644950 
2293.000000	97.638585 
2292.000000	97.631971 
2291.000000	97.624338 
2290.000000	97.616910 
2289.000000	97.611071 
2288.000000	97.607151 
2287.000000	97.604117 
2286.000000	97.599647 
2285.000000	97.593038 
2284.000000	97.586763 
2283.000000	97.584344 
2282.000000	97.585631 
2281.000000	97.586830 
2280.000000	97.584478 
2279.000000	97.578116 
2278.000000	97.569216 
2277.000000	97.560293 
2276.000000	97.554997 
2275.000000	97.555441 
2274.000000	97.559408 
2273.000000	97.562535 
2272.000000	97.563957 
2271.000000	97.566151 
2270.000000	97.569659 
2269.000000	97.571845 
2268.000000	97.571638 
2267.000000	97.571184 
2266.000000	97.571897 
2265.000000	97.572215 
2264.000000	97.570412 
2263.000000	97.566675 
2262.000000	97.561588 
2261.000000	97.555458 
2260.000000	97.549600 
2259.000000	97.545898 
2258.000000	97.544380 
2257.000000	97.543551 
2256.000000	97.543219 
2255.000000	97.544754 
2254.000000	97.548017 
2253.000000	97.550090 
2252.000000	97.548502 
2251.000000	97.543711 
2250.000000	97.537642 
2249.000000	97.531452 
2248.000000	97.525909 
2247.000000	97.522233 
2246.000000	97.520997 
2245.000000	97.521004 
2244.000000	97.520282 
2243.000000	97.518108 
2242.000000	97.515242 
2241.000000	97.512735 
2240.000000	97.511039 
2239.000000	97.509951 
2238.000000	97.508879 
2237.000000	97.507317 
2236.000000	97.505297 
2235.000000	97.503217 
2234.000000	97.501289 
2233.000000	97.499414 
2232.000000	97.497508 
2231.000000	97.495626 
2230.000000	97.493729 
2229.000000	97.491597 
2228.000000	97.489121 
2227.000000	97.486505 
2226.000000	97.484048 
2225.000000	97.481809 
2224.000000	97.479597 
2223.000000	97.477275 
2222.000000	97.474975 
2221.000000	97.472850 
2220.000000	97.470850 
2219.000000	97.468856 
2218.000000	97.466814 
2217.000000	97.464746 
2216.000000	97.462692 
2215.000000	97.460666 
2214.000000	97.458654 
2213.000000	97.456650 
2212.000000	97.454671 
2211.000000	97.452742 
2210.000000	97.450877 
2209.000000	97.449068 
2208.000000	97.447294 
2207.000000	97.445529 
2206.000000	97.443759 
2205.000000	97.441978 
2204.000000	97.440124 
2203.000000	97.438276 
2202.000000	97.436981 
2201.000000	97.436585 
2200.000000	97.436220 
2199.000000	97.434430 
2198.000000	97.430735 
2197.000000	97.426163 
2196.000000	97.422426 
2195.000000	97.420185 
2194.000000	97.418413 
2193.000000	97.416152 
2192.000000	97.414183 
2191.000000	97.413559 
2190.000000	97.413220 
2189.000000	97.411295 
2188.000000	97.408376 
2187.000000	97.406491 
2186.000000	97.404688 
2185.000000	97.399518 
2184.000000	97.391598 
2183.000000	97.387722 
2182.000000	97.393075 
2181.000000	97.404216 
2180.000000	97.412234 
2179.000000	97.412504 
2178.000000	97.407573 
2177.000000	97.402334 
2176.000000	97.399595 
2175.000000	97.399868 
2174.000000	97.402495 
2173.000000	97.406200 
2172.000000	97.410171 
2171.000000	97.414438 
2170.000000	97.417974 
2169.000000	97.417773 
2168.000000	97.411968 
2167.000000	97.402929 
2166.000000	97.394803 
2165.000000	97.388326 
2164.000000	97.380472 
2163.000000	97.369833 
2162.000000	97.361030 
2161.000000	97.362777 
2160.000000	97.381110 
2159.000000	97.413171 
2158.000000	97.446324 
2157.000000	97.467746 
2156.000000	97.475353 
2155.000000	97.476170 
2154.000000	97.477274 
2153.000000	97.480919 
2152.000000	97.486732 
2151.000000	97.493655 
2150.000000	97.498882 
2149.000000	97.499507 
2148.000000	97.497211 
2147.000000	97.497611 
2146.000000	97.503053 
2145.000000	97.509828 
2144.000000	97.514561 
2143.000000	97.519092 
2142.000000	97.526099 
2141.000000	97.533930 
2140.000000	97.539665 
2139.000000	97.544430 
2138.000000	97.551652 
2137.000000	97.561767 
2136.000000	97.571928 
2135.000000	97.579186 
2134.000000	97.581370 
2133.000000	97.577605 
2132.000000	97.570857 
2131.000000	97.567322 
2130.000000	97.570191 
2129.000000	97.575852 
2128.000000	97.578743 
2127.000000	97.578383 
2126.000000	97.579006 
2125.000000	97.583581 
2124.000000	97.590696 
2123.000000	97.596616 
2122.000000	97.598106 
2121.000000	97.593837 
2120.000000	97.585179 
2119.000000	97.575587 
2118.000000	97.568175 
2117.000000	97.564017 
2116.000000	97.562557 
2115.000000	97.562269 
2114.000000	97.560402 
2113.000000	97.554590 
2112.000000	97.546560 
2111.000000	97.541887 
2110.000000	97.543997 
2109.000000	97.550199 
2108.000000	97.555108 
2107.000000	97.556402 
2106.000000	97.555274 
2105.000000	97.553432 
2104.000000	97.552230 
2103.000000	97.552921 
2102.000000	97.554873 
2101.000000	97.554738 
2100.000000	97.550194 
2099.000000	97.543822 
2098.000000	97.540977 
2097.000000	97.543969 
2096.000000	97.550358 
2095.000000	97.556181 
2094.000000	97.559089 
2093.000000	97.558591 
2092.000000	97.555331 
2091.000000	97.550978 
2090.000000	97.547589 
2089.000000	97.546161 
2088.000000	97.545896 
2087.000000	97.544884 
2086.000000	97.541532 
2085.000000	97.535792 
2084.000000	97.529463 
2083.000000	97.524628 
2082.000000	97.521487 
2081.000000	97.518600 
2080.000000	97.515487 
2079.000000	97.513582 
2078.000000	97.513753 
2077.000000	97.514271 
2076.000000	97.512870 
2075.000000	97.509815 
2074.000000	97.506848 
2073.000000	97.503894 
2072.000000	97.499042 
2071.000000	97.491740 
2070.000000	97.483935 
2069.000000	97.477945 
2068.000000	97.474602 
2067.000000	97.473260 
2066.000000	97.472305 
2065.000000	97.469728 
2064.000000	97.464641 
2063.000000	97.458459 
2062.000000	97.453798 
2061.000000	97.452030 
2060.000000	97.452559 
2059.000000	97.453997 
2058.000000	97.454937 
2057.000000	97.454152 
2056.000000	97.451029 
2055.000000	97.445773 
2054.000000	97.439233 
2053.000000	97.432536 
2052.000000	97.426899 
2051.000000	97.422966 
2050.000000	97.420221 
2049.000000	97.417535 
2048.000000	97.414611 
2047.000000	97.412271 
2046.000000	97.410994 
2045.000000	97.410063 
2044.000000	97.408592 
2043.000000	97.406613 
2042.000000	97.404596 
2041.000000	97.402550 
2040.000000	97.400405 
2039.000000	97.398861 
2038.000000	97.398708 
2037.000000	97.399394 
2036.000000	97.399451 
2035.000000	97.398371 
2034.000000	97.397162 
2033.000000	97.397164 
2032.000000	97.398783 
2031.000000	97.401042 
2030.000000	97.401902 
2029.000000	97.399768 
2028.000000	97.395185 
2027.000000	97.390720 
2026.000000	97.388264 
2025.000000	97.387492 
2024.000000	97.387543 
2023.000000	97.388976 
2022.000000	97.392777 
2021.000000	97.397840 
2020.000000	97.400987 
2019.000000	97.399754 
2018.000000	97.394121 
2017.000000	97.386394 
2016.000000	97.380141 
2015.000000	97.377992 
2014.000000	97.379134 
2013.000000	97.379302 
2012.000000	97.375658 
2011.000000	97.371336 
2010.000000	97.372205 
2009.000000	97.379584 
2008.000000	97.388774 
2007.000000	97.395188 
2006.000000	97.398770 
2005.000000	97.401218 
2004.000000	97.402768 
2003.000000	97.403705 
2002.000000	97.406232 
2001.000000	97.411214 
2000.000000	97.414978 
1999.000000	97.411792 
1998.000000	97.399451 
1997.000000	97.382093 
1996.000000	97.367447 
1995.000000	97.360856 
1994.000000	97.362090 
1993.000000	97.366563 
1992.000000	97.369124 
1991.000000	97.368174 
1990.000000	97.366141 
1989.000000	97.366282 
1988.000000	97.369227 
1987.000000	97.371867 
1986.000000	97.369721 
1985.000000	97.361440 
1984.000000	97.350834 
1983.000000	97.343142 
1982.000000	97.339736 
1981.000000	97.338156 
1980.000000	97.337619 
1979.000000	97.340628 
1978.000000	97.347628 
1977.000000	97.354162 
1976.000000	97.356144 
1975.000000	97.355698 
1974.000000	97.358155 
1973.000000	97.365640 
1972.000000	97.375844 
1971.000000	97.385325 
1970.000000	97.391698 
1969.000000	97.393703 
1968.000000	97.391586 
1967.000000	97.387625 
1966.000000	97.385056 
1965.000000	97.386029 
1964.000000	97.391051 
1963.000000	97.399601 
1962.000000	97.410139 
1961.000000	97.419821 
1960.000000	97.425606 
1959.000000	97.426345 
1958.000000	97.423949 
1957.000000	97.422495 
1956.000000	97.425070 
1955.000000	97.431163 
1954.000000	97.437204 
1953.000000	97.440206 
1952.000000	97.440222 
1951.000000	97.439427 
1950.000000	97.439795 
1949.000000	97.442165 
1948.000000	97.446811 
1947.000000	97.453111 
1946.000000	97.458997 
1945.000000	97.462415 
1944.000000	97.463368 
1943.000000	97.463629 
1942.000000	97.464575 
1941.000000	97.466185 
1940.000000	97.468080 
1939.000000	97.470181 
1938.000000	97.472493 
1937.000000	97.475056 
1936.000000	97.478076 
1935.000000	97.481540 
1934.000000	97.484795 
1933.000000	97.487230 
1932.000000	97.489195 
1931.000000	97.491781 
1930.000000	97.495385 
1929.000000	97.498939 
1928.000000	97.501630 
1927.000000	97.503677 
1926.000000	97.505282 
1925.000000	97.505801 
1924.000000	97.505047 
1923.000000	97.504682 
1922.000000	97.505985 
1921.000000	97.507900 
1920.000000	97.508908 
1919.000000	97.509516 
1918.000000	97.510898 
1917.000000	97.512159 
1916.000000	97.511962 
1915.000000	97.511184 
1914.000000	97.511409 
1913.000000	97.512500 
1912.000000	97.512917 
1911.000000	97.512437 
1910.000000	97.512271 
1909.000000	97.512955 
1908.000000	97.514352 
1907.000000	97.516022 
1906.000000	97.517184 
1905.000000	97.516542 
1904.000000	97.513659 
1903.000000	97.510555 
1902.000000	97.509262 
1901.000000	97.509364 
1900.000000	97.509522 
1899.000000	97.509547 
1898.000000	97.510086 
1897.000000	97.511007 
1896.000000	97.511386 
1895.000000	97.511011 
1894.000000	97.510287 
1893.000000	97.509326 
1892.000000	97.508185 
1891.000000	97.507522 
1890.000000	97.507925 
1889.000000	97.508935 
1888.000000	97.509747 
1887.000000	97.510335 
1886.000000	97.510978 
1885.000000	97.511498 
1884.000000	97.511509 
1883.000000	97.511174 
1882.000000	97.511123 
1881.000000	97.511719 
1880.000000	97.512859 
1879.000000	97.514099 
1878.000000	97.514970 
1877.000000	97.515430 
1876.000000	97.515911 
1875.000000	97.516977 
1874.000000	97.518781 
1873.000000	97.520804 
1872.000000	97.522435 
1871.000000	97.523633 
1870.000000	97.524676 
1869.000000	97.525612 
1868.000000	97.526581 
1867.000000	97.528218 
1866.000000	97.530610 
1865.000000	97.532796 
1864.000000	97.534012 
1863.000000	97.534726 
1862.000000	97.536056 
1861.000000	97.538256 
1860.000000	97.540636 
1859.000000	97.542914 
1858.000000	97.545477 
1857.000000	97.548294 
1856.000000	97.550846 
1855.000000	97.553082 
1854.000000	97.555400 
1853.000000	97.557536 
1852.000000	97.559363 
1851.000000	97.561536 
1850.000000	97.564484 
1849.000000	97.567900 
1848.000000	97.571136 
1847.000000	97.574232 
1846.000000	97.577365 
1845.000000	97.580042 
1844.000000	97.581586 
1843.000000	97.582969 
1842.000000	97.585421 
1841.000000	97.587778 
1840.000000	97.589208 
1839.000000	97.590695 
1838.000000	97.593231 
1837.000000	97.595675 
1836.000000	97.596338 
1835.000000	97.596267 
1834.000000	97.597778 
1833.000000	97.600811 
1832.000000	97.603261 
1831.000000	97.603384 
1830.000000	97.601400 
1829.000000	97.599612 
1828.000000	97.599758 
1827.000000	97.601387 
1826.000000	97.603830 
1825.000000	97.607061 
1824.000000	97.610054 
1823.000000	97.612066 
1822.000000	97.613369 
1821.000000	97.614049 
1820.000000	97.613788 
1819.000000	97.613053 
1818.000000	97.614357 
1817.000000	97.618140 
1816.000000	97.620726 
1815.000000	97.620302 
1814.000000	97.619037 
1813.000000	97.619599 
1812.000000	97.620410 
1811.000000	97.618286 
1810.000000	97.614654 
1809.000000	97.612278 
1808.000000	97.611092 
1807.000000	97.610195 
1806.000000	97.609636 
1805.000000	97.608961 
1804.000000	97.607267 
1803.000000	97.606145 
1802.000000	97.607326 
1801.000000	97.609479 
1800.000000	97.608678 
1799.000000	97.604069 
1798.000000	97.599968 
1797.000000	97.598431 
1796.000000	97.597659 
1795.000000	97.596502 
1794.000000	97.596381 
1793.000000	97.598482 
1792.000000	97.600682 
1791.000000	97.602126 
1790.000000	97.605082 
1789.000000	97.608368 
1788.000000	97.609665 
1787.000000	97.609822 
1786.000000	97.611634 
1785.000000	97.614906 
1784.000000	97.616676 
1783.000000	97.616465 
1782.000000	97.615104 
1781.000000	97.614522 
1780.000000	97.616150 
1779.000000	97.619303 
1778.000000	97.623064 
1777.000000	97.626239 
1776.000000	97.628767 
1775.000000	97.630570 
1774.000000	97.631398 
1773.000000	97.631796 
1772.000000	97.632395 
1771.000000	97.633427 
1770.000000	97.635078 
1769.000000	97.637019 
1768.000000	97.638883 
1767.000000	97.640365 
1766.000000	97.641338 
1765.000000	97.642073 
1764.000000	97.642885 
1763.000000	97.643947 
1762.000000	97.645191 
1761.000000	97.646552 
1760.000000	97.647922 
1759.000000	97.649194 
1758.000000	97.650397 
1757.000000	97.651592 
1756.000000	97.652786 
1755.000000	97.653945 
1754.000000	97.655060 
1753.000000	97.656122 
1752.000000	97.657140 
1751.000000	97.658123 
1750.000000	97.659060 
1749.000000	97.659932 
1748.000000	97.660730 
1747.000000	97.661457 
1746.000000	97.662127 
1745.000000	97.662752 
1744.000000	97.663332 
1743.000000	97.663869 
1742.000000	97.664363 
1741.000000	97.664795 
1740.000000	97.665145 
1739.000000	97.665435 
1738.000000	97.665734 
1737.000000	97.665993 
1736.000000	97.666084 
1735.000000	97.666177 
1734.000000	97.666361 
1733.000000	97.666315 
1732.000000	97.666276 
1731.000000	97.666324 
1730.000000	97.666530 
1729.000000	97.666886 
1728.000000	97.667147 
1727.000000	97.667076 
1726.000000	97.666647 
1725.000000	97.666362 
1724.000000	97.666302 
1723.000000	97.666244 
1722.000000	97.666500 
1721.000000	97.666892 
1720.000000	97.666702 
1719.000000	97.665998 
1718.000000	97.666127 
1717.000000	97.666908 
1716.000000	97.666557 
1715.000000	97.665150 
1714.000000	97.664191 
1713.000000	97.663728 
1712.000000	97.662471 
1711.000000	97.660608 
1710.000000	97.659408 
1709.000000	97.658884 
1708.000000	97.657832 
1707.000000	97.655778 
1706.000000	97.653812 
1705.000000	97.652508 
1704.000000	97.651090 
1703.000000	97.648883 
1702.000000	97.646546 
1701.000000	97.645459 
1700.000000	97.644339 
1699.000000	97.642383 
1698.000000	97.641023 
1697.000000	97.639473 
1696.000000	97.637287 
1695.000000	97.634841 
1694.000000	97.632771 
1693.000000	97.630654 
1692.000000	97.628127 
1691.000000	97.625556 
1690.000000	97.623153 
1689.000000	97.620824 
1688.000000	97.618484 
1687.000000	97.616096 
1686.000000	97.613682 
1685.000000	97.611256 
1684.000000	97.608824 
1683.000000	97.606394 
1682.000000	97.603976 
1681.000000	97.601567 
1680.000000	97.599167 
1679.000000	97.596780 
1678.000000	97.594400 
1677.000000	97.592017 
1676.000000	97.589629 
1675.000000	97.587236 
1674.000000	97.584838 
1673.000000	97.582443 
1672.000000	97.580058 
1671.000000	97.577692 
1670.000000	97.575348 
1669.000000	97.573025 
1668.000000	97.570728 
1667.000000	97.568461 
1666.000000	97.566216 
1665.000000	97.563987 
1664.000000	97.561778 
1663.000000	97.559592 
1662.000000	97.557424 
1661.000000	97.555267 
1660.000000	97.553124 
1659.000000	97.550994 
1658.000000	97.548873 
1657.000000	97.546769 
1656.000000	97.544698 
1655.000000	97.542671 
1654.000000	97.540694 
1653.000000	97.538748 
1652.000000	97.536832 
1651.000000	97.534981 
1650.000000	97.533197 
1649.000000	97.531480 
1648.000000	97.529842 
1647.000000	97.528292 
1646.000000	97.526793 
1645.000000	97.525354 
1644.000000	97.523998 
1643.000000	97.522720 
1642.000000	97.521515 
1641.000000	97.520350 
1640.000000	97.519281 
1639.000000	97.518283 
1638.000000	97.517295 
1637.000000	97.516417 
1636.000000	97.515724 
1635.000000	97.514531 
1634.000000	97.513503 
1633.000000	97.513294 
1632.000000	97.512547 
1631.000000	97.511591 
1630.000000	97.511025 
1629.000000	97.510280 
1628.000000	97.509106 
1627.000000	97.509055 
1626.000000	97.510141 
1625.000000	97.510478 
1624.000000	97.509869 
1623.000000	97.510023 
1622.000000	97.511199 
1621.000000	97.512064 
1620.000000	97.512357 
1619.000000	97.512953 
1618.000000	97.514931 
1617.000000	97.514842 
1616.000000	97.511136 
1615.000000	97.510525 
1614.000000	97.513440 
1613.000000	97.513489 
1612.000000	97.510781 
1611.000000	97.510710 
1610.000000	97.513473 
1609.000000	97.515746 
1608.000000	97.519237 
1607.000000	97.527038 
1606.000000	97.534602 
1605.000000	97.537267 
1604.000000	97.539453 
1603.000000	97.545003 
1602.000000	97.551185 
1601.000000	97.554773 
1600.000000	97.557897 
1599.000000	97.562798 
1598.000000	97.567229 
1597.000000	97.569293 
1596.000000	97.571075 
1595.000000	97.575138 
1594.000000	97.580000 
1593.000000	97.582946 
1592.000000	97.585027 
1591.000000	97.588832 
1590.000000	97.593564 
1589.000000	97.596998 
1588.000000	97.600235 
1587.000000	97.605774 
1586.000000	97.612175 
1585.000000	97.615229 
1584.000000	97.616874 
1583.000000	97.620966 
1582.000000	97.624897 
1581.000000	97.625862 
1580.000000	97.627101 
1579.000000	97.631409 
1578.000000	97.636976 
1577.000000	97.642611 
1576.000000	97.647496 
1575.000000	97.653368 
1574.000000	97.660227 
1573.000000	97.663251 
1572.000000	97.663309 
1571.000000	97.666124 
1570.000000	97.670149 
1569.000000	97.668543 
1568.000000	97.666896 
1567.000000	97.668606 
1566.000000	97.667853 
1565.000000	97.663218 
1564.000000	97.660627 
1563.000000	97.661054 
1562.000000	97.657144 
1561.000000	97.647840 
1560.000000	97.655233 
1559.000000	97.675305 
1558.000000	97.671956 
1557.000000	97.662472 
1556.000000	97.656503 
1555.000000	97.653838 
1554.000000	97.652507 
1553.000000	97.649999 
1552.000000	97.645424 
1551.000000	97.638850 
1550.000000	97.633672 
1549.000000	97.629538 
1548.000000	97.623747 
1547.000000	97.615557 
1546.000000	97.605207 
1545.000000	97.595337 
1544.000000	97.588039 
1543.000000	97.582633 
1542.000000	97.579021 
1541.000000	97.574907 
1540.000000	97.559755 
1539.000000	97.536517 
1538.000000	97.521824 
1537.000000	97.511644 
1536.000000	97.495336 
1535.000000	97.477198 
1534.000000	97.464818 
1533.000000	97.458000 
1532.000000	97.451580 
1531.000000	97.441358 
1530.000000	97.427096 
1529.000000	97.410298 
1528.000000	97.393062 
1527.000000	97.378867 
1526.000000	97.368437 
1525.000000	97.358420 
1524.000000	97.344859 
1523.000000	97.327721 
1522.000000	97.311563 
1521.000000	97.297220 
1520.000000	97.282153 
1519.000000	97.263274 
1518.000000	97.239256 
1517.000000	97.216643 
1516.000000	97.200978 
1515.000000	97.190620 
1514.000000	97.179950 
1513.000000	97.166776 
1512.000000	97.150596 
1511.000000	97.130633 
1510.000000	97.108902 
1509.000000	97.089193 
1508.000000	97.076690 
1507.000000	97.067467 
1506.000000	97.049909 
1505.000000	97.027238 
1504.000000	97.006429 
1503.000000	96.984510 
1502.000000	96.960884 
1501.000000	96.938483 
1500.000000	96.918460 
1499.000000	96.898868 
1498.000000	96.879599 
1497.000000	96.863568 
1496.000000	96.849643 
1495.000000	96.837796 
1494.000000	96.829743 
1493.000000	96.823224 
1492.000000	96.815398 
1491.000000	96.806632 
1490.000000	96.798684 
1489.000000	96.789034 
1488.000000	96.771378 
1487.000000	96.747461 
1486.000000	96.725058 
1485.000000	96.702673 
1484.000000	96.678697 
1483.000000	96.655721 
1482.000000	96.637591 
1481.000000	96.624317 
1480.000000	96.609866 
1479.000000	96.591795 
1478.000000	96.573825 
1477.000000	96.560005 
1476.000000	96.547098 
1475.000000	96.532755 
1474.000000	96.518651 
1473.000000	96.507786 
1472.000000	96.499536 
1471.000000	96.490948 
1470.000000	96.481031 
1469.000000	96.467194 
1468.000000	96.448533 
1467.000000	96.428725 
1466.000000	96.412577 
1465.000000	96.401609 
1464.000000	96.394567 
1463.000000	96.385969 
1462.000000	96.371934 
1461.000000	96.352420 
1460.000000	96.331382 
1459.000000	96.313697 
1458.000000	96.303865 
1457.000000	96.301101 
1456.000000	96.298380 
1455.000000	96.291530 
1454.000000	96.275618 
1453.000000	96.256548 
1452.000000	96.245582 
1451.000000	96.245300 
1450.000000	96.252280 
1449.000000	96.264036 
1448.000000	96.276713 
1447.000000	96.285245 
1446.000000	96.285398 
1445.000000	96.281089 
1444.000000	96.279599 
1443.000000	96.279570 
1442.000000	96.278210 
1441.000000	96.276168 
1440.000000	96.274884 
1439.000000	96.271273 
1438.000000	96.267889 
1437.000000	96.273751 
1436.000000	96.287496 
1435.000000	96.297025 
1434.000000	96.297209 
1433.000000	96.293890 
1432.000000	96.294419 
1431.000000	96.299022 
1430.000000	96.303801 
1429.000000	96.309100 
1428.000000	96.314763 
1427.000000	96.319134 
1426.000000	96.320274 
1425.000000	96.323870 
1424.000000	96.336480 
1423.000000	96.349417 
1422.000000	96.351788 
1421.000000	96.346631 
1420.000000	96.347360 
1419.000000	96.355175 
1418.000000	96.360325 
1417.000000	96.362368 
1416.000000	96.364490 
1415.000000	96.365998 
1414.000000	96.364269 
1413.000000	96.360790 
1412.000000	96.360430 
1411.000000	96.363754 
1410.000000	96.368359 
1409.000000	96.374041 
1408.000000	96.381127 
1407.000000	96.391080 
1406.000000	96.405608 
1405.000000	96.427830 
1404.000000	96.458678 
1403.000000	96.489688 
1402.000000	96.513179 
1401.000000	96.532377 
1400.000000	96.557238 
1399.000000	96.588608 
1398.000000	96.614193 
1397.000000	96.623570 
1396.000000	96.620013 
1395.000000	96.618926 
1394.000000	96.633760 
1393.000000	96.666980 
1392.000000	96.710207 
1391.000000	96.750528 
1390.000000	96.780651 
1389.000000	96.802095 
1388.000000	96.820406 
1387.000000	96.838085 
1386.000000	96.853429 
1385.000000	96.866454 
1384.000000	96.881035 
1383.000000	96.899175 
1382.000000	96.919196 
1381.000000	96.938314 
1380.000000	96.956612 
1379.000000	96.976669 
1378.000000	96.998916 
1377.000000	97.021140 
1376.000000	97.042306 
1375.000000	97.064424 
1374.000000	97.089229 
1373.000000	97.116476 
1372.000000	97.144254 
1371.000000	97.170937 
1370.000000	97.195748 
1369.000000	97.219387 
1368.000000	97.243000 
1367.000000	97.264172 
1366.000000	97.279941 
1365.000000	97.291948 
1364.000000	97.306365 
1363.000000	97.327125 
1362.000000	97.351256 
1361.000000	97.373499 
1360.000000	97.393069 
1359.000000	97.412205 
1358.000000	97.431144 
1357.000000	97.448204 
1356.000000	97.463093 
1355.000000	97.476775 
1354.000000	97.490192 
1353.000000	97.504016 
1352.000000	97.517912 
1351.000000	97.532129 
1350.000000	97.545689 
1349.000000	97.556789 
1348.000000	97.565551 
1347.000000	97.572962 
1346.000000	97.580581 
1345.000000	97.588943 
1344.000000	97.596892 
1343.000000	97.601875 
1342.000000	97.603138 
1341.000000	97.603949 
1340.000000	97.609219 
1339.000000	97.619813 
1338.000000	97.632037 
1337.000000	97.642831 
1336.000000	97.651388 
1335.000000	97.656723 
1334.000000	97.658126 
1333.000000	97.657530 
1332.000000	97.658168 
1331.000000	97.660544 
1330.000000	97.662342 
1329.000000	97.662732 
1328.000000	97.663632 
1327.000000	97.666361 
1326.000000	97.669253 
1325.000000	97.670414 
1324.000000	97.669874 
1323.000000	97.667426 
1322.000000	97.662759 
1321.000000	97.657956 
1320.000000	97.656774 
1319.000000	97.659944 
1318.000000	97.664165 
1317.000000	97.666438 
1316.000000	97.666535 
1315.000000	97.664810 
1314.000000	97.661309 
1313.000000	97.657960 
1312.000000	97.658014 
1311.000000	97.661714 
1310.000000	97.665335 
1309.000000	97.666007 
1308.000000	97.664954 
1307.000000	97.665266 
1306.000000	97.667839 
1305.000000	97.671486 
1304.000000	97.675020 
1303.000000	97.676973 
1302.000000	97.675797 
1301.000000	97.671733 
1300.000000	97.667608 
1299.000000	97.666196 
1298.000000	97.667598 
1297.000000	97.669528 
1296.000000	97.669608 
1295.000000	97.667191 
1294.000000	97.663993 
1293.000000	97.663030 
1292.000000	97.665512 
1291.000000	97.669174 
1290.000000	97.671069 
1289.000000	97.671196 
1288.000000	97.671303 
1287.000000	97.671017 
1286.000000	97.668063 
1285.000000	97.662427 
1284.000000	97.657318 
1283.000000	97.655139 
1282.000000	97.654632 
1281.000000	97.653016 
1280.000000	97.649582 
1279.000000	97.645980 
1278.000000	97.644237 
1277.000000	97.645278 
1276.000000	97.647953 
1275.000000	97.649167 
1274.000000	97.646366 
1273.000000	97.640422 
1272.000000	97.634375 
1271.000000	97.629215 
1270.000000	97.622895 
1269.000000	97.614060 
1268.000000	97.604339 
1267.000000	97.595644 
1266.000000	97.587585 
1265.000000	97.579266 
1264.000000	97.571566 
1263.000000	97.565742 
1262.000000	97.560890 
1261.000000	97.554753 
1260.000000	97.547033 
1259.000000	97.540034 
1258.000000	97.535514 
1257.000000	97.531719 
1256.000000	97.524228 
1255.000000	97.510493 
1254.000000	97.493294 
1253.000000	97.478097 
1252.000000	97.466557 
1251.000000	97.455030 
1250.000000	97.441085 
1249.000000	97.428848 
1248.000000	97.424456 
1247.000000	97.427151 
1246.000000	97.428460 
1245.000000	97.420340 
1244.000000	97.401710 
1243.000000	97.378490 
1242.000000	97.360278 
1241.000000	97.355179 
1240.000000	97.362892 
1239.000000	97.372254 
1238.000000	97.369697 
1237.000000	97.351312 
1236.000000	97.323945 
1235.000000	97.295293 
1234.000000	97.267294 
1233.000000	97.239529 
1232.000000	97.213445 
1231.000000	97.190101 
1230.000000	97.167526 
1229.000000	97.143366 
1228.000000	97.117491 
1227.000000	97.089600 
1226.000000	97.056770 
1225.000000	97.016036 
1224.000000	96.967615 
1223.000000	96.913605 
1222.000000	96.855187 
1221.000000	96.792925 
1220.000000	96.728030 
1219.000000	96.661153 
1218.000000	96.591111 
1217.000000	96.516383 
1216.000000	96.436479 
1215.000000	96.350872 
1214.000000	96.259141 
1213.000000	96.164093 
1212.000000	96.071836 
1211.000000	95.985368 
1210.000000	95.899873 
1209.000000	95.807956 
1208.000000	95.708490 
1207.000000	95.607040 
1206.000000	95.508399 
1205.000000	95.412019 
1204.000000	95.314768 
1203.000000	95.215054 
1202.000000	95.113852 
1201.000000	95.013838 
1200.000000	94.917584 
1199.000000	94.824983 
1198.000000	94.733002 
1197.000000	94.639462 
1196.000000	94.545643 
1195.000000	94.453359 
1194.000000	94.361173 
1193.000000	94.266039 
1192.000000	94.167332 
1191.000000	94.066565 
1190.000000	93.964377 
1189.000000	93.860381 
1188.000000	93.754726 
1187.000000	93.647228 
1186.000000	93.536283 
1185.000000	93.421094 
1184.000000	93.303282 
1183.000000	93.183850 
1182.000000	93.060758 
1181.000000	92.932460 
1180.000000	92.801124 
1179.000000	92.668413 
1178.000000	92.530692 
1177.000000	92.383218 
1176.000000	92.226994 
1175.000000	92.066625 
1174.000000	91.903522 
1173.000000	91.736883 
1172.000000	91.569550 
1171.000000	91.406116 
1170.000000	91.246099 
1169.000000	91.085860 
1168.000000	90.927359 
1167.000000	90.778953 
1166.000000	90.648404 
1165.000000	90.542350 
1164.000000	90.471968 
1163.000000	90.449901 
1162.000000	90.478273 
1161.000000	90.544024 
1160.000000	90.625612 
1159.000000	90.699426 
1158.000000	90.743066 
1157.000000	90.742147 
1156.000000	90.696173 
1155.000000	90.613851 
1154.000000	90.503652 
1153.000000	90.373127 
1152.000000	90.233957 
1151.000000	90.098384 
1150.000000	89.969562 
1149.000000	89.842711 
1148.000000	89.716131 
1147.000000	89.593388 
1146.000000	89.474453 
1145.000000	89.353657 
1144.000000	89.228525 
1143.000000	89.102927 
1142.000000	88.979432 
1141.000000	88.855820 
1140.000000	88.731135 
1139.000000	88.608087 
1138.000000	88.487476 
1137.000000	88.366785 
1136.000000	88.245597 
1135.000000	88.125748 
1134.000000	88.005346 
1133.000000	87.879950 
1132.000000	87.750430 
1131.000000	87.622073 
1130.000000	87.495337 
1129.000000	87.365662 
1128.000000	87.233078 
1127.000000	87.102991 
1126.000000	86.975981 
1125.000000	86.845896 
1124.000000	86.710085 
1123.000000	86.572878 
1122.000000	86.437093 
1121.000000	86.300997 
1120.000000	86.165465 
1119.000000	86.034684 
1118.000000	85.907615 
1117.000000	85.778438 
1116.000000	85.647441 
1115.000000	85.521634 
1114.000000	85.402521 
1113.000000	85.283415 
1112.000000	85.161054 
1111.000000	85.039411 
1110.000000	84.920393 
1109.000000	84.801569 
1108.000000	84.683390 
1107.000000	84.568442 
1106.000000	84.453626 
1105.000000	84.333708 
1104.000000	84.212619 
1103.000000	84.099547 
1102.000000	83.994043 
1101.000000	83.887334 
1100.000000	83.778184 
1099.000000	83.674819 
1098.000000	83.580682 
1097.000000	83.491102 
1096.000000	83.404526 
1095.000000	83.323248 
1094.000000	83.242319 
1093.000000	83.152151 
1092.000000	83.054485 
1091.000000	82.962696 
1090.000000	82.884384 
1089.000000	82.815977 
1088.000000	82.754655 
1087.000000	82.701581 
1086.000000	82.652608 
1085.000000	82.600574 
1084.000000	82.548540 
1083.000000	82.506904 
1082.000000	82.476385 
1081.000000	82.448065 
1080.000000	82.420809 
1079.000000	82.403172 
1078.000000	82.396530 
1077.000000	82.391793 
1076.000000	82.384563 
1075.000000	82.377876 
1074.000000	82.368046 
1073.000000	82.343357 
1072.000000	82.298069 
1071.000000	82.231379 
1070.000000	82.131440 
1069.000000	81.980025 
1068.000000	81.779698 
1067.000000	81.561718 
1066.000000	81.359229 
1065.000000	81.182835 
1064.000000	81.026269 
1063.000000	80.879092 
1062.000000	80.726379 
1061.000000	80.552506 
1060.000000	80.357208 
1059.000000	80.159525 
1058.000000	79.979058 
1057.000000	79.820849 
1056.000000	79.680638 
1055.000000	79.552406 
1054.000000	79.426927 
1053.000000	79.295795 
1052.000000	79.162433 
1051.000000	79.038186 
1050.000000	78.924122 
1049.000000	78.809510 
1048.000000	78.689770 
1047.000000	78.570423 
1046.000000	78.452532 
1045.000000	78.330253 
1044.000000	78.203581 
1043.000000	78.078900 
1042.000000	77.956154 
1041.000000	77.829300 
1040.000000	77.700426 
1039.000000	77.580206 
1038.000000	77.474080 
1037.000000	77.380993 
1036.000000	77.304048 
1035.000000	77.247540 
1034.000000	77.205024 
1033.000000	77.165369 
1032.000000	77.127792 
1031.000000	77.095143 
1030.000000	77.058298 
1029.000000	77.008329 
1028.000000	76.960839 
1027.000000	76.944416 
1026.000000	76.963778 
1025.000000	76.994927 
1024.000000	77.017608 
1023.000000	77.031530 
1022.000000	77.039064 
1021.000000	77.035555 
1020.000000	77.022257 
1019.000000	77.009333 
1018.000000	77.000507 
1017.000000	76.990848 
1016.000000	76.982001 
1015.000000	76.982394 
1014.000000	76.990716 
1013.000000	76.997052 
1012.000000	77.001976 
1011.000000	77.016528 
1010.000000	77.042046 
1009.000000	77.068508 
1008.000000	77.094379 
1007.000000	77.129567 
1006.000000	77.177114 
1005.000000	77.230432 
1004.000000	77.289880 
1003.000000	77.362814 
1002.000000	77.445063 
1001.000000	77.521793 
1000.000000	77.590303 
999.000000	 77.663927 
998.000000	 77.750042 
997.000000	 77.841653 
996.000000	 77.933642 
995.000000	 78.030516 
994.000000	 78.134864 
993.000000	 78.243772 
992.000000	 78.358613 
991.000000	 78.483026 
990.000000	 78.610699 
989.000000	 78.731380 
988.000000	 78.849277 
987.000000	 78.978706 
986.000000	 79.122025 
985.000000	 79.269762 
984.000000	 79.421977 
983.000000	 79.589510 
982.000000	 79.772529 
981.000000	 79.957203 
980.000000	 80.136678 
979.000000	 80.317856 
978.000000	 80.504474 
977.000000	 80.691433 
976.000000	 80.879276 
975.000000	 81.076923 
974.000000	 81.285574 
973.000000	 81.495425 
972.000000	 81.702262 
971.000000	 81.912721 
970.000000	 82.129718 
969.000000	 82.346746 
968.000000	 82.559694 
967.000000	 82.771108 
966.000000	 82.980599 
965.000000	 83.184271 
964.000000	 83.385432 
963.000000	 83.592581 
962.000000	 83.804700 
961.000000	 84.011205 
960.000000	 84.207921 
959.000000	 84.400592 
958.000000	 84.591698 
957.000000	 84.776557 
956.000000	 84.953927 
955.000000	 85.128293 
954.000000	 85.300494 
953.000000	 85.467466 
952.000000	 85.631288 
951.000000	 85.796474 
950.000000	 85.958616 
949.000000	 86.108561 
948.000000	 86.247680 
947.000000	 86.386075 
946.000000	 86.525426 
945.000000	 86.656971 
944.000000	 86.777599 
943.000000	 86.894858 
942.000000	 87.014238 
941.000000	 87.133770 
940.000000	 87.253229 
939.000000	 87.376418 
938.000000	 87.501933 
937.000000	 87.622921 
936.000000	 87.738348 
935.000000	 87.854300 
934.000000	 87.972798 
933.000000	 88.089651 
932.000000	 88.204483 
931.000000	 88.322323 
930.000000	 88.443716 
929.000000	 88.562938 
928.000000	 88.677343 
927.000000	 88.789555 
926.000000	 88.899966 
925.000000	 89.005470 
924.000000	 89.105243 
923.000000	 89.199837 
922.000000	 89.286402 
921.000000	 89.363816 
920.000000	 89.440033 
919.000000	 89.523922 
918.000000	 89.611645 
917.000000	 89.691668 
916.000000	 89.762095 
915.000000	 89.832944 
914.000000	 89.912455 
913.000000	 90.001387 
912.000000	 90.099782 
911.000000	 90.208532 
910.000000	 90.324323 
909.000000	 90.442897 
908.000000	 90.566935 
907.000000	 90.701914 
906.000000	 90.845975 
905.000000	 90.992842 
904.000000	 91.141678 
903.000000	 91.294118 
902.000000	 91.445123 
901.000000	 91.588103 
900.000000	 91.726531 
899.000000	 91.869786 
898.000000	 92.019546 
897.000000	 92.170145 
896.000000	 92.318567 
895.000000	 92.462845 
894.000000	 92.595030 
893.000000	 92.708893 
892.000000	 92.812323 
891.000000	 92.919486 
890.000000	 93.030953 
889.000000	 93.131881 
888.000000	 93.207938 
887.000000	 93.253477 
886.000000	 93.269029 
885.000000	 93.263227 
884.000000	 93.253346 
883.000000	 93.249895 
882.000000	 93.243339 
881.000000	 93.221076 
880.000000	 93.195263 
879.000000	 93.196264 
878.000000	 93.238613 
877.000000	 93.311331 
876.000000	 93.402255 
875.000000	 93.513057 
874.000000	 93.647040 
873.000000	 93.801071 
872.000000	 93.974717 
871.000000	 94.170584 
870.000000	 94.380256 
869.000000	 94.584279 
868.000000	 94.770679 
867.000000	 94.941561 
866.000000	 95.099893 
865.000000	 95.243515 
864.000000	 95.375413 
863.000000	 95.506450 
862.000000	 95.641854 
861.000000	 95.774842 
860.000000	 95.898402 
859.000000	 96.014425 
858.000000	 96.127376 
857.000000	 96.237414 
856.000000	 96.343438 
855.000000	 96.445193 
854.000000	 96.539095 
853.000000	 96.619052 
852.000000	 96.684332 
851.000000	 96.741346 
850.000000	 96.797262 
849.000000	 96.857574 
848.000000	 96.927805 
847.000000	 97.008426 
846.000000	 97.088777 
845.000000	 97.155662 
844.000000	 97.208278 
843.000000	 97.256536 
842.000000	 97.305763 
841.000000	 97.351982 
840.000000	 97.390612 
839.000000	 97.419452 
838.000000	 97.434420 
837.000000	 97.434195 
836.000000	 97.429938 
835.000000	 97.439067 
834.000000	 97.466025 
833.000000	 97.497931 
832.000000	 97.521219 
831.000000	 97.533773 
830.000000	 97.539755 
829.000000	 97.543335 
828.000000	 97.551639 
827.000000	 97.574400 
826.000000	 97.614272 
825.000000	 97.662537 
824.000000	 97.706252 
823.000000	 97.733972 
822.000000	 97.737241 
821.000000	 97.716590 
820.000000	 97.684584 
819.000000	 97.652981 
818.000000	 97.616886 
817.000000	 97.558615 
816.000000	 97.465293 
815.000000	 97.335542 
814.000000	 97.171482 
813.000000	 96.972332 
812.000000	 96.733660 
811.000000	 96.443050 
810.000000	 96.077592 
809.000000	 95.616983 
808.000000	 95.061868 
807.000000	 94.432870 
806.000000	 93.753332 
805.000000	 93.043636 
804.000000	 92.331437 
803.000000	 91.651262 
802.000000	 91.029095 
801.000000	 90.481244 
800.000000	 90.030913 
799.000000	 89.706958 
798.000000	 89.518857 
797.000000	 89.448055 
796.000000	 89.467828 
795.000000	 89.555355 
794.000000	 89.683500 
793.000000	 89.822249 
792.000000	 89.954364 
791.000000	 90.074044 
790.000000	 90.168322 
789.000000	 90.216061 
788.000000	 90.206126 
787.000000	 90.139705 
786.000000	 90.014359 
785.000000	 89.824142 
784.000000	 89.578156 
783.000000	 89.302047 
782.000000	 89.019270 
781.000000	 88.748586 
780.000000	 88.520434 
779.000000	 88.372443 
778.000000	 88.321739 
777.000000	 88.359947 
776.000000	 88.478035 
775.000000	 88.673657 
774.000000	 88.929581 
773.000000	 89.209340 
772.000000	 89.484232 
771.000000	 89.747884 
770.000000	 90.000310 
769.000000	 90.236931 
768.000000	 90.457571 
767.000000	 90.666619 
766.000000	 90.858985 
765.000000	 91.024443 
764.000000	 91.170354 
763.000000	 91.320848 
762.000000	 91.487641 
761.000000	 91.659758 
760.000000	 91.826890 
759.000000	 91.993112 
758.000000	 92.161294 
757.000000	 92.324524 
756.000000	 92.482308 
755.000000	 92.646832 
754.000000	 92.822066 
753.000000	 92.991423 
752.000000	 93.135851 
751.000000	 93.252587 
750.000000	 93.351263 
749.000000	 93.444609 
748.000000	 93.547018 
747.000000	 93.666838 
746.000000	 93.793496 
745.000000	 93.906645 
744.000000	 94.003766 
743.000000	 94.104110 
742.000000	 94.220657 
741.000000	 94.344744 
740.000000	 94.464140 
739.000000	 94.579024 
738.000000	 94.692255 
737.000000	 94.799060 
736.000000	 94.895293 
735.000000	 94.983496 
734.000000	 95.064832 
733.000000	 95.136610 
732.000000	 95.200959 
731.000000	 95.263157 
730.000000	 95.319462 
729.000000	 95.361887 
728.000000	 95.393338 
727.000000	 95.425580 
726.000000	 95.466464 
725.000000	 95.518992 
724.000000	 95.589546 
723.000000	 95.682537 
722.000000	 95.786591 
721.000000	 95.880291 
720.000000	 95.953662 
719.000000	 96.012695 
718.000000	 96.062460 
717.000000	 96.101033 
716.000000	 96.132693 
715.000000	 96.168928 
714.000000	 96.212697 
713.000000	 96.259074 
712.000000	 96.312633 
711.000000	 96.385650 
710.000000	 96.474027 
709.000000	 96.558981 
708.000000	 96.628062 
707.000000	 96.680025 
706.000000	 96.712986 
705.000000	 96.718944 
704.000000	 96.692004 
703.000000	 96.631936 
702.000000	 96.530005 
701.000000	 96.364476 
700.000000	 96.121078 
699.000000	 95.805581 
698.000000	 95.442522 
697.000000	 95.075741 
696.000000	 94.767760 
695.000000	 94.582050 
694.000000	 94.545169 
693.000000	 94.634604 
692.000000	 94.807347 
691.000000	 95.023725 
690.000000	 95.252272 
689.000000	 95.469619 
688.000000	 95.664421 
687.000000	 95.836326 
686.000000	 95.981874 
685.000000	 96.096297 
684.000000	 96.190342 
683.000000	 96.281558 
682.000000	 96.371906 
681.000000	 96.451341 
680.000000	 96.523482 
679.000000	 96.601957 
678.000000	 96.686031 
677.000000	 96.766978 
676.000000	 96.842885 
675.000000	 96.918662 
674.000000	 96.990488 
673.000000	 97.035062 
672.000000	 97.033966 
671.000000	 96.971575 
670.000000	 96.838652 
669.000000	 96.641961 
668.000000	 96.547307 
667.000000	 96.730283 
666.000000	 97.031312 
665.000000	 97.245113 
664.000000	 97.370137 
663.000000	 97.445038 
662.000000	 97.496198 
661.000000	 97.536434 
660.000000	 97.573310 
659.000000	 97.611781 
658.000000	 97.647361 
657.000000	 97.673757 
656.000000	 97.684122 
655.000000	 97.677886 
654.000000	 97.662919 
653.000000	 97.646618 
652.000000	 97.633532 
651.000000	 97.632582 
650.000000	 97.651791 

