4000.000000	97.318622 
3999.000000	97.316062 
3998.000000	97.311591 
3997.000000	97.306996 
3996.000000	97.303797 
3995.000000	97.302454 
3994.000000	97.302955 
3993.000000	97.304852 
3992.000000	97.307179 
3991.000000	97.309106 
3990.000000	97.310513 
3989.000000	97.311640 
3988.000000	97.312391 
3987.000000	97.312382 
3986.000000	97.311713 
3985.000000	97.311084 
3984.000000	97.310873 
3983.000000	97.310705 
3982.000000	97.310286 
3981.000000	97.310064 
3980.000000	97.310484 
3979.000000	97.311079 
3978.000000	97.311047 
3977.000000	97.310507 
3976.000000	97.310309 
3975.000000	97.310615 
3974.000000	97.310523 
3973.000000	97.309339 
3972.000000	97.307389 
3971.000000	97.305403 
3970.000000	97.303844 
3969.000000	97.302902 
3968.000000	97.302689 
3967.000000	97.303060 
3966.000000	97.303535 
3965.000000	97.303550 
3964.000000	97.302732 
3963.000000	97.301102 
3962.000000	97.299174 
3961.000000	97.297813 
3960.000000	97.297462 
3959.000000	97.297658 
3958.000000	97.297830 
3957.000000	97.297912 
3956.000000	97.297971 
3955.000000	97.297548 
3954.000000	97.296021 
3953.000000	97.293385 
3952.000000	97.290372 
3951.000000	97.287991 
3950.000000	97.286790 
3949.000000	97.286550 
3948.000000	97.286550 
3947.000000	97.286379 
3946.000000	97.286155 
3945.000000	97.285922 
3944.000000	97.285382 
3943.000000	97.284533 
3942.000000	97.284137 
3941.000000	97.285146 
3940.000000	97.287333 
3939.000000	97.288848 
3938.000000	97.288384 
3937.000000	97.286456 
3936.000000	97.284325 
3935.000000	97.282205 
3934.000000	97.279707 
3933.000000	97.277697 
3932.000000	97.277521 
3931.000000	97.278855 
3930.000000	97.279794 
3929.000000	97.279305 
3928.000000	97.278545 
3927.000000	97.278495 
3926.000000	97.278219 
3925.000000	97.276801 
3924.000000	97.275348 
3923.000000	97.275078 
3922.000000	97.274950 
3921.000000	97.273664 
3920.000000	97.272281 
3919.000000	97.272528 
3918.000000	97.274046 
3917.000000	97.275133 
3916.000000	97.275257 
3915.000000	97.275111 
3914.000000	97.274905 
3913.000000	97.274170 
3912.000000	97.273052 
3911.000000	97.271877 
3910.000000	97.270851 
3909.000000	97.269958 
3908.000000	97.269230 
3907.000000	97.268655 
3906.000000	97.268125 
3905.000000	97.267610 
3904.000000	97.267155 
3903.000000	97.266780 
3902.000000	97.266488 
3901.000000	97.266258 
3900.000000	97.266056 
3899.000000	97.265853 
3898.000000	97.265635 
3897.000000	97.265404 
3896.000000	97.265163 
3895.000000	97.264899 
3894.000000	97.264591 
3893.000000	97.264240 
3892.000000	97.263858 
3891.000000	97.263456 
3890.000000	97.263058 
3889.000000	97.262689 
3888.000000	97.262350 
3887.000000	97.262027 
3886.000000	97.261711 
3885.000000	97.261418 
3884.000000	97.261164 
3883.000000	97.260939 
3882.000000	97.260715 
3881.000000	97.260484 
3880.000000	97.260265 
3879.000000	97.260082 
3878.000000	97.259933 
3877.000000	97.259792 
3876.000000	97.259631 
3875.000000	97.259456 
3874.000000	97.259301 
3873.000000	97.259195 
3872.000000	97.259142 
3871.000000	97.259120 
3870.000000	97.259128 
3869.000000	97.259197 
3868.000000	97.259356 
3867.000000	97.259581 
3866.000000	97.259825 
3865.000000	97.260079 
3864.000000	97.260362 
3863.000000	97.260663 
3862.000000	97.260938 
3861.000000	97.261162 
3860.000000	97.261351 
3859.000000	97.261533 
3858.000000	97.261718 
3857.000000	97.261923 
3856.000000	97.262184 
3855.000000	97.262538 
3854.000000	97.262979 
3853.000000	97.263483 
3852.000000	97.264088 
3851.000000	97.264852 
3850.000000	97.265755 
3849.000000	97.266731 
3848.000000	97.267723 
3847.000000	97.268702 
3846.000000	97.269661 
3845.000000	97.270610 
3844.000000	97.271553 
3843.000000	97.272489 
3842.000000	97.273416 
3841.000000	97.274350 
3840.000000	97.275310 
3839.000000	97.276298 
3838.000000	97.277295 
3837.000000	97.278289 
3836.000000	97.279287 
3835.000000	97.280308 
3834.000000	97.281358 
3833.000000	97.282430 
3832.000000	97.283515 
3831.000000	97.284605 
3830.000000	97.285698 
3829.000000	97.286794 
3828.000000	97.287885 
3827.000000	97.288955 
3826.000000	97.289991 
3825.000000	97.291001 
3824.000000	97.292006 
3823.000000	97.293008 
3822.000000	97.293985 
3821.000000	97.294931 
3820.000000	97.295888 
3819.000000	97.296906 
3818.000000	97.297967 
3817.000000	97.299012 
3816.000000	97.300017 
3815.000000	97.301010 
3814.000000	97.302013 
3813.000000	97.303000 
3812.000000	97.303925 
3811.000000	97.304787 
3810.000000	97.305607 
3809.000000	97.306368 
3808.000000	97.307028 
3807.000000	97.307585 
3806.000000	97.308093 
3805.000000	97.308620 
3804.000000	97.309184 
3803.000000	97.309755 
3802.000000	97.310313 
3801.000000	97.310870 
3800.000000	97.311461 
3799.000000	97.312081 
3798.000000	97.312679 
3797.000000	97.313217 
3796.000000	97.313699 
3795.000000	97.314137 
3794.000000	97.314523 
3793.000000	97.314839 
3792.000000	97.315068 
3791.000000	97.315205 
3790.000000	97.315250 
3789.000000	97.315212 
3788.000000	97.315105 
3787.000000	97.314942 
3786.000000	97.314722 
3785.000000	97.314445 
3784.000000	97.314135 
3783.000000	97.313813 
3782.000000	97.313466 
3781.000000	97.313063 
3780.000000	97.312597 
3779.000000	97.312083 
3778.000000	97.311523 
3777.000000	97.310901 
3776.000000	97.310207 
3775.000000	97.309465 
3774.000000	97.308704 
3773.000000	97.307927 
3772.000000	97.307113 
3771.000000	97.306249 
3770.000000	97.305349 
3769.000000	97.304438 
3768.000000	97.303525 
3767.000000	97.302599 
3766.000000	97.301658 
3765.000000	97.300720 
3764.000000	97.299802 
3763.000000	97.298886 
3762.000000	97.297934 
3761.000000	97.296928 
3760.000000	97.295879 
3759.000000	97.294793 
3758.000000	97.293653 
3757.000000	97.292443 
3756.000000	97.291185 
3755.000000	97.289923 
3754.000000	97.288694 
3753.000000	97.287518 
3752.000000	97.286404 
3751.000000	97.285343 
3750.000000	97.284310 
3749.000000	97.283305 
3748.000000	97.282352 
3747.000000	97.281448 
3746.000000	97.280550 
3745.000000	97.279618 
3744.000000	97.278540 
3743.000000	97.277391 
3742.000000	97.276547 
3741.000000	97.275714 
3740.000000	97.274063 
3739.000000	97.271716 
3738.000000	97.269741 
3737.000000	97.268368 
3736.000000	97.266826 
3735.000000	97.265541 
3734.000000	97.265614 
3733.000000	97.265653 
3732.000000	97.263191 
3731.000000	97.259410 
3730.000000	97.257956 
3729.000000	97.258718 
3728.000000	97.257833 
3727.000000	97.254046 
3726.000000	97.250675 
3725.000000	97.250818 
3724.000000	97.252156 
3723.000000	97.250498 
3722.000000	97.245914 
3721.000000	97.241233 
3720.000000	97.237844 
3719.000000	97.233760 
3718.000000	97.226812 
3717.000000	97.218466 
3716.000000	97.212150 
3715.000000	97.208305 
3714.000000	97.204935 
3713.000000	97.202941 
3712.000000	97.203442 
3711.000000	97.202535 
3710.000000	97.196948 
3709.000000	97.187334 
3708.000000	97.174730 
3707.000000	97.160113 
3706.000000	97.145529 
3705.000000	97.132628 
3704.000000	97.121133 
3703.000000	97.109664 
3702.000000	97.096452 
3701.000000	97.081228 
3700.000000	97.067729 
3699.000000	97.058575 
3698.000000	97.050292 
3697.000000	97.039745 
3696.000000	97.029280 
3695.000000	97.021810 
3694.000000	97.015031 
3693.000000	97.005184 
3692.000000	96.993288 
3691.000000	96.982777 
3690.000000	96.973416 
3689.000000	96.961327 
3688.000000	96.947233 
3687.000000	96.937791 
3686.000000	96.934169 
3685.000000	96.929286 
3684.000000	96.919099 
3683.000000	96.906586 
3682.000000	96.894773 
3681.000000	96.881842 
3680.000000	96.865285 
3679.000000	96.847778 
3678.000000	96.833090 
3677.000000	96.820335 
3676.000000	96.805013 
3675.000000	96.786007 
3674.000000	96.769906 
3673.000000	96.759669 
3672.000000	96.749180 
3671.000000	96.734558 
3670.000000	96.717891 
3669.000000	96.702163 
3668.000000	96.689194 
3667.000000	96.677659 
3666.000000	96.665005 
3665.000000	96.651464 
3664.000000	96.638743 
3663.000000	96.626446 
3662.000000	96.611950 
3661.000000	96.593810 
3660.000000	96.574225 
3659.000000	96.557222 
3658.000000	96.543103 
3657.000000	96.526720 
3656.000000	96.502935 
3655.000000	96.477939 
3654.000000	96.460398 
3653.000000	96.443717 
3652.000000	96.418599 
3651.000000	96.392816 
3650.000000	96.377803 
3649.000000	96.366985 
3648.000000	96.349075 
3647.000000	96.329463 
3646.000000	96.320859 
3645.000000	96.324068 
3644.000000	96.329196 
3643.000000	96.328203 
3642.000000	96.322255 
3641.000000	96.315838 
3640.000000	96.308333 
3639.000000	96.294658 
3638.000000	96.274501 
3637.000000	96.255458 
3636.000000	96.239928 
3635.000000	96.219000 
3634.000000	96.186271 
3633.000000	96.151070 
3632.000000	96.126320 
3631.000000	96.112384 
3630.000000	96.103285 
3629.000000	96.086863 
3628.000000	96.061936 
3627.000000	96.054253 
3626.000000	96.064631 
3625.000000	96.064161 
3624.000000	96.046392 
3623.000000	96.025723 
3622.000000	96.009968 
3621.000000	95.996424 
3620.000000	95.984505 
3619.000000	95.978014 
3618.000000	95.981900 
3617.000000	96.000475 
3616.000000	96.028741 
3615.000000	96.055082 
3614.000000	96.073906 
3613.000000	96.088357 
3612.000000	96.104189 
3611.000000	96.122264 
3610.000000	96.137781 
3609.000000	96.147942 
3608.000000	96.155457 
3607.000000	96.164102 
3606.000000	96.174339 
3605.000000	96.183928 
3604.000000	96.193523 
3603.000000	96.206825 
3602.000000	96.222276 
3601.000000	96.232095 
3600.000000	96.232743 
3599.000000	96.228900 
3598.000000	96.226302 
3597.000000	96.229535 
3596.000000	96.239944 
3595.000000	96.253270 
3594.000000	96.261932 
3593.000000	96.262309 
3592.000000	96.255857 
3591.000000	96.245000 
3590.000000	96.232804 
3589.000000	96.225170 
3588.000000	96.226896 
3587.000000	96.236601 
3586.000000	96.251254 
3585.000000	96.267667 
3584.000000	96.281030 
3583.000000	96.289837 
3582.000000	96.296579 
3581.000000	96.302735 
3580.000000	96.306918 
3579.000000	96.307935 
3578.000000	96.306389 
3577.000000	96.304426 
3576.000000	96.303929 
3575.000000	96.304459 
3574.000000	96.303674 
3573.000000	96.299147 
3572.000000	96.290282 
3571.000000	96.278585 
3570.000000	96.266871 
3569.000000	96.258499 
3568.000000	96.256629 
3567.000000	96.261667 
3566.000000	96.271101 
3565.000000	96.281654 
3564.000000	96.289119 
3563.000000	96.291098 
3562.000000	96.289809 
3561.000000	96.289342 
3560.000000	96.291374 
3559.000000	96.294460 
3558.000000	96.296293 
3557.000000	96.295857 
3556.000000	96.294332 
3555.000000	96.293569 
3554.000000	96.293972 
3553.000000	96.294080 
3552.000000	96.292334 
3551.000000	96.288659 
3550.000000	96.283843 
3549.000000	96.278712 
3548.000000	96.275053 
3547.000000	96.274971 
3546.000000	96.278081 
3545.000000	96.281655 
3544.000000	96.284043 
3543.000000	96.285849 
3542.000000	96.287938 
3541.000000	96.290029 
3540.000000	96.291583 
3539.000000	96.292479 
3538.000000	96.292792 
3537.000000	96.292691 
3536.000000	96.292532 
3535.000000	96.292616 
3534.000000	96.292540 
3533.000000	96.291714 
3532.000000	96.290438 
3531.000000	96.289907 
3530.000000	96.290497 
3529.000000	96.290821 
3528.000000	96.289246 
3527.000000	96.285956 
3526.000000	96.282773 
3525.000000	96.281312 
3524.000000	96.282104 
3523.000000	96.284826 
3522.000000	96.288576 
3521.000000	96.292066 
3520.000000	96.294380 
3519.000000	96.295566 
3518.000000	96.296145 
3517.000000	96.296144 
3516.000000	96.294898 
3515.000000	96.292119 
3514.000000	96.288869 
3513.000000	96.286845 
3512.000000	96.286587 
3511.000000	96.287089 
3510.000000	96.287068 
3509.000000	96.286321 
3508.000000	96.285635 
3507.000000	96.285472 
3506.000000	96.285127 
3505.000000	96.283679 
3504.000000	96.281344 
3503.000000	96.279378 
3502.000000	96.278837 
3501.000000	96.279778 
3500.000000	96.281591 
3499.000000	96.283734 
3498.000000	96.285951 
3497.000000	96.287863 
3496.000000	96.288694 
3495.000000	96.287669 
3494.000000	96.284809 
3493.000000	96.281236 
3492.000000	96.278326 
3491.000000	96.276636 
3490.000000	96.275786 
3489.000000	96.275075 
3488.000000	96.273964 
3487.000000	96.272108 
3486.000000	96.269443 
3485.000000	96.266501 
3484.000000	96.264230 
3483.000000	96.263085 
3482.000000	96.262434 
3481.000000	96.261353 
3480.000000	96.259799 
3479.000000	96.258444 
3478.000000	96.257562 
3477.000000	96.256603 
3476.000000	96.254930 
3475.000000	96.252505 
3474.000000	96.249846 
3473.000000	96.247582 
3472.000000	96.245956 
3471.000000	96.244633 
3470.000000	96.243046 
3469.000000	96.240956 
3468.000000	96.238683 
3467.000000	96.236819 
3466.000000	96.235732 
3465.000000	96.235161 
3464.000000	96.234227 
3463.000000	96.232038 
3462.000000	96.228410 
3461.000000	96.224063 
3460.000000	96.220039 
3459.000000	96.216811 
3458.000000	96.214091 
3457.000000	96.211361 
3456.000000	96.208469 
3455.000000	96.205787 
3454.000000	96.203721 
3453.000000	96.202270 
3452.000000	96.201135 
3451.000000	96.200064 
3450.000000	96.198792 
3449.000000	96.196849 
3448.000000	96.193858 
3447.000000	96.189999 
3446.000000	96.185969 
3445.000000	96.182428 
3444.000000	96.179662 
3443.000000	96.177727 
3442.000000	96.176445 
3441.000000	96.175113 
3440.000000	96.172798 
3439.000000	96.169157 
3438.000000	96.164842 
3437.000000	96.160911 
3436.000000	96.157974 
3435.000000	96.156237 
3434.000000	96.155728 
3433.000000	96.156139 
3432.000000	96.156703 
3431.000000	96.156680 
3430.000000	96.155849 
3429.000000	96.154355 
3428.000000	96.152250 
3427.000000	96.149376 
3426.000000	96.145881 
3425.000000	96.142569 
3424.000000	96.140322 
3423.000000	96.139095 
3422.000000	96.137817 
3421.000000	96.135677 
3420.000000	96.133131 
3419.000000	96.131231 
3418.000000	96.130234 
3417.000000	96.129489 
3416.000000	96.128502 
3415.000000	96.127372 
3414.000000	96.126132 
3413.000000	96.124423 
3412.000000	96.122172 
3411.000000	96.120055 
3410.000000	96.118874 
3409.000000	96.118778 
3408.000000	96.119239 
3407.000000	96.119463 
3406.000000	96.118804 
3405.000000	96.117140 
3404.000000	96.114984 
3403.000000	96.113048 
3402.000000	96.111644 
3401.000000	96.110716 
3400.000000	96.110260 
3399.000000	96.110369 
3398.000000	96.110914 
3397.000000	96.111541 
3396.000000	96.111992 
3395.000000	96.112219 
3394.000000	96.112224 
3393.000000	96.112019 
3392.000000	96.111727 
3391.000000	96.111535 
3390.000000	96.111533 
3389.000000	96.111743 
3388.000000	96.112264 
3387.000000	96.113175 
3386.000000	96.114263 
3385.000000	96.115037 
3384.000000	96.115131 
3383.000000	96.114671 
3382.000000	96.114268 
3381.000000	96.114533 
3380.000000	96.115523 
3379.000000	96.116752 
3378.000000	96.117692 
3377.000000	96.118346 
3376.000000	96.119113 
3375.000000	96.120195 
3374.000000	96.121323 
3373.000000	96.122120 
3372.000000	96.122540 
3371.000000	96.122897 
3370.000000	96.123556 
3369.000000	96.124615 
3368.000000	96.125917 
3367.000000	96.127240 
3366.000000	96.128453 
3365.000000	96.129556 
3364.000000	96.130624 
3363.000000	96.131728 
3362.000000	96.132887 
3361.000000	96.134087 
3360.000000	96.135329 
3359.000000	96.136628 
3358.000000	96.137980 
3357.000000	96.139341 
3356.000000	96.140669 
3355.000000	96.141966 
3354.000000	96.143281 
3353.000000	96.144682 
3352.000000	96.146196 
3351.000000	96.147783 
3350.000000	96.149352 
3349.000000	96.150815 
3348.000000	96.152150 
3347.000000	96.153419 
3346.000000	96.154717 
3345.000000	96.156094 
3344.000000	96.157501 
3343.000000	96.158827 
3342.000000	96.160015 
3341.000000	96.161142 
3340.000000	96.162345 
3339.000000	96.163653 
3338.000000	96.164994 
3337.000000	96.166300 
3336.000000	96.167579 
3335.000000	96.168875 
3334.000000	96.170201 
3333.000000	96.171522 
3332.000000	96.172796 
3331.000000	96.174024 
3330.000000	96.175232 
3329.000000	96.176454 
3328.000000	96.177709 
3327.000000	96.179000 
3326.000000	96.180318 
3325.000000	96.181637 
3324.000000	96.182924 
3323.000000	96.184154 
3322.000000	96.185334 
3321.000000	96.186495 
3320.000000	96.187672 
3319.000000	96.188876 
3318.000000	96.190097 
3317.000000	96.191322 
3316.000000	96.192540 
3315.000000	96.193738 
3314.000000	96.194891 
3313.000000	96.195983 
3312.000000	96.197022 
3311.000000	96.198047 
3310.000000	96.199109 
3309.000000	96.200237 
3308.000000	96.201417 
3307.000000	96.202594 
3306.000000	96.203708 
3305.000000	96.204759 
3304.000000	96.205833 
3303.000000	96.207044 
3302.000000	96.208440 
3301.000000	96.209966 
3300.000000	96.211488 
3299.000000	96.212862 
3298.000000	96.214000 
3297.000000	96.214916 
3296.000000	96.215772 
3295.000000	96.216789 
3294.000000	96.218105 
3293.000000	96.219742 
3292.000000	96.221644 
3291.000000	96.223685 
3290.000000	96.225668 
3289.000000	96.227418 
3288.000000	96.228926 
3287.000000	96.230339 
3286.000000	96.231757 
3285.000000	96.233087 
3284.000000	96.234201 
3283.000000	96.235170 
3282.000000	96.236286 
3281.000000	96.237796 
3280.000000	96.239616 
3279.000000	96.241345 
3278.000000	96.242656 
3277.000000	96.243665 
3276.000000	96.244799 
3275.000000	96.246248 
3274.000000	96.247735 
3273.000000	96.248987 
3272.000000	96.250242 
3271.000000	96.252031 
3270.000000	96.254522 
3269.000000	96.257296 
3268.000000	96.259728 
3267.000000	96.261530 
3266.000000	96.262934 
3265.000000	96.264513 
3264.000000	96.266747 
3263.000000	96.269557 
3262.000000	96.272334 
3261.000000	96.274522 
3260.000000	96.276041 
3259.000000	96.277147 
3258.000000	96.278074 
3257.000000	96.278992 
3256.000000	96.280167 
3255.000000	96.281795 
3254.000000	96.283700 
3253.000000	96.285578 
3252.000000	96.287453 
3251.000000	96.289546 
3250.000000	96.291712 
3249.000000	96.293402 
3248.000000	96.294370 
3247.000000	96.295140 
3246.000000	96.296502 
3245.000000	96.298666 
3244.000000	96.301142 
3243.000000	96.303377 
3242.000000	96.305275 
3241.000000	96.307028 
3240.000000	96.308652 
3239.000000	96.310014 
3238.000000	96.311296 
3237.000000	96.313110 
3236.000000	96.315947 
3235.000000	96.319577 
3234.000000	96.323075 
3233.000000	96.325657 
3232.000000	96.327335 
3231.000000	96.328746 
3230.000000	96.330402 
3229.000000	96.332214 
3228.000000	96.333840 
3227.000000	96.335418 
3226.000000	96.337682 
3225.000000	96.341206 
3224.000000	96.345657 
3223.000000	96.350002 
3222.000000	96.353551 
3221.000000	96.356512 
3220.000000	96.359415 
3219.000000	96.362294 
3218.000000	96.364768 
3217.000000	96.366650 
3216.000000	96.368172 
3215.000000	96.369778 
3214.000000	96.371915 
3213.000000	96.374793 
3212.000000	96.378074 
3211.000000	96.380922 
3210.000000	96.382721 
3209.000000	96.383728 
3208.000000	96.384856 
3207.000000	96.386730 
3206.000000	96.389177 
3205.000000	96.391709 
3204.000000	96.394268 
3203.000000	96.397288 
3202.000000	96.401082 
3201.000000	96.405313 
3200.000000	96.409180 
3199.000000	96.412174 
3198.000000	96.414592 
3197.000000	96.417142 
3196.000000	96.420110 
3195.000000	96.423217 
3194.000000	96.426303 
3193.000000	96.429746 
3192.000000	96.433882 
3191.000000	96.438308 
3190.000000	96.442101 
3189.000000	96.444769 
3188.000000	96.446648 
3187.000000	96.448536 
3186.000000	96.451066 
3185.000000	96.454380 
3184.000000	96.458156 
3183.000000	96.461925 
3182.000000	96.465485 
3181.000000	96.468928 
3180.000000	96.472308 
3179.000000	96.475483 
3178.000000	96.478370 
3177.000000	96.481174 
3176.000000	96.484191 
3175.000000	96.487519 
3174.000000	96.491090 
3173.000000	96.494815 
3172.000000	96.498529 
3171.000000	96.501946 
3170.000000	96.504924 
3169.000000	96.507699 
3168.000000	96.510627 
3167.000000	96.513758 
3166.000000	96.516876 
3165.000000	96.519862 
3164.000000	96.522768 
3163.000000	96.525631 
3162.000000	96.528418 
3161.000000	96.531152 
3160.000000	96.533926 
3159.000000	96.536795 
3158.000000	96.539741 
3157.000000	96.542725 
3156.000000	96.545713 
3155.000000	96.548649 
3154.000000	96.551480 
3153.000000	96.554242 
3152.000000	96.557041 
3151.000000	96.559924 
3150.000000	96.562814 
3149.000000	96.565603 
3148.000000	96.568269 
3147.000000	96.570903 
3146.000000	96.573655 
3145.000000	96.576604 
3144.000000	96.579691 
3143.000000	96.582708 
3142.000000	96.585454 
3141.000000	96.587906 
3140.000000	96.590278 
3139.000000	96.592855 
3138.000000	96.595754 
3137.000000	96.598876 
3136.000000	96.601984 
3135.000000	96.604833 
3134.000000	96.607287 
3133.000000	96.609457 
3132.000000	96.611677 
3131.000000	96.614221 
3130.000000	96.617098 
3129.000000	96.620179 
3128.000000	96.623447 
3127.000000	96.627002 
3126.000000	96.630844 
3125.000000	96.634709 
3124.000000	96.638169 
3123.000000	96.640878 
3122.000000	96.642751 
3121.000000	96.644078 
3120.000000	96.645433 
3119.000000	96.647291 
3118.000000	96.649792 
3117.000000	96.652855 
3116.000000	96.656342 
3115.000000	96.659980 
3114.000000	96.663330 
3113.000000	96.666134 
3112.000000	96.668731 
3111.000000	96.671906 
3110.000000	96.676123 
3109.000000	96.680973 
3108.000000	96.685537 
3107.000000	96.689286 
3106.000000	96.692327 
3105.000000	96.694825 
3104.000000	96.696580 
3103.000000	96.697388 
3102.000000	96.697606 
3101.000000	96.698071 
3100.000000	96.699437 
3099.000000	96.701795 
3098.000000	96.704991 
3097.000000	96.709038 
3096.000000	96.713808 
3095.000000	96.718504 
3094.000000	96.722082 
3093.000000	96.724235 
3092.000000	96.725656 
3091.000000	96.727145 
3090.000000	96.728742 
3089.000000	96.730009 
3088.000000	96.730815 
3087.000000	96.731594 
3086.000000	96.733020 
3085.000000	96.735492 
3084.000000	96.738719 
3083.000000	96.741753 
3082.000000	96.743785 
3081.000000	96.745039 
3080.000000	96.746540 
3079.000000	96.748876 
3078.000000	96.751769 
3077.000000	96.755041 
3076.000000	96.759106 
3075.000000	96.763851 
3074.000000	96.767842 
3073.000000	96.769746 
3072.000000	96.770084 
3071.000000	96.770483 
3070.000000	96.771463 
3069.000000	96.772268 
3068.000000	96.772745 
3067.000000	96.773840 
3066.000000	96.775986 
3065.000000	96.778432 
3064.000000	96.780617 
3063.000000	96.782788 
3062.000000	96.784725 
3061.000000	96.785223 
3060.000000	96.783673 
3059.000000	96.781337 
3058.000000	96.780443 
3057.000000	96.782476 
3056.000000	96.787297 
3055.000000	96.792952 
3054.000000	96.796343 
3053.000000	96.795550 
3052.000000	96.792229 
3051.000000	96.790650 
3050.000000	96.793281 
3049.000000	96.798123 
3048.000000	96.801084 
3047.000000	96.800087 
3046.000000	96.795992 
3045.000000	96.790767 
3044.000000	96.786251 
3043.000000	96.784248 
3042.000000	96.786120 
3041.000000	96.791310 
3040.000000	96.796816 
3039.000000	96.799101 
3038.000000	96.796685 
3037.000000	96.790862 
3036.000000	96.784153 
3035.000000	96.778267 
3034.000000	96.773655 
3033.000000	96.770414 
3032.000000	96.768647 
3031.000000	96.767912 
3030.000000	96.767214 
3029.000000	96.765799 
3028.000000	96.763199 
3027.000000	96.758357 
3026.000000	96.749964 
3025.000000	96.738537 
3024.000000	96.727308 
3023.000000	96.719536 
3022.000000	96.715197 
3021.000000	96.711670 
3020.000000	96.707316 
3019.000000	96.702693 
3018.000000	96.698174 
3017.000000	96.692315 
3016.000000	96.683616 
3015.000000	96.672815 
3014.000000	96.662634 
3013.000000	96.655655 
3012.000000	96.652419 
3011.000000	96.650709 
3010.000000	96.646671 
3009.000000	96.637805 
3008.000000	96.625231 
3007.000000	96.612393 
3006.000000	96.601393 
3005.000000	96.591493 
3004.000000	96.581224 
3003.000000	96.570663 
3002.000000	96.561147 
3001.000000	96.553814 
3000.000000	96.548795 
2999.000000	96.544719 
2998.000000	96.538852 
2997.000000	96.529083 
2996.000000	96.516277 
2995.000000	96.503554 
2994.000000	96.492550 
2993.000000	96.481494 
2992.000000	96.467738 
2991.000000	96.451305 
2990.000000	96.435233 
2989.000000	96.423193 
2988.000000	96.417468 
2987.000000	96.418277 
2986.000000	96.423888 
2985.000000	96.431602 
2984.000000	96.439250 
2983.000000	96.445813 
2982.000000	96.450797 
2981.000000	96.453843 
2980.000000	96.455146 
2979.000000	96.455269 
2978.000000	96.454158 
2977.000000	96.451345 
2976.000000	96.447636 
2975.000000	96.445578 
2974.000000	96.447393 
2973.000000	96.453166 
2972.000000	96.461545 
2971.000000	96.471234 
2970.000000	96.481033 
2969.000000	96.489589 
2968.000000	96.496512 
2967.000000	96.503220 
2966.000000	96.511400 
2965.000000	96.520836 
2964.000000	96.529788 
2963.000000	96.537331 
2962.000000	96.544288 
2961.000000	96.551802 
2960.000000	96.560040 
2959.000000	96.568621 
2958.000000	96.577559 
2957.000000	96.587098 
2956.000000	96.596669 
2955.000000	96.604510 
2954.000000	96.608951 
2953.000000	96.610498 
2952.000000	96.612230 
2951.000000	96.617232 
2950.000000	96.625273 
2949.000000	96.632802 
2948.000000	96.636620 
2947.000000	96.636735 
2946.000000	96.635468 
2945.000000	96.634853 
2944.000000	96.635729 
2943.000000	96.638329 
2942.000000	96.642143 
2941.000000	96.645518 
2940.000000	96.646889 
2939.000000	96.646727 
2938.000000	96.647237 
2937.000000	96.649834 
2936.000000	96.653615 
2935.000000	96.656496 
2934.000000	96.657089 
2933.000000	96.655257 
2932.000000	96.651827 
2931.000000	96.648470 
2930.000000	96.647272 
2929.000000	96.649449 
2928.000000	96.654187 
2927.000000	96.659074 
2926.000000	96.661999 
2925.000000	96.662873 
2924.000000	96.663503 
2923.000000	96.665630 
2922.000000	96.668974 
2921.000000	96.671505 
2920.000000	96.671891 
2919.000000	96.671211 
2918.000000	96.671473 
2917.000000	96.672486 
2916.000000	96.671350 
2915.000000	96.665806 
2914.000000	96.657558 
2913.000000	96.651290 
2912.000000	96.650061 
2911.000000	96.652447 
2910.000000	96.654429 
2909.000000	96.653766 
2908.000000	96.651912 
2907.000000	96.651548 
2906.000000	96.652957 
2905.000000	96.653294 
2904.000000	96.649561 
2903.000000	96.642373 
2902.000000	96.636436 
2901.000000	96.636795 
2900.000000	96.644546 
2899.000000	96.656286 
2898.000000	96.667411 
2897.000000	96.675832 
2896.000000	96.682056 
2895.000000	96.686631 
2894.000000	96.689345 
2893.000000	96.690938 
2892.000000	96.693718 
2891.000000	96.699163 
2890.000000	96.705890 
2889.000000	96.711355 
2888.000000	96.714944 
2887.000000	96.717884 
2886.000000	96.720609 
2885.000000	96.722359 
2884.000000	96.723730 
2883.000000	96.727286 
2882.000000	96.734336 
2881.000000	96.742753 
2880.000000	96.749788 
2879.000000	96.756071 
2878.000000	96.764453 
2877.000000	96.775235 
2876.000000	96.784923 
2875.000000	96.790473 
2874.000000	96.792959 
2873.000000	96.795838 
2872.000000	96.800780 
2871.000000	96.806575 
2870.000000	96.811561 
2869.000000	96.815543 
2868.000000	96.819294 
2867.000000	96.823476 
2866.000000	96.828439 
2865.000000	96.834308 
2864.000000	96.840894 
2863.000000	96.848068 
2862.000000	96.856357 
2861.000000	96.866393 
2860.000000	96.877525 
2859.000000	96.887889 
2858.000000	96.896599 
2857.000000	96.905207 
2856.000000	96.915945 
2855.000000	96.928589 
2854.000000	96.940066 
2853.000000	96.947460 
2852.000000	96.950573 
2851.000000	96.951581 
2850.000000	96.952958 
2849.000000	96.955961 
2848.000000	96.960556 
2847.000000	96.965901 
2846.000000	96.970880 
2845.000000	96.974839 
2844.000000	96.978031 
2843.000000	96.981174 
2842.000000	96.984607 
2841.000000	96.988096 
2840.000000	96.991370 
2839.000000	96.994515 
2838.000000	96.997776 
2837.000000	97.001204 
2836.000000	97.004676 
2835.000000	97.008212 
2834.000000	97.012232 
2833.000000	97.017356 
2832.000000	97.023664 
2831.000000	97.030002 
2830.000000	97.034357 
2829.000000	97.035447 
2828.000000	97.034092 
2827.000000	97.032857 
2826.000000	97.034098 
2825.000000	97.038196 
2824.000000	97.043524 
2823.000000	97.047864 
2822.000000	97.050048 
2821.000000	97.050583 
2820.000000	97.050885 
2819.000000	97.051822 
2818.000000	97.053081 
2817.000000	97.054033 
2816.000000	97.054849 
2815.000000	97.056287 
2814.000000	97.058407 
2813.000000	97.060121 
2812.000000	97.060336 
2811.000000	97.059279 
2810.000000	97.058425 
2809.000000	97.059175 
2808.000000	97.061790 
2807.000000	97.065524 
2806.000000	97.069357 
2805.000000	97.072594 
2804.000000	97.074976 
2803.000000	97.076496 
2802.000000	97.077363 
2801.000000	97.078077 
2800.000000	97.079239 
2799.000000	97.081083 
2798.000000	97.083264 
2797.000000	97.085179 
2796.000000	97.086532 
2795.000000	97.087512 
2794.000000	97.088495 
2793.000000	97.089698 
2792.000000	97.091105 
2791.000000	97.092603 
2790.000000	97.094072 
2789.000000	97.095440 
2788.000000	97.096722 
2787.000000	97.097995 
2786.000000	97.099310 
2785.000000	97.100664 
2784.000000	97.102023 
2783.000000	97.103363 
2782.000000	97.104683 
2781.000000	97.105995 
2780.000000	97.107305 
2779.000000	97.108616 
2778.000000	97.109928 
2777.000000	97.111235 
2776.000000	97.112532 
2775.000000	97.113820 
2774.000000	97.115100 
2773.000000	97.116373 
2772.000000	97.117638 
2771.000000	97.118891 
2770.000000	97.120135 
2769.000000	97.121374 
2768.000000	97.122608 
2767.000000	97.123833 
2766.000000	97.125039 
2765.000000	97.126219 
2764.000000	97.127374 
2763.000000	97.128508 
2762.000000	97.129624 
2761.000000	97.130722 
2760.000000	97.131796 
2759.000000	97.132848 
2758.000000	97.133883 
2757.000000	97.134904 
2756.000000	97.135912 
2755.000000	97.136909 
2754.000000	97.137901 
2753.000000	97.138893 
2752.000000	97.139885 
2751.000000	97.140874 
2750.000000	97.141852 
2749.000000	97.142814 
2748.000000	97.143755 
2747.000000	97.144675 
2746.000000	97.145572 
2745.000000	97.146453 
2744.000000	97.147325 
2743.000000	97.148194 
2742.000000	97.149059 
2741.000000	97.149921 
2740.000000	97.150780 
2739.000000	97.151639 
2738.000000	97.152496 
2737.000000	97.153347 
2736.000000	97.154188 
2735.000000	97.155024 
2734.000000	97.155862 
2733.000000	97.156706 
2732.000000	97.157553 
2731.000000	97.158399 
2730.000000	97.159240 
2729.000000	97.160075 
2728.000000	97.160902 
2727.000000	97.161713 
2726.000000	97.162505 
2725.000000	97.163275 
2724.000000	97.164030 
2723.000000	97.164779 
2722.000000	97.165526 
2721.000000	97.166273 
2720.000000	97.167020 
2719.000000	97.167771 
2718.000000	97.168531 
2717.000000	97.169303 
2716.000000	97.170084 
2715.000000	97.170867 
2714.000000	97.171644 
2713.000000	97.172414 
2712.000000	97.173176 
2711.000000	97.173927 
2710.000000	97.174667 
2709.000000	97.175394 
2708.000000	97.176110 
2707.000000	97.176817 
2706.000000	97.177522 
2705.000000	97.178237 
2704.000000	97.178965 
2703.000000	97.179666 
2702.000000	97.180284 
2701.000000	97.180833 
2700.000000	97.181446 
2699.000000	97.182274 
2698.000000	97.183328 
2697.000000	97.184374 
2696.000000	97.185112 
2695.000000	97.185454 
2694.000000	97.185640 
2693.000000	97.186027 
2692.000000	97.186712 
2691.000000	97.187468 
2690.000000	97.187997 
2689.000000	97.188189 
2688.000000	97.188095 
2687.000000	97.187811 
2686.000000	97.187495 
2685.000000	97.187420 
2684.000000	97.187797 
2683.000000	97.188543 
2682.000000	97.189324 
2681.000000	97.189927 
2680.000000	97.190427 
2679.000000	97.190940 
2678.000000	97.191426 
2677.000000	97.191872 
2676.000000	97.192377 
2675.000000	97.192796 
2674.000000	97.192622 
2673.000000	97.191614 
2672.000000	97.190323 
2671.000000	97.189556 
2670.000000	97.189464 
2669.000000	97.189589 
2668.000000	97.189631 
2667.000000	97.189662 
2666.000000	97.189588 
2665.000000	97.188990 
2664.000000	97.187769 
2663.000000	97.186537 
2662.000000	97.185999 
2661.000000	97.186129 
2660.000000	97.186269 
2659.000000	97.185916 
2658.000000	97.185169 
2657.000000	97.184441 
2656.000000	97.183914 
2655.000000	97.183333 
2654.000000	97.182287 
2653.000000	97.180731 
2652.000000	97.179249 
2651.000000	97.178592 
2650.000000	97.178947 
2649.000000	97.179751 
2648.000000	97.180263 
2647.000000	97.180170 
2646.000000	97.179480 
2645.000000	97.178159 
2644.000000	97.176205 
2643.000000	97.174024 
2642.000000	97.172376 
2641.000000	97.171747 
2640.000000	97.171988 
2639.000000	97.172581 
2638.000000	97.173097 
2637.000000	97.173358 
2636.000000	97.173375 
2635.000000	97.173338 
2634.000000	97.173532 
2633.000000	97.174044 
2632.000000	97.174562 
2631.000000	97.174628 
2630.000000	97.174153 
2629.000000	97.173518 
2628.000000	97.173175 
2627.000000	97.173190 
2626.000000	97.173304 
2625.000000	97.173330 
2624.000000	97.173340 
2623.000000	97.173484 
2622.000000	97.173760 
2621.000000	97.173982 
2620.000000	97.173920 
2619.000000	97.173473 
2618.000000	97.172779 
2617.000000	97.172210 
2616.000000	97.172109 
2615.000000	97.172495 
2614.000000	97.173045 
2613.000000	97.173385 
2612.000000	97.173449 
2611.000000	97.173469 
2610.000000	97.173707 
2609.000000	97.174222 
2608.000000	97.174850 
2607.000000	97.175327 
2606.000000	97.175530 
2605.000000	97.175600 
2604.000000	97.175806 
2603.000000	97.176251 
2602.000000	97.176748 
2601.000000	97.177046 
2600.000000	97.177099 
2599.000000	97.177010 
2598.000000	97.176866 
2597.000000	97.176725 
2596.000000	97.176698 
2595.000000	97.176852 
2594.000000	97.177058 
2593.000000	97.177158 
2592.000000	97.177303 
2591.000000	97.177809 
2590.000000	97.178638 
2589.000000	97.179320 
2588.000000	97.179570 
2587.000000	97.179675 
2586.000000	97.180071 
2585.000000	97.180799 
2584.000000	97.181609 
2583.000000	97.182342 
2582.000000	97.182960 
2581.000000	97.183356 
2580.000000	97.183464 
2579.000000	97.183477 
2578.000000	97.183716 
2577.000000	97.184288 
2576.000000	97.184971 
2575.000000	97.185444 
2574.000000	97.185561 
2573.000000	97.185446 
2572.000000	97.185390 
2571.000000	97.185554 
2570.000000	97.185801 
2569.000000	97.185920 
2568.000000	97.185965 
2567.000000	97.186196 
2566.000000	97.186666 
2565.000000	97.187099 
2564.000000	97.187262 
2563.000000	97.187281 
2562.000000	97.187446 
2561.000000	97.187878 
2560.000000	97.188531 
2559.000000	97.189344 
2558.000000	97.190215 
2557.000000	97.190926 
2556.000000	97.191334 
2555.000000	97.191541 
2554.000000	97.191768 
2553.000000	97.192058 
2552.000000	97.192273 
2551.000000	97.192372 
2550.000000	97.192484 
2549.000000	97.192697 
2548.000000	97.192919 
2547.000000	97.193030 
2546.000000	97.193077 
2545.000000	97.193213 
2544.000000	97.193488 
2543.000000	97.193820 
2542.000000	97.194091 
2541.000000	97.194283 
2540.000000	97.194470 
2539.000000	97.194723 
2538.000000	97.195035 
2537.000000	97.195349 
2536.000000	97.195623 
2535.000000	97.195882 
2534.000000	97.196166 
2533.000000	97.196472 
2532.000000	97.196761 
2531.000000	97.197017 
2530.000000	97.197255 
2529.000000	97.197474 
2528.000000	97.197648 
2527.000000	97.197787 
2526.000000	97.197972 
2525.000000	97.198284 
2524.000000	97.198724 
2523.000000	97.199221 
2522.000000	97.199705 
2521.000000	97.200151 
2520.000000	97.200552 
2519.000000	97.200915 
2518.000000	97.201257 
2517.000000	97.201594 
2516.000000	97.201920 
2515.000000	97.202217 
2514.000000	97.202502 
2513.000000	97.202838 
2512.000000	97.203279 
2511.000000	97.203825 
2510.000000	97.204447 
2509.000000	97.205113 
2508.000000	97.205762 
2507.000000	97.206304 
2506.000000	97.206720 
2505.000000	97.207167 
2504.000000	97.207852 
2503.000000	97.208780 
2502.000000	97.209627 
2501.000000	97.210075 
2500.000000	97.210122 
2499.000000	97.210062 
2498.000000	97.210186 
2497.000000	97.210495 
2496.000000	97.210864 
2495.000000	97.211259 
2494.000000	97.211736 
2493.000000	97.212299 
2492.000000	97.212890 
2491.000000	97.213510 
2490.000000	97.214211 
2489.000000	97.214962 
2488.000000	97.215584 
2487.000000	97.215926 
2486.000000	97.216036 
2485.000000	97.216131 
2484.000000	97.216381 
2483.000000	97.216768 
2482.000000	97.217165 
2481.000000	97.217485 
2480.000000	97.217716 
2479.000000	97.217871 
2478.000000	97.218013 
2477.000000	97.218323 
2476.000000	97.218994 
2475.000000	97.219925 
2474.000000	97.220628 
2473.000000	97.220612 
2472.000000	97.219804 
2471.000000	97.218550 
2470.000000	97.217336 
2469.000000	97.216615 
2468.000000	97.216723 
2467.000000	97.217613 
2466.000000	97.218650 
2465.000000	97.219055 
2464.000000	97.218750 
2463.000000	97.218527 
2462.000000	97.219201 
2461.000000	97.220746 
2460.000000	97.222432 
2459.000000	97.223634 
2458.000000	97.224151 
2457.000000	97.223928 
2456.000000	97.222924 
2455.000000	97.221451 
2454.000000	97.220235 
2453.000000	97.219714 
2452.000000	97.219519 
2451.000000	97.219016 
2450.000000	97.218314 
2449.000000	97.218278 
2448.000000	97.219367 
2447.000000	97.220950 
2446.000000	97.222041 
2445.000000	97.222491 
2444.000000	97.222902 
2443.000000	97.223601 
2442.000000	97.224249 
2441.000000	97.224472 
2440.000000	97.224477 
2439.000000	97.224860 
2438.000000	97.226065 
2437.000000	97.228143 
2436.000000	97.230716 
2435.000000	97.233021 
2434.000000	97.234318 
2433.000000	97.234496 
2432.000000	97.234231 
2431.000000	97.234393 
2430.000000	97.235369 
2429.000000	97.237016 
2428.000000	97.238946 
2427.000000	97.240672 
2426.000000	97.241611 
2425.000000	97.241279 
2424.000000	97.239902 
2423.000000	97.238481 
2422.000000	97.238001 
2421.000000	97.239139 
2420.000000	97.242187 
2419.000000	97.246401 
2418.000000	97.250049 
2417.000000	97.252047 
2416.000000	97.253091 
2415.000000	97.254365 
2414.000000	97.256052 
2413.000000	97.257816 
2412.000000	97.259670 
2411.000000	97.261376 
2410.000000	97.262054 
2409.000000	97.261684 
2408.000000	97.262013 
2407.000000	97.264439 
2406.000000	97.267623 
2405.000000	97.268712 
2404.000000	97.266594 
2403.000000	97.262666 
2402.000000	97.258931 
2401.000000	97.256893 
2400.000000	97.257815 
2399.000000	97.262195 
2398.000000	97.268716 
2397.000000	97.275048 
2396.000000	97.279812 
2395.000000	97.282799 
2394.000000	97.283776 
2393.000000	97.282820 
2392.000000	97.281653 
2391.000000	97.282806 
2390.000000	97.286964 
2389.000000	97.292540 
2388.000000	97.298236 
2387.000000	97.304684 
2386.000000	97.312889 
2385.000000	97.322200 
2384.000000	97.330466 
2383.000000	97.335168 
2382.000000	97.333819 
2381.000000	97.324790 
2380.000000	97.308937 
2379.000000	97.289662 
2378.000000	97.270303 
2377.000000	97.252534 
2376.000000	97.238645 
2375.000000	97.233185 
2374.000000	97.239006 
2373.000000	97.252618 
2372.000000	97.266303 
2371.000000	97.275819 
2370.000000	97.282555 
2369.000000	97.287656 
2368.000000	97.288662 
2367.000000	97.283731 
2366.000000	97.275287 
2365.000000	97.267307 
2364.000000	97.261504 
2363.000000	97.258314 
2362.000000	97.258621 
2361.000000	97.262184 
2360.000000	97.267150 
2359.000000	97.271737 
2358.000000	97.274259 
2357.000000	97.273720 
2356.000000	97.269987 
2355.000000	97.264673 
2354.000000	97.258157 
2353.000000	97.252157 
2352.000000	97.250796 
2351.000000	97.255213 
2350.000000	97.261701 
2349.000000	97.265344 
2348.000000	97.265292 
2347.000000	97.263780 
2346.000000	97.263287 
2345.000000	97.265380 
2344.000000	97.269043 
2343.000000	97.272387 
2342.000000	97.273420 
2341.000000	97.272222 
2340.000000	97.270505 
2339.000000	97.269466 
2338.000000	97.268767 
2337.000000	97.267210 
2336.000000	97.265989 
2335.000000	97.266709 
2334.000000	97.269084 
2333.000000	97.270289 
2332.000000	97.271302 
2331.000000	97.274046 
2330.000000	97.279746 
2329.000000	97.285034 
2328.000000	97.289345 
2327.000000	97.292817 
2326.000000	97.295038 
2325.000000	97.295015 
2324.000000	97.294297 
2323.000000	97.295853 
2322.000000	97.298397 
2321.000000	97.297369 
2320.000000	97.293226 
2319.000000	97.290281 
2318.000000	97.292448 
2317.000000	97.295343 
2316.000000	97.296128 
2315.000000	97.294206 
2314.000000	97.294618 
2313.000000	97.297924 
2312.000000	97.305422 
2311.000000	97.315447 
2310.000000	97.326652 
2309.000000	97.333420 
2308.000000	97.334191 
2307.000000	97.330963 
2306.000000	97.329139 
2305.000000	97.330101 
2304.000000	97.333737 
2303.000000	97.337843 
2302.000000	97.342209 
2301.000000	97.344886 
2300.000000	97.345340 
2299.000000	97.341558 
2298.000000	97.333489 
2297.000000	97.320141 
2296.000000	97.303897 
2295.000000	97.288361 
2294.000000	97.277143 
2293.000000	97.269485 
2292.000000	97.262475 
2291.000000	97.254218 
2290.000000	97.245465 
2289.000000	97.238438 
2288.000000	97.234258 
2287.000000	97.232022 
2286.000000	97.229087 
2285.000000	97.224444 
2284.000000	97.219990 
2283.000000	97.218740 
2282.000000	97.220494 
2281.000000	97.221997 
2280.000000	97.220536 
2279.000000	97.216264 
2278.000000	97.210580 
2277.000000	97.204695 
2276.000000	97.200479 
2275.000000	97.199531 
2274.000000	97.201250 
2273.000000	97.203514 
2272.000000	97.206210 
2271.000000	97.210785 
2270.000000	97.216377 
2269.000000	97.219455 
2268.000000	97.218560 
2267.000000	97.216095 
2266.000000	97.214448 
2265.000000	97.213035 
2264.000000	97.210409 
2263.000000	97.206659 
2262.000000	97.202420 
2261.000000	97.197848 
2260.000000	97.193373 
2259.000000	97.189934 
2258.000000	97.187571 
2257.000000	97.185619 
2256.000000	97.184568 
2255.000000	97.185903 
2254.000000	97.189535 
2253.000000	97.192714 
2252.000000	97.192807 
2251.000000	97.189778 
2250.000000	97.185112 
2249.000000	97.179839 
2248.000000	97.174677 
2247.000000	97.170903 
2246.000000	97.169427 
2245.000000	97.169490 
2244.000000	97.169300 
2243.000000	97.167910 
2242.000000	97.165797 
2241.000000	97.163859 
2240.000000	97.162573 
2239.000000	97.161952 
2238.000000	97.161699 
2237.000000	97.161327 
2236.000000	97.160485 
2235.000000	97.159187 
2234.000000	97.157641 
2233.000000	97.156011 
2232.000000	97.154408 
2231.000000	97.152910 
2230.000000	97.151464 
2229.000000	97.149892 
2228.000000	97.148128 
2227.000000	97.146352 
2226.000000	97.144760 
2225.000000	97.143311 
2224.000000	97.141797 
2223.000000	97.140141 
2222.000000	97.138445 
2221.000000	97.136829 
2220.000000	97.135287 
2219.000000	97.133763 
2218.000000	97.132240 
2217.000000	97.130729 
2216.000000	97.129233 
2215.000000	97.127751 
2214.000000	97.126282 
2213.000000	97.124813 
2212.000000	97.123345 
2211.000000	97.121897 
2210.000000	97.120488 
2209.000000	97.119114 
2208.000000	97.117750 
2207.000000	97.116376 
2206.000000	97.114978 
2205.000000	97.113541 
2204.000000	97.112041 
2203.000000	97.110654 
2202.000000	97.109729 
2201.000000	97.109286 
2200.000000	97.108656 
2199.000000	97.106929 
2198.000000	97.103804 
2197.000000	97.099869 
2196.000000	97.096216 
2195.000000	97.093688 
2194.000000	97.092362 
2193.000000	97.091884 
2192.000000	97.092218 
2191.000000	97.093392 
2190.000000	97.094476 
2189.000000	97.094045 
2188.000000	97.092091 
2187.000000	97.089984 
2186.000000	97.087735 
2185.000000	97.083349 
2184.000000	97.076800 
2183.000000	97.072742 
2182.000000	97.076010 
2181.000000	97.085289 
2180.000000	97.093264 
2179.000000	97.094204 
2178.000000	97.088817 
2177.000000	97.081976 
2176.000000	97.077936 
2175.000000	97.077900 
2174.000000	97.080502 
2173.000000	97.083471 
2172.000000	97.085904 
2171.000000	97.088858 
2170.000000	97.092497 
2169.000000	97.093587 
2168.000000	97.088445 
2167.000000	97.078400 
2166.000000	97.069465 
2165.000000	97.065416 
2164.000000	97.063636 
2163.000000	97.059562 
2162.000000	97.054011 
2161.000000	97.054035 
2160.000000	97.066460 
2159.000000	97.091321 
2158.000000	97.120520 
2157.000000	97.143616 
2156.000000	97.155961 
2155.000000	97.159843 
2154.000000	97.160089 
2153.000000	97.160736 
2152.000000	97.164356 
2151.000000	97.171090 
2150.000000	97.177540 
2149.000000	97.179402 
2148.000000	97.176686 
2147.000000	97.174133 
2146.000000	97.175437 
2145.000000	97.179887 
2144.000000	97.185989 
2143.000000	97.194560 
2142.000000	97.205443 
2141.000000	97.214569 
2140.000000	97.218379 
2139.000000	97.219466 
2138.000000	97.224084 
2137.000000	97.234582 
2136.000000	97.247049 
2135.000000	97.255629 
2134.000000	97.256950 
2133.000000	97.251920 
2132.000000	97.245885 
2131.000000	97.245114 
2130.000000	97.250702 
2129.000000	97.257116 
2128.000000	97.258572 
2127.000000	97.255529 
2126.000000	97.253060 
2125.000000	97.254324 
2124.000000	97.258034 
2123.000000	97.261370 
2122.000000	97.262523 
2121.000000	97.260563 
2120.000000	97.255226 
2119.000000	97.247571 
2118.000000	97.239836 
2117.000000	97.234370 
2116.000000	97.232480 
2115.000000	97.233308 
2114.000000	97.233507 
2113.000000	97.229650 
2112.000000	97.222346 
2111.000000	97.216368 
2110.000000	97.215379 
2109.000000	97.218097 
2108.000000	97.220788 
2107.000000	97.221827 
2106.000000	97.222003 
2105.000000	97.222128 
2104.000000	97.222696 
2103.000000	97.224437 
2102.000000	97.226704 
2101.000000	97.226485 
2100.000000	97.221654 
2099.000000	97.214632 
2098.000000	97.210774 
2097.000000	97.212807 
2096.000000	97.218807 
2095.000000	97.224882 
2094.000000	97.228367 
2093.000000	97.228729 
2092.000000	97.226869 
2091.000000	97.224396 
2090.000000	97.222715 
2089.000000	97.222103 
2088.000000	97.221759 
2087.000000	97.220683 
2086.000000	97.218271 
2085.000000	97.214481 
2084.000000	97.210035 
2083.000000	97.206192 
2082.000000	97.203834 
2081.000000	97.202871 
2080.000000	97.202771 
2079.000000	97.203172 
2078.000000	97.203574 
2077.000000	97.203045 
2076.000000	97.201113 
2075.000000	97.198598 
2074.000000	97.196567 
2073.000000	97.194697 
2072.000000	97.191696 
2071.000000	97.187250 
2070.000000	97.182610 
2069.000000	97.179236 
2068.000000	97.177581 
2067.000000	97.177189 
2066.000000	97.177154 
2065.000000	97.176383 
2064.000000	97.174151 
2063.000000	97.170707 
2062.000000	97.167170 
2061.000000	97.164705 
2060.000000	97.163766 
2059.000000	97.164145 
2058.000000	97.165049 
2057.000000	97.165298 
2056.000000	97.164035 
2055.000000	97.161173 
2054.000000	97.157347 
2053.000000	97.153459 
2052.000000	97.150247 
2051.000000	97.148028 
2050.000000	97.146619 
2049.000000	97.145525 
2048.000000	97.144409 
2047.000000	97.143315 
2046.000000	97.142359 
2045.000000	97.141444 
2044.000000	97.140455 
2043.000000	97.139514 
2042.000000	97.138870 
2041.000000	97.138629 
2040.000000	97.138744 
2039.000000	97.139155 
2038.000000	97.139713 
2037.000000	97.140054 
2036.000000	97.139843 
2035.000000	97.139109 
2034.000000	97.138245 
2033.000000	97.137743 
2032.000000	97.137931 
2031.000000	97.138706 
2030.000000	97.139307 
2029.000000	97.138822 
2028.000000	97.137174 
2027.000000	97.135433 
2026.000000	97.134592 
2025.000000	97.134484 
2024.000000	97.134500 
2023.000000	97.134964 
2022.000000	97.136873 
2021.000000	97.140170 
2020.000000	97.142970 
2019.000000	97.143291 
2018.000000	97.140811 
2017.000000	97.137127 
2016.000000	97.134479 
2015.000000	97.134086 
2014.000000	97.135201 
2013.000000	97.135307 
2012.000000	97.132556 
2011.000000	97.128443 
2010.000000	97.126758 
2009.000000	97.129398 
2008.000000	97.134559 
2007.000000	97.139353 
2006.000000	97.142779 
2005.000000	97.145027 
2004.000000	97.145980 
2003.000000	97.145899 
2002.000000	97.146310 
2001.000000	97.147957 
2000.000000	97.149072 
1999.000000	97.146725 
1998.000000	97.139557 
1997.000000	97.129247 
1996.000000	97.119435 
1995.000000	97.113311 
1994.000000	97.111700 
1993.000000	97.112869 
1992.000000	97.114029 
1991.000000	97.114004 
1990.000000	97.114110 
1989.000000	97.116072 
1988.000000	97.119480 
1987.000000	97.121350 
1986.000000	97.118429 
1985.000000	97.110481 
1984.000000	97.101082 
1983.000000	97.094225 
1982.000000	97.090541 
1981.000000	97.088055 
1980.000000	97.087012 
1979.000000	97.090682 
1978.000000	97.099964 
1977.000000	97.110400 
1976.000000	97.116516 
1975.000000	97.117897 
1974.000000	97.118293 
1973.000000	97.120984 
1972.000000	97.126550 
1971.000000	97.133387 
1970.000000	97.138382 
1969.000000	97.138408 
1968.000000	97.133082 
1967.000000	97.126027 
1966.000000	97.122222 
1965.000000	97.123763 
1964.000000	97.129511 
1963.000000	97.137627 
1962.000000	97.146877 
1961.000000	97.155735 
1960.000000	97.161868 
1959.000000	97.163637 
1958.000000	97.162032 
1957.000000	97.160566 
1956.000000	97.162270 
1955.000000	97.166852 
1954.000000	97.171278 
1953.000000	97.173311 
1952.000000	97.173347 
1951.000000	97.172989 
1950.000000	97.173194 
1949.000000	97.174266 
1948.000000	97.176955 
1947.000000	97.181726 
1946.000000	97.187211 
1945.000000	97.190966 
1944.000000	97.192012 
1943.000000	97.191514 
1942.000000	97.191050 
1941.000000	97.191139 
1940.000000	97.191613 
1939.000000	97.192224 
1938.000000	97.192824 
1937.000000	97.193653 
1936.000000	97.195366 
1935.000000	97.198128 
1934.000000	97.200847 
1933.000000	97.202411 
1932.000000	97.203386 
1931.000000	97.205559 
1930.000000	97.209468 
1929.000000	97.213192 
1928.000000	97.215158 
1927.000000	97.215801 
1926.000000	97.216271 
1925.000000	97.216503 
1924.000000	97.215896 
1923.000000	97.215361 
1922.000000	97.215913 
1921.000000	97.216894 
1920.000000	97.217282 
1919.000000	97.217537 
1918.000000	97.218362 
1917.000000	97.218666 
1916.000000	97.217450 
1915.000000	97.215908 
1914.000000	97.215522 
1913.000000	97.216011 
1912.000000	97.215953 
1911.000000	97.215209 
1910.000000	97.214794 
1909.000000	97.214977 
1908.000000	97.215633 
1907.000000	97.216652 
1906.000000	97.217586 
1905.000000	97.217175 
1904.000000	97.214679 
1903.000000	97.211802 
1902.000000	97.210554 
1901.000000	97.210689 
1900.000000	97.210800 
1899.000000	97.210364 
1898.000000	97.209878 
1897.000000	97.209512 
1896.000000	97.208790 
1895.000000	97.207721 
1894.000000	97.206578 
1893.000000	97.205104 
1892.000000	97.203039 
1891.000000	97.201114 
1890.000000	97.200391 
1889.000000	97.200830 
1888.000000	97.201697 
1887.000000	97.202710 
1886.000000	97.203732 
1885.000000	97.204209 
1884.000000	97.203729 
1883.000000	97.202784 
1882.000000	97.202286 
1881.000000	97.202506 
1880.000000	97.203101 
1879.000000	97.203616 
1878.000000	97.203823 
1877.000000	97.203843 
1876.000000	97.204002 
1875.000000	97.204628 
1874.000000	97.205772 
1873.000000	97.207034 
1872.000000	97.207991 
1871.000000	97.208650 
1870.000000	97.209208 
1869.000000	97.209619 
1868.000000	97.209949 
1867.000000	97.210771 
1866.000000	97.212265 
1865.000000	97.213732 
1864.000000	97.214523 
1863.000000	97.214908 
1862.000000	97.215717 
1861.000000	97.217221 
1860.000000	97.218984 
1859.000000	97.220745 
1858.000000	97.222668 
1857.000000	97.224709 
1856.000000	97.226549 
1855.000000	97.228101 
1854.000000	97.229487 
1853.000000	97.230583 
1852.000000	97.231529 
1851.000000	97.232876 
1850.000000	97.234849 
1849.000000	97.237146 
1848.000000	97.239307 
1847.000000	97.241348 
1846.000000	97.243450 
1845.000000	97.245460 
1844.000000	97.246978 
1843.000000	97.248259 
1842.000000	97.249891 
1841.000000	97.251531 
1840.000000	97.252837 
1839.000000	97.254168 
1838.000000	97.255896 
1837.000000	97.257515 
1836.000000	97.258304 
1835.000000	97.258651 
1834.000000	97.259465 
1833.000000	97.260756 
1832.000000	97.261840 
1831.000000	97.262256 
1830.000000	97.262206 
1829.000000	97.262415 
1828.000000	97.263254 
1827.000000	97.264442 
1826.000000	97.265696 
1825.000000	97.267016 
1824.000000	97.268155 
1823.000000	97.268936 
1822.000000	97.269448 
1821.000000	97.269693 
1820.000000	97.269616 
1819.000000	97.269438 
1818.000000	97.269904 
1817.000000	97.271121 
1816.000000	97.272004 
1815.000000	97.271999 
1814.000000	97.271792 
1813.000000	97.272331 
1812.000000	97.273222 
1811.000000	97.273340 
1810.000000	97.272870 
1809.000000	97.272557 
1808.000000	97.272431 
1807.000000	97.272310 
1806.000000	97.272287 
1805.000000	97.272214 
1804.000000	97.271681 
1803.000000	97.271125 
1802.000000	97.271297 
1801.000000	97.272128 
1800.000000	97.272472 
1799.000000	97.271779 
1798.000000	97.271199 
1797.000000	97.271384 
1796.000000	97.271778 
1795.000000	97.271947 
1794.000000	97.272270 
1793.000000	97.273088 
1792.000000	97.273719 
1791.000000	97.274042 
1790.000000	97.275108 
1789.000000	97.276634 
1788.000000	97.277666 
1787.000000	97.278231 
1786.000000	97.279163 
1785.000000	97.280457 
1784.000000	97.281263 
1783.000000	97.281556 
1782.000000	97.281662 
1781.000000	97.282154 
1780.000000	97.283382 
1779.000000	97.285018 
1778.000000	97.286757 
1777.000000	97.288291 
1776.000000	97.289662 
1775.000000	97.290851 
1774.000000	97.291727 
1773.000000	97.292390 
1772.000000	97.293076 
1771.000000	97.293956 
1770.000000	97.295098 
1769.000000	97.296386 
1768.000000	97.297680 
1767.000000	97.298861 
1766.000000	97.299878 
1765.000000	97.300786 
1764.000000	97.301658 
1763.000000	97.302544 
1762.000000	97.303438 
1761.000000	97.304366 
1760.000000	97.305350 
1759.000000	97.306323 
1758.000000	97.307238 
1757.000000	97.308134 
1756.000000	97.309160 
1755.000000	97.310220 
1754.000000	97.310990 
1753.000000	97.311348 
1752.000000	97.311739 
1751.000000	97.312550 
1750.000000	97.313564 
1749.000000	97.314263 
1748.000000	97.314433 
1747.000000	97.314299 
1746.000000	97.313737 
1745.000000	97.313176 
1744.000000	97.313529 
1743.000000	97.314861 
1742.000000	97.316208 
1741.000000	97.316499 
1740.000000	97.315343 
1739.000000	97.313891 
1738.000000	97.314131 
1737.000000	97.315418 
1736.000000	97.316051 
1735.000000	97.317091 
1734.000000	97.317739 
1733.000000	97.315332 
1732.000000	97.313258 
1731.000000	97.313011 
1730.000000	97.314571 
1729.000000	97.316850 
1728.000000	97.317828 
1727.000000	97.316507 
1726.000000	97.313398 
1725.000000	97.310996 
1724.000000	97.309540 
1723.000000	97.307740 
1722.000000	97.306468 
1721.000000	97.305496 
1720.000000	97.303013 
1719.000000	97.299027 
1718.000000	97.296847 
1717.000000	97.296203 
1716.000000	97.293226 
1715.000000	97.288588 
1714.000000	97.285768 
1713.000000	97.284353 
1712.000000	97.280813 
1711.000000	97.275337 
1710.000000	97.270890 
1709.000000	97.267890 
1708.000000	97.264122 
1707.000000	97.258548 
1706.000000	97.253425 
1705.000000	97.250022 
1704.000000	97.246869 
1703.000000	97.242478 
1702.000000	97.237587 
1701.000000	97.234194 
1700.000000	97.228288 
1699.000000	97.219661 
1698.000000	97.214256 
1697.000000	97.209638 
1696.000000	97.203454 
1695.000000	97.196469 
1694.000000	97.190910 
1693.000000	97.185677 
1692.000000	97.179091 
1691.000000	97.171994 
1690.000000	97.165401 
1689.000000	97.159336 
1688.000000	97.153574 
1687.000000	97.147678 
1686.000000	97.141566 
1685.000000	97.135345 
1684.000000	97.128705 
1683.000000	97.121916 
1682.000000	97.115558 
1681.000000	97.109215 
1680.000000	97.102900 
1679.000000	97.096883 
1678.000000	97.090962 
1677.000000	97.084737 
1676.000000	97.078290 
1675.000000	97.071807 
1674.000000	97.064986 
1673.000000	97.057955 
1672.000000	97.050873 
1671.000000	97.044109 
1670.000000	97.037772 
1669.000000	97.030895 
1668.000000	97.024543 
1667.000000	97.020012 
1666.000000	97.016022 
1665.000000	97.010941 
1664.000000	97.004631 
1663.000000	96.998471 
1662.000000	96.992386 
1661.000000	96.985458 
1660.000000	96.978778 
1659.000000	96.972769 
1658.000000	96.966414 
1657.000000	96.959648 
1656.000000	96.954092 
1655.000000	96.951588 
1654.000000	96.953370 
1653.000000	96.946036 
1652.000000	96.925232 
1651.000000	96.916354 
1650.000000	96.913597 
1649.000000	96.907542 
1648.000000	96.901889 
1647.000000	96.900052 
1646.000000	96.898177 
1645.000000	96.895653 
1644.000000	96.893211 
1643.000000	96.891284 
1642.000000	96.889969 
1641.000000	96.888441 
1640.000000	96.887492 
1639.000000	96.887014 
1638.000000	96.886671 
1637.000000	96.886362 
1636.000000	96.885100 
1635.000000	96.879576 
1634.000000	96.875624 
1633.000000	96.877354 
1632.000000	96.878422 
1631.000000	96.879438 
1630.000000	96.882168 
1629.000000	96.884485 
1628.000000	96.884924 
1627.000000	96.887281 
1626.000000	96.892247 
1625.000000	96.896031 
1624.000000	96.898085 
1623.000000	96.901811 
1622.000000	96.908450 
1621.000000	96.916416 
1620.000000	96.925347 
1619.000000	96.935716 
1618.000000	96.947744 
1617.000000	96.954133 
1616.000000	96.951798 
1615.000000	96.952938 
1614.000000	96.960665 
1613.000000	96.966086 
1612.000000	96.967934 
1611.000000	96.972231 
1610.000000	96.979688 
1609.000000	96.987510 
1608.000000	96.998499 
1607.000000	97.015393 
1606.000000	97.030743 
1605.000000	97.037916 
1604.000000	97.042370 
1603.000000	97.049740 
1602.000000	97.058337 
1601.000000	97.064780 
1600.000000	97.070895 
1599.000000	97.078910 
1598.000000	97.086445 
1597.000000	97.091363 
1596.000000	97.095622 
1595.000000	97.102075 
1594.000000	97.109859 
1593.000000	97.116504 
1592.000000	97.122410 
1591.000000	97.129251 
1590.000000	97.136191 
1589.000000	97.141635 
1588.000000	97.146669 
1587.000000	97.153255 
1586.000000	97.160431 
1585.000000	97.165340 
1584.000000	97.169765 
1583.000000	97.175985 
1582.000000	97.180809 
1581.000000	97.182216 
1580.000000	97.184268 
1579.000000	97.190453 
1578.000000	97.198964 
1577.000000	97.206776 
1576.000000	97.211058 
1575.000000	97.213859 
1574.000000	97.218400 
1573.000000	97.222391 
1572.000000	97.225181 
1571.000000	97.229168 
1570.000000	97.232760 
1569.000000	97.232094 
1568.000000	97.232310 
1567.000000	97.235868 
1566.000000	97.237583 
1565.000000	97.235500 
1564.000000	97.234103 
1563.000000	97.235747 
1562.000000	97.236392 
1561.000000	97.233889 
1560.000000	97.239919 
1559.000000	97.251801 
1558.000000	97.248930 
1557.000000	97.244179 
1556.000000	97.243464 
1555.000000	97.244424 
1554.000000	97.244731 
1553.000000	97.243190 
1552.000000	97.240420 
1551.000000	97.236869 
1550.000000	97.234483 
1549.000000	97.232781 
1548.000000	97.229879 
1547.000000	97.225428 
1546.000000	97.219881 
1545.000000	97.215292 
1544.000000	97.213061 
1543.000000	97.212302 
1542.000000	97.212164 
1541.000000	97.211036 
1540.000000	97.203267 
1539.000000	97.190190 
1538.000000	97.181225 
1537.000000	97.175829 
1536.000000	97.168788 
1535.000000	97.161203 
1534.000000	97.155679 
1533.000000	97.151839 
1532.000000	97.147703 
1531.000000	97.141935 
1530.000000	97.134714 
1529.000000	97.126717 
1528.000000	97.118710 
1527.000000	97.111936 
1526.000000	97.106608 
1525.000000	97.101411 
1524.000000	97.094856 
1523.000000	97.086934 
1522.000000	97.079383 
1521.000000	97.072447 
1520.000000	97.064810 
1519.000000	97.055532 
1518.000000	97.044802 
1517.000000	97.035007 
1516.000000	97.027526 
1515.000000	97.021389 
1514.000000	97.014903 
1513.000000	97.007549 
1512.000000	96.999204 
1511.000000	96.989697 
1510.000000	96.979704 
1509.000000	96.970409 
1508.000000	96.963391 
1507.000000	96.958135 
1506.000000	96.950992 
1505.000000	96.941548 
1504.000000	96.931837 
1503.000000	96.921642 
1502.000000	96.910915 
1501.000000	96.900470 
1500.000000	96.890617 
1499.000000	96.880783 
1498.000000	96.871098 
1497.000000	96.862919 
1496.000000	96.855935 
1495.000000	96.849583 
1494.000000	96.844013 
1493.000000	96.838338 
1492.000000	96.831617 
1491.000000	96.824607 
1490.000000	96.819185 
1489.000000	96.814591 
1488.000000	96.806909 
1487.000000	96.795627 
1486.000000	96.784147 
1485.000000	96.772507 
1484.000000	96.760105 
1483.000000	96.748035 
1482.000000	96.738234 
1481.000000	96.730931 
1480.000000	96.722968 
1479.000000	96.712482 
1478.000000	96.701050 
1477.000000	96.691332 
1476.000000	96.682655 
1475.000000	96.674040 
1474.000000	96.666046 
1473.000000	96.659835 
1472.000000	96.654506 
1471.000000	96.648110 
1470.000000	96.640684 
1469.000000	96.631381 
1468.000000	96.619518 
1467.000000	96.606999 
1466.000000	96.597046 
1465.000000	96.590702 
1464.000000	96.586083 
1463.000000	96.578958 
1462.000000	96.567692 
1461.000000	96.553418 
1460.000000	96.538835 
1459.000000	96.526514 
1458.000000	96.519101 
1457.000000	96.516445 
1456.000000	96.513233 
1455.000000	96.506297 
1454.000000	96.493303 
1453.000000	96.477939 
1452.000000	96.466994 
1451.000000	96.462095 
1450.000000	96.461469 
1449.000000	96.463978 
1448.000000	96.467305 
1447.000000	96.468237 
1446.000000	96.463797 
1445.000000	96.456118 
1444.000000	96.449959 
1443.000000	96.444313 
1442.000000	96.437665 
1441.000000	96.431036 
1440.000000	96.425572 
1439.000000	96.418512 
1438.000000	96.411631 
1437.000000	96.412349 
1436.000000	96.419041 
1435.000000	96.420839 
1434.000000	96.414018 
1433.000000	96.404668 
1432.000000	96.399543 
1431.000000	96.399056 
1430.000000	96.399912 
1429.000000	96.402084 
1428.000000	96.404410 
1427.000000	96.404760 
1426.000000	96.401823 
1425.000000	96.401643 
1424.000000	96.410823 
1423.000000	96.420827 
1422.000000	96.420580 
1421.000000	96.412718 
1420.000000	96.410770 
1419.000000	96.417021 
1418.000000	96.421668 
1417.000000	96.423497 
1416.000000	96.425877 
1415.000000	96.428020 
1414.000000	96.426635 
1413.000000	96.422760 
1412.000000	96.421316 
1411.000000	96.422877 
1410.000000	96.424786 
1409.000000	96.426719 
1408.000000	96.428852 
1407.000000	96.432664 
1406.000000	96.440435 
1405.000000	96.455801 
1404.000000	96.479423 
1403.000000	96.501982 
1402.000000	96.515823 
1401.000000	96.525122 
1400.000000	96.540536 
1399.000000	96.563164 
1398.000000	96.581847 
1397.000000	96.588865 
1396.000000	96.589056 
1395.000000	96.594041 
1394.000000	96.608961 
1393.000000	96.631982 
1392.000000	96.658652 
1391.000000	96.682602 
1390.000000	96.700144 
1389.000000	96.712860 
1388.000000	96.724740 
1387.000000	96.737020 
1386.000000	96.747754 
1385.000000	96.757333 
1384.000000	96.769618 
1383.000000	96.785396 
1382.000000	96.801388 
1381.000000	96.814270 
1380.000000	96.824841 
1379.000000	96.836689 
1378.000000	96.850754 
1377.000000	96.864980 
1376.000000	96.878518 
1375.000000	96.893613 
1374.000000	96.911823 
1373.000000	96.932329 
1372.000000	96.952895 
1371.000000	96.971942 
1370.000000	96.988624 
1369.000000	97.003537 
1368.000000	97.018427 
1367.000000	97.031945 
1366.000000	97.041544 
1365.000000	97.048130 
1364.000000	97.056700 
1363.000000	97.070768 
1362.000000	97.087988 
1361.000000	97.103815 
1360.000000	97.117441 
1359.000000	97.130574 
1358.000000	97.143291 
1357.000000	97.154593 
1356.000000	97.165133 
1355.000000	97.175920 
1354.000000	97.186764 
1353.000000	97.197200 
1352.000000	97.206873 
1351.000000	97.216883 
1350.000000	97.226937 
1349.000000	97.235191 
1348.000000	97.241612 
1347.000000	97.247175 
1346.000000	97.253114 
1345.000000	97.259398 
1344.000000	97.264668 
1343.000000	97.266888 
1342.000000	97.266127 
1341.000000	97.266160 
1340.000000	97.271657 
1339.000000	97.282297 
1338.000000	97.292861 
1337.000000	97.299894 
1336.000000	97.303915 
1335.000000	97.305721 
1334.000000	97.305191 
1333.000000	97.303721 
1332.000000	97.304302 
1331.000000	97.307936 
1330.000000	97.312231 
1329.000000	97.314912 
1328.000000	97.316419 
1327.000000	97.318140 
1326.000000	97.319601 
1325.000000	97.319564 
1324.000000	97.317967 
1323.000000	97.314677 
1322.000000	97.309452 
1321.000000	97.303820 
1320.000000	97.301128 
1319.000000	97.303162 
1318.000000	97.308225 
1317.000000	97.313022 
1316.000000	97.315036 
1315.000000	97.313165 
1314.000000	97.308633 
1313.000000	97.305529 
1312.000000	97.307497 
1311.000000	97.313221 
1310.000000	97.317568 
1309.000000	97.317772 
1308.000000	97.315972 
1307.000000	97.315699 
1306.000000	97.317536 
1305.000000	97.319849 
1304.000000	97.321604 
1303.000000	97.322207 
1302.000000	97.320966 
1301.000000	97.318119 
1300.000000	97.315488 
1299.000000	97.314593 
1298.000000	97.315047 
1297.000000	97.315315 
1296.000000	97.314496 
1295.000000	97.312977 
1294.000000	97.312138 
1293.000000	97.313462 
1292.000000	97.316696 
1291.000000	97.319361 
1290.000000	97.319570 
1289.000000	97.318683 
1288.000000	97.319144 
1287.000000	97.320307 
1286.000000	97.319204 
1285.000000	97.315535 
1284.000000	97.312807 
1283.000000	97.313540 
1282.000000	97.315828 
1281.000000	97.316033 
1280.000000	97.313406 
1279.000000	97.310406 
1278.000000	97.309679 
1277.000000	97.311947 
1276.000000	97.315775 
1275.000000	97.318634 
1274.000000	97.319020 
1273.000000	97.318188 
1272.000000	97.318586 
1271.000000	97.320411 
1270.000000	97.321157 
1269.000000	97.319012 
1268.000000	97.314951 
1267.000000	97.310815 
1266.000000	97.307427 
1265.000000	97.305528 
1264.000000	97.306463 
1263.000000	97.310537 
1262.000000	97.315792 
1261.000000	97.319565 
1260.000000	97.321065 
1259.000000	97.321669 
1258.000000	97.322996 
1257.000000	97.324894 
1256.000000	97.324955 
1255.000000	97.321017 
1254.000000	97.314613 
1253.000000	97.310123 
1252.000000	97.309066 
1251.000000	97.307718 
1250.000000	97.302953 
1249.000000	97.298223 
1248.000000	97.299752 
1247.000000	97.307650 
1246.000000	97.315195 
1245.000000	97.316924 
1244.000000	97.313433 
1243.000000	97.308548 
1242.000000	97.305971 
1241.000000	97.308874 
1240.000000	97.317999 
1239.000000	97.328516 
1238.000000	97.332651 
1237.000000	97.327376 
1236.000000	97.316725 
1235.000000	97.305713 
1234.000000	97.295336 
1233.000000	97.284777 
1232.000000	97.274664 
1231.000000	97.265606 
1230.000000	97.256437 
1229.000000	97.246232 
1228.000000	97.235639 
1227.000000	97.224307 
1226.000000	97.209358 
1225.000000	97.188486 
1224.000000	97.162611 
1223.000000	97.133718 
1222.000000	97.102008 
1221.000000	97.067064 
1220.000000	97.030055 
1219.000000	96.992570 
1218.000000	96.954242 
1217.000000	96.912941 
1216.000000	96.866281 
1215.000000	96.812441 
1214.000000	96.751742 
1213.000000	96.688672 
1212.000000	96.629537 
1211.000000	96.575628 
1210.000000	96.520659 
1209.000000	96.457544 
1208.000000	96.386188 
1207.000000	96.312457 
1206.000000	96.240934 
1205.000000	96.171092 
1204.000000	96.099760 
1203.000000	96.024810 
1202.000000	95.946860 
1201.000000	95.868977 
1200.000000	95.794081 
1199.000000	95.721517 
1198.000000	95.647388 
1197.000000	95.569387 
1196.000000	95.489412 
1195.000000	95.410090 
1194.000000	95.330946 
1193.000000	95.250024 
1192.000000	95.167119 
1191.000000	95.082790 
1190.000000	94.995969 
1189.000000	94.905138 
1188.000000	94.810435 
1187.000000	94.712478 
1186.000000	94.611091 
1185.000000	94.507373 
1184.000000	94.404507 
1183.000000	94.303633 
1182.000000	94.201386 
1181.000000	94.094719 
1180.000000	93.985426 
1179.000000	93.875966 
1178.000000	93.763738 
1177.000000	93.644518 
1176.000000	93.519237 
1175.000000	93.391949 
1174.000000	93.262958 
1173.000000	93.129936 
1172.000000	92.994523 
1171.000000	92.861265 
1170.000000	92.730617 
1169.000000	92.599701 
1168.000000	92.470288 
1167.000000	92.349929 
1166.000000	92.245246 
1165.000000	92.160850 
1164.000000	92.104822 
1163.000000	92.086894 
1162.000000	92.107950 
1161.000000	92.155834 
1160.000000	92.212385 
1159.000000	92.260181 
1158.000000	92.283879 
1157.000000	92.273086 
1156.000000	92.226871 
1155.000000	92.152109 
1154.000000	92.056895 
1153.000000	91.948438 
1152.000000	91.835407 
1151.000000	91.725590 
1150.000000	91.620229 
1149.000000	91.516073 
1148.000000	91.413220 
1147.000000	91.314865 
1146.000000	91.219366 
1145.000000	91.120041 
1144.000000	91.014557 
1143.000000	90.907931 
1142.000000	90.804280 
1141.000000	90.701680 
1140.000000	90.597199 
1139.000000	90.491134 
1138.000000	90.384137 
1137.000000	90.275429 
1136.000000	90.165641 
1135.000000	90.056557 
1134.000000	89.947024 
1133.000000	89.834194 
1132.000000	89.719196 
1131.000000	89.605820 
1130.000000	89.493373 
1129.000000	89.377115 
1128.000000	89.256141 
1127.000000	89.134198 
1126.000000	89.012190 
1125.000000	88.886838 
1124.000000	88.757587 
1123.000000	88.627876 
1122.000000	88.498762 
1121.000000	88.368467 
1120.000000	88.238916 
1119.000000	88.114816 
1118.000000	87.995301 
1117.000000	87.874911 
1116.000000	87.753993 
1115.000000	87.639607 
1114.000000	87.534642 
1113.000000	87.434493 
1112.000000	87.335729 
1111.000000	87.239143 
1110.000000	87.143391 
1109.000000	87.044940 
1108.000000	86.944613 
1107.000000	86.845537 
1106.000000	86.744971 
1105.000000	86.637324 
1104.000000	86.524857 
1103.000000	86.415290 
1102.000000	86.309557 
1101.000000	86.202581 
1100.000000	86.095279 
1099.000000	85.994229 
1098.000000	85.899656 
1097.000000	85.805325 
1096.000000	85.710065 
1095.000000	85.617210 
1094.000000	85.523104 
1093.000000	85.419570 
1092.000000	85.308735 
1091.000000	85.202707 
1090.000000	85.107304 
1089.000000	85.017910 
1088.000000	84.931178 
1087.000000	84.847536 
1086.000000	84.762385 
1085.000000	84.669288 
1084.000000	84.572762 
1083.000000	84.483822 
1082.000000	84.401855 
1081.000000	84.315224 
1080.000000	84.220698 
1079.000000	84.127265 
1078.000000	84.038978 
1077.000000	83.948847 
1076.000000	83.851787 
1075.000000	83.748853 
1074.000000	83.636723 
1073.000000	83.507545 
1072.000000	83.360556 
1071.000000	83.199104 
1070.000000	83.015452 
1069.000000	82.795545 
1068.000000	82.542115 
1067.000000	82.277891 
1066.000000	82.021945 
1065.000000	81.776591 
1064.000000	81.539479 
1063.000000	81.310012 
1062.000000	81.078702 
1061.000000	80.828616 
1060.000000	80.555705 
1059.000000	80.274456 
1058.000000	79.998161 
1057.000000	79.726690 
1056.000000	79.456966 
1055.000000	79.189456 
1054.000000	78.919484 
1053.000000	78.638094 
1052.000000	78.347544 
1051.000000	78.060539 
1050.000000	77.778858 
1049.000000	77.490462 
1048.000000	77.192128 
1047.000000	76.894957 
1046.000000	76.603987 
1045.000000	76.312395 
1044.000000	76.018632 
1043.000000	75.730435 
1042.000000	75.448947 
1041.000000	75.166644 
1040.000000	74.884103 
1039.000000	74.611733 
1038.000000	74.352857 
1037.000000	74.102932 
1036.000000	73.866389 
1035.000000	73.654562 
1034.000000	73.465672 
1033.000000	73.286793 
1032.000000	73.116154 
1031.000000	72.962424 
1030.000000	72.822616 
1029.000000	72.684747 
1028.000000	72.553440 
1027.000000	72.447529 
1026.000000	72.369069 
1025.000000	72.298730 
1024.000000	72.224988 
1023.000000	72.153766 
1022.000000	72.085937 
1021.000000	72.010674 
1020.000000	71.926152 
1019.000000	71.843479 
1018.000000	71.765513 
1017.000000	71.683978 
1016.000000	71.600459 
1015.000000	71.526846 
1014.000000	71.461879 
1013.000000	71.391097 
1012.000000	71.313427 
1011.000000	71.244101 
1010.000000	71.188259 
1009.000000	71.136088 
1008.000000	71.087224 
1007.000000	71.054963 
1006.000000	71.042374 
1005.000000	71.038800 
1004.000000	71.043361 
1003.000000	71.066636 
1002.000000	71.105224 
1001.000000	71.140926 
1000.000000	71.170732 
999.000000	 71.212327 
998.000000	 71.273896 
997.000000	 71.343106 
996.000000	 71.411778 
995.000000	 71.487468 
994.000000	 71.574022 
993.000000	 71.663705 
992.000000	 71.754739 
991.000000	 71.854680 
990.000000	 71.961520 
989.000000	 72.063733 
988.000000	 72.163483 
987.000000	 72.277013 
986.000000	 72.407947 
985.000000	 72.543501 
984.000000	 72.681126 
983.000000	 72.834594 
982.000000	 73.008191 
981.000000	 73.188913 
980.000000	 73.370445 
979.000000	 73.561912 
978.000000	 73.766371 
977.000000	 73.973738 
976.000000	 74.182174 
975.000000	 74.404370 
974.000000	 74.644756 
973.000000	 74.891065 
972.000000	 75.135897 
971.000000	 75.387142 
970.000000	 75.649695 
969.000000	 75.915455 
968.000000	 76.178463 
967.000000	 76.442763 
966.000000	 76.709334 
965.000000	 76.971861 
964.000000	 77.230546 
963.000000	 77.493975 
962.000000	 77.762940 
961.000000	 78.027967 
960.000000	 78.285775 
959.000000	 78.541918 
958.000000	 78.794769 
957.000000	 79.034238 
956.000000	 79.259753 
955.000000	 79.482932 
954.000000	 79.708848 
953.000000	 79.930120 
952.000000	 80.142116 
951.000000	 80.347795 
950.000000	 80.545276 
949.000000	 80.727179 
948.000000	 80.895061 
947.000000	 81.058553 
946.000000	 81.217666 
945.000000	 81.362061 
944.000000	 81.490499 
943.000000	 81.614788 
942.000000	 81.741225 
941.000000	 81.863944 
940.000000	 81.980215 
939.000000	 82.096369 
938.000000	 82.214552 
937.000000	 82.328804 
936.000000	 82.438508 
935.000000	 82.551428 
934.000000	 82.669749 
933.000000	 82.787191 
932.000000	 82.902967 
931.000000	 83.024268 
930.000000	 83.151702 
929.000000	 83.276232 
928.000000	 83.393646 
927.000000	 83.508511 
926.000000	 83.621164 
925.000000	 83.724229 
924.000000	 83.814777 
923.000000	 83.897438 
922.000000	 83.973864 
921.000000	 84.041884 
920.000000	 84.105832 
919.000000	 84.173697 
918.000000	 84.242488 
917.000000	 84.300571 
916.000000	 84.347182 
915.000000	 84.396961 
914.000000	 84.463488 
913.000000	 84.550732 
912.000000	 84.660817 
911.000000	 84.795987 
910.000000	 84.951664 
909.000000	 85.121133 
908.000000	 85.307815 
907.000000	 85.520119 
906.000000	 85.755413 
905.000000	 86.002517 
904.000000	 86.257657 
903.000000	 86.523226 
902.000000	 86.793850 
901.000000	 87.060088 
900.000000	 87.323956 
899.000000	 87.594937 
898.000000	 87.872030 
897.000000	 88.144445 
896.000000	 88.407296 
895.000000	 88.661632 
894.000000	 88.903130 
893.000000	 89.127043 
892.000000	 89.340919 
891.000000	 89.555709 
890.000000	 89.766570 
889.000000	 89.958481 
888.000000	 90.127885 
887.000000	 90.282908 
886.000000	 90.426401 
885.000000	 90.556291 
884.000000	 90.678853 
883.000000	 90.801944 
882.000000	 90.918037 
881.000000	 91.015960 
880.000000	 91.108469 
879.000000	 91.224420 
878.000000	 91.370788 
877.000000	 91.525539 
876.000000	 91.671893 
875.000000	 91.816704 
874.000000	 91.970557 
873.000000	 92.133321 
872.000000	 92.306353 
871.000000	 92.497262 
870.000000	 92.703917 
869.000000	 92.911368 
868.000000	 93.111545 
867.000000	 93.310654 
866.000000	 93.512476 
865.000000	 93.710144 
864.000000	 93.899991 
863.000000	 94.089090 
862.000000	 94.282677 
861.000000	 94.475830 
860.000000	 94.662715 
859.000000	 94.843250 
858.000000	 95.016647 
857.000000	 95.178640 
856.000000	 95.328511 
855.000000	 95.469555 
854.000000	 95.600418 
853.000000	 95.715371 
852.000000	 95.814783 
851.000000	 95.906425 
850.000000	 95.995910 
849.000000	 96.084673 
848.000000	 96.175801 
847.000000	 96.270483 
846.000000	 96.359699 
845.000000	 96.431660 
844.000000	 96.486992 
843.000000	 96.534890 
842.000000	 96.575697 
841.000000	 96.600417 
840.000000	 96.606744 
839.000000	 96.601686 
838.000000	 96.588295 
837.000000	 96.564029 
836.000000	 96.533612 
835.000000	 96.509310 
834.000000	 96.495414 
833.000000	 96.485366 
832.000000	 96.476693 
831.000000	 96.475345 
830.000000	 96.482706 
829.000000	 96.493284 
828.000000	 96.509938 
827.000000	 96.545989 
826.000000	 96.605324 
825.000000	 96.674788 
824.000000	 96.742874 
823.000000	 96.810704 
822.000000	 96.878827 
821.000000	 96.939815 
820.000000	 96.989561 
819.000000	 97.030494 
818.000000	 97.058715 
817.000000	 97.060952 
816.000000	 97.028995 
815.000000	 96.967251 
814.000000	 96.882017 
813.000000	 96.771222 
812.000000	 96.626800 
811.000000	 96.437741 
810.000000	 96.188276 
809.000000	 95.863282 
808.000000	 95.460416 
807.000000	 94.991337 
806.000000	 94.471196 
805.000000	 93.916549 
804.000000	 93.353677 
803.000000	 92.814609 
802.000000	 92.320305 
801.000000	 91.880496 
800.000000	 91.512210 
799.000000	 91.240713 
798.000000	 91.075646 
797.000000	 91.001153 
796.000000	 90.993682 
795.000000	 91.034332 
794.000000	 91.102876 
793.000000	 91.179677 
792.000000	 91.258554 
791.000000	 91.341494 
790.000000	 91.418044 
789.000000	 91.466355 
788.000000	 91.475900 
787.000000	 91.451410 
786.000000	 91.392479 
785.000000	 91.287673 
784.000000	 91.133223 
783.000000	 90.942121 
782.000000	 90.732669 
781.000000	 90.524621 
780.000000	 90.347150 
779.000000	 90.229444 
778.000000	 90.178025 
777.000000	 90.180857 
776.000000	 90.235461 
775.000000	 90.351351 
774.000000	 90.521424 
773.000000	 90.714617 
772.000000	 90.904189 
771.000000	 91.083717 
770.000000	 91.250576 
769.000000	 91.395396 
768.000000	 91.514935 
767.000000	 91.615840 
766.000000	 91.698773 
765.000000	 91.757386 
764.000000	 91.799287 
763.000000	 91.848391 
762.000000	 91.917776 
761.000000	 91.997234 
760.000000	 92.074569 
759.000000	 92.151599 
758.000000	 92.232503 
757.000000	 92.315487 
756.000000	 92.404766 
755.000000	 92.512575 
754.000000	 92.638496 
753.000000	 92.761577 
752.000000	 92.862389 
751.000000	 92.941398 
750.000000	 93.010878 
749.000000	 93.082060 
748.000000	 93.164352 
747.000000	 93.262177 
746.000000	 93.366633 
745.000000	 93.464251 
744.000000	 93.558598 
743.000000	 93.668469 
742.000000	 93.801190 
741.000000	 93.943981 
740.000000	 94.085013 
739.000000	 94.225540 
738.000000	 94.366711 
737.000000	 94.501449 
736.000000	 94.625738 
735.000000	 94.743095 
734.000000	 94.853459 
733.000000	 94.951582 
732.000000	 95.038021 
731.000000	 95.116382 
730.000000	 95.179872 
729.000000	 95.219577 
728.000000	 95.243523 
727.000000	 95.270141 
726.000000	 95.307112 
725.000000	 95.352157 
724.000000	 95.411068 
723.000000	 95.494294 
722.000000	 95.594691 
721.000000	 95.689079 
720.000000	 95.766209 
719.000000	 95.835800 
718.000000	 95.905615 
717.000000	 95.969313 
716.000000	 96.022921 
715.000000	 96.072173 
714.000000	 96.118333 
713.000000	 96.157470 
712.000000	 96.197352 
711.000000	 96.253595 
710.000000	 96.321904 
709.000000	 96.382844 
708.000000	 96.427239 
707.000000	 96.459919 
706.000000	 96.481373 
705.000000	 96.480545 
704.000000	 96.450883 
703.000000	 96.398591 
702.000000	 96.322958 
701.000000	 96.205054 
700.000000	 96.028781 
699.000000	 95.797405 
698.000000	 95.529946 
697.000000	 95.256698 
696.000000	 95.020540 
695.000000	 94.867817 
694.000000	 94.819473 
693.000000	 94.861170 
692.000000	 94.966276 
691.000000	 95.110466 
690.000000	 95.269352 
689.000000	 95.420374 
688.000000	 95.554169 
687.000000	 95.674520 
686.000000	 95.779411 
685.000000	 95.861259 
684.000000	 95.927805 
683.000000	 95.996348 
682.000000	 96.068456 
681.000000	 96.131172 
680.000000	 96.185281 
679.000000	 96.246209 
678.000000	 96.317941 
677.000000	 96.392545 
676.000000	 96.464831 
675.000000	 96.536599 
674.000000	 96.604078 
673.000000	 96.648228 
672.000000	 96.653624 
671.000000	 96.607693 
670.000000	 96.503757 
669.000000	 96.350276 
668.000000	 96.276256 
667.000000	 96.425229 
666.000000	 96.681873 
665.000000	 96.874725 
664.000000	 96.991782 
663.000000	 97.064626 
662.000000	 97.117487 
661.000000	 97.160476 
660.000000	 97.199553 
659.000000	 97.242303 
658.000000	 97.286643 
657.000000	 97.322005 
656.000000	 97.337157 
655.000000	 97.332408 
654.000000	 97.317658 
653.000000	 97.299748 
652.000000	 97.283208 
651.000000	 97.279605 
650.000000	 97.298270 

