4000.000000	98.786031 
3999.000000	98.779675 
3998.000000	98.769740 
3997.000000	98.757424 
3996.000000	98.743255 
3995.000000	98.728702 
3994.000000	98.716983 
3993.000000	98.710873 
3992.000000	98.710185 
3991.000000	98.712045 
3990.000000	98.714145 
3989.000000	98.716619 
3988.000000	98.719736 
3987.000000	98.721742 
3986.000000	98.720620 
3985.000000	98.716923 
3984.000000	98.713403 
3983.000000	98.712386 
3982.000000	98.714519 
3981.000000	98.719159 
3980.000000	98.724305 
3979.000000	98.726894 
3978.000000	98.724933 
3977.000000	98.719842 
3976.000000	98.715546 
3975.000000	98.714470 
3974.000000	98.715299 
3973.000000	98.715123 
3972.000000	98.712616 
3971.000000	98.708309 
3970.000000	98.703420 
3969.000000	98.699208 
3968.000000	98.696769 
3967.000000	98.696532 
3966.000000	98.697887 
3965.000000	98.699431 
3964.000000	98.699522 
3963.000000	98.697231 
3962.000000	98.693325 
3961.000000	98.690209 
3960.000000	98.689767 
3959.000000	98.691169 
3958.000000	98.692195 
3957.000000	98.691782 
3956.000000	98.690377 
3955.000000	98.688428 
3954.000000	98.685860 
3953.000000	98.683004 
3952.000000	98.680636 
3951.000000	98.679292 
3950.000000	98.678804 
3949.000000	98.678432 
3948.000000	98.677491 
3947.000000	98.676104 
3946.000000	98.674990 
3945.000000	98.674376 
3944.000000	98.673666 
3943.000000	98.672552 
3942.000000	98.672218 
3941.000000	98.674546 
3940.000000	98.679568 
3939.000000	98.684020 
3938.000000	98.684672 
3937.000000	98.681704 
3936.000000	98.677676 
3935.000000	98.674164 
3934.000000	98.670866 
3933.000000	98.668297 
3932.000000	98.667713 
3931.000000	98.668448 
3930.000000	98.667730 
3929.000000	98.664005 
3928.000000	98.659557 
3927.000000	98.657271 
3926.000000	98.656594 
3925.000000	98.655297 
3924.000000	98.653985 
3923.000000	98.654688 
3922.000000	98.656044 
3921.000000	98.655146 
3920.000000	98.653249 
3919.000000	98.654362 
3918.000000	98.658728 
3917.000000	98.662310 
3916.000000	98.663086 
3915.000000	98.663498 
3914.000000	98.665604 
3913.000000	98.667682 
3912.000000	98.667646 
3911.000000	98.664615 
3910.000000	98.658988 
3909.000000	98.652018 
3908.000000	98.645536 
3907.000000	98.641233 
3906.000000	98.639052 
3905.000000	98.637467 
3904.000000	98.635364 
3903.000000	98.633743 
3902.000000	98.634072 
3901.000000	98.635855 
3900.000000	98.637426 
3899.000000	98.638145 
3898.000000	98.638372 
3897.000000	98.638250 
3896.000000	98.637765 
3895.000000	98.637130 
3894.000000	98.636538 
3893.000000	98.635967 
3892.000000	98.635400 
3891.000000	98.634840 
3890.000000	98.634300 
3889.000000	98.633799 
3888.000000	98.633332 
3887.000000	98.632870 
3886.000000	98.632388 
3885.000000	98.631890 
3884.000000	98.631393 
3883.000000	98.630896 
3882.000000	98.630376 
3881.000000	98.629814 
3880.000000	98.629224 
3879.000000	98.628635 
3878.000000	98.628068 
3877.000000	98.627519 
3876.000000	98.626983 
3875.000000	98.626474 
3874.000000	98.626027 
3873.000000	98.625676 
3872.000000	98.625424 
3871.000000	98.625248 
3870.000000	98.625138 
3869.000000	98.625130 
3868.000000	98.625264 
3867.000000	98.625524 
3866.000000	98.625840 
3865.000000	98.626168 
3864.000000	98.626499 
3863.000000	98.626808 
3862.000000	98.627037 
3861.000000	98.627142 
3860.000000	98.627129 
3859.000000	98.627037 
3858.000000	98.626914 
3857.000000	98.626817 
3856.000000	98.626821 
3855.000000	98.626981 
3854.000000	98.627289 
3853.000000	98.627688 
3852.000000	98.628179 
3851.000000	98.628806 
3850.000000	98.629542 
3849.000000	98.630304 
3848.000000	98.631022 
3847.000000	98.631662 
3846.000000	98.632227 
3845.000000	98.632744 
3844.000000	98.633248 
3843.000000	98.633758 
3842.000000	98.634287 
3841.000000	98.634854 
3840.000000	98.635482 
3839.000000	98.636173 
3838.000000	98.636907 
3837.000000	98.637664 
3836.000000	98.638446 
3835.000000	98.639267 
3834.000000	98.640126 
3833.000000	98.641004 
3832.000000	98.641871 
3831.000000	98.642708 
3830.000000	98.643508 
3829.000000	98.644275 
3828.000000	98.645012 
3827.000000	98.645712 
3826.000000	98.646361 
3825.000000	98.646969 
3824.000000	98.647562 
3823.000000	98.648158 
3822.000000	98.648750 
3821.000000	98.649339 
3820.000000	98.649979 
3819.000000	98.650743 
3818.000000	98.651633 
3817.000000	98.652574 
3816.000000	98.653490 
3815.000000	98.654353 
3814.000000	98.655148 
3813.000000	98.655832 
3812.000000	98.656350 
3811.000000	98.656701 
3810.000000	98.656929 
3809.000000	98.657052 
3808.000000	98.657065 
3807.000000	98.656996 
3806.000000	98.656925 
3805.000000	98.656950 
3804.000000	98.657110 
3803.000000	98.657374 
3802.000000	98.657697 
3801.000000	98.658062 
3800.000000	98.658478 
3799.000000	98.658930 
3798.000000	98.659355 
3797.000000	98.659695 
3796.000000	98.659941 
3795.000000	98.660109 
3794.000000	98.660198 
3793.000000	98.660191 
3792.000000	98.660070 
3791.000000	98.659830 
3790.000000	98.659478 
3789.000000	98.659036 
3788.000000	98.658538 
3787.000000	98.658020 
3786.000000	98.657490 
3785.000000	98.656940 
3784.000000	98.656374 
3783.000000	98.655807 
3782.000000	98.655229 
3781.000000	98.654605 
3780.000000	98.653900 
3779.000000	98.653106 
3778.000000	98.652262 
3777.000000	98.651405 
3776.000000	98.650458 
3775.000000	98.649311 
3774.000000	98.648003 
3773.000000	98.646700 
3772.000000	98.645458 
3771.000000	98.644160 
3770.000000	98.642743 
3769.000000	98.641357 
3768.000000	98.640241 
3767.000000	98.639417 
3766.000000	98.638679 
3765.000000	98.637905 
3764.000000	98.637199 
3763.000000	98.636630 
3762.000000	98.635941 
3761.000000	98.634859 
3760.000000	98.633484 
3759.000000	98.632074 
3758.000000	98.630650 
3757.000000	98.629106 
3756.000000	98.627542 
3755.000000	98.626131 
3754.000000	98.624878 
3753.000000	98.623762 
3752.000000	98.622921 
3751.000000	98.622322 
3750.000000	98.621620 
3749.000000	98.620751 
3748.000000	98.620191 
3747.000000	98.620190 
3746.000000	98.620610 
3745.000000	98.620991 
3744.000000	98.620775 
3743.000000	98.620140 
3742.000000	98.620098 
3741.000000	98.620117 
3740.000000	98.619126 
3739.000000	98.617475 
3738.000000	98.616091 
3737.000000	98.614918 
3736.000000	98.613319 
3735.000000	98.611907 
3734.000000	98.611836 
3733.000000	98.612473 
3732.000000	98.612102 
3731.000000	98.611006 
3730.000000	98.611060 
3729.000000	98.612193 
3728.000000	98.611991 
3727.000000	98.609379 
3726.000000	98.606493 
3725.000000	98.606246 
3724.000000	98.608221 
3723.000000	98.609178 
3722.000000	98.607650 
3721.000000	98.604961 
3720.000000	98.602863 
3719.000000	98.600925 
3718.000000	98.597254 
3717.000000	98.591763 
3716.000000	98.586490 
3715.000000	98.582585 
3714.000000	98.579089 
3713.000000	98.576238 
3712.000000	98.576051 
3711.000000	98.578710 
3710.000000	98.582345 
3709.000000	98.584150 
3708.000000	98.580846 
3707.000000	98.571414 
3706.000000	98.558689 
3705.000000	98.547015 
3704.000000	98.538371 
3703.000000	98.531797 
3702.000000	98.524478 
3701.000000	98.514693 
3700.000000	98.505045 
3699.000000	98.498411 
3698.000000	98.492374 
3697.000000	98.483585 
3696.000000	98.473872 
3695.000000	98.466911 
3694.000000	98.461491 
3693.000000	98.453208 
3692.000000	98.442259 
3691.000000	98.433573 
3690.000000	98.429434 
3689.000000	98.425339 
3688.000000	98.418107 
3687.000000	98.413556 
3686.000000	98.415741 
3685.000000	98.418049 
3684.000000	98.413828 
3683.000000	98.404971 
3682.000000	98.395667 
3681.000000	98.385034 
3680.000000	98.369717 
3679.000000	98.353446 
3678.000000	98.343965 
3677.000000	98.341893 
3676.000000	98.337231 
3675.000000	98.321596 
3674.000000	98.307899 
3673.000000	98.309614 
3672.000000	98.316294 
3671.000000	98.315725 
3670.000000	98.310323 
3669.000000	98.306801 
3668.000000	98.310375 
3667.000000	98.318786 
3666.000000	98.325404 
3665.000000	98.328274 
3664.000000	98.329139 
3663.000000	98.328254 
3662.000000	98.323420 
3661.000000	98.313453 
3660.000000	98.300882 
3659.000000	98.290870 
3658.000000	98.286253 
3657.000000	98.284715 
3656.000000	98.280800 
3655.000000	98.275028 
3654.000000	98.271679 
3653.000000	98.266899 
3652.000000	98.256065 
3651.000000	98.247282 
3650.000000	98.251751 
3649.000000	98.266416 
3648.000000	98.278935 
3647.000000	98.285143 
3646.000000	98.290898 
3645.000000	98.300208 
3644.000000	98.310763 
3643.000000	98.318451 
3642.000000	98.322243 
3641.000000	98.323838 
3640.000000	98.324101 
3639.000000	98.321710 
3638.000000	98.316142 
3637.000000	98.310638 
3636.000000	98.307170 
3635.000000	98.302073 
3634.000000	98.290981 
3633.000000	98.276494 
3632.000000	98.266022 
3631.000000	98.264021 
3630.000000	98.271695 
3629.000000	98.281078 
3628.000000	98.282099 
3627.000000	98.282750 
3626.000000	98.290262 
3625.000000	98.298123 
3624.000000	98.304088 
3623.000000	98.310900 
3622.000000	98.316519 
3621.000000	98.315075 
3620.000000	98.305411 
3619.000000	98.293709 
3618.000000	98.288253 
3617.000000	98.293547 
3616.000000	98.306539 
3615.000000	98.319596 
3614.000000	98.328550 
3613.000000	98.335279 
3612.000000	98.343479 
3611.000000	98.353449 
3610.000000	98.361645 
3609.000000	98.365453 
3608.000000	98.366266 
3607.000000	98.366855 
3606.000000	98.367916 
3605.000000	98.368178 
3604.000000	98.367685 
3603.000000	98.368911 
3602.000000	98.373090 
3601.000000	98.378189 
3600.000000	98.381855 
3599.000000	98.383979 
3598.000000	98.385543 
3597.000000	98.388146 
3596.000000	98.393202 
3595.000000	98.400031 
3594.000000	98.405752 
3593.000000	98.407953 
3592.000000	98.406501 
3591.000000	98.402581 
3590.000000	98.398067 
3589.000000	98.395422 
3588.000000	98.396543 
3587.000000	98.401116 
3586.000000	98.407913 
3585.000000	98.415504 
3584.000000	98.421608 
3583.000000	98.424879 
3582.000000	98.426021 
3581.000000	98.426321 
3580.000000	98.426154 
3579.000000	98.425368 
3578.000000	98.424042 
3577.000000	98.422809 
3576.000000	98.422533 
3575.000000	98.423345 
3574.000000	98.424438 
3573.000000	98.424295 
3572.000000	98.421358 
3571.000000	98.414763 
3570.000000	98.405226 
3569.000000	98.395814 
3568.000000	98.391190 
3567.000000	98.393960 
3566.000000	98.402397 
3565.000000	98.411826 
3564.000000	98.417779 
3563.000000	98.418853 
3562.000000	98.417233 
3561.000000	98.416465 
3560.000000	98.418153 
3559.000000	98.420957 
3558.000000	98.422505 
3557.000000	98.421659 
3556.000000	98.419159 
3555.000000	98.416448 
3554.000000	98.414225 
3553.000000	98.412255 
3552.000000	98.410179 
3551.000000	98.408037 
3550.000000	98.405813 
3549.000000	98.403197 
3548.000000	98.400566 
3547.000000	98.399291 
3546.000000	98.399993 
3545.000000	98.401686 
3544.000000	98.403371 
3543.000000	98.405136 
3542.000000	98.407257 
3541.000000	98.409147 
3540.000000	98.410031 
3539.000000	98.410006 
3538.000000	98.409809 
3537.000000	98.409787 
3536.000000	98.409273 
3535.000000	98.407315 
3534.000000	98.403798 
3533.000000	98.400320 
3532.000000	98.399617 
3531.000000	98.403377 
3530.000000	98.409873 
3529.000000	98.414610 
3528.000000	98.414473 
3527.000000	98.410341 
3526.000000	98.404969 
3525.000000	98.399854 
3524.000000	98.395945 
3523.000000	98.395128 
3522.000000	98.398806 
3521.000000	98.405446 
3520.000000	98.411496 
3519.000000	98.415090 
3518.000000	98.417598 
3517.000000	98.421302 
3516.000000	98.425956 
3515.000000	98.428457 
3514.000000	98.425852 
3513.000000	98.417943 
3512.000000	98.407198 
3511.000000	98.397368 
3510.000000	98.391047 
3509.000000	98.386718 
3508.000000	98.378777 
3507.000000	98.362541 
3506.000000	98.340210 
3505.000000	98.321430 
3504.000000	98.315456 
3503.000000	98.322678 
3502.000000	98.335439 
3501.000000	98.346966 
3500.000000	98.357038 
3499.000000	98.367533 
3498.000000	98.377008 
3497.000000	98.382481 
3496.000000	98.384375 
3495.000000	98.386045 
3494.000000	98.388632 
3493.000000	98.389620 
3492.000000	98.387283 
3491.000000	98.384322 
3490.000000	98.385359 
3489.000000	98.391371 
3488.000000	98.398153 
3487.000000	98.400558 
3486.000000	98.397425 
3485.000000	98.392215 
3484.000000	98.389606 
3483.000000	98.391517 
3482.000000	98.395772 
3481.000000	98.398374 
3480.000000	98.397078 
3479.000000	98.392768 
3478.000000	98.387919 
3477.000000	98.384256 
3476.000000	98.381918 
3475.000000	98.380237 
3474.000000	98.379044 
3473.000000	98.379147 
3472.000000	98.381207 
3471.000000	98.384228 
3470.000000	98.385902 
3469.000000	98.384904 
3468.000000	98.382580 
3467.000000	98.381928 
3466.000000	98.384628 
3465.000000	98.389328 
3464.000000	98.392903 
3463.000000	98.393475 
3462.000000	98.391576 
3461.000000	98.388736 
3460.000000	98.385995 
3459.000000	98.383347 
3458.000000	98.380416 
3457.000000	98.377182 
3456.000000	98.373954 
3455.000000	98.371293 
3454.000000	98.369881 
3453.000000	98.370045 
3452.000000	98.371321 
3451.000000	98.372647 
3450.000000	98.373101 
3449.000000	98.372433 
3448.000000	98.371042 
3447.000000	98.369466 
3446.000000	98.367954 
3445.000000	98.366401 
3444.000000	98.364602 
3443.000000	98.362597 
3442.000000	98.360726 
3441.000000	98.359271 
3440.000000	98.358165 
3439.000000	98.357082 
3438.000000	98.355871 
3437.000000	98.354793 
3436.000000	98.354360 
3435.000000	98.355134 
3434.000000	98.357249 
3433.000000	98.360007 
3432.000000	98.362258 
3431.000000	98.363327 
3430.000000	98.363431 
3429.000000	98.363227 
3428.000000	98.363007 
3427.000000	98.362290 
3426.000000	98.360558 
3425.000000	98.358299 
3424.000000	98.356789 
3423.000000	98.356578 
3422.000000	98.356636 
3421.000000	98.355740 
3420.000000	98.354131 
3419.000000	98.353151 
3418.000000	98.353517 
3417.000000	98.354764 
3416.000000	98.355990 
3415.000000	98.356625 
3414.000000	98.356513 
3413.000000	98.355729 
3412.000000	98.354610 
3411.000000	98.353720 
3410.000000	98.353477 
3409.000000	98.353886 
3408.000000	98.354658 
3407.000000	98.355460 
3406.000000	98.355969 
3405.000000	98.355950 
3404.000000	98.355452 
3403.000000	98.354809 
3402.000000	98.354249 
3401.000000	98.353571 
3400.000000	98.352390 
3399.000000	98.350684 
3398.000000	98.349012 
3397.000000	98.348165 
3396.000000	98.348607 
3395.000000	98.350239 
3394.000000	98.352549 
3393.000000	98.354904 
3392.000000	98.356761 
3391.000000	98.357744 
3390.000000	98.357771 
3389.000000	98.357193 
3388.000000	98.356717 
3387.000000	98.356981 
3386.000000	98.358036 
3385.000000	98.359211 
3384.000000	98.359534 
3383.000000	98.358549 
3382.000000	98.356999 
3381.000000	98.356651 
3380.000000	98.358883 
3379.000000	98.363211 
3378.000000	98.367080 
3377.000000	98.368109 
3376.000000	98.366123 
3375.000000	98.362880 
3374.000000	98.360072 
3373.000000	98.357974 
3372.000000	98.356243 
3371.000000	98.354921 
3370.000000	98.354160 
3369.000000	98.353759 
3368.000000	98.353732 
3367.000000	98.354793 
3366.000000	98.357406 
3365.000000	98.360663 
3364.000000	98.362942 
3363.000000	98.363650 
3362.000000	98.363718 
3361.000000	98.364409 
3360.000000	98.366198 
3359.000000	98.368771 
3358.000000	98.371498 
3357.000000	98.373714 
3356.000000	98.375008 
3355.000000	98.375625 
3354.000000	98.376334 
3353.000000	98.377663 
3352.000000	98.379404 
3351.000000	98.381101 
3350.000000	98.382873 
3349.000000	98.385424 
3348.000000	98.389144 
3347.000000	98.393390 
3346.000000	98.396823 
3345.000000	98.398511 
3344.000000	98.398592 
3343.000000	98.397785 
3342.000000	98.396357 
3341.000000	98.393915 
3340.000000	98.390405 
3339.000000	98.387012 
3338.000000	98.385538 
3337.000000	98.386550 
3336.000000	98.388263 
3335.000000	98.387934 
3334.000000	98.384607 
3333.000000	98.380401 
3332.000000	98.378757 
3331.000000	98.381365 
3330.000000	98.386909 
3329.000000	98.392391 
3328.000000	98.395718 
3327.000000	98.396924 
3326.000000	98.397321 
3325.000000	98.398240 
3324.000000	98.400321 
3323.000000	98.403298 
3322.000000	98.406292 
3321.000000	98.408685 
3320.000000	98.410751 
3319.000000	98.412978 
3318.000000	98.414769 
3317.000000	98.414734 
3316.000000	98.412544 
3315.000000	98.409821 
3314.000000	98.408663 
3313.000000	98.409462 
3312.000000	98.410892 
3311.000000	98.411633 
3310.000000	98.411525 
3309.000000	98.411097 
3308.000000	98.410790 
3307.000000	98.410908 
3306.000000	98.411666 
3305.000000	98.412857 
3304.000000	98.413732 
3303.000000	98.413684 
3302.000000	98.413016 
3301.000000	98.412809 
3300.000000	98.413895 
3299.000000	98.415980 
3298.000000	98.417787 
3297.000000	98.418608 
3296.000000	98.419078 
3295.000000	98.420285 
3294.000000	98.422608 
3293.000000	98.425202 
3292.000000	98.426770 
3291.000000	98.426957 
3290.000000	98.426730 
3289.000000	98.427121 
3288.000000	98.428166 
3287.000000	98.429302 
3286.000000	98.430030 
3285.000000	98.429943 
3284.000000	98.428827 
3283.000000	98.427198 
3282.000000	98.426291 
3281.000000	98.426726 
3280.000000	98.427268 
3279.000000	98.425813 
3278.000000	98.421915 
3277.000000	98.417763 
3276.000000	98.416226 
3275.000000	98.418143 
3274.000000	98.421839 
3273.000000	98.425014 
3272.000000	98.426712 
3271.000000	98.427430 
3270.000000	98.427674 
3269.000000	98.426807 
3268.000000	98.423782 
3267.000000	98.419251 
3266.000000	98.416356 
3265.000000	98.418349 
3264.000000	98.425029 
3263.000000	98.432195 
3262.000000	98.435595 
3261.000000	98.435036 
3260.000000	98.433755 
3259.000000	98.434054 
3258.000000	98.434292 
3257.000000	98.430120 
3256.000000	98.417943 
3255.000000	98.397594 
3254.000000	98.373543 
3253.000000	98.353881 
3252.000000	98.346070 
3251.000000	98.352537 
3250.000000	98.369472 
3249.000000	98.389111 
3248.000000	98.404353 
3247.000000	98.411972 
3246.000000	98.412590 
3245.000000	98.409334 
3244.000000	98.406145 
3243.000000	98.405749 
3242.000000	98.408449 
3241.000000	98.412608 
3240.000000	98.416300 
3239.000000	98.418839 
3238.000000	98.421168 
3237.000000	98.424807 
3236.000000	98.430148 
3235.000000	98.435613 
3234.000000	98.438743 
3233.000000	98.438463 
3232.000000	98.436260 
3231.000000	98.434943 
3230.000000	98.436123 
3229.000000	98.438900 
3228.000000	98.440908 
3227.000000	98.440702 
3226.000000	98.439250 
3225.000000	98.439092 
3224.000000	98.441814 
3223.000000	98.446277 
3222.000000	98.449531 
3221.000000	98.449763 
3220.000000	98.448035 
3219.000000	98.447058 
3218.000000	98.448478 
3217.000000	98.451591 
3216.000000	98.454556 
3215.000000	98.456434 
3214.000000	98.457912 
3213.000000	98.460107 
3212.000000	98.462993 
3211.000000	98.465577 
3210.000000	98.467530 
3209.000000	98.469348 
3208.000000	98.471138 
3207.000000	98.472860 
3206.000000	98.474541 
3205.000000	98.476196 
3204.000000	98.477834 
3203.000000	98.479463 
3202.000000	98.481093 
3201.000000	98.482732 
3200.000000	98.484367 
3199.000000	98.485980 
3198.000000	98.487552 
3197.000000	98.489076 
3196.000000	98.490563 
3195.000000	98.492024 
3194.000000	98.493455 
3193.000000	98.494841 
3192.000000	98.496164 
3191.000000	98.497431 
3190.000000	98.498680 
3189.000000	98.499928 
3188.000000	98.501134 
3187.000000	98.502242 
3186.000000	98.503266 
3185.000000	98.504333 
3184.000000	98.505596 
3183.000000	98.507139 
3182.000000	98.508955 
3181.000000	98.510810 
3180.000000	98.512104 
3179.000000	98.512076 
3178.000000	98.510638 
3177.000000	98.509015 
3176.000000	98.508675 
3175.000000	98.509993 
3174.000000	98.512325 
3173.000000	98.514911 
3172.000000	98.517447 
3171.000000	98.519804 
3170.000000	98.521685 
3169.000000	98.523338 
3168.000000	98.525352 
3167.000000	98.527505 
3166.000000	98.528843 
3165.000000	98.528723 
3164.000000	98.527331 
3163.000000	98.525880 
3162.000000	98.525899 
3161.000000	98.527889 
3160.000000	98.530739 
3159.000000	98.532647 
3158.000000	98.532877 
3157.000000	98.532294 
3156.000000	98.532122 
3155.000000	98.532577 
3154.000000	98.533091 
3153.000000	98.533482 
3152.000000	98.534295 
3151.000000	98.535945 
3150.000000	98.538070 
3149.000000	98.539916 
3148.000000	98.541081 
3147.000000	98.541741 
3146.000000	98.542361 
3145.000000	98.543324 
3144.000000	98.544653 
3143.000000	98.545950 
3142.000000	98.546750 
3141.000000	98.547075 
3140.000000	98.547552 
3139.000000	98.548895 
3138.000000	98.551371 
3137.000000	98.554751 
3136.000000	98.558500 
3135.000000	98.561936 
3134.000000	98.564537 
3133.000000	98.566494 
3132.000000	98.568925 
3131.000000	98.573096 
3130.000000	98.579181 
3129.000000	98.585344 
3128.000000	98.588730 
3127.000000	98.588268 
3126.000000	98.585389 
3125.000000	98.583202 
3124.000000	98.583523 
3123.000000	98.585886 
3122.000000	98.588624 
3121.000000	98.590270 
3120.000000	98.590663 
3119.000000	98.590540 
3118.000000	98.590525 
3117.000000	98.590611 
3116.000000	98.590506 
3115.000000	98.590102 
3114.000000	98.589630 
3113.000000	98.589513 
3112.000000	98.590078 
3111.000000	98.591289 
3110.000000	98.592721 
3109.000000	98.593872 
3108.000000	98.594550 
3107.000000	98.594915 
3106.000000	98.595205 
3105.000000	98.595469 
3104.000000	98.595608 
3103.000000	98.595579 
3102.000000	98.595465 
3101.000000	98.595373 
3100.000000	98.595318 
3099.000000	98.595240 
3098.000000	98.595085 
3097.000000	98.594867 
3096.000000	98.594640 
3095.000000	98.594445 
3094.000000	98.594245 
3093.000000	98.593894 
3092.000000	98.593166 
3091.000000	98.591902 
3090.000000	98.590172 
3089.000000	98.588344 
3088.000000	98.586949 
3087.000000	98.586182 
3086.000000	98.585594 
3085.000000	98.584395 
3084.000000	98.581992 
3083.000000	98.578755 
3082.000000	98.576289 
3081.000000	98.576321 
3080.000000	98.578081 
3079.000000	98.579697 
3078.000000	98.580279 
3077.000000	98.580113 
3076.000000	98.580018 
3075.000000	98.580407 
3074.000000	98.580970 
3073.000000	98.581172 
3072.000000	98.581036 
3071.000000	98.581247 
3070.000000	98.582312 
3069.000000	98.583658 
3068.000000	98.583755 
3067.000000	98.581468 
3066.000000	98.577350 
3065.000000	98.573240 
3064.000000	98.570122 
3063.000000	98.567175 
3062.000000	98.563944 
3061.000000	98.562563 
3060.000000	98.565731 
3059.000000	98.572284 
3058.000000	98.576994 
3057.000000	98.575937 
3056.000000	98.570198 
3055.000000	98.563217 
3054.000000	98.556362 
3053.000000	98.549480 
3052.000000	98.544566 
3051.000000	98.545178 
3050.000000	98.551619 
3049.000000	98.558908 
3048.000000	98.560918 
3047.000000	98.555259 
3046.000000	98.543761 
3045.000000	98.530702 
3044.000000	98.519862 
3043.000000	98.512574 
3042.000000	98.507497 
3041.000000	98.501725 
3040.000000	98.492930 
3039.000000	98.481533 
3038.000000	98.471122 
3037.000000	98.465880 
3036.000000	98.466533 
3035.000000	98.468755 
3034.000000	98.466609 
3033.000000	98.457897 
3032.000000	98.445262 
3031.000000	98.432189 
3030.000000	98.419301 
3029.000000	98.405244 
3028.000000	98.389841 
3027.000000	98.374758 
3026.000000	98.361184 
3025.000000	98.347902 
3024.000000	98.332101 
3023.000000	98.311979 
3022.000000	98.288840 
3021.000000	98.266831 
3020.000000	98.249771 
3019.000000	98.237372 
3018.000000	98.224942 
3017.000000	98.207508 
3016.000000	98.184224 
3015.000000	98.158870 
3014.000000	98.137259 
3013.000000	98.124103 
3012.000000	98.119645 
3011.000000	98.116602 
3010.000000	98.102735 
3009.000000	98.071336 
3008.000000	98.030355 
3007.000000	97.998226 
3006.000000	97.985931 
3005.000000	97.985383 
3004.000000	97.976869 
3003.000000	97.949083 
3002.000000	97.909214 
3001.000000	97.874583 
3000.000000	97.856792 
2999.000000	97.855060 
2998.000000	97.860222 
2997.000000	97.862283 
2996.000000	97.856076 
2995.000000	97.842493 
2994.000000	97.825290 
2993.000000	97.805981 
2992.000000	97.782308 
2991.000000	97.752734 
2990.000000	97.721696 
2989.000000	97.698120 
2988.000000	97.687818 
2987.000000	97.688367 
2986.000000	97.691838 
2985.000000	97.692061 
2984.000000	97.688735 
2983.000000	97.685429 
2982.000000	97.685236 
2981.000000	97.688317 
2980.000000	97.691984 
2979.000000	97.692128 
2978.000000	97.685528 
2977.000000	97.672566 
2976.000000	97.658054 
2975.000000	97.648029 
2974.000000	97.644916 
2973.000000	97.646559 
2972.000000	97.650524 
2971.000000	97.658074 
2970.000000	97.672207 
2969.000000	97.692542 
2968.000000	97.714212 
2967.000000	97.731984 
2966.000000	97.744272 
2965.000000	97.753200 
2964.000000	97.762120 
2963.000000	97.773323 
2962.000000	97.786851 
2961.000000	97.800588 
2960.000000	97.812066 
2959.000000	97.821258 
2958.000000	97.830811 
2957.000000	97.843025 
2956.000000	97.857362 
2955.000000	97.871411 
2954.000000	97.883634 
2953.000000	97.894531 
2952.000000	97.905437 
2951.000000	97.916550 
2950.000000	97.926014 
2949.000000	97.930983 
2948.000000	97.930294 
2947.000000	97.926395 
2946.000000	97.924258 
2945.000000	97.927855 
2944.000000	97.937128 
2943.000000	97.947883 
2942.000000	97.954592 
2941.000000	97.954228 
2940.000000	97.948973 
2939.000000	97.945332 
2938.000000	97.948401 
2937.000000	97.956467 
2936.000000	97.962571 
2935.000000	97.961629 
2934.000000	97.954735 
2933.000000	97.946529 
2932.000000	97.940295 
2931.000000	97.936508 
2930.000000	97.934407 
2929.000000	97.933171 
2928.000000	97.932031 
2927.000000	97.930520 
2926.000000	97.928736 
2925.000000	97.927203 
2924.000000	97.926917 
2923.000000	97.929217 
2922.000000	97.934245 
2921.000000	97.939444 
2920.000000	97.941232 
2919.000000	97.938665 
2918.000000	97.933941 
2917.000000	97.928772 
2916.000000	97.922400 
2915.000000	97.914528 
2914.000000	97.908140 
2913.000000	97.906962 
2912.000000	97.910718 
2911.000000	97.914812 
2910.000000	97.914565 
2909.000000	97.908943 
2908.000000	97.900933 
2907.000000	97.895293 
2906.000000	97.894618 
2905.000000	97.895681 
2904.000000	97.890988 
2903.000000	97.877215 
2902.000000	97.861913 
2901.000000	97.858043 
2900.000000	97.871137 
2899.000000	97.894139 
2898.000000	97.914535 
2897.000000	97.925971 
2896.000000	97.931327 
2895.000000	97.936643 
2894.000000	97.945155 
2893.000000	97.956278 
2892.000000	97.967535 
2891.000000	97.976693 
2890.000000	97.983491 
2889.000000	97.990324 
2888.000000	98.000449 
2887.000000	98.014286 
2886.000000	98.027455 
2885.000000	98.033954 
2884.000000	98.032756 
2883.000000	98.030934 
2882.000000	98.038235 
2881.000000	98.057842 
2880.000000	98.083802 
2879.000000	98.107498 
2878.000000	98.125408 
2877.000000	98.138642 
2876.000000	98.147640 
2875.000000	98.151709 
2874.000000	98.153268 
2873.000000	98.157779 
2872.000000	98.167346 
2871.000000	98.177621 
2870.000000	98.183754 
2869.000000	98.187198 
2868.000000	98.193505 
2867.000000	98.204775 
2866.000000	98.217830 
2865.000000	98.229778 
2864.000000	98.242123 
2863.000000	98.258010 
2862.000000	98.277520 
2861.000000	98.297075 
2860.000000	98.312647 
2859.000000	98.322811 
2858.000000	98.329461 
2857.000000	98.336626 
2856.000000	98.347498 
2855.000000	98.361785 
2854.000000	98.376266 
2853.000000	98.388109 
2852.000000	98.396885 
2851.000000	98.403448 
2850.000000	98.408403 
2849.000000	98.412502 
2848.000000	98.417505 
2847.000000	98.425237 
2846.000000	98.435904 
2845.000000	98.448102 
2844.000000	98.460250 
2843.000000	98.471366 
2842.000000	98.480749 
2841.000000	98.487970 
2840.000000	98.493405 
2839.000000	98.498360 
2838.000000	98.504493 
2837.000000	98.512789 
2836.000000	98.522991 
2835.000000	98.534095 
2834.000000	98.545438 
2833.000000	98.557146 
2832.000000	98.569180 
2831.000000	98.580084 
2830.000000	98.587250 
2829.000000	98.588917 
2828.000000	98.585842 
2827.000000	98.581067 
2826.000000	98.578311 
2825.000000	98.579907 
2824.000000	98.585597 
2823.000000	98.592885 
2822.000000	98.598790 
2821.000000	98.601629 
2820.000000	98.601416 
2819.000000	98.599274 
2818.000000	98.596776 
2817.000000	98.595456 
2816.000000	98.596235 
2815.000000	98.599104 
2814.000000	98.603358 
2813.000000	98.607655 
2812.000000	98.609914 
2811.000000	98.608341 
2810.000000	98.603587 
2809.000000	98.599254 
2808.000000	98.598923 
2807.000000	98.602834 
2806.000000	98.608325 
2805.000000	98.613063 
2804.000000	98.616695 
2803.000000	98.619451 
2802.000000	98.620930 
2801.000000	98.621289 
2800.000000	98.622252 
2799.000000	98.625401 
2798.000000	98.629863 
2797.000000	98.632791 
2796.000000	98.632397 
2795.000000	98.629465 
2794.000000	98.626136 
2793.000000	98.623964 
2792.000000	98.623117 
2791.000000	98.623312 
2790.000000	98.624770 
2789.000000	98.627531 
2788.000000	98.630790 
2787.000000	98.633448 
2786.000000	98.635040 
2785.000000	98.636026 
2784.000000	98.637121 
2783.000000	98.638521 
2782.000000	98.639884 
2781.000000	98.640876 
2780.000000	98.641524 
2779.000000	98.642055 
2778.000000	98.642632 
2777.000000	98.643312 
2776.000000	98.644119 
2775.000000	98.645059 
2774.000000	98.646110 
2773.000000	98.647258 
2772.000000	98.648517 
2771.000000	98.649881 
2770.000000	98.651274 
2769.000000	98.652555 
2768.000000	98.653589 
2767.000000	98.654328 
2766.000000	98.654852 
2765.000000	98.655281 
2764.000000	98.655572 
2763.000000	98.655482 
2762.000000	98.654887 
2761.000000	98.654078 
2760.000000	98.653657 
2759.000000	98.654000 
2758.000000	98.654957 
2757.000000	98.655982 
2756.000000	98.656549 
2755.000000	98.656518 
2754.000000	98.656039 
2753.000000	98.655425 
2752.000000	98.655138 
2751.000000	98.655595 
2750.000000	98.656839 
2749.000000	98.658449 
2748.000000	98.659805 
2747.000000	98.660681 
2746.000000	98.661258 
2745.000000	98.661830 
2744.000000	98.662561 
2743.000000	98.663395 
2742.000000	98.664216 
2741.000000	98.664989 
2740.000000	98.665737 
2739.000000	98.666472 
2738.000000	98.667190 
2737.000000	98.667901 
2736.000000	98.668640 
2735.000000	98.669448 
2734.000000	98.670349 
2733.000000	98.671330 
2732.000000	98.672346 
2731.000000	98.673345 
2730.000000	98.674303 
2729.000000	98.675229 
2728.000000	98.676144 
2727.000000	98.677067 
2726.000000	98.678007 
2725.000000	98.678969 
2724.000000	98.679952 
2723.000000	98.680948 
2722.000000	98.681950 
2721.000000	98.682955 
2720.000000	98.683968 
2719.000000	98.684990 
2718.000000	98.686019 
2717.000000	98.687041 
2716.000000	98.688049 
2715.000000	98.689046 
2714.000000	98.690048 
2713.000000	98.691068 
2712.000000	98.692105 
2711.000000	98.693142 
2710.000000	98.694151 
2709.000000	98.695109 
2708.000000	98.696005 
2707.000000	98.696842 
2706.000000	98.697634 
2705.000000	98.698424 
2704.000000	98.699260 
2703.000000	98.700083 
2702.000000	98.700763 
2701.000000	98.701234 
2700.000000	98.701636 
2699.000000	98.702217 
2698.000000	98.703132 
2697.000000	98.704317 
2696.000000	98.705511 
2695.000000	98.706448 
2694.000000	98.707026 
2693.000000	98.707376 
2692.000000	98.707677 
2691.000000	98.707902 
2690.000000	98.707890 
2689.000000	98.707656 
2688.000000	98.707433 
2687.000000	98.707361 
2686.000000	98.707331 
2685.000000	98.707242 
2684.000000	98.707189 
2683.000000	98.707167 
2682.000000	98.706808 
2681.000000	98.705820 
2680.000000	98.704720 
2679.000000	98.704750 
2678.000000	98.706851 
2677.000000	98.710629 
2676.000000	98.714267 
2675.000000	98.716063 
2674.000000	98.715590 
2673.000000	98.713838 
2672.000000	98.712279 
2671.000000	98.711656 
2670.000000	98.711814 
2669.000000	98.712325 
2668.000000	98.712976 
2667.000000	98.713711 
2666.000000	98.714312 
2665.000000	98.714335 
2664.000000	98.713436 
2663.000000	98.711822 
2662.000000	98.710267 
2661.000000	98.709320 
2660.000000	98.708554 
2659.000000	98.707155 
2658.000000	98.705401 
2657.000000	98.704765 
2656.000000	98.705944 
2655.000000	98.707534 
2654.000000	98.707686 
2653.000000	98.706664 
2652.000000	98.706587 
2651.000000	98.708679 
2650.000000	98.711823 
2649.000000	98.714036 
2648.000000	98.714423 
2647.000000	98.713289 
2646.000000	98.711162 
2645.000000	98.708441 
2644.000000	98.705619 
2643.000000	98.703116 
2642.000000	98.700729 
2641.000000	98.697632 
2640.000000	98.693636 
2639.000000	98.690840 
2638.000000	98.693070 
2637.000000	98.702045 
2636.000000	98.713675 
2635.000000	98.720105 
2634.000000	98.717602 
2633.000000	98.710830 
2632.000000	98.708012 
2631.000000	98.712314 
2630.000000	98.720619 
2629.000000	98.729464 
2628.000000	98.738538 
2627.000000	98.747572 
2626.000000	98.753834 
2625.000000	98.755533 
2624.000000	98.755135 
2623.000000	98.756289 
2622.000000	98.758430 
2621.000000	98.757307 
2620.000000	98.750532 
2619.000000	98.740475 
2618.000000	98.731719 
2617.000000	98.726649 
2616.000000	98.723928 
2615.000000	98.720363 
2614.000000	98.714033 
2613.000000	98.706174 
2612.000000	98.700096 
2611.000000	98.698044 
2610.000000	98.699430 
2609.000000	98.701959 
2608.000000	98.703804 
2607.000000	98.704692 
2606.000000	98.705616 
2605.000000	98.707704 
2604.000000	98.710815 
2603.000000	98.713192 
2602.000000	98.713067 
2601.000000	98.710498 
2600.000000	98.707054 
2599.000000	98.703991 
2598.000000	98.701554 
2597.000000	98.699870 
2596.000000	98.699321 
2595.000000	98.699799 
2594.000000	98.700592 
2593.000000	98.701250 
2592.000000	98.701725 
2591.000000	98.701690 
2590.000000	98.700690 
2589.000000	98.698968 
2588.000000	98.697440 
2587.000000	98.696620 
2586.000000	98.696153 
2585.000000	98.695572 
2584.000000	98.694865 
2583.000000	98.694235 
2582.000000	98.693716 
2581.000000	98.693288 
2580.000000	98.692964 
2579.000000	98.692734 
2578.000000	98.692579 
2577.000000	98.692476 
2576.000000	98.692416 
2575.000000	98.692405 
2574.000000	98.692461 
2573.000000	98.692594 
2572.000000	98.692793 
2571.000000	98.693023 
2570.000000	98.693241 
2569.000000	98.693413 
2568.000000	98.693534 
2567.000000	98.693620 
2566.000000	98.693691 
2565.000000	98.693768 
2564.000000	98.693873 
2563.000000	98.694027 
2562.000000	98.694248 
2561.000000	98.694543 
2560.000000	98.694904 
2559.000000	98.695322 
2558.000000	98.695784 
2557.000000	98.696267 
2556.000000	98.696747 
2555.000000	98.697209 
2554.000000	98.697660 
2553.000000	98.698112 
2552.000000	98.698566 
2551.000000	98.699005 
2550.000000	98.699425 
2549.000000	98.699841 
2548.000000	98.700286 
2547.000000	98.700793 
2546.000000	98.701391 
2545.000000	98.702095 
2544.000000	98.702906 
2543.000000	98.703800 
2542.000000	98.704739 
2541.000000	98.705696 
2540.000000	98.706668 
2539.000000	98.707664 
2538.000000	98.708690 
2537.000000	98.709750 
2536.000000	98.710832 
2535.000000	98.711965 
2534.000000	98.713214 
2533.000000	98.714561 
2532.000000	98.715878 
2531.000000	98.717011 
2530.000000	98.717815 
2529.000000	98.718252 
2528.000000	98.718543 
2527.000000	98.719154 
2526.000000	98.720446 
2525.000000	98.722289 
2524.000000	98.724167 
2523.000000	98.725697 
2522.000000	98.726801 
2521.000000	98.727463 
2520.000000	98.727692 
2519.000000	98.727957 
2518.000000	98.729211 
2517.000000	98.731682 
2516.000000	98.733606 
2515.000000	98.732430 
2514.000000	98.728021 
2513.000000	98.723816 
2512.000000	98.723245 
2511.000000	98.726111 
2510.000000	98.730095 
2509.000000	98.734801 
2508.000000	98.741301 
2507.000000	98.747781 
2506.000000	98.749985 
2505.000000	98.747667 
2504.000000	98.746995 
2503.000000	98.753200 
2502.000000	98.762726 
2501.000000	98.767071 
2500.000000	98.763654 
2499.000000	98.758425 
2498.000000	98.757723 
2497.000000	98.760437 
2496.000000	98.761084 
2495.000000	98.757704 
2494.000000	98.753667 
2493.000000	98.752520 
2492.000000	98.753390 
2491.000000	98.751963 
2490.000000	98.744658 
2489.000000	98.731488 
2488.000000	98.716283 
2487.000000	98.704670 
2486.000000	98.700888 
2485.000000	98.705477 
2484.000000	98.714805 
2483.000000	98.723139 
2482.000000	98.726670 
2481.000000	98.725825 
2480.000000	98.723822 
2479.000000	98.723261 
2478.000000	98.724294 
2477.000000	98.725772 
2476.000000	98.727235 
2475.000000	98.729329 
2474.000000	98.732731 
2473.000000	98.737040 
2472.000000	98.740531 
2471.000000	98.741052 
2470.000000	98.737877 
2469.000000	98.733154 
2468.000000	98.730886 
2467.000000	98.733507 
2466.000000	98.739563 
2465.000000	98.744843 
2464.000000	98.746070 
2463.000000	98.743328 
2462.000000	98.739330 
2461.000000	98.736753 
2460.000000	98.736358 
2459.000000	98.737249 
2458.000000	98.737980 
2457.000000	98.737231 
2456.000000	98.734008 
2455.000000	98.728268 
2454.000000	98.721722 
2453.000000	98.716967 
2452.000000	98.715396 
2451.000000	98.716350 
2450.000000	98.718438 
2449.000000	98.720949 
2448.000000	98.723441 
2447.000000	98.724788 
2446.000000	98.723936 
2445.000000	98.721185 
2444.000000	98.717729 
2443.000000	98.714299 
2442.000000	98.711124 
2441.000000	98.708932 
2440.000000	98.708832 
2439.000000	98.711050 
2438.000000	98.714545 
2437.000000	98.718145 
2436.000000	98.721061 
2435.000000	98.722297 
2434.000000	98.721137 
2433.000000	98.718535 
2432.000000	98.716846 
2431.000000	98.717705 
2430.000000	98.720658 
2429.000000	98.723822 
2428.000000	98.725355 
2427.000000	98.724396 
2426.000000	98.721358 
2425.000000	98.717878 
2424.000000	98.715825 
2423.000000	98.715782 
2422.000000	98.716811 
2421.000000	98.717891 
2420.000000	98.718665 
2419.000000	98.718937 
2418.000000	98.718814 
2417.000000	98.719579 
2416.000000	98.722899 
2415.000000	98.728590 
2414.000000	98.734364 
2413.000000	98.738408 
2412.000000	98.741216 
2411.000000	98.743955 
2410.000000	98.746350 
2409.000000	98.747329 
2408.000000	98.746983 
2407.000000	98.746682 
2406.000000	98.747668 
2405.000000	98.750313 
2404.000000	98.754227 
2403.000000	98.758295 
2402.000000	98.761213 
2401.000000	98.762950 
2400.000000	98.765296 
2399.000000	98.770005 
2398.000000	98.776563 
2397.000000	98.782316 
2396.000000	98.784808 
2395.000000	98.783582 
2394.000000	98.780532 
2393.000000	98.779133 
2392.000000	98.782055 
2391.000000	98.789115 
2390.000000	98.797078 
2389.000000	98.802850 
2388.000000	98.806112 
2387.000000	98.808291 
2386.000000	98.810075 
2385.000000	98.811408 
2384.000000	98.813033 
2383.000000	98.815630 
2382.000000	98.817544 
2381.000000	98.815857 
2380.000000	98.810254 
2379.000000	98.804191 
2378.000000	98.801284 
2377.000000	98.801541 
2376.000000	98.802784 
2375.000000	98.804491 
2374.000000	98.808112 
2373.000000	98.813644 
2372.000000	98.818437 
2371.000000	98.820330 
2370.000000	98.820153 
2369.000000	98.820007 
2368.000000	98.820384 
2367.000000	98.820211 
2366.000000	98.818857 
2365.000000	98.817004 
2364.000000	98.816001 
2363.000000	98.816834 
2362.000000	98.820071 
2361.000000	98.825762 
2360.000000	98.832750 
2359.000000	98.839176 
2358.000000	98.842948 
2357.000000	98.843093 
2356.000000	98.840622 
2355.000000	98.836622 
2354.000000	98.830357 
2353.000000	98.823152 
2352.000000	98.821206 
2351.000000	98.828512 
2350.000000	98.840967 
2349.000000	98.850413 
2348.000000	98.853045 
2347.000000	98.851604 
2346.000000	98.852115 
2345.000000	98.857737 
2344.000000	98.866397 
2343.000000	98.873423 
2342.000000	98.877002 
2341.000000	98.878708 
2340.000000	98.880135 
2339.000000	98.880677 
2338.000000	98.877796 
2337.000000	98.872248 
2336.000000	98.870564 
2335.000000	98.878200 
2334.000000	98.890991 
2333.000000	98.899569 
2332.000000	98.901630 
2331.000000	98.902805 
2330.000000	98.906881 
2329.000000	98.915209 
2328.000000	98.929913 
2327.000000	98.951307 
2326.000000	98.972547 
2325.000000	98.984787 
2324.000000	98.988540 
2323.000000	98.989878 
2322.000000	98.991574 
2321.000000	98.989450 
2320.000000	98.982058 
2319.000000	98.971674 
2318.000000	98.959166 
2317.000000	98.943450 
2316.000000	98.927653 
2315.000000	98.919587 
2314.000000	98.922086 
2313.000000	98.929345 
2312.000000	98.933534 
2311.000000	98.933549 
2310.000000	98.931258 
2309.000000	98.927186 
2308.000000	98.920201 
2307.000000	98.912288 
2306.000000	98.907192 
2305.000000	98.907979 
2304.000000	98.914216 
2303.000000	98.922546 
2302.000000	98.927823 
2301.000000	98.926239 
2300.000000	98.917056 
2299.000000	98.902649 
2298.000000	98.886660 
2297.000000	98.871730 
2296.000000	98.858078 
2295.000000	98.843977 
2294.000000	98.827872 
2293.000000	98.810795 
2292.000000	98.796995 
2291.000000	98.788208 
2290.000000	98.782720 
2289.000000	98.779052 
2288.000000	98.777143 
2287.000000	98.777193 
2286.000000	98.778103 
2285.000000	98.778480 
2284.000000	98.778072 
2283.000000	98.776571 
2282.000000	98.772328 
2281.000000	98.764216 
2280.000000	98.754113 
2279.000000	98.745876 
2278.000000	98.741658 
2277.000000	98.740517 
2276.000000	98.740507 
2275.000000	98.740742 
2274.000000	98.740998 
2273.000000	98.740762 
2272.000000	98.739722 
2271.000000	98.738426 
2270.000000	98.737651 
2269.000000	98.737306 
2268.000000	98.736419 
2267.000000	98.734074 
2266.000000	98.730335 
2265.000000	98.726433 
2264.000000	98.723802 
2263.000000	98.722603 
2262.000000	98.721475 
2261.000000	98.719333 
2260.000000	98.717194 
2259.000000	98.717248 
2258.000000	98.720017 
2257.000000	98.723091 
2256.000000	98.723350 
2255.000000	98.720656 
2254.000000	98.719120 
2253.000000	98.723914 
2252.000000	98.735861 
2251.000000	98.747847 
2250.000000	98.750018 
2249.000000	98.739554 
2248.000000	98.723390 
2247.000000	98.712695 
2246.000000	98.711081 
2245.000000	98.713474 
2244.000000	98.712863 
2243.000000	98.707070 
2242.000000	98.698667 
2241.000000	98.690931 
2240.000000	98.685198 
2239.000000	98.680820 
2238.000000	98.675812 
2237.000000	98.668279 
2236.000000	98.658636 
2235.000000	98.649841 
2234.000000	98.644218 
2233.000000	98.640968 
2232.000000	98.637977 
2231.000000	98.634994 
2230.000000	98.633045 
2229.000000	98.631257 
2228.000000	98.626611 
2227.000000	98.617301 
2226.000000	98.604802 
2225.000000	98.592404 
2224.000000	98.582622 
2223.000000	98.576256 
2222.000000	98.572702 
2221.000000	98.570539 
2220.000000	98.568581 
2219.000000	98.566774 
2218.000000	98.565835 
2217.000000	98.566430 
2216.000000	98.569058 
2215.000000	98.573548 
2214.000000	98.577541 
2213.000000	98.576775 
2212.000000	98.569040 
2211.000000	98.557238 
2210.000000	98.546942 
2209.000000	98.540801 
2208.000000	98.537238 
2207.000000	98.534553 
2206.000000	98.532982 
2205.000000	98.532212 
2204.000000	98.529317 
2203.000000	98.521828 
2202.000000	98.511207 
2201.000000	98.500839 
2200.000000	98.492339 
2199.000000	98.484086 
2198.000000	98.474395 
2197.000000	98.465789 
2196.000000	98.464054 
2195.000000	98.471836 
2194.000000	98.484292 
2193.000000	98.492890 
2192.000000	98.494055 
2191.000000	98.490508 
2190.000000	98.485111 
2189.000000	98.477820 
2188.000000	98.470059 
2187.000000	98.467048 
2186.000000	98.471656 
2185.000000	98.478898 
2184.000000	98.481041 
2183.000000	98.477229 
2182.000000	98.473193 
2181.000000	98.472906 
2180.000000	98.475091 
2179.000000	98.477516 
2178.000000	98.480066 
2177.000000	98.482609 
2176.000000	98.483363 
2175.000000	98.481339 
2174.000000	98.478133 
2173.000000	98.476031 
2172.000000	98.475285 
2171.000000	98.473607 
2170.000000	98.468362 
2169.000000	98.459692 
2168.000000	98.451936 
2167.000000	98.451066 
2166.000000	98.456801 
2165.000000	98.462072 
2164.000000	98.460224 
2163.000000	98.451947 
2162.000000	98.444459 
2161.000000	98.444159 
2160.000000	98.451369 
2159.000000	98.461634 
2158.000000	98.470377 
2157.000000	98.476353 
2156.000000	98.480957 
2155.000000	98.485482 
2154.000000	98.489838 
2153.000000	98.493523 
2152.000000	98.496880 
2151.000000	98.500754 
2150.000000	98.505279 
2149.000000	98.509780 
2148.000000	98.513873 
2147.000000	98.517894 
2146.000000	98.522079 
2145.000000	98.526041 
2144.000000	98.529406 
2143.000000	98.532489 
2142.000000	98.535956 
2141.000000	98.540006 
2140.000000	98.544226 
2139.000000	98.548125 
2138.000000	98.551588 
2137.000000	98.554798 
2136.000000	98.557885 
2135.000000	98.560776 
2134.000000	98.563399 
2133.000000	98.565886 
2132.000000	98.568426 
2131.000000	98.571052 
2130.000000	98.573702 
2129.000000	98.576294 
2128.000000	98.578743 
2127.000000	98.581085 
2126.000000	98.583512 
2125.000000	98.586249 
2124.000000	98.589387 
2123.000000	98.592831 
2122.000000	98.596399 
2121.000000	98.599948 
2120.000000	98.603406 
2119.000000	98.606742 
2118.000000	98.609935 
2117.000000	98.612980 
2116.000000	98.615898 
2115.000000	98.618720 
2114.000000	98.621472 
2113.000000	98.624167 
2112.000000	98.626808 
2111.000000	98.629375 
2110.000000	98.631826 
2109.000000	98.634112 
2108.000000	98.636196 
2107.000000	98.638065 
2106.000000	98.639710 
2105.000000	98.641125 
2104.000000	98.642311 
2103.000000	98.643280 
2102.000000	98.644044 
2101.000000	98.644617 
2100.000000	98.645028 
2099.000000	98.645327 
2098.000000	98.645585 
2097.000000	98.645854 
2096.000000	98.646173 
2095.000000	98.646554 
2094.000000	98.646936 
2093.000000	98.647190 
2092.000000	98.647227 
2091.000000	98.647182 
2090.000000	98.647477 
2089.000000	98.648623 
2088.000000	98.650755 
2087.000000	98.653092 
2086.000000	98.653796 
2085.000000	98.651056 
2084.000000	98.646708 
2083.000000	98.645348 
2082.000000	98.649027 
2081.000000	98.653988 
2080.000000	98.655150 
2079.000000	98.650569 
2078.000000	98.642447 
2077.000000	98.634908 
2076.000000	98.630816 
2075.000000	98.630534 
2074.000000	98.631516 
2073.000000	98.630525 
2072.000000	98.626951 
2071.000000	98.621982 
2070.000000	98.614587 
2069.000000	98.601428 
2068.000000	98.582206 
2067.000000	98.562313 
2066.000000	98.548005 
2065.000000	98.540263 
2064.000000	98.535096 
2063.000000	98.530651 
2062.000000	98.529871 
2061.000000	98.534957 
2060.000000	98.544193 
2059.000000	98.553360 
2058.000000	98.557705 
2057.000000	98.555861 
2056.000000	98.550413 
2055.000000	98.544161 
2054.000000	98.537450 
2053.000000	98.529285 
2052.000000	98.519767 
2051.000000	98.510252 
2050.000000	98.501860 
2049.000000	98.494975 
2048.000000	98.489894 
2047.000000	98.486593 
2046.000000	98.483978 
2045.000000	98.480411 
2044.000000	98.475259 
2043.000000	98.469460 
2042.000000	98.464251 
2041.000000	98.459818 
2040.000000	98.455707 
2039.000000	98.451660 
2038.000000	98.447618 
2037.000000	98.443504 
2036.000000	98.439505 
2035.000000	98.436256 
2034.000000	98.434186 
2033.000000	98.432854 
2032.000000	98.431226 
2031.000000	98.428614 
2030.000000	98.425052 
2029.000000	98.421014 
2028.000000	98.417004 
2027.000000	98.413221 
2026.000000	98.409486 
2025.000000	98.405681 
2024.000000	98.402279 
2023.000000	98.400079 
2022.000000	98.399333 
2021.000000	98.399047 
2020.000000	98.397339 
2019.000000	98.393284 
2018.000000	98.387279 
2017.000000	98.380943 
2016.000000	98.375920 
2015.000000	98.372819 
2014.000000	98.371364 
2013.000000	98.370741 
2012.000000	98.370333 
2011.000000	98.369944 
2010.000000	98.369239 
2009.000000	98.367424 
2008.000000	98.363782 
2007.000000	98.358505 
2006.000000	98.352986 
2005.000000	98.349120 
2004.000000	98.348249 
2003.000000	98.350483 
2002.000000	98.354397 
2001.000000	98.357569 
2000.000000	98.358522 
1999.000000	98.357996 
1998.000000	98.358263 
1997.000000	98.360824 
1996.000000	98.365124 
1995.000000	98.369327 
1994.000000	98.372038 
1993.000000	98.373154 
1992.000000	98.373410 
1991.000000	98.373698 
1990.000000	98.374601 
1989.000000	98.376292 
1988.000000	98.378509 
1987.000000	98.380598 
1986.000000	98.381955 
1985.000000	98.382647 
1984.000000	98.383571 
1983.000000	98.385682 
1982.000000	98.389018 
1981.000000	98.392561 
1980.000000	98.395341 
1979.000000	98.397651 
1978.000000	98.400563 
1977.000000	98.404222 
1976.000000	98.407361 
1975.000000	98.409014 
1974.000000	98.409547 
1973.000000	98.410130 
1972.000000	98.411662 
1971.000000	98.414227 
1970.000000	98.417469 
1969.000000	98.420844 
1968.000000	98.423863 
1967.000000	98.426486 
1966.000000	98.429121 
1965.000000	98.432122 
1964.000000	98.435385 
1963.000000	98.438594 
1962.000000	98.441590 
1961.000000	98.444374 
1960.000000	98.447045 
1959.000000	98.449846 
1958.000000	98.453079 
1957.000000	98.456519 
1956.000000	98.459156 
1955.000000	98.459957 
1954.000000	98.459222 
1953.000000	98.459233 
1952.000000	98.462164 
1951.000000	98.468402 
1950.000000	98.476439 
1949.000000	98.484586 
1948.000000	98.491827 
1947.000000	98.497175 
1946.000000	98.499778 
1945.000000	98.499901 
1944.000000	98.499042 
1943.000000	98.498510 
1942.000000	98.498266 
1941.000000	98.498181 
1940.000000	98.499662 
1939.000000	98.504293 
1938.000000	98.511587 
1937.000000	98.518887 
1936.000000	98.523744 
1935.000000	98.526222 
1934.000000	98.528635 
1933.000000	98.533718 
1932.000000	98.542544 
1931.000000	98.553754 
1930.000000	98.564462 
1929.000000	98.571880 
1928.000000	98.575521 
1927.000000	98.576957 
1926.000000	98.578343 
1925.000000	98.581176 
1924.000000	98.585891 
1923.000000	98.592450 
1922.000000	98.599982 
1921.000000	98.607068 
1920.000000	98.612432 
1919.000000	98.615368 
1918.000000	98.615855 
1917.000000	98.614921 
1916.000000	98.614721 
1915.000000	98.616828 
1914.000000	98.620753 
1913.000000	98.624863 
1912.000000	98.628124 
1911.000000	98.630878 
1910.000000	98.633703 
1909.000000	98.636431 
1908.000000	98.638851 
1907.000000	98.641067 
1906.000000	98.643104 
1905.000000	98.644675 
1904.000000	98.645675 
1903.000000	98.646694 
1902.000000	98.648408 
1901.000000	98.650854 
1900.000000	98.653565 
1899.000000	98.656053 
1898.000000	98.658093 
1897.000000	98.659643 
1896.000000	98.660701 
1895.000000	98.661336 
1894.000000	98.661698 
1893.000000	98.661970 
1892.000000	98.662287 
1891.000000	98.662672 
1890.000000	98.663083 
1889.000000	98.663457 
1888.000000	98.663783 
1887.000000	98.664085 
1886.000000	98.664346 
1885.000000	98.664515 
1884.000000	98.664565 
1883.000000	98.664512 
1882.000000	98.664402 
1881.000000	98.664299 
1880.000000	98.664229 
1879.000000	98.664167 
1878.000000	98.664060 
1877.000000	98.663884 
1876.000000	98.663675 
1875.000000	98.663503 
1874.000000	98.663416 
1873.000000	98.663430 
1872.000000	98.663535 
1871.000000	98.663715 
1870.000000	98.663954 
1869.000000	98.664197 
1868.000000	98.664359 
1867.000000	98.664419 
1866.000000	98.664485 
1865.000000	98.664648 
1864.000000	98.664866 
1863.000000	98.665053 
1862.000000	98.665220 
1861.000000	98.665443 
1860.000000	98.665703 
1859.000000	98.665879 
1858.000000	98.665869 
1857.000000	98.665676 
1856.000000	98.665435 
1855.000000	98.665402 
1854.000000	98.665851 
1853.000000	98.666797 
1852.000000	98.668125 
1851.000000	98.669699 
1850.000000	98.671259 
1849.000000	98.672813 
1848.000000	98.674691 
1847.000000	98.677100 
1846.000000	98.679695 
1845.000000	98.681886 
1844.000000	98.683530 
1843.000000	98.685177 
1842.000000	98.687252 
1841.000000	98.689415 
1840.000000	98.691293 
1839.000000	98.692930 
1838.000000	98.694517 
1837.000000	98.696149 
1836.000000	98.697880 
1835.000000	98.699821 
1834.000000	98.701914 
1833.000000	98.703960 
1832.000000	98.705870 
1831.000000	98.707687 
1830.000000	98.709417 
1829.000000	98.711077 
1828.000000	98.712720 
1827.000000	98.714389 
1826.000000	98.716098 
1825.000000	98.717831 
1824.000000	98.719552 
1823.000000	98.721244 
1822.000000	98.722919 
1821.000000	98.724604 
1820.000000	98.726311 
1819.000000	98.728029 
1818.000000	98.729730 
1817.000000	98.731386 
1816.000000	98.732976 
1815.000000	98.734492 
1814.000000	98.735934 
1813.000000	98.737285 
1812.000000	98.738513 
1811.000000	98.739595 
1810.000000	98.740545 
1809.000000	98.741404 
1808.000000	98.742208 
1807.000000	98.742962 
1806.000000	98.743642 
1805.000000	98.744215 
1804.000000	98.744667 
1803.000000	98.745017 
1802.000000	98.745300 
1801.000000	98.745529 
1800.000000	98.745692 
1799.000000	98.745781 
1798.000000	98.745810 
1797.000000	98.745808 
1796.000000	98.745783 
1795.000000	98.745729 
1794.000000	98.745632 
1793.000000	98.745497 
1792.000000	98.745349 
1791.000000	98.745231 
1790.000000	98.745188 
1789.000000	98.745240 
1788.000000	98.745372 
1787.000000	98.745556 
1786.000000	98.745758 
1785.000000	98.745954 
1784.000000	98.746128 
1783.000000	98.746278 
1782.000000	98.746391 
1781.000000	98.746463 
1780.000000	98.746527 
1779.000000	98.746566 
1778.000000	98.746588 
1777.000000	98.746636 
1776.000000	98.746791 
1775.000000	98.746981 
1774.000000	98.746927 
1773.000000	98.746535 
1772.000000	98.746106 
1771.000000	98.745964 
1770.000000	98.746268 
1769.000000	98.746934 
1768.000000	98.747722 
1767.000000	98.748376 
1766.000000	98.748705 
1765.000000	98.748668 
1764.000000	98.748148 
1763.000000	98.747103 
1762.000000	98.745869 
1761.000000	98.745256 
1760.000000	98.745733 
1759.000000	98.746923 
1758.000000	98.748472 
1757.000000	98.750345 
1756.000000	98.752458 
1755.000000	98.753936 
1754.000000	98.754145 
1753.000000	98.753785 
1752.000000	98.754693 
1751.000000	98.757720 
1750.000000	98.761817 
1749.000000	98.765155 
1748.000000	98.766977 
1747.000000	98.767466 
1746.000000	98.766716 
1745.000000	98.765525 
1744.000000	98.765163 
1743.000000	98.765824 
1742.000000	98.766417 
1741.000000	98.765873 
1740.000000	98.764522 
1739.000000	98.764007 
1738.000000	98.765352 
1737.000000	98.767614 
1736.000000	98.769426 
1735.000000	98.771125 
1734.000000	98.773045 
1733.000000	98.774080 
1732.000000	98.774636 
1731.000000	98.775170 
1730.000000	98.775687 
1729.000000	98.775931 
1728.000000	98.775715 
1727.000000	98.775401 
1726.000000	98.775321 
1725.000000	98.775748 
1724.000000	98.776218 
1723.000000	98.776098 
1722.000000	98.775728 
1721.000000	98.775347 
1720.000000	98.774708 
1719.000000	98.773824 
1718.000000	98.773450 
1717.000000	98.773599 
1716.000000	98.773481 
1715.000000	98.773291 
1714.000000	98.773743 
1713.000000	98.774568 
1712.000000	98.774639 
1711.000000	98.773770 
1710.000000	98.772680 
1709.000000	98.771488 
1708.000000	98.769746 
1707.000000	98.767461 
1706.000000	98.765342 
1705.000000	98.763789 
1704.000000	98.762555 
1703.000000	98.761325 
1702.000000	98.759919 
1701.000000	98.758515 
1700.000000	98.756873 
1699.000000	98.755129 
1698.000000	98.753774 
1697.000000	98.752327 
1696.000000	98.750557 
1695.000000	98.748601 
1694.000000	98.746667 
1693.000000	98.744669 
1692.000000	98.742562 
1691.000000	98.740424 
1690.000000	98.738271 
1689.000000	98.736094 
1688.000000	98.733895 
1687.000000	98.731658 
1686.000000	98.729366 
1685.000000	98.727010 
1684.000000	98.724590 
1683.000000	98.722112 
1682.000000	98.719587 
1681.000000	98.717017 
1680.000000	98.714405 
1679.000000	98.711766 
1678.000000	98.709116 
1677.000000	98.706420 
1676.000000	98.703601 
1675.000000	98.700623 
1674.000000	98.697519 
1673.000000	98.694411 
1672.000000	98.691366 
1671.000000	98.688408 
1670.000000	98.685517 
1669.000000	98.682472 
1668.000000	98.679356 
1667.000000	98.676470 
1666.000000	98.673743 
1665.000000	98.670875 
1664.000000	98.667750 
1663.000000	98.664677 
1662.000000	98.661856 
1661.000000	98.659188 
1660.000000	98.656841 
1659.000000	98.654752 
1658.000000	98.652520 
1657.000000	98.649951 
1656.000000	98.647365 
1655.000000	98.645116 
1654.000000	98.644277 
1653.000000	98.643131 
1652.000000	98.639022 
1651.000000	98.635818 
1650.000000	98.633313 
1649.000000	98.629394 
1648.000000	98.625446 
1647.000000	98.622819 
1646.000000	98.620294 
1645.000000	98.616915 
1644.000000	98.613427 
1643.000000	98.610730 
1642.000000	98.609231 
1641.000000	98.608394 
1640.000000	98.607669 
1639.000000	98.606660 
1638.000000	98.605527 
1637.000000	98.604736 
1636.000000	98.604469 
1635.000000	98.603621 
1634.000000	98.603077 
1633.000000	98.604098 
1632.000000	98.605036 
1631.000000	98.605452 
1630.000000	98.605728 
1629.000000	98.605995 
1628.000000	98.606148 
1627.000000	98.606153 
1626.000000	98.605510 
1625.000000	98.603832 
1624.000000	98.602008 
1623.000000	98.601559 
1622.000000	98.602696 
1621.000000	98.604337 
1620.000000	98.605612 
1619.000000	98.606309 
1618.000000	98.606812 
1617.000000	98.607340 
1616.000000	98.608115 
1615.000000	98.609699 
1614.000000	98.611675 
1613.000000	98.612922 
1612.000000	98.613253 
1611.000000	98.613518 
1610.000000	98.614544 
1609.000000	98.616501 
1608.000000	98.619083 
1607.000000	98.621906 
1606.000000	98.624366 
1605.000000	98.626324 
1604.000000	98.628404 
1603.000000	98.630990 
1602.000000	98.633854 
1601.000000	98.636559 
1600.000000	98.639042 
1599.000000	98.641426 
1598.000000	98.643758 
1597.000000	98.646100 
1596.000000	98.648635 
1595.000000	98.651515 
1594.000000	98.654621 
1593.000000	98.657721 
1592.000000	98.660846 
1591.000000	98.664090 
1590.000000	98.667134 
1589.000000	98.669546 
1588.000000	98.671542 
1587.000000	98.673847 
1586.000000	98.676683 
1585.000000	98.679390 
1584.000000	98.681973 
1583.000000	98.684870 
1582.000000	98.687433 
1581.000000	98.689269 
1580.000000	98.691471 
1579.000000	98.694893 
1578.000000	98.698885 
1577.000000	98.702856 
1576.000000	98.706107 
1575.000000	98.708578 
1574.000000	98.711074 
1573.000000	98.713520 
1572.000000	98.715979 
1571.000000	98.719084 
1570.000000	98.722049 
1569.000000	98.723122 
1568.000000	98.723982 
1567.000000	98.726331 
1566.000000	98.728680 
1565.000000	98.729830 
1564.000000	98.730961 
1563.000000	98.732949 
1562.000000	98.734177 
1561.000000	98.732685 
1560.000000	98.732032 
1559.000000	98.735493 
1558.000000	98.736486 
1557.000000	98.735676 
1556.000000	98.735304 
1555.000000	98.734059 
1554.000000	98.731738 
1553.000000	98.729138 
1552.000000	98.727424 
1551.000000	98.726633 
1550.000000	98.726556 
1549.000000	98.726262 
1548.000000	98.724927 
1547.000000	98.722669 
1546.000000	98.719887 
1545.000000	98.717437 
1544.000000	98.715872 
1543.000000	98.714770 
1542.000000	98.713397 
1541.000000	98.711359 
1540.000000	98.708087 
1539.000000	98.703944 
1538.000000	98.700662 
1537.000000	98.698179 
1536.000000	98.694939 
1535.000000	98.691022 
1534.000000	98.687545 
1533.000000	98.684925 
1532.000000	98.682295 
1531.000000	98.678800 
1530.000000	98.674548 
1529.000000	98.670060 
1528.000000	98.665758 
1527.000000	98.661757 
1526.000000	98.657647 
1525.000000	98.652931 
1524.000000	98.647464 
1523.000000	98.641551 
1522.000000	98.636442 
1521.000000	98.632380 
1520.000000	98.627790 
1519.000000	98.621316 
1518.000000	98.612774 
1517.000000	98.604275 
1516.000000	98.597975 
1515.000000	98.593926 
1514.000000	98.590939 
1513.000000	98.588082 
1512.000000	98.584482 
1511.000000	98.578994 
1510.000000	98.571916 
1509.000000	98.565162 
1508.000000	98.562775 
1507.000000	98.565684 
1506.000000	98.565018 
1505.000000	98.557722 
1504.000000	98.549450 
1503.000000	98.539480 
1502.000000	98.526615 
1501.000000	98.512745 
1500.000000	98.500859 
1499.000000	98.492110 
1498.000000	98.485188 
1497.000000	98.478656 
1496.000000	98.472183 
1495.000000	98.469309 
1494.000000	98.472790 
1493.000000	98.479146 
1492.000000	98.482362 
1491.000000	98.480042 
1490.000000	98.475573 
1489.000000	98.472325 
1488.000000	98.468031 
1487.000000	98.460855 
1486.000000	98.452848 
1485.000000	98.443235 
1484.000000	98.431180 
1483.000000	98.417974 
1482.000000	98.406569 
1481.000000	98.399246 
1480.000000	98.393536 
1479.000000	98.386050 
1478.000000	98.376585 
1477.000000	98.368291 
1476.000000	98.362093 
1475.000000	98.357050 
1474.000000	98.352959 
1473.000000	98.352101 
1472.000000	98.353933 
1471.000000	98.353429 
1470.000000	98.349238 
1469.000000	98.342567 
1468.000000	98.335420 
1467.000000	98.330341 
1466.000000	98.328353 
1465.000000	98.327826 
1464.000000	98.326688 
1463.000000	98.322688 
1462.000000	98.315471 
1461.000000	98.306362 
1460.000000	98.298694 
1459.000000	98.295679 
1458.000000	98.298557 
1457.000000	98.303048 
1456.000000	98.301682 
1455.000000	98.295599 
1454.000000	98.285732 
1453.000000	98.273471 
1452.000000	98.263781 
1451.000000	98.258542 
1450.000000	98.256983 
1449.000000	98.258670 
1448.000000	98.263005 
1447.000000	98.268730 
1446.000000	98.273192 
1445.000000	98.276282 
1444.000000	98.279964 
1443.000000	98.281320 
1442.000000	98.278173 
1441.000000	98.272495 
1440.000000	98.267735 
1439.000000	98.263197 
1438.000000	98.260707 
1437.000000	98.267427 
1436.000000	98.281504 
1435.000000	98.290609 
1434.000000	98.289385 
1433.000000	98.282712 
1432.000000	98.276964 
1431.000000	98.273227 
1430.000000	98.268518 
1429.000000	98.263419 
1428.000000	98.259916 
1427.000000	98.258832 
1426.000000	98.257189 
1425.000000	98.254888 
1424.000000	98.255442 
1423.000000	98.254976 
1422.000000	98.248254 
1421.000000	98.237318 
1420.000000	98.231414 
1419.000000	98.232242 
1418.000000	98.230430 
1417.000000	98.223483 
1416.000000	98.215452 
1415.000000	98.206692 
1414.000000	98.194036 
1413.000000	98.178223 
1412.000000	98.165150 
1411.000000	98.157886 
1410.000000	98.154407 
1409.000000	98.152434 
1408.000000	98.151181 
1407.000000	98.152765 
1406.000000	98.159246 
1405.000000	98.171202 
1404.000000	98.187004 
1403.000000	98.200003 
1402.000000	98.206183 
1401.000000	98.210000 
1400.000000	98.221283 
1399.000000	98.241844 
1398.000000	98.259435 
1397.000000	98.261608 
1396.000000	98.249016 
1395.000000	98.235133 
1394.000000	98.232965 
1393.000000	98.245709 
1392.000000	98.267801 
1391.000000	98.289585 
1390.000000	98.304200 
1389.000000	98.310379 
1388.000000	98.310703 
1387.000000	98.308339 
1386.000000	98.305398 
1385.000000	98.304298 
1384.000000	98.307913 
1383.000000	98.316143 
1382.000000	98.326827 
1381.000000	98.339305 
1380.000000	98.356268 
1379.000000	98.379972 
1378.000000	98.406219 
1377.000000	98.426548 
1376.000000	98.436804 
1375.000000	98.441619 
1374.000000	98.449011 
1373.000000	98.462678 
1372.000000	98.480577 
1371.000000	98.499826 
1370.000000	98.519232 
1369.000000	98.538378 
1368.000000	98.555600 
1367.000000	98.567041 
1366.000000	98.571705 
1365.000000	98.574580 
1364.000000	98.583061 
1363.000000	98.598706 
1362.000000	98.614728 
1361.000000	98.625310 
1360.000000	98.632797 
1359.000000	98.641649 
1358.000000	98.650949 
1357.000000	98.656600 
1356.000000	98.657887 
1355.000000	98.658550 
1354.000000	98.663099 
1353.000000	98.673587 
1352.000000	98.687945 
1351.000000	98.701722 
1350.000000	98.710075 
1349.000000	98.712152 
1348.000000	98.713753 
1347.000000	98.721138 
1346.000000	98.734654 
1345.000000	98.748453 
1344.000000	98.756755 
1343.000000	98.758120 
1342.000000	98.755484 
1341.000000	98.753608 
1340.000000	98.755405 
1339.000000	98.758830 
1338.000000	98.759874 
1337.000000	98.758926 
1336.000000	98.760037 
1335.000000	98.764293 
1334.000000	98.768224 
1333.000000	98.769441 
1332.000000	98.770302 
1331.000000	98.773937 
1330.000000	98.779330 
1329.000000	98.783090 
1328.000000	98.783746 
1327.000000	98.781868 
1326.000000	98.777606 
1325.000000	98.771539 
1324.000000	98.766648 
1323.000000	98.765673 
1322.000000	98.768020 
1321.000000	98.771002 
1320.000000	98.773207 
1319.000000	98.774789 
1318.000000	98.775963 
1317.000000	98.776981 
1316.000000	98.778335 
1315.000000	98.779533 
1314.000000	98.779107 
1313.000000	98.777038 
1312.000000	98.775221 
1311.000000	98.774385 
1310.000000	98.772925 
1309.000000	98.770560 
1308.000000	98.770324 
1307.000000	98.774436 
1306.000000	98.779722 
1305.000000	98.780877 
1304.000000	98.777414 
1303.000000	98.773731 
1302.000000	98.773048 
1301.000000	98.774273 
1300.000000	98.775493 
1299.000000	98.777156 
1298.000000	98.780200 
1297.000000	98.782879 
1296.000000	98.781945 
1295.000000	98.776602 
1294.000000	98.770479 
1293.000000	98.768914 
1292.000000	98.773455 
1291.000000	98.779976 
1290.000000	98.782687 
1289.000000	98.779844 
1288.000000	98.774030 
1287.000000	98.768577 
1286.000000	98.764429 
1285.000000	98.760905 
1284.000000	98.757818 
1283.000000	98.755433 
1282.000000	98.753373 
1281.000000	98.750829 
1280.000000	98.747698 
1279.000000	98.744694 
1278.000000	98.742458 
1277.000000	98.741041 
1276.000000	98.739910 
1275.000000	98.738106 
1274.000000	98.734876 
1273.000000	98.730787 
1272.000000	98.727693 
1271.000000	98.726692 
1270.000000	98.726417 
1269.000000	98.724289 
1268.000000	98.719223 
1267.000000	98.712140 
1266.000000	98.704281 
1265.000000	98.696315 
1264.000000	98.689045 
1263.000000	98.683429 
1262.000000	98.679194 
1261.000000	98.674461 
1260.000000	98.667472 
1259.000000	98.657843 
1258.000000	98.645767 
1257.000000	98.631799 
1256.000000	98.618866 
1255.000000	98.612704 
1254.000000	98.616688 
1253.000000	98.625286 
1252.000000	98.625768 
1251.000000	98.610285 
1250.000000	98.586076 
1249.000000	98.570908 
1248.000000	98.576219 
1247.000000	98.596810 
1246.000000	98.616525 
1245.000000	98.623488 
1244.000000	98.617403 
1243.000000	98.605071 
1242.000000	98.593838 
1241.000000	98.588542 
1240.000000	98.589750 
1239.000000	98.592676 
1238.000000	98.590950 
1237.000000	98.583331 
1236.000000	98.574147 
1235.000000	98.566032 
1234.000000	98.555901 
1233.000000	98.540688 
1232.000000	98.523645 
1231.000000	98.511066 
1230.000000	98.504231 
1229.000000	98.497796 
1228.000000	98.485554 
1227.000000	98.465888 
1226.000000	98.442808 
1225.000000	98.423389 
1224.000000	98.412714 
1223.000000	98.409291 
1222.000000	98.406245 
1221.000000	98.398033 
1220.000000	98.384470 
1219.000000	98.367934 
1218.000000	98.349774 
1217.000000	98.330571 
1216.000000	98.310097 
1215.000000	98.285128 
1214.000000	98.251859 
1213.000000	98.213809 
1212.000000	98.182324 
1211.000000	98.163204 
1210.000000	98.145906 
1209.000000	98.113370 
1208.000000	98.061893 
1207.000000	98.005610 
1206.000000	97.961169 
1205.000000	97.932537 
1204.000000	97.911364 
1203.000000	97.886614 
1202.000000	97.851671 
1201.000000	97.806491 
1200.000000	97.756623 
1199.000000	97.709680 
1198.000000	97.670808 
1197.000000	97.640523 
1196.000000	97.615073 
1195.000000	97.587502 
1194.000000	97.550855 
1193.000000	97.503926 
1192.000000	97.453354 
1191.000000	97.407210 
1190.000000	97.366460 
1189.000000	97.325067 
1188.000000	97.277937 
1187.000000	97.226090 
1186.000000	97.174187 
1185.000000	97.125273 
1184.000000	97.078164 
1183.000000	97.028381 
1182.000000	96.971872 
1181.000000	96.909182 
1180.000000	96.845581 
1179.000000	96.786110 
1178.000000	96.731291 
1177.000000	96.677999 
1176.000000	96.622175 
1175.000000	96.559742 
1174.000000	96.488237 
1173.000000	96.410188 
1172.000000	96.332545 
1171.000000	96.260467 
1170.000000	96.193781 
1169.000000	96.131105 
1168.000000	96.073512 
1167.000000	96.020990 
1166.000000	95.971275 
1165.000000	95.926553 
1164.000000	95.896051 
1163.000000	95.887518 
1162.000000	95.898998 
1161.000000	95.922499 
1160.000000	95.951000 
1159.000000	95.976191 
1158.000000	95.984913 
1157.000000	95.966793 
1156.000000	95.923894 
1155.000000	95.867492 
1154.000000	95.807083 
1153.000000	95.746979 
1152.000000	95.690264 
1151.000000	95.638268 
1150.000000	95.587027 
1149.000000	95.531261 
1148.000000	95.471797 
1147.000000	95.413631 
1146.000000	95.357545 
1145.000000	95.299546 
1144.000000	95.238346 
1143.000000	95.177762 
1142.000000	95.121361 
1141.000000	95.068965 
1140.000000	95.018233 
1139.000000	94.966299 
1138.000000	94.911268 
1137.000000	94.855247 
1136.000000	94.803326 
1135.000000	94.756030 
1134.000000	94.706227 
1133.000000	94.647478 
1132.000000	94.581485 
1131.000000	94.514133 
1130.000000	94.450545 
1129.000000	94.398202 
1128.000000	94.364793 
1127.000000	94.342518 
1126.000000	94.303298 
1125.000000	94.224936 
1124.000000	94.117140 
1123.000000	94.012781 
1122.000000	93.931098 
1121.000000	93.862144 
1120.000000	93.789715 
1119.000000	93.713357 
1118.000000	93.641285 
1117.000000	93.574417 
1116.000000	93.508295 
1115.000000	93.443301 
1114.000000	93.382798 
1113.000000	93.325425 
1112.000000	93.267334 
1111.000000	93.208969 
1110.000000	93.153053 
1109.000000	93.098894 
1108.000000	93.043963 
1107.000000	92.988092 
1106.000000	92.931497 
1105.000000	92.872453 
1104.000000	92.811426 
1103.000000	92.752637 
1102.000000	92.697150 
1101.000000	92.639831 
1100.000000	92.578175 
1099.000000	92.518427 
1098.000000	92.467981 
1097.000000	92.426749 
1096.000000	92.389693 
1095.000000	92.351757 
1094.000000	92.305999 
1093.000000	92.244523 
1092.000000	92.168247 
1091.000000	92.090879 
1090.000000	92.026411 
1089.000000	91.975590 
1088.000000	91.928884 
1087.000000	91.878046 
1086.000000	91.820613 
1085.000000	91.758306 
1084.000000	91.696076 
1083.000000	91.639011 
1082.000000	91.586595 
1081.000000	91.533690 
1080.000000	91.478621 
1079.000000	91.425016 
1078.000000	91.374500 
1077.000000	91.324662 
1076.000000	91.276544 
1075.000000	91.235713 
1074.000000	91.202309 
1073.000000	91.167554 
1072.000000	91.122464 
1071.000000	91.061125 
1070.000000	90.973831 
1069.000000	90.850480 
1068.000000	90.698784 
1067.000000	90.549719 
1066.000000	90.433475 
1065.000000	90.353388 
1064.000000	90.289777 
1063.000000	90.221228 
1062.000000	90.134247 
1061.000000	90.020745 
1060.000000	89.879989 
1059.000000	89.724119 
1058.000000	89.573561 
1057.000000	89.443601 
1056.000000	89.336345 
1055.000000	89.242592 
1054.000000	89.149046 
1053.000000	89.048144 
1052.000000	88.944529 
1051.000000	88.848725 
1050.000000	88.762717 
1049.000000	88.676589 
1048.000000	88.580272 
1047.000000	88.472439 
1046.000000	88.358093 
1045.000000	88.244768 
1044.000000	88.140680 
1043.000000	88.048344 
1042.000000	87.959114 
1041.000000	87.861399 
1040.000000	87.755250 
1039.000000	87.652531 
1038.000000	87.564101 
1037.000000	87.494574 
1036.000000	87.447003 
1035.000000	87.421527 
1034.000000	87.409275 
1033.000000	87.397446 
1032.000000	87.380110 
1031.000000	87.355722 
1030.000000	87.319334 
1029.000000	87.271445 
1028.000000	87.231272 
1027.000000	87.223456 
1026.000000	87.249367 
1025.000000	87.285510 
1024.000000	87.311820 
1023.000000	87.326786 
1022.000000	87.333547 
1021.000000	87.330195 
1020.000000	87.319927 
1019.000000	87.314282 
1018.000000	87.317801 
1017.000000	87.322329 
1016.000000	87.323455 
1015.000000	87.329666 
1014.000000	87.347746 
1013.000000	87.371849 
1012.000000	87.395323 
1011.000000	87.421146 
1010.000000	87.451182 
1009.000000	87.476829 
1008.000000	87.492187 
1007.000000	87.507985 
1006.000000	87.539940 
1005.000000	87.588195 
1004.000000	87.638940 
1003.000000	87.683320 
1002.000000	87.725262 
1001.000000	87.771301 
1000.000000	87.821002 
999.000000	 87.869509 
998.000000	 87.914829 
997.000000	 87.959605 
996.000000	 88.006796 
995.000000	 88.056415 
994.000000	 88.108815 
993.000000	 88.170108 
992.000000	 88.249149 
991.000000	 88.346479 
990.000000	 88.450975 
989.000000	 88.551454 
988.000000	 88.646734 
987.000000	 88.739554 
986.000000	 88.827873 
985.000000	 88.910829 
984.000000	 88.997513 
983.000000	 89.098896 
982.000000	 89.214021 
981.000000	 89.333600 
980.000000	 89.454388 
979.000000	 89.579744 
978.000000	 89.707798 
977.000000	 89.830994 
976.000000	 89.948852 
975.000000	 90.071378 
974.000000	 90.206994 
973.000000	 90.353541 
972.000000	 90.502203 
971.000000	 90.644383 
970.000000	 90.774707 
969.000000	 90.893350 
968.000000	 91.006318 
967.000000	 91.119767 
966.000000	 91.235239 
965.000000	 91.353528 
964.000000	 91.478606 
963.000000	 91.611271 
962.000000	 91.742921 
961.000000	 91.863499 
960.000000	 91.973136 
959.000000	 92.079096 
958.000000	 92.184194 
957.000000	 92.285734 
956.000000	 92.383160 
955.000000	 92.478424 
954.000000	 92.570610 
953.000000	 92.658065 
952.000000	 92.744097 
951.000000	 92.832764 
950.000000	 92.920755 
949.000000	 93.001559 
948.000000	 93.075894 
947.000000	 93.149327 
946.000000	 93.220506 
945.000000	 93.280978 
944.000000	 93.327562 
943.000000	 93.367656 
942.000000	 93.411276 
941.000000	 93.463445 
940.000000	 93.524513 
939.000000	 93.591556 
938.000000	 93.658553 
937.000000	 93.720451 
936.000000	 93.777514 
935.000000	 93.832146 
934.000000	 93.883750 
933.000000	 93.931979 
932.000000	 93.982215 
931.000000	 94.040534 
930.000000	 94.103884 
929.000000	 94.161733 
928.000000	 94.207841 
927.000000	 94.245913 
926.000000	 94.284521 
925.000000	 94.330348 
924.000000	 94.384508 
923.000000	 94.441077 
922.000000	 94.490905 
921.000000	 94.530653 
920.000000	 94.565814 
919.000000	 94.602184 
918.000000	 94.638905 
917.000000	 94.673609 
916.000000	 94.708753 
915.000000	 94.747273 
914.000000	 94.787192 
913.000000	 94.826782 
912.000000	 94.870188 
911.000000	 94.921103 
910.000000	 94.975802 
909.000000	 95.029779 
908.000000	 95.086119 
907.000000	 95.149769 
906.000000	 95.218810 
905.000000	 95.289467 
904.000000	 95.364692 
903.000000	 95.448795 
902.000000	 95.537709 
901.000000	 95.623581 
900.000000	 95.706144 
899.000000	 95.791042 
898.000000	 95.879299 
897.000000	 95.965936 
896.000000	 96.046279 
895.000000	 96.117039 
894.000000	 96.175264 
893.000000	 96.223738 
892.000000	 96.273956 
891.000000	 96.336083 
890.000000	 96.408176 
889.000000	 96.480726 
888.000000	 96.546674 
887.000000	 96.600866 
886.000000	 96.637712 
885.000000	 96.659677 
884.000000	 96.682112 
883.000000	 96.717537 
882.000000	 96.759381 
881.000000	 96.793852 
880.000000	 96.823352 
879.000000	 96.863176 
878.000000	 96.917066 
877.000000	 96.972266 
876.000000	 97.019762 
875.000000	 97.064594 
874.000000	 97.114510 
873.000000	 97.173028 
872.000000	 97.244998 
871.000000	 97.333288 
870.000000	 97.426091 
869.000000	 97.502071 
868.000000	 97.553849 
867.000000	 97.595152 
866.000000	 97.640546 
865.000000	 97.688881 
864.000000	 97.733432 
863.000000	 97.778363 
862.000000	 97.834811 
861.000000	 97.904310 
860.000000	 97.974069 
859.000000	 98.029449 
858.000000	 98.068538 
857.000000	 98.103983 
856.000000	 98.149755 
855.000000	 98.205704 
854.000000	 98.258423 
853.000000	 98.298801 
852.000000	 98.332471 
851.000000	 98.368529 
850.000000	 98.405631 
849.000000	 98.437885 
848.000000	 98.467990 
847.000000	 98.503344 
846.000000	 98.542893 
845.000000	 98.579077 
844.000000	 98.610514 
843.000000	 98.641885 
842.000000	 98.672688 
841.000000	 98.696144 
840.000000	 98.707846 
839.000000	 98.706091 
838.000000	 98.686591 
837.000000	 98.648535 
836.000000	 98.605485 
835.000000	 98.579045 
834.000000	 98.578909 
833.000000	 98.596138 
832.000000	 98.615358 
831.000000	 98.625510 
830.000000	 98.621302 
829.000000	 98.605864 
828.000000	 98.593490 
827.000000	 98.600584 
826.000000	 98.631830 
825.000000	 98.680469 
824.000000	 98.736716 
823.000000	 98.786365 
822.000000	 98.811158 
821.000000	 98.806717 
820.000000	 98.793302 
819.000000	 98.793898 
818.000000	 98.806080 
817.000000	 98.807832 
816.000000	 98.785555 
815.000000	 98.742676 
814.000000	 98.685107 
813.000000	 98.613135 
812.000000	 98.526057 
811.000000	 98.419803 
810.000000	 98.280070 
809.000000	 98.093069 
808.000000	 97.865285 
807.000000	 97.619801 
806.000000	 97.371096 
805.000000	 97.116487 
804.000000	 96.853866 
803.000000	 96.592618 
802.000000	 96.344226 
801.000000	 96.117943 
800.000000	 95.930205 
799.000000	 95.802352 
798.000000	 95.742054 
797.000000	 95.738150 
796.000000	 95.775914 
795.000000	 95.844035 
794.000000	 95.925369 
793.000000	 95.997906 
792.000000	 96.051018 
791.000000	 96.089428 
790.000000	 96.118945 
789.000000	 96.138669 
788.000000	 96.145658 
787.000000	 96.134150 
786.000000	 96.091874 
785.000000	 96.011554 
784.000000	 95.905379 
783.000000	 95.794811 
782.000000	 95.689531 
781.000000	 95.592096 
780.000000	 95.516781 
779.000000	 95.480439 
778.000000	 95.476910 
777.000000	 95.486210 
776.000000	 95.511039 
775.000000	 95.576746 
774.000000	 95.688758 
773.000000	 95.816059 
772.000000	 95.926850 
771.000000	 96.018654 
770.000000	 96.102759 
769.000000	 96.181621 
768.000000	 96.254795 
767.000000	 96.327070 
766.000000	 96.395327 
765.000000	 96.443282 
764.000000	 96.464260 
763.000000	 96.477124 
762.000000	 96.507091 
761.000000	 96.560462 
760.000000	 96.626355 
759.000000	 96.690398 
758.000000	 96.738790 
757.000000	 96.764706 
756.000000	 96.782991 
755.000000	 96.826151 
754.000000	 96.912369 
753.000000	 97.024775 
752.000000	 97.129352 
751.000000	 97.203907 
750.000000	 97.243870 
749.000000	 97.254128 
748.000000	 97.248148 
747.000000	 97.246921 
746.000000	 97.265865 
745.000000	 97.305134 
744.000000	 97.357312 
743.000000	 97.416545 
742.000000	 97.475893 
741.000000	 97.527503 
740.000000	 97.573039 
739.000000	 97.624388 
738.000000	 97.686099 
737.000000	 97.745573 
736.000000	 97.789011 
735.000000	 97.819248 
734.000000	 97.850056 
733.000000	 97.888685 
732.000000	 97.930661 
731.000000	 97.966362 
730.000000	 97.987157 
729.000000	 97.991686 
728.000000	 97.987966 
727.000000	 97.986449 
726.000000	 97.994157 
725.000000	 98.016617 
724.000000	 98.059823 
723.000000	 98.121676 
722.000000	 98.184018 
721.000000	 98.225094 
720.000000	 98.241653 
719.000000	 98.249456 
718.000000	 98.261648 
717.000000	 98.279809 
716.000000	 98.307838 
715.000000	 98.354098 
714.000000	 98.412451 
713.000000	 98.460280 
712.000000	 98.485278 
711.000000	 98.497449 
710.000000	 98.507379 
709.000000	 98.518652 
708.000000	 98.526211 
707.000000	 98.528098 
706.000000	 98.528204 
705.000000	 98.527783 
704.000000	 98.523479 
703.000000	 98.512118 
702.000000	 98.488657 
701.000000	 98.444575 
700.000000	 98.376423 
699.000000	 98.291030 
698.000000	 98.203377 
697.000000	 98.129851 
696.000000	 98.081478 
695.000000	 98.062125 
694.000000	 98.066594 
693.000000	 98.085495 
692.000000	 98.114987 
691.000000	 98.154770 
690.000000	 98.200683 
689.000000	 98.243417 
688.000000	 98.275440 
687.000000	 98.297729 
686.000000	 98.315856 
685.000000	 98.334473 
684.000000	 98.356087 
683.000000	 98.378440 
682.000000	 98.395050 
681.000000	 98.402415 
680.000000	 98.406057 
679.000000	 98.413965 
678.000000	 98.427409 
677.000000	 98.443377 
676.000000	 98.459242 
675.000000	 98.473699 
674.000000	 98.485397 
673.000000	 98.490635 
672.000000	 98.487514 
671.000000	 98.474890 
670.000000	 98.452756 
669.000000	 98.426486 
668.000000	 98.426301 
667.000000	 98.466935 
666.000000	 98.519866 
665.000000	 98.555403 
664.000000	 98.577401 
663.000000	 98.592962 
662.000000	 98.606439 
661.000000	 98.620266 
660.000000	 98.636267 
659.000000	 98.655281 
658.000000	 98.675638 
657.000000	 98.694754 
656.000000	 98.710979 
655.000000	 98.724963 
654.000000	 98.738592 
653.000000	 98.751832 
652.000000	 98.762240 
651.000000	 98.768463 
650.000000	 98.772431 

