4000.000000	97.702156 
3999.000000	97.701506 
3998.000000	97.699952 
3997.000000	97.697911 
3996.000000	97.695981 
3995.000000	97.694614 
3994.000000	97.694097 
3993.000000	97.694383 
3992.000000	97.694973 
3991.000000	97.695317 
3990.000000	97.695288 
3989.000000	97.695088 
3988.000000	97.694817 
3987.000000	97.694397 
3986.000000	97.693888 
3985.000000	97.693578 
3984.000000	97.693546 
3983.000000	97.693463 
3982.000000	97.693069 
3981.000000	97.692552 
3980.000000	97.692187 
3979.000000	97.691836 
3978.000000	97.691256 
3977.000000	97.690714 
3976.000000	97.690739 
3975.000000	97.691235 
3974.000000	97.691358 
3973.000000	97.690486 
3972.000000	97.688779 
3971.000000	97.686824 
3970.000000	97.685159 
3969.000000	97.684116 
3968.000000	97.683825 
3967.000000	97.684094 
3966.000000	97.684451 
3965.000000	97.684426 
3964.000000	97.683779 
3963.000000	97.682596 
3962.000000	97.681240 
3961.000000	97.680226 
3960.000000	97.679737 
3959.000000	97.679411 
3958.000000	97.678947 
3957.000000	97.678449 
3956.000000	97.678114 
3955.000000	97.677744 
3954.000000	97.676927 
3953.000000	97.675530 
3952.000000	97.673819 
3951.000000	97.672288 
3950.000000	97.671255 
3949.000000	97.670640 
3948.000000	97.670119 
3947.000000	97.669575 
3946.000000	97.669123 
3945.000000	97.668704 
3944.000000	97.668072 
3943.000000	97.667381 
3942.000000	97.667340 
3941.000000	97.668555 
3940.000000	97.670505 
3939.000000	97.671495 
3938.000000	97.670588 
3937.000000	97.668465 
3936.000000	97.666294 
3935.000000	97.664166 
3934.000000	97.661735 
3933.000000	97.659906 
3932.000000	97.659978 
3931.000000	97.661553 
3930.000000	97.662698 
3929.000000	97.662404 
3928.000000	97.661811 
3927.000000	97.661851 
3926.000000	97.661718 
3925.000000	97.660678 
3924.000000	97.659633 
3923.000000	97.659337 
3922.000000	97.658627 
3921.000000	97.656506 
3920.000000	97.654304 
3919.000000	97.653875 
3918.000000	97.654982 
3917.000000	97.656027 
3916.000000	97.656425 
3915.000000	97.656674 
3914.000000	97.656779 
3913.000000	97.656177 
3912.000000	97.655009 
3911.000000	97.653630 
3910.000000	97.652363 
3909.000000	97.651265 
3908.000000	97.650388 
3907.000000	97.649706 
3906.000000	97.649102 
3905.000000	97.648510 
3904.000000	97.647982 
3903.000000	97.647538 
3902.000000	97.647176 
3901.000000	97.646871 
3900.000000	97.646592 
3899.000000	97.646315 
3898.000000	97.646030 
3897.000000	97.645737 
3896.000000	97.645436 
3895.000000	97.645111 
3894.000000	97.644742 
3893.000000	97.644331 
3892.000000	97.643890 
3891.000000	97.643430 
3890.000000	97.642972 
3889.000000	97.642540 
3888.000000	97.642137 
3887.000000	97.641746 
3886.000000	97.641368 
3885.000000	97.641022 
3884.000000	97.640725 
3883.000000	97.640471 
3882.000000	97.640234 
3881.000000	97.640010 
3880.000000	97.639817 
3879.000000	97.639672 
3878.000000	97.639563 
3877.000000	97.639452 
3876.000000	97.639315 
3875.000000	97.639163 
3874.000000	97.639035 
3873.000000	97.638965 
3872.000000	97.638952 
3871.000000	97.638976 
3870.000000	97.639034 
3869.000000	97.639160 
3868.000000	97.639378 
3867.000000	97.639657 
3866.000000	97.639947 
3865.000000	97.640239 
3864.000000	97.640548 
3863.000000	97.640860 
3862.000000	97.641129 
3861.000000	97.641338 
3860.000000	97.641511 
3859.000000	97.641676 
3858.000000	97.641845 
3857.000000	97.642029 
3856.000000	97.642259 
3855.000000	97.642569 
3854.000000	97.642954 
3853.000000	97.643395 
3852.000000	97.643930 
3851.000000	97.644612 
3850.000000	97.645424 
3849.000000	97.646304 
3848.000000	97.647200 
3847.000000	97.648086 
3846.000000	97.648955 
3845.000000	97.649812 
3844.000000	97.650662 
3843.000000	97.651501 
3842.000000	97.652331 
3841.000000	97.653168 
3840.000000	97.654027 
3839.000000	97.654905 
3838.000000	97.655782 
3837.000000	97.656645 
3836.000000	97.657510 
3835.000000	97.658399 
3834.000000	97.659321 
3833.000000	97.660268 
3832.000000	97.661221 
3831.000000	97.662168 
3830.000000	97.663105 
3829.000000	97.664034 
3828.000000	97.664951 
3827.000000	97.665845 
3826.000000	97.666709 
3825.000000	97.667554 
3824.000000	97.668402 
3823.000000	97.669253 
3822.000000	97.670090 
3821.000000	97.670911 
3820.000000	97.671760 
3819.000000	97.672680 
3818.000000	97.673642 
3817.000000	97.674583 
3816.000000	97.675484 
3815.000000	97.676374 
3814.000000	97.677279 
3813.000000	97.678173 
3812.000000	97.679015 
3811.000000	97.679808 
3810.000000	97.680576 
3809.000000	97.681298 
3808.000000	97.681932 
3807.000000	97.682474 
3806.000000	97.682975 
3805.000000	97.683499 
3804.000000	97.684057 
3803.000000	97.684618 
3802.000000	97.685158 
3801.000000	97.685692 
3800.000000	97.686247 
3799.000000	97.686816 
3798.000000	97.687349 
3797.000000	97.687821 
3796.000000	97.688241 
3795.000000	97.688623 
3794.000000	97.688961 
3793.000000	97.689233 
3792.000000	97.689422 
3791.000000	97.689520 
3790.000000	97.689529 
3789.000000	97.689460 
3788.000000	97.689328 
3787.000000	97.689144 
3786.000000	97.688900 
3785.000000	97.688591 
3784.000000	97.688234 
3783.000000	97.687843 
3782.000000	97.687398 
3781.000000	97.686873 
3780.000000	97.686260 
3779.000000	97.685570 
3778.000000	97.684800 
3777.000000	97.683930 
3776.000000	97.682956 
3775.000000	97.681907 
3774.000000	97.680813 
3773.000000	97.679673 
3772.000000	97.678462 
3771.000000	97.677167 
3770.000000	97.675802 
3769.000000	97.674388 
3768.000000	97.672928 
3767.000000	97.671414 
3766.000000	97.669850 
3765.000000	97.668263 
3764.000000	97.666673 
3763.000000	97.665065 
3762.000000	97.663402 
3761.000000	97.661677 
3760.000000	97.659911 
3759.000000	97.658121 
3758.000000	97.656298 
3757.000000	97.654432 
3756.000000	97.652541 
3755.000000	97.650661 
3754.000000	97.648819 
3753.000000	97.647033 
3752.000000	97.645313 
3751.000000	97.643647 
3750.000000	97.642011 
3749.000000	97.640406 
3748.000000	97.638862 
3747.000000	97.637384 
3746.000000	97.635931 
3745.000000	97.634459 
3744.000000	97.632954 
3743.000000	97.631444 
3742.000000	97.629935 
3741.000000	97.628373 
3740.000000	97.626732 
3739.000000	97.625045 
3738.000000	97.623359 
3737.000000	97.621686 
3736.000000	97.620022 
3735.000000	97.618363 
3734.000000	97.616693 
3733.000000	97.614977 
3732.000000	97.613191 
3731.000000	97.611289 
3730.000000	97.609339 
3729.000000	97.607537 
3728.000000	97.605691 
3727.000000	97.603507 
3726.000000	97.601369 
3725.000000	97.600061 
3724.000000	97.599347 
3723.000000	97.598127 
3722.000000	97.596142 
3721.000000	97.594080 
3720.000000	97.592421 
3719.000000	97.590454 
3718.000000	97.587383 
3717.000000	97.583982 
3716.000000	97.581748 
3715.000000	97.580406 
3714.000000	97.578552 
3713.000000	97.577035 
3712.000000	97.577292 
3711.000000	97.577097 
3710.000000	97.573521 
3709.000000	97.566324 
3708.000000	97.556839 
3707.000000	97.546828 
3706.000000	97.537932 
3705.000000	97.530663 
3704.000000	97.524248 
3703.000000	97.517720 
3702.000000	97.510255 
3701.000000	97.501813 
3700.000000	97.494299 
3699.000000	97.488827 
3698.000000	97.483532 
3697.000000	97.477247 
3696.000000	97.471362 
3695.000000	97.466769 
3694.000000	97.461850 
3693.000000	97.455113 
3692.000000	97.447479 
3691.000000	97.440534 
3690.000000	97.434160 
3689.000000	97.426994 
3688.000000	97.419235 
3687.000000	97.412473 
3686.000000	97.406609 
3685.000000	97.400212 
3684.000000	97.392930 
3683.000000	97.385381 
3682.000000	97.377842 
3681.000000	97.370137 
3680.000000	97.362284 
3679.000000	97.354511 
3678.000000	97.346837 
3677.000000	97.339167 
3676.000000	97.331471 
3675.000000	97.323747 
3674.000000	97.316032 
3673.000000	97.308343 
3672.000000	97.300638 
3671.000000	97.292887 
3670.000000	97.285099 
3669.000000	97.277307 
3668.000000	97.269544 
3667.000000	97.261827 
3666.000000	97.254170 
3665.000000	97.246542 
3664.000000	97.238989 
3663.000000	97.231533 
3662.000000	97.223882 
3661.000000	97.215664 
3660.000000	97.207149 
3659.000000	97.199303 
3658.000000	97.192245 
3657.000000	97.184188 
3656.000000	97.173058 
3655.000000	97.161235 
3654.000000	97.152218 
3653.000000	97.142422 
3652.000000	97.127092 
3651.000000	97.111793 
3650.000000	97.105418 
3649.000000	97.104884 
3648.000000	97.100156 
3647.000000	97.091584 
3646.000000	97.087866 
3645.000000	97.091491 
3644.000000	97.096910 
3643.000000	97.098672 
3642.000000	97.097509 
3641.000000	97.096414 
3640.000000	97.094433 
3639.000000	97.087345 
3638.000000	97.075105 
3637.000000	97.063894 
3636.000000	97.055514 
3635.000000	97.042909 
3634.000000	97.021353 
3633.000000	96.998217 
3632.000000	96.982560 
3631.000000	96.973694 
3630.000000	96.968400 
3629.000000	96.960214 
3628.000000	96.947921 
3627.000000	96.947269 
3626.000000	96.956481 
3625.000000	96.954973 
3624.000000	96.940865 
3623.000000	96.926665 
3622.000000	96.917161 
3621.000000	96.908336 
3620.000000	96.899566 
3619.000000	96.894542 
3618.000000	96.897089 
3617.000000	96.910258 
3616.000000	96.930336 
3615.000000	96.949017 
3614.000000	96.963002 
3613.000000	96.974922 
3612.000000	96.987571 
3611.000000	96.999187 
3610.000000	97.005333 
3609.000000	97.005919 
3608.000000	97.005878 
3607.000000	97.008747 
3606.000000	97.013297 
3605.000000	97.016619 
3604.000000	97.019621 
3603.000000	97.026138 
3602.000000	97.035432 
3601.000000	97.041483 
3600.000000	97.041224 
3599.000000	97.037190 
3598.000000	97.032843 
3597.000000	97.032058 
3596.000000	97.036857 
3595.000000	97.044633 
3594.000000	97.049205 
3593.000000	97.046808 
3592.000000	97.038116 
3591.000000	97.025785 
3590.000000	97.013563 
3589.000000	97.007215 
3588.000000	97.010637 
3587.000000	97.021473 
3586.000000	97.034810 
3585.000000	97.046900 
3584.000000	97.055314 
3583.000000	97.060468 
3582.000000	97.064628 
3581.000000	97.068700 
3580.000000	97.071516 
3579.000000	97.072192 
3578.000000	97.071193 
3577.000000	97.070018 
3576.000000	97.069785 
3575.000000	97.069998 
3574.000000	97.069116 
3573.000000	97.065744 
3572.000000	97.059595 
3571.000000	97.051421 
3570.000000	97.042733 
3569.000000	97.036062 
3568.000000	97.034658 
3567.000000	97.039492 
3566.000000	97.047741 
3565.000000	97.055197 
3564.000000	97.058776 
3563.000000	97.058263 
3562.000000	97.056274 
3561.000000	97.055564 
3560.000000	97.056533 
3559.000000	97.057701 
3558.000000	97.057759 
3557.000000	97.056671 
3556.000000	97.055517 
3555.000000	97.055239 
3554.000000	97.055768 
3553.000000	97.056219 
3552.000000	97.055827 
3551.000000	97.054448 
3550.000000	97.052175 
3549.000000	97.049280 
3548.000000	97.047023 
3547.000000	97.046992 
3546.000000	97.049043 
3545.000000	97.051324 
3544.000000	97.052629 
3543.000000	97.053375 
3542.000000	97.054239 
3541.000000	97.055069 
3540.000000	97.055443 
3539.000000	97.055303 
3538.000000	97.054945 
3537.000000	97.054719 
3536.000000	97.054773 
3535.000000	97.054979 
3534.000000	97.054963 
3533.000000	97.054552 
3532.000000	97.054096 
3531.000000	97.054176 
3530.000000	97.054743 
3529.000000	97.054920 
3528.000000	97.053961 
3527.000000	97.052234 
3526.000000	97.050876 
3525.000000	97.050705 
3524.000000	97.051817 
3523.000000	97.053810 
3522.000000	97.056075 
3521.000000	97.057897 
3520.000000	97.058934 
3519.000000	97.059500 
3518.000000	97.060053 
3517.000000	97.060487 
3516.000000	97.060099 
3515.000000	97.058563 
3514.000000	97.056662 
3513.000000	97.055680 
3512.000000	97.056016 
3511.000000	97.056943 
3510.000000	97.057500 
3509.000000	97.057431 
3508.000000	97.057131 
3507.000000	97.056846 
3506.000000	97.056217 
3505.000000	97.054921 
3504.000000	97.053373 
3503.000000	97.052395 
3502.000000	97.052310 
3501.000000	97.052613 
3500.000000	97.052458 
3499.000000	97.051455 
3498.000000	97.050014 
3497.000000	97.049002 
3496.000000	97.048913 
3495.000000	97.049431 
3494.000000	97.049891 
3493.000000	97.050080 
3492.000000	97.050268 
3491.000000	97.050599 
3490.000000	97.050815 
3489.000000	97.050596 
3488.000000	97.049938 
3487.000000	97.049029 
3486.000000	97.047966 
3485.000000	97.046853 
3484.000000	97.045945 
3483.000000	97.045440 
3482.000000	97.045221 
3481.000000	97.045121 
3480.000000	97.045244 
3479.000000	97.045641 
3478.000000	97.045822 
3477.000000	97.045094 
3476.000000	97.043384 
3475.000000	97.041327 
3474.000000	97.039628 
3473.000000	97.038469 
3472.000000	97.037523 
3471.000000	97.036364 
3470.000000	97.034858 
3469.000000	97.033234 
3468.000000	97.031902 
3467.000000	97.031210 
3466.000000	97.031246 
3465.000000	97.031630 
3464.000000	97.031537 
3463.000000	97.030264 
3462.000000	97.027807 
3461.000000	97.024919 
3460.000000	97.022489 
3459.000000	97.020777 
3458.000000	97.019423 
3457.000000	97.018015 
3456.000000	97.016498 
3455.000000	97.015149 
3454.000000	97.014132 
3453.000000	97.013285 
3452.000000	97.012378 
3451.000000	97.011412 
3450.000000	97.010451 
3449.000000	97.009355 
3448.000000	97.007923 
3447.000000	97.006206 
3446.000000	97.004452 
3445.000000	97.002808 
3444.000000	97.001259 
3443.000000	96.999866 
3442.000000	96.998757 
3441.000000	96.997798 
3440.000000	96.996547 
3439.000000	96.994639 
3438.000000	96.992142 
3437.000000	96.989528 
3436.000000	96.987354 
3435.000000	96.986023 
3434.000000	96.985586 
3433.000000	96.985612 
3432.000000	96.985422 
3431.000000	96.984671 
3430.000000	96.983564 
3429.000000	96.982503 
3428.000000	96.981613 
3427.000000	96.980643 
3426.000000	96.979404 
3425.000000	96.978124 
3424.000000	96.977221 
3423.000000	96.976707 
3422.000000	96.976083 
3421.000000	96.974947 
3420.000000	96.973500 
3419.000000	96.972279 
3418.000000	96.971489 
3417.000000	96.970892 
3416.000000	96.970280 
3415.000000	96.969680 
3414.000000	96.969054 
3413.000000	96.968143 
3412.000000	96.966820 
3411.000000	96.965384 
3410.000000	96.964330 
3409.000000	96.963944 
3408.000000	96.964136 
3407.000000	96.964476 
3406.000000	96.964419 
3405.000000	96.963705 
3404.000000	96.962540 
3403.000000	96.961332 
3402.000000	96.960274 
3401.000000	96.959341 
3400.000000	96.958608 
3399.000000	96.958247 
3398.000000	96.958198 
3397.000000	96.958142 
3396.000000	96.957885 
3395.000000	96.957590 
3394.000000	96.957508 
3393.000000	96.957654 
3392.000000	96.957831 
3391.000000	96.957889 
3390.000000	96.957883 
3389.000000	96.958006 
3388.000000	96.958423 
3387.000000	96.959126 
3386.000000	96.959904 
3385.000000	96.960445 
3384.000000	96.960515 
3383.000000	96.960144 
3382.000000	96.959749 
3381.000000	96.959911 
3380.000000	96.960842 
3379.000000	96.962144 
3378.000000	96.963220 
3377.000000	96.963982 
3376.000000	96.964840 
3375.000000	96.965966 
3374.000000	96.966918 
3373.000000	96.967185 
3372.000000	96.966871 
3371.000000	96.966700 
3370.000000	96.967311 
3369.000000	96.968742 
3368.000000	96.970527 
3367.000000	96.972086 
3366.000000	96.973104 
3365.000000	96.973602 
3364.000000	96.973820 
3363.000000	96.974011 
3362.000000	96.974306 
3361.000000	96.974785 
3360.000000	96.975591 
3359.000000	96.976841 
3358.000000	96.978439 
3357.000000	96.980097 
3356.000000	96.981567 
3355.000000	96.982790 
3354.000000	96.983844 
3353.000000	96.984889 
3352.000000	96.986131 
3351.000000	96.987701 
3350.000000	96.989510 
3349.000000	96.991263 
3348.000000	96.992740 
3347.000000	96.994028 
3346.000000	96.995393 
3345.000000	96.996910 
3344.000000	96.998254 
3343.000000	96.998929 
3342.000000	96.998766 
3341.000000	96.998221 
3340.000000	96.998023 
3339.000000	96.998489 
3338.000000	96.999447 
3337.000000	97.000609 
3336.000000	97.001844 
3335.000000	97.003096 
3334.000000	97.004189 
3333.000000	97.004911 
3332.000000	97.005256 
3331.000000	97.005456 
3330.000000	97.005766 
3329.000000	97.006266 
3328.000000	97.006921 
3327.000000	97.007751 
3326.000000	97.008817 
3325.000000	97.010087 
3324.000000	97.011345 
3323.000000	97.012311 
3322.000000	97.012899 
3321.000000	97.013284 
3320.000000	97.013712 
3319.000000	97.014284 
3318.000000	97.014954 
3317.000000	97.015675 
3316.000000	97.016451 
3315.000000	97.017254 
3314.000000	97.018000 
3313.000000	97.018631 
3312.000000	97.019192 
3311.000000	97.019788 
3310.000000	97.020490 
3309.000000	97.021281 
3308.000000	97.022063 
3307.000000	97.022699 
3306.000000	97.023116 
3305.000000	97.023388 
3304.000000	97.023728 
3303.000000	97.024337 
3302.000000	97.025269 
3301.000000	97.026395 
3300.000000	97.027443 
3299.000000	97.028144 
3298.000000	97.028373 
3297.000000	97.028296 
3296.000000	97.028356 
3295.000000	97.028919 
3294.000000	97.030030 
3293.000000	97.031495 
3292.000000	97.033119 
3291.000000	97.034793 
3290.000000	97.036396 
3289.000000	97.037779 
3288.000000	97.038860 
3287.000000	97.039670 
3286.000000	97.040278 
3285.000000	97.040740 
3284.000000	97.041134 
3283.000000	97.041577 
3282.000000	97.042205 
3281.000000	97.043091 
3280.000000	97.044128 
3279.000000	97.045054 
3278.000000	97.045722 
3277.000000	97.046304 
3276.000000	97.047098 
3275.000000	97.048097 
3274.000000	97.048970 
3273.000000	97.049546 
3272.000000	97.050136 
3271.000000	97.051205 
3270.000000	97.052840 
3269.000000	97.054672 
3268.000000	97.056218 
3267.000000	97.057283 
3266.000000	97.058046 
3265.000000	97.058931 
3264.000000	97.060262 
3263.000000	97.061931 
3262.000000	97.063495 
3261.000000	97.064646 
3260.000000	97.065458 
3259.000000	97.066168 
3258.000000	97.066881 
3257.000000	97.067625 
3256.000000	97.068518 
3255.000000	97.069624 
3254.000000	97.070790 
3253.000000	97.071857 
3252.000000	97.072901 
3251.000000	97.074099 
3250.000000	97.075430 
3249.000000	97.076654 
3248.000000	97.077607 
3247.000000	97.078420 
3246.000000	97.079392 
3245.000000	97.080690 
3244.000000	97.082205 
3243.000000	97.083641 
3242.000000	97.084785 
3241.000000	97.085717 
3240.000000	97.086747 
3239.000000	97.088103 
3238.000000	97.089753 
3237.000000	97.091516 
3236.000000	97.093265 
3235.000000	97.094944 
3234.000000	97.096455 
3233.000000	97.097714 
3232.000000	97.098815 
3231.000000	97.100027 
3230.000000	97.101536 
3229.000000	97.103254 
3228.000000	97.104925 
3227.000000	97.106408 
3226.000000	97.107815 
3225.000000	97.109352 
3224.000000	97.111063 
3223.000000	97.112778 
3222.000000	97.114326 
3221.000000	97.115731 
3220.000000	97.117157 
3219.000000	97.118678 
3218.000000	97.120211 
3217.000000	97.121657 
3216.000000	97.123024 
3215.000000	97.124428 
3214.000000	97.126009 
3213.000000	97.127798 
3212.000000	97.129656 
3211.000000	97.131350 
3210.000000	97.132770 
3209.000000	97.134033 
3208.000000	97.135370 
3207.000000	97.136871 
3206.000000	97.138431 
3205.000000	97.139937 
3204.000000	97.141455 
3203.000000	97.143180 
3202.000000	97.145200 
3201.000000	97.147356 
3200.000000	97.149356 
3199.000000	97.151036 
3198.000000	97.152501 
3197.000000	97.154009 
3196.000000	97.155682 
3195.000000	97.157398 
3194.000000	97.159018 
3193.000000	97.160663 
3192.000000	97.162584 
3191.000000	97.164802 
3190.000000	97.167016 
3189.000000	97.168918 
3188.000000	97.170501 
3187.000000	97.172038 
3186.000000	97.173821 
3185.000000	97.175932 
3184.000000	97.178215 
3183.000000	97.180440 
3182.000000	97.182513 
3181.000000	97.184463 
3180.000000	97.186318 
3179.000000	97.188065 
3178.000000	97.189740 
3177.000000	97.191474 
3176.000000	97.193372 
3175.000000	97.195405 
3174.000000	97.197484 
3173.000000	97.199561 
3172.000000	97.201602 
3171.000000	97.203523 
3170.000000	97.205272 
3169.000000	97.206947 
3168.000000	97.208714 
3167.000000	97.210609 
3166.000000	97.212529 
3165.000000	97.214373 
3164.000000	97.216114 
3163.000000	97.217760 
3162.000000	97.219335 
3161.000000	97.220910 
3160.000000	97.222571 
3159.000000	97.224341 
3158.000000	97.226168 
3157.000000	97.227974 
3156.000000	97.229718 
3155.000000	97.231396 
3154.000000	97.233009 
3153.000000	97.234580 
3152.000000	97.236157 
3151.000000	97.237781 
3150.000000	97.239441 
3149.000000	97.241092 
3148.000000	97.242699 
3147.000000	97.244271 
3146.000000	97.245872 
3145.000000	97.247584 
3144.000000	97.249441 
3143.000000	97.251345 
3142.000000	97.253098 
3141.000000	97.254589 
3140.000000	97.255907 
3139.000000	97.257288 
3138.000000	97.258887 
3137.000000	97.260679 
3136.000000	97.262501 
3135.000000	97.264160 
3134.000000	97.265557 
3133.000000	97.266759 
3132.000000	97.267930 
3131.000000	97.269166 
3130.000000	97.270520 
3129.000000	97.272165 
3128.000000	97.274333 
3127.000000	97.277005 
3126.000000	97.279783 
3125.000000	97.282194 
3124.000000	97.284060 
3123.000000	97.285422 
3122.000000	97.286288 
3121.000000	97.286746 
3120.000000	97.287186 
3119.000000	97.288090 
3118.000000	97.289597 
3117.000000	97.291488 
3116.000000	97.293533 
3115.000000	97.295669 
3114.000000	97.297839 
3113.000000	97.299889 
3112.000000	97.301725 
3111.000000	97.303474 
3110.000000	97.305383 
3109.000000	97.307623 
3108.000000	97.310213 
3107.000000	97.313039 
3106.000000	97.315793 
3105.000000	97.317944 
3104.000000	97.319019 
3103.000000	97.318957 
3102.000000	97.318239 
3101.000000	97.317675 
3100.000000	97.317845 
3099.000000	97.318782 
3098.000000	97.320275 
3097.000000	97.322363 
3096.000000	97.325209 
3095.000000	97.328458 
3094.000000	97.331191 
3093.000000	97.332773 
3092.000000	97.333452 
3091.000000	97.333812 
3090.000000	97.334048 
3089.000000	97.334089 
3088.000000	97.334122 
3087.000000	97.334624 
3086.000000	97.335919 
3085.000000	97.337880 
3084.000000	97.339955 
3083.000000	97.341359 
3082.000000	97.341576 
3081.000000	97.341036 
3080.000000	97.340984 
3079.000000	97.342173 
3078.000000	97.344157 
3077.000000	97.346322 
3076.000000	97.348919 
3075.000000	97.352182 
3074.000000	97.355071 
3073.000000	97.356260 
3072.000000	97.356030 
3071.000000	97.355759 
3070.000000	97.355777 
3069.000000	97.355322 
3068.000000	97.354645 
3067.000000	97.355369 
3066.000000	97.358182 
3065.000000	97.361615 
3064.000000	97.363769 
3063.000000	97.364009 
3062.000000	97.362620 
3061.000000	97.360146 
3060.000000	97.357646 
3059.000000	97.356497 
3058.000000	97.357381 
3057.000000	97.360008 
3056.000000	97.363483 
3055.000000	97.366062 
3054.000000	97.365234 
3053.000000	97.360136 
3052.000000	97.354147 
3051.000000	97.352718 
3050.000000	97.357447 
3049.000000	97.363906 
3048.000000	97.366373 
3047.000000	97.363342 
3046.000000	97.357379 
3045.000000	97.351460 
3044.000000	97.347186 
3043.000000	97.345587 
3042.000000	97.347288 
3041.000000	97.351122 
3040.000000	97.353862 
3039.000000	97.352512 
3038.000000	97.346687 
3037.000000	97.338538 
3036.000000	97.330445 
3035.000000	97.323041 
3034.000000	97.315820 
3033.000000	97.308990 
3032.000000	97.303628 
3031.000000	97.300013 
3030.000000	97.296968 
3029.000000	97.293284 
3028.000000	97.288568 
3027.000000	97.282162 
3026.000000	97.272797 
3025.000000	97.260769 
3024.000000	97.249307 
3023.000000	97.241565 
3022.000000	97.236590 
3021.000000	97.230467 
3020.000000	97.221320 
3019.000000	97.210800 
3018.000000	97.200411 
3017.000000	97.188975 
3016.000000	97.175074 
3015.000000	97.160131 
3014.000000	97.147494 
3013.000000	97.139246 
3012.000000	97.134578 
3011.000000	97.130302 
3010.000000	97.122577 
3009.000000	97.109430 
3008.000000	97.092391 
3007.000000	97.075004 
3006.000000	97.059328 
3005.000000	97.044913 
3004.000000	97.031201 
3003.000000	97.019084 
3002.000000	97.009244 
3001.000000	97.000523 
3000.000000	96.991107 
2999.000000	96.980230 
2998.000000	96.968024 
2997.000000	96.954922 
2996.000000	96.941997 
2995.000000	96.930521 
2994.000000	96.919803 
2993.000000	96.906515 
2992.000000	96.887878 
2991.000000	96.865359 
2990.000000	96.844200 
2989.000000	96.829414 
2988.000000	96.822799 
2987.000000	96.823056 
2986.000000	96.827623 
2985.000000	96.834416 
2984.000000	96.842397 
2983.000000	96.850786 
2982.000000	96.858100 
2981.000000	96.862587 
2980.000000	96.863608 
2979.000000	96.861699 
2978.000000	96.857296 
2977.000000	96.850676 
2976.000000	96.843538 
2975.000000	96.839132 
2974.000000	96.839641 
2973.000000	96.844281 
2972.000000	96.850751 
2971.000000	96.857790 
2970.000000	96.865520 
2969.000000	96.874256 
2968.000000	96.884161 
2967.000000	96.895358 
2966.000000	96.907278 
2965.000000	96.918315 
2964.000000	96.927177 
2963.000000	96.934319 
2962.000000	96.941248 
2961.000000	96.948812 
2960.000000	96.957008 
2959.000000	96.965964 
2958.000000	96.975986 
2957.000000	96.986689 
2956.000000	96.996914 
2955.000000	97.005626 
2954.000000	97.012617 
2953.000000	97.018662 
2952.000000	97.025264 
2951.000000	97.033562 
2950.000000	97.042689 
2949.000000	97.049820 
2948.000000	97.052693 
2947.000000	97.051759 
2946.000000	97.049434 
2945.000000	97.047845 
2944.000000	97.047951 
2943.000000	97.049986 
2942.000000	97.053267 
2941.000000	97.055888 
2940.000000	97.056227 
2939.000000	97.055095 
2938.000000	97.055204 
2937.000000	97.058120 
2936.000000	97.062532 
2935.000000	97.065714 
2934.000000	97.065842 
2933.000000	97.062720 
2932.000000	97.057428 
2931.000000	97.052065 
2930.000000	97.049140 
2929.000000	97.050152 
2928.000000	97.054417 
2927.000000	97.059395 
2926.000000	97.062408 
2925.000000	97.062602 
2924.000000	97.061644 
2923.000000	97.062190 
2922.000000	97.065054 
2921.000000	97.068098 
2920.000000	97.068658 
2919.000000	97.066841 
2918.000000	97.065308 
2917.000000	97.065513 
2916.000000	97.065351 
2915.000000	97.061635 
2914.000000	97.054294 
2913.000000	97.046883 
2912.000000	97.042788 
2911.000000	97.041897 
2910.000000	97.041427 
2909.000000	97.039469 
2908.000000	97.036873 
2907.000000	97.035554 
2906.000000	97.035528 
2905.000000	97.034094 
2904.000000	97.028309 
2903.000000	97.018685 
2902.000000	97.010233 
2901.000000	97.009007 
2900.000000	97.017168 
2899.000000	97.031398 
2898.000000	97.045891 
2897.000000	97.056944 
2896.000000	97.064224 
2895.000000	97.068542 
2894.000000	97.070546 
2893.000000	97.071892 
2892.000000	97.075545 
2891.000000	97.082985 
2890.000000	97.091954 
2889.000000	97.098746 
2888.000000	97.102441 
2887.000000	97.105090 
2886.000000	97.107925 
2885.000000	97.109921 
2884.000000	97.110990 
2883.000000	97.114077 
2882.000000	97.121916 
2881.000000	97.133155 
2880.000000	97.144051 
2879.000000	97.153474 
2878.000000	97.163601 
2877.000000	97.175441 
2876.000000	97.186316 
2875.000000	97.193127 
2874.000000	97.196357 
2873.000000	97.199245 
2872.000000	97.203936 
2871.000000	97.209983 
2870.000000	97.216141 
2869.000000	97.221973 
2868.000000	97.227561 
2867.000000	97.232976 
2866.000000	97.238513 
2865.000000	97.244683 
2864.000000	97.251682 
2863.000000	97.259509 
2862.000000	97.268716 
2861.000000	97.280122 
2860.000000	97.293379 
2859.000000	97.306699 
2858.000000	97.318614 
2857.000000	97.329454 
2856.000000	97.340413 
2855.000000	97.351545 
2854.000000	97.361541 
2853.000000	97.369237 
2852.000000	97.374537 
2851.000000	97.378167 
2850.000000	97.381351 
2849.000000	97.385526 
2848.000000	97.391412 
2847.000000	97.398051 
2846.000000	97.403480 
2845.000000	97.406744 
2844.000000	97.408873 
2843.000000	97.411658 
2842.000000	97.415891 
2841.000000	97.420956 
2840.000000	97.425617 
2839.000000	97.428956 
2838.000000	97.431099 
2837.000000	97.433323 
2836.000000	97.437083 
2835.000000	97.442530 
2834.000000	97.448401 
2833.000000	97.453642 
2832.000000	97.458528 
2831.000000	97.463624 
2830.000000	97.468190 
2829.000000	97.470658 
2828.000000	97.470680 
2827.000000	97.469990 
2826.000000	97.471038 
2825.000000	97.475010 
2824.000000	97.481064 
2823.000000	97.486961 
2822.000000	97.490527 
2821.000000	97.491143 
2820.000000	97.490117 
2819.000000	97.489376 
2818.000000	97.489680 
2817.000000	97.490450 
2816.000000	97.491186 
2815.000000	97.492308 
2814.000000	97.494254 
2813.000000	97.496323 
2812.000000	97.497104 
2811.000000	97.496042 
2810.000000	97.494224 
2809.000000	97.493502 
2808.000000	97.494947 
2807.000000	97.498236 
2806.000000	97.502285 
2805.000000	97.506160 
2804.000000	97.509336 
2803.000000	97.511413 
2802.000000	97.512188 
2801.000000	97.512164 
2800.000000	97.512537 
2799.000000	97.514161 
2798.000000	97.516616 
2797.000000	97.518621 
2796.000000	97.519364 
2795.000000	97.519150 
2794.000000	97.518897 
2793.000000	97.519276 
2792.000000	97.520355 
2791.000000	97.521819 
2790.000000	97.523276 
2789.000000	97.524481 
2788.000000	97.525448 
2787.000000	97.526373 
2786.000000	97.527440 
2785.000000	97.528687 
2784.000000	97.530016 
2783.000000	97.531288 
2782.000000	97.532428 
2781.000000	97.533464 
2780.000000	97.534482 
2779.000000	97.535531 
2778.000000	97.536601 
2777.000000	97.537660 
2776.000000	97.538687 
2775.000000	97.539683 
2774.000000	97.540664 
2773.000000	97.541644 
2772.000000	97.542623 
2771.000000	97.543603 
2770.000000	97.544599 
2769.000000	97.545626 
2768.000000	97.546677 
2767.000000	97.547710 
2766.000000	97.548681 
2765.000000	97.549577 
2764.000000	97.550421 
2763.000000	97.551242 
2762.000000	97.552053 
2761.000000	97.552862 
2760.000000	97.553684 
2759.000000	97.554543 
2758.000000	97.555439 
2757.000000	97.556334 
2756.000000	97.557169 
2755.000000	97.557923 
2754.000000	97.558635 
2753.000000	97.559375 
2752.000000	97.560180 
2751.000000	97.561038 
2750.000000	97.561918 
2749.000000	97.562805 
2748.000000	97.563675 
2747.000000	97.564458 
2746.000000	97.565099 
2745.000000	97.565624 
2744.000000	97.566136 
2743.000000	97.566716 
2742.000000	97.567369 
2741.000000	97.568057 
2740.000000	97.568742 
2739.000000	97.569414 
2738.000000	97.570074 
2737.000000	97.570721 
2736.000000	97.571363 
2735.000000	97.572016 
2734.000000	97.572692 
2733.000000	97.573391 
2732.000000	97.574102 
2731.000000	97.574814 
2730.000000	97.575518 
2729.000000	97.576209 
2728.000000	97.576883 
2727.000000	97.577531 
2726.000000	97.578148 
2725.000000	97.578741 
2724.000000	97.579328 
2723.000000	97.579921 
2722.000000	97.580519 
2721.000000	97.581122 
2720.000000	97.581727 
2719.000000	97.582336 
2718.000000	97.582946 
2717.000000	97.583552 
2716.000000	97.584149 
2715.000000	97.584736 
2714.000000	97.585315 
2713.000000	97.585895 
2712.000000	97.586484 
2711.000000	97.587083 
2710.000000	97.587680 
2709.000000	97.588259 
2708.000000	97.588816 
2707.000000	97.589357 
2706.000000	97.589903 
2705.000000	97.590478 
2704.000000	97.591073 
2703.000000	97.591615 
2702.000000	97.592013 
2701.000000	97.592282 
2700.000000	97.592629 
2699.000000	97.593301 
2698.000000	97.594349 
2697.000000	97.595476 
2696.000000	97.596228 
2695.000000	97.596401 
2694.000000	97.596245 
2693.000000	97.596228 
2692.000000	97.596549 
2691.000000	97.597007 
2690.000000	97.597291 
2689.000000	97.597285 
2688.000000	97.597031 
2687.000000	97.596571 
2686.000000	97.596037 
2685.000000	97.595774 
2684.000000	97.596076 
2683.000000	97.596740 
2682.000000	97.597182 
2681.000000	97.597179 
2680.000000	97.597217 
2679.000000	97.597902 
2678.000000	97.599241 
2677.000000	97.600730 
2676.000000	97.601859 
2675.000000	97.602245 
2674.000000	97.601611 
2673.000000	97.600195 
2672.000000	97.598912 
2671.000000	97.598409 
2670.000000	97.598194 
2669.000000	97.597360 
2668.000000	97.595963 
2667.000000	97.594971 
2666.000000	97.594843 
2665.000000	97.594865 
2664.000000	97.594206 
2663.000000	97.593030 
2662.000000	97.592127 
2661.000000	97.591755 
2660.000000	97.591293 
2659.000000	97.589971 
2658.000000	97.587708 
2657.000000	97.585305 
2656.000000	97.583857 
2655.000000	97.583702 
2654.000000	97.583940 
2653.000000	97.583264 
2652.000000	97.581432 
2651.000000	97.579598 
2650.000000	97.578977 
2649.000000	97.579533 
2648.000000	97.580231 
2647.000000	97.580234 
2646.000000	97.579425 
2645.000000	97.577942 
2644.000000	97.575875 
2643.000000	97.573598 
2642.000000	97.571930 
2641.000000	97.571508 
2640.000000	97.572153 
2639.000000	97.573054 
2638.000000	97.573541 
2637.000000	97.573567 
2636.000000	97.573541 
2635.000000	97.573924 
2634.000000	97.574949 
2633.000000	97.576432 
2632.000000	97.577766 
2631.000000	97.578258 
2630.000000	97.577723 
2629.000000	97.576607 
2628.000000	97.575554 
2627.000000	97.574888 
2626.000000	97.574570 
2625.000000	97.574532 
2624.000000	97.574778 
2623.000000	97.575201 
2622.000000	97.575517 
2621.000000	97.575489 
2620.000000	97.575140 
2619.000000	97.574701 
2618.000000	97.574427 
2617.000000	97.574436 
2616.000000	97.574673 
2615.000000	97.574980 
2614.000000	97.575221 
2613.000000	97.575394 
2612.000000	97.575580 
2611.000000	97.575827 
2610.000000	97.576108 
2609.000000	97.576377 
2608.000000	97.576623 
2607.000000	97.576857 
2606.000000	97.577086 
2605.000000	97.577312 
2604.000000	97.577535 
2603.000000	97.577753 
2602.000000	97.577966 
2601.000000	97.578177 
2600.000000	97.578391 
2599.000000	97.578612 
2598.000000	97.578838 
2597.000000	97.579065 
2596.000000	97.579290 
2595.000000	97.579517 
2594.000000	97.579750 
2593.000000	97.579997 
2592.000000	97.580266 
2591.000000	97.580562 
2590.000000	97.580882 
2589.000000	97.581219 
2588.000000	97.581566 
2587.000000	97.581921 
2586.000000	97.582285 
2585.000000	97.582681 
2584.000000	97.583134 
2583.000000	97.583631 
2582.000000	97.584108 
2581.000000	97.584504 
2580.000000	97.584823 
2579.000000	97.585152 
2578.000000	97.585572 
2577.000000	97.586056 
2576.000000	97.586506 
2575.000000	97.586844 
2574.000000	97.587060 
2573.000000	97.587205 
2572.000000	97.587368 
2571.000000	97.587604 
2570.000000	97.587834 
2569.000000	97.587914 
2568.000000	97.587868 
2567.000000	97.587933 
2566.000000	97.588212 
2565.000000	97.588489 
2564.000000	97.588541 
2563.000000	97.588516 
2562.000000	97.588762 
2561.000000	97.589415 
2560.000000	97.590389 
2559.000000	97.591591 
2558.000000	97.592836 
2557.000000	97.593758 
2556.000000	97.594157 
2555.000000	97.594254 
2554.000000	97.594472 
2553.000000	97.594901 
2552.000000	97.595283 
2551.000000	97.595483 
2550.000000	97.595687 
2549.000000	97.596041 
2548.000000	97.596380 
2547.000000	97.596491 
2546.000000	97.596444 
2545.000000	97.596503 
2544.000000	97.596739 
2543.000000	97.597013 
2542.000000	97.597232 
2541.000000	97.597447 
2540.000000	97.597720 
2539.000000	97.598029 
2538.000000	97.598333 
2537.000000	97.598626 
2536.000000	97.598920 
2535.000000	97.599222 
2534.000000	97.599532 
2533.000000	97.599849 
2532.000000	97.600163 
2531.000000	97.600476 
2530.000000	97.600790 
2529.000000	97.601105 
2528.000000	97.601420 
2527.000000	97.601732 
2526.000000	97.602044 
2525.000000	97.602355 
2524.000000	97.602664 
2523.000000	97.602963 
2522.000000	97.603246 
2521.000000	97.603512 
2520.000000	97.603765 
2519.000000	97.604009 
2518.000000	97.604250 
2517.000000	97.604489 
2516.000000	97.604725 
2515.000000	97.604962 
2514.000000	97.605211 
2513.000000	97.605483 
2512.000000	97.605785 
2511.000000	97.606111 
2510.000000	97.606455 
2509.000000	97.606810 
2508.000000	97.607165 
2507.000000	97.607512 
2506.000000	97.607845 
2505.000000	97.608166 
2504.000000	97.608490 
2503.000000	97.608821 
2502.000000	97.609154 
2501.000000	97.609478 
2500.000000	97.609789 
2499.000000	97.610087 
2498.000000	97.610377 
2497.000000	97.610657 
2496.000000	97.610930 
2495.000000	97.611196 
2494.000000	97.611454 
2493.000000	97.611698 
2492.000000	97.611922 
2491.000000	97.612129 
2490.000000	97.612323 
2489.000000	97.612508 
2488.000000	97.612679 
2487.000000	97.612829 
2486.000000	97.612956 
2485.000000	97.613063 
2484.000000	97.613156 
2483.000000	97.613232 
2482.000000	97.613313 
2481.000000	97.613408 
2480.000000	97.613482 
2479.000000	97.613487 
2478.000000	97.613446 
2477.000000	97.613492 
2476.000000	97.613760 
2475.000000	97.614192 
2474.000000	97.614516 
2473.000000	97.614454 
2472.000000	97.613962 
2471.000000	97.613270 
2470.000000	97.612729 
2469.000000	97.612671 
2468.000000	97.613168 
2467.000000	97.613811 
2466.000000	97.613914 
2465.000000	97.613202 
2464.000000	97.612275 
2463.000000	97.612169 
2462.000000	97.613370 
2461.000000	97.615439 
2460.000000	97.617511 
2459.000000	97.619029 
2458.000000	97.619784 
2457.000000	97.619547 
2456.000000	97.618077 
2455.000000	97.615490 
2454.000000	97.612497 
2453.000000	97.609998 
2452.000000	97.608401 
2451.000000	97.607493 
2450.000000	97.607038 
2449.000000	97.607232 
2448.000000	97.608309 
2447.000000	97.609867 
2446.000000	97.610987 
2445.000000	97.611138 
2444.000000	97.610588 
2443.000000	97.609925 
2442.000000	97.609574 
2441.000000	97.609820 
2440.000000	97.610855 
2439.000000	97.612654 
2438.000000	97.615066 
2437.000000	97.618089 
2436.000000	97.621643 
2435.000000	97.625020 
2434.000000	97.627046 
2433.000000	97.627116 
2432.000000	97.625899 
2431.000000	97.624835 
2430.000000	97.625095 
2429.000000	97.627022 
2428.000000	97.630048 
2427.000000	97.632824 
2426.000000	97.633835 
2425.000000	97.632367 
2424.000000	97.629217 
2423.000000	97.626063 
2422.000000	97.624035 
2421.000000	97.623614 
2420.000000	97.625202 
2419.000000	97.628674 
2418.000000	97.632914 
2417.000000	97.636713 
2416.000000	97.639733 
2415.000000	97.641976 
2414.000000	97.643213 
2413.000000	97.643684 
2412.000000	97.644368 
2411.000000	97.645707 
2410.000000	97.646849 
2409.000000	97.647301 
2408.000000	97.648478 
2407.000000	97.651889 
2406.000000	97.656287 
2405.000000	97.658421 
2404.000000	97.656651 
2403.000000	97.652476 
2402.000000	97.648550 
2401.000000	97.646585 
2400.000000	97.647203 
2399.000000	97.650322 
2398.000000	97.655133 
2397.000000	97.660550 
2396.000000	97.665805 
2395.000000	97.669903 
2394.000000	97.671109 
2393.000000	97.668772 
2392.000000	97.665420 
2391.000000	97.665109 
2390.000000	97.669366 
2389.000000	97.676192 
2388.000000	97.683287 
2387.000000	97.690540 
2386.000000	97.698635 
2385.000000	97.706758 
2384.000000	97.712707 
2383.000000	97.714074 
2382.000000	97.708474 
2381.000000	97.694299 
2380.000000	97.672946 
2379.000000	97.649736 
2378.000000	97.631004 
2377.000000	97.620966 
2376.000000	97.622560 
2375.000000	97.638596 
2374.000000	97.667867 
2373.000000	97.700446 
2372.000000	97.722618 
2371.000000	97.727914 
2370.000000	97.719438 
2369.000000	97.701177 
2368.000000	97.672641 
2367.000000	97.633834 
2366.000000	97.589936 
2365.000000	97.548034 
2364.000000	97.513492 
2363.000000	97.490061 
2362.000000	97.480657 
2361.000000	97.485107 
2360.000000	97.498857 
2359.000000	97.518165 
2358.000000	97.538584 
2357.000000	97.554932 
2356.000000	97.564923 
2355.000000	97.567692 
2354.000000	97.557141 
2353.000000	97.533461 
2352.000000	97.514548 
2351.000000	97.516637 
2350.000000	97.534252 
2349.000000	97.551242 
2348.000000	97.558911 
2347.000000	97.558865 
2346.000000	97.559280 
2345.000000	97.568912 
2344.000000	97.587106 
2343.000000	97.601416 
2342.000000	97.601490 
2341.000000	97.590063 
2340.000000	97.576273 
2339.000000	97.565382 
2338.000000	97.555226 
2337.000000	97.544087 
2336.000000	97.538121 
2335.000000	97.543248 
2334.000000	97.554581 
2333.000000	97.562015 
2332.000000	97.566936 
2331.000000	97.578036 
2330.000000	97.596854 
2329.000000	97.616641 
2328.000000	97.634471 
2327.000000	97.651193 
2326.000000	97.665414 
2325.000000	97.673813 
2324.000000	97.679343 
2323.000000	97.686553 
2322.000000	97.694556 
2321.000000	97.697599 
2320.000000	97.697091 
2319.000000	97.699713 
2318.000000	97.707610 
2317.000000	97.712906 
2316.000000	97.708129 
2315.000000	97.693584 
2314.000000	97.676061 
2313.000000	97.661811 
2312.000000	97.654700 
2311.000000	97.655385 
2310.000000	97.659955 
2309.000000	97.662328 
2308.000000	97.660282 
2307.000000	97.657489 
2306.000000	97.657714 
2305.000000	97.660044 
2304.000000	97.661399 
2303.000000	97.661401 
2302.000000	97.662778 
2301.000000	97.666892 
2300.000000	97.671563 
2299.000000	97.672316 
2298.000000	97.666623 
2297.000000	97.654825 
2296.000000	97.640326 
2295.000000	97.626851 
2294.000000	97.616305 
2293.000000	97.607919 
2292.000000	97.600893 
2291.000000	97.595453 
2290.000000	97.591761 
2289.000000	97.589002 
2288.000000	97.586293 
2287.000000	97.583394 
2286.000000	97.579884 
2285.000000	97.575550 
2284.000000	97.571484 
2283.000000	97.569572 
2282.000000	97.569617 
2281.000000	97.568851 
2280.000000	97.564875 
2279.000000	97.558100 
2278.000000	97.550630 
2277.000000	97.544385 
2276.000000	97.540817 
2275.000000	97.540361 
2274.000000	97.541723 
2273.000000	97.543184 
2272.000000	97.545014 
2271.000000	97.548561 
2270.000000	97.553144 
2269.000000	97.556206 
2268.000000	97.557077 
2267.000000	97.557550 
2266.000000	97.558323 
2265.000000	97.557823 
2264.000000	97.555195 
2263.000000	97.551702 
2262.000000	97.548255 
2261.000000	97.544140 
2260.000000	97.539110 
2259.000000	97.534459 
2258.000000	97.531224 
2257.000000	97.529363 
2256.000000	97.529160 
2255.000000	97.531306 
2254.000000	97.534815 
2253.000000	97.536702 
2252.000000	97.535170 
2251.000000	97.531249 
2250.000000	97.526738 
2249.000000	97.522149 
2248.000000	97.517691 
2247.000000	97.514478 
2246.000000	97.513261 
2245.000000	97.513097 
2244.000000	97.512317 
2243.000000	97.510396 
2242.000000	97.508021 
2241.000000	97.505951 
2240.000000	97.504444 
2239.000000	97.503389 
2238.000000	97.502442 
2237.000000	97.501192 
2236.000000	97.499551 
2235.000000	97.497769 
2234.000000	97.496054 
2233.000000	97.494385 
2232.000000	97.492657 
2231.000000	97.490826 
2230.000000	97.488895 
2229.000000	97.486869 
2228.000000	97.484771 
2227.000000	97.482648 
2226.000000	97.480530 
2225.000000	97.478408 
2224.000000	97.476257 
2223.000000	97.474093 
2222.000000	97.471978 
2221.000000	97.469953 
2220.000000	97.467992 
2219.000000	97.466061 
2218.000000	97.464136 
2217.000000	97.462206 
2216.000000	97.460265 
2215.000000	97.458311 
2214.000000	97.456346 
2213.000000	97.454372 
2212.000000	97.452406 
2211.000000	97.450472 
2210.000000	97.448588 
2209.000000	97.446752 
2208.000000	97.444935 
2207.000000	97.443107 
2206.000000	97.441244 
2205.000000	97.439320 
2204.000000	97.437278 
2203.000000	97.435285 
2202.000000	97.433929 
2201.000000	97.433568 
2200.000000	97.433369 
2199.000000	97.431768 
2198.000000	97.427981 
2197.000000	97.422891 
2196.000000	97.418389 
2195.000000	97.415532 
2194.000000	97.413526 
2193.000000	97.411015 
2192.000000	97.408256 
2191.000000	97.406715 
2190.000000	97.406318 
2189.000000	97.405128 
2188.000000	97.402589 
2187.000000	97.400549 
2186.000000	97.399353 
2185.000000	97.395983 
2184.000000	97.389353 
2183.000000	97.385021 
2182.000000	97.389755 
2181.000000	97.402396 
2180.000000	97.413579 
2179.000000	97.415735 
2178.000000	97.409586 
2177.000000	97.400935 
2176.000000	97.394726 
2175.000000	97.392776 
2174.000000	97.394561 
2173.000000	97.398257 
2172.000000	97.402463 
2171.000000	97.407320 
2170.000000	97.412403 
2169.000000	97.414413 
2168.000000	97.409938 
2167.000000	97.400176 
2166.000000	97.389506 
2165.000000	97.379123 
2164.000000	97.366155 
2163.000000	97.350855 
2162.000000	97.340963 
2161.000000	97.345630 
2160.000000	97.366757 
2159.000000	97.397285 
2158.000000	97.426910 
2157.000000	97.449698 
2156.000000	97.466066 
2155.000000	97.478514 
2154.000000	97.487353 
2153.000000	97.491486 
2152.000000	97.491717 
2151.000000	97.490200 
2150.000000	97.486971 
2149.000000	97.481012 
2148.000000	97.475471 
2147.000000	97.476995 
2146.000000	97.487366 
2145.000000	97.500041 
2144.000000	97.508615 
2143.000000	97.514887 
2142.000000	97.523975 
2141.000000	97.535050 
2140.000000	97.542679 
2139.000000	97.545841 
2138.000000	97.549896 
2137.000000	97.559270 
2136.000000	97.572119 
2135.000000	97.582618 
2134.000000	97.585970 
2133.000000	97.581875 
2132.000000	97.575541 
2131.000000	97.573829 
2130.000000	97.578205 
2129.000000	97.583154 
2128.000000	97.583304 
2127.000000	97.580012 
2126.000000	97.578661 
2125.000000	97.581481 
2124.000000	97.586110 
2123.000000	97.589718 
2122.000000	97.591035 
2121.000000	97.589043 
2120.000000	97.582960 
2119.000000	97.573853 
2118.000000	97.564557 
2117.000000	97.557684 
2116.000000	97.554207 
2115.000000	97.553210 
2114.000000	97.551905 
2113.000000	97.547537 
2112.000000	97.541072 
2111.000000	97.537343 
2110.000000	97.539581 
2109.000000	97.545346 
2108.000000	97.549665 
2107.000000	97.550741 
2106.000000	97.550274 
2105.000000	97.549902 
2104.000000	97.550072 
2103.000000	97.551004 
2102.000000	97.551842 
2101.000000	97.549910 
2100.000000	97.543882 
2099.000000	97.537177 
2098.000000	97.535445 
2097.000000	97.540502 
2096.000000	97.548870 
2095.000000	97.555547 
2094.000000	97.557966 
2093.000000	97.556262 
2092.000000	97.551941 
2091.000000	97.547234 
2090.000000	97.544163 
2089.000000	97.543103 
2088.000000	97.542642 
2087.000000	97.541126 
2086.000000	97.538002 
2085.000000	97.533751 
2084.000000	97.529296 
2083.000000	97.525509 
2082.000000	97.522733 
2081.000000	97.520683 
2080.000000	97.519153 
2079.000000	97.518434 
2078.000000	97.518399 
2077.000000	97.517609 
2076.000000	97.514587 
2075.000000	97.509865 
2074.000000	97.505444 
2073.000000	97.502104 
2072.000000	97.498528 
2071.000000	97.493456 
2070.000000	97.487448 
2069.000000	97.482161 
2068.000000	97.478830 
2067.000000	97.477601 
2066.000000	97.477394 
2065.000000	97.476089 
2064.000000	97.471999 
2063.000000	97.465602 
2062.000000	97.459358 
2061.000000	97.455606 
2060.000000	97.454910 
2059.000000	97.456413 
2058.000000	97.458460 
2057.000000	97.459029 
2056.000000	97.456635 
2055.000000	97.451096 
2054.000000	97.443576 
2053.000000	97.435682 
2052.000000	97.428755 
2051.000000	97.423523 
2050.000000	97.419917 
2049.000000	97.417175 
2048.000000	97.414615 
2047.000000	97.412278 
2046.000000	97.410326 
2045.000000	97.408255 
2044.000000	97.405494 
2043.000000	97.402422 
2042.000000	97.400005 
2041.000000	97.398599 
2040.000000	97.397880 
2039.000000	97.397811 
2038.000000	97.398628 
2037.000000	97.399742 
2036.000000	97.399746 
2035.000000	97.397990 
2034.000000	97.395593 
2033.000000	97.394620 
2032.000000	97.396225 
2031.000000	97.399360 
2030.000000	97.401061 
2029.000000	97.398993 
2028.000000	97.393987 
2027.000000	97.389536 
2026.000000	97.387870 
2025.000000	97.387984 
2024.000000	97.388340 
2023.000000	97.389934 
2022.000000	97.394792 
2021.000000	97.401898 
2020.000000	97.406789 
2019.000000	97.405816 
2018.000000	97.399036 
2017.000000	97.389798 
2016.000000	97.382435 
2015.000000	97.379408 
2014.000000	97.379285 
2013.000000	97.377492 
2012.000000	97.371578 
2011.000000	97.365675 
2010.000000	97.366465 
2009.000000	97.375175 
2008.000000	97.386151 
2007.000000	97.393852 
2006.000000	97.398190 
2005.000000	97.401423 
2004.000000	97.404051 
2003.000000	97.405837 
2002.000000	97.408016 
2001.000000	97.411058 
2000.000000	97.412587 
1999.000000	97.409285 
1998.000000	97.399981 
1997.000000	97.386818 
1996.000000	97.374106 
1995.000000	97.366200 
1994.000000	97.364813 
1993.000000	97.367434 
1992.000000	97.369006 
1991.000000	97.367143 
1990.000000	97.364510 
1989.000000	97.364957 
1988.000000	97.368762 
1987.000000	97.372362 
1986.000000	97.371778 
1985.000000	97.365899 
1984.000000	97.357103 
1983.000000	97.349185 
1982.000000	97.344542 
1981.000000	97.343129 
1980.000000	97.344607 
1979.000000	97.349567 
1978.000000	97.357242 
1977.000000	97.364063 
1976.000000	97.366665 
1975.000000	97.366146 
1974.000000	97.366849 
1973.000000	97.371576 
1972.000000	97.379392 
1971.000000	97.387446 
1970.000000	97.393097 
1969.000000	97.394602 
1968.000000	97.391758 
1967.000000	97.386838 
1966.000000	97.383872 
1965.000000	97.385714 
1964.000000	97.392428 
1963.000000	97.402238 
1962.000000	97.412921 
1961.000000	97.422126 
1960.000000	97.427662 
1959.000000	97.428700 
1958.000000	97.426934 
1957.000000	97.425982 
1956.000000	97.428407 
1955.000000	97.433520 
1954.000000	97.438338 
1953.000000	97.440824 
1952.000000	97.441449 
1951.000000	97.441958 
1950.000000	97.443573 
1949.000000	97.446635 
1948.000000	97.451308 
1947.000000	97.457261 
1946.000000	97.462968 
1945.000000	97.466634 
1944.000000	97.467962 
1943.000000	97.468270 
1942.000000	97.468878 
1941.000000	97.470035 
1940.000000	97.471580 
1939.000000	97.473535 
1938.000000	97.475915 
1937.000000	97.478615 
1936.000000	97.481579 
1935.000000	97.484661 
1934.000000	97.487381 
1933.000000	97.489535 
1932.000000	97.491787 
1931.000000	97.495150 
1930.000000	97.499573 
1929.000000	97.503403 
1928.000000	97.505551 
1927.000000	97.506494 
1926.000000	97.507223 
1925.000000	97.507807 
1924.000000	97.507962 
1923.000000	97.508606 
1922.000000	97.510514 
1921.000000	97.512747 
1920.000000	97.513900 
1919.000000	97.514080 
1918.000000	97.514149 
1917.000000	97.513728 
1916.000000	97.512367 
1915.000000	97.511386 
1914.000000	97.512241 
1913.000000	97.514461 
1912.000000	97.516066 
1911.000000	97.516490 
1910.000000	97.516876 
1909.000000	97.517824 
1908.000000	97.519164 
1907.000000	97.520414 
1906.000000	97.520995 
1905.000000	97.519883 
1904.000000	97.516638 
1903.000000	97.513306 
1902.000000	97.512145 
1901.000000	97.512849 
1900.000000	97.513750 
1899.000000	97.514162 
1898.000000	97.514606 
1897.000000	97.515223 
1896.000000	97.515378 
1895.000000	97.515045 
1894.000000	97.514631 
1893.000000	97.513979 
1892.000000	97.512863 
1891.000000	97.512057 
1890.000000	97.512510 
1889.000000	97.513766 
1888.000000	97.514660 
1887.000000	97.515155 
1886.000000	97.515842 
1885.000000	97.516550 
1884.000000	97.516573 
1883.000000	97.516005 
1882.000000	97.515671 
1881.000000	97.515877 
1880.000000	97.516351 
1879.000000	97.516782 
1878.000000	97.517036 
1877.000000	97.517315 
1876.000000	97.518046 
1875.000000	97.519735 
1874.000000	97.522453 
1873.000000	97.525257 
1872.000000	97.527079 
1871.000000	97.527934 
1870.000000	97.528548 
1869.000000	97.529098 
1868.000000	97.529509 
1867.000000	97.530618 
1866.000000	97.532780 
1865.000000	97.534664 
1864.000000	97.535002 
1863.000000	97.534546 
1862.000000	97.535252 
1861.000000	97.537578 
1860.000000	97.540231 
1859.000000	97.542541 
1858.000000	97.545130 
1857.000000	97.548057 
1856.000000	97.550443 
1855.000000	97.552058 
1854.000000	97.553607 
1853.000000	97.555090 
1852.000000	97.556532 
1851.000000	97.558592 
1850.000000	97.561504 
1849.000000	97.564837 
1848.000000	97.567981 
1847.000000	97.571062 
1846.000000	97.574240 
1845.000000	97.577024 
1844.000000	97.578722 
1843.000000	97.580029 
1842.000000	97.582096 
1841.000000	97.584204 
1840.000000	97.585754 
1839.000000	97.587444 
1838.000000	97.589874 
1837.000000	97.592061 
1836.000000	97.592799 
1835.000000	97.592830 
1834.000000	97.593699 
1833.000000	97.595479 
1832.000000	97.597171 
1831.000000	97.598068 
1830.000000	97.598439 
1829.000000	97.599215 
1828.000000	97.600783 
1827.000000	97.602707 
1826.000000	97.604591 
1825.000000	97.606383 
1824.000000	97.607678 
1823.000000	97.608301 
1822.000000	97.608625 
1821.000000	97.608972 
1820.000000	97.609378 
1819.000000	97.609891 
1818.000000	97.611041 
1817.000000	97.612695 
1816.000000	97.613587 
1815.000000	97.613305 
1814.000000	97.612752 
1813.000000	97.613007 
1812.000000	97.613751 
1811.000000	97.613961 
1810.000000	97.613807 
1809.000000	97.613838 
1808.000000	97.613919 
1807.000000	97.613826 
1806.000000	97.613726 
1805.000000	97.613696 
1804.000000	97.613561 
1803.000000	97.613618 
1802.000000	97.614152 
1801.000000	97.614770 
1800.000000	97.614554 
1799.000000	97.613329 
1798.000000	97.612333 
1797.000000	97.612311 
1796.000000	97.612808 
1795.000000	97.613191 
1794.000000	97.613471 
1793.000000	97.613882 
1792.000000	97.614032 
1791.000000	97.613946 
1790.000000	97.614556 
1789.000000	97.615620 
1788.000000	97.616275 
1787.000000	97.616521 
1786.000000	97.617125 
1785.000000	97.618116 
1784.000000	97.618712 
1783.000000	97.618910 
1782.000000	97.618995 
1781.000000	97.619410 
1780.000000	97.620375 
1779.000000	97.621558 
1778.000000	97.622798 
1777.000000	97.623944 
1776.000000	97.625083 
1775.000000	97.626147 
1774.000000	97.626949 
1773.000000	97.627564 
1772.000000	97.628211 
1771.000000	97.629029 
1770.000000	97.630054 
1769.000000	97.631180 
1768.000000	97.632281 
1767.000000	97.633276 
1766.000000	97.634153 
1765.000000	97.634981 
1764.000000	97.635820 
1763.000000	97.636699 
1762.000000	97.637605 
1761.000000	97.638530 
1760.000000	97.639468 
1759.000000	97.640390 
1758.000000	97.641280 
1757.000000	97.642141 
1756.000000	97.643026 
1755.000000	97.643873 
1754.000000	97.644542 
1753.000000	97.644998 
1752.000000	97.645482 
1751.000000	97.646202 
1750.000000	97.647084 
1749.000000	97.647850 
1748.000000	97.648331 
1747.000000	97.648606 
1746.000000	97.648650 
1745.000000	97.648748 
1744.000000	97.649354 
1743.000000	97.650387 
1742.000000	97.651258 
1741.000000	97.651489 
1740.000000	97.651053 
1739.000000	97.650630 
1738.000000	97.651153 
1737.000000	97.652075 
1736.000000	97.652174 
1735.000000	97.652001 
1734.000000	97.651705 
1733.000000	97.650061 
1732.000000	97.648863 
1731.000000	97.649035 
1730.000000	97.650437 
1729.000000	97.652104 
1728.000000	97.652580 
1727.000000	97.651336 
1726.000000	97.648968 
1725.000000	97.647403 
1724.000000	97.646761 
1723.000000	97.645810 
1722.000000	97.645019 
1721.000000	97.644356 
1720.000000	97.642453 
1719.000000	97.639040 
1718.000000	97.636714 
1717.000000	97.635765 
1716.000000	97.633243 
1715.000000	97.629373 
1714.000000	97.626664 
1713.000000	97.624800 
1712.000000	97.621266 
1711.000000	97.616439 
1710.000000	97.612753 
1709.000000	97.610585 
1708.000000	97.608111 
1707.000000	97.604113 
1706.000000	97.599959 
1705.000000	97.596806 
1704.000000	97.593966 
1703.000000	97.590497 
1702.000000	97.586773 
1701.000000	97.584290 
1700.000000	97.580289 
1699.000000	97.574024 
1698.000000	97.569731 
1697.000000	97.566339 
1696.000000	97.562190 
1695.000000	97.557405 
1694.000000	97.553433 
1693.000000	97.549793 
1692.000000	97.545312 
1691.000000	97.540457 
1690.000000	97.535881 
1689.000000	97.531600 
1688.000000	97.527453 
1687.000000	97.523189 
1686.000000	97.518842 
1685.000000	97.514543 
1684.000000	97.510227 
1683.000000	97.505922 
1682.000000	97.501650 
1681.000000	97.497377 
1680.000000	97.493118 
1679.000000	97.488882 
1678.000000	97.484668 
1677.000000	97.480472 
1676.000000	97.476292 
1675.000000	97.472125 
1674.000000	97.467974 
1673.000000	97.463843 
1672.000000	97.459745 
1671.000000	97.455688 
1670.000000	97.451678 
1669.000000	97.447713 
1668.000000	97.443794 
1667.000000	97.439925 
1666.000000	97.436105 
1665.000000	97.432322 
1664.000000	97.428566 
1663.000000	97.424872 
1662.000000	97.421247 
1661.000000	97.417626 
1660.000000	97.414020 
1659.000000	97.410464 
1658.000000	97.406938 
1657.000000	97.403463 
1656.000000	97.400145 
1655.000000	97.397062 
1654.000000	97.394483 
1653.000000	97.391199 
1652.000000	97.385802 
1651.000000	97.381563 
1650.000000	97.378639 
1649.000000	97.375234 
1648.000000	97.371986 
1647.000000	97.370259 
1646.000000	97.369183 
1645.000000	97.367761 
1644.000000	97.365891 
1643.000000	97.363986 
1642.000000	97.362217 
1641.000000	97.360380 
1640.000000	97.358917 
1639.000000	97.357830 
1638.000000	97.356961 
1637.000000	97.356504 
1636.000000	97.356537 
1635.000000	97.354847 
1634.000000	97.352564 
1633.000000	97.352023 
1632.000000	97.350960 
1631.000000	97.349583 
1630.000000	97.348843 
1629.000000	97.348135 
1628.000000	97.347071 
1627.000000	97.347624 
1626.000000	97.349736 
1625.000000	97.350754 
1624.000000	97.350134 
1623.000000	97.350215 
1622.000000	97.352138 
1621.000000	97.354930 
1620.000000	97.358036 
1619.000000	97.360969 
1618.000000	97.363741 
1617.000000	97.363238 
1616.000000	97.359314 
1615.000000	97.360198 
1614.000000	97.366972 
1613.000000	97.371944 
1612.000000	97.372752 
1611.000000	97.373761 
1610.000000	97.376832 
1609.000000	97.380895 
1608.000000	97.387771 
1607.000000	97.399107 
1606.000000	97.409463 
1605.000000	97.414017 
1604.000000	97.416498 
1603.000000	97.420864 
1602.000000	97.426244 
1601.000000	97.430602 
1600.000000	97.435036 
1599.000000	97.440605 
1598.000000	97.445555 
1597.000000	97.448763 
1596.000000	97.451699 
1595.000000	97.456011 
1594.000000	97.460995 
1593.000000	97.465272 
1592.000000	97.469237 
1591.000000	97.473839 
1590.000000	97.478601 
1589.000000	97.482693 
1588.000000	97.486520 
1587.000000	97.490835 
1586.000000	97.495283 
1585.000000	97.498982 
1584.000000	97.502515 
1583.000000	97.506501 
1582.000000	97.510330 
1581.000000	97.513758 
1580.000000	97.517393 
1579.000000	97.521412 
1578.000000	97.525368 
1577.000000	97.529044 
1576.000000	97.532450 
1575.000000	97.535850 
1574.000000	97.539345 
1573.000000	97.542706 
1572.000000	97.545877 
1571.000000	97.548952 
1570.000000	97.551906 
1569.000000	97.554682 
1568.000000	97.557369 
1567.000000	97.559981 
1566.000000	97.562471 
1565.000000	97.564847 
1564.000000	97.567137 
1563.000000	97.569356 
1562.000000	97.571499 
1561.000000	97.573566 
1560.000000	97.575558 
1559.000000	97.577457 
1558.000000	97.579227 
1557.000000	97.580878 
1556.000000	97.582434 
1555.000000	97.583909 
1554.000000	97.585300 
1553.000000	97.586594 
1552.000000	97.587779 
1551.000000	97.588851 
1550.000000	97.589818 
1549.000000	97.590695 
1548.000000	97.591493 
1547.000000	97.592214 
1546.000000	97.592852 
1545.000000	97.593408 
1544.000000	97.593874 
1543.000000	97.594239 
1542.000000	97.594494 
1541.000000	97.594631 
1540.000000	97.594643 
1539.000000	97.594545 
1538.000000	97.594367 
1537.000000	97.594128 
1536.000000	97.593838 
1535.000000	97.593516 
1534.000000	97.593185 
1533.000000	97.592854 
1532.000000	97.592517 
1531.000000	97.592176 
1530.000000	97.591841 
1529.000000	97.591520 
1528.000000	97.591218 
1527.000000	97.590937 
1526.000000	97.590672 
1525.000000	97.590409 
1524.000000	97.590135 
1523.000000	97.589836 
1522.000000	97.589564 
1521.000000	97.589356 
1520.000000	97.589092 
1519.000000	97.588606 
1518.000000	97.587864 
1517.000000	97.587217 
1516.000000	97.587013 
1515.000000	97.587156 
1514.000000	97.587289 
1513.000000	97.587287 
1512.000000	97.587071 
1511.000000	97.586468 
1510.000000	97.585611 
1509.000000	97.585002 
1508.000000	97.585636 
1507.000000	97.587712 
1506.000000	97.588794 
1505.000000	97.587662 
1504.000000	97.585839 
1503.000000	97.583691 
1502.000000	97.581225 
1501.000000	97.579302 
1500.000000	97.578389 
1499.000000	97.577828 
1498.000000	97.577473 
1497.000000	97.578540 
1496.000000	97.580486 
1495.000000	97.582502 
1494.000000	97.585060 
1493.000000	97.587902 
1492.000000	97.590371 
1491.000000	97.592955 
1490.000000	97.596824 
1489.000000	97.600810 
1488.000000	97.601567 
1487.000000	97.599121 
1486.000000	97.596710 
1485.000000	97.594559 
1484.000000	97.592067 
1483.000000	97.589820 
1482.000000	97.589063 
1481.000000	97.589864 
1480.000000	97.590115 
1479.000000	97.588859 
1478.000000	97.587439 
1477.000000	97.587477 
1476.000000	97.588109 
1475.000000	97.588279 
1474.000000	97.588426 
1473.000000	97.589783 
1472.000000	97.591770 
1471.000000	97.592463 
1470.000000	97.591712 
1469.000000	97.589897 
1468.000000	97.587312 
1467.000000	97.584884 
1466.000000	97.583765 
1465.000000	97.584123 
1464.000000	97.584863 
1463.000000	97.584323 
1462.000000	97.582392 
1461.000000	97.579980 
1460.000000	97.578008 
1459.000000	97.576975 
1458.000000	97.577256 
1457.000000	97.578372 
1456.000000	97.578515 
1455.000000	97.577174 
1454.000000	97.574689 
1453.000000	97.571944 
1452.000000	97.569964 
1451.000000	97.568935 
1450.000000	97.568669 
1449.000000	97.569305 
1448.000000	97.570631 
1447.000000	97.571708 
1446.000000	97.571147 
1445.000000	97.569162 
1444.000000	97.567517 
1443.000000	97.566075 
1442.000000	97.564050 
1441.000000	97.561596 
1440.000000	97.559377 
1439.000000	97.556638 
1438.000000	97.554623 
1437.000000	97.556847 
1436.000000	97.561271 
1435.000000	97.561346 
1434.000000	97.556121 
1433.000000	97.550130 
1432.000000	97.547197 
1431.000000	97.546986 
1430.000000	97.547069 
1429.000000	97.547041 
1428.000000	97.545813 
1427.000000	97.542236 
1426.000000	97.536117 
1425.000000	97.531786 
1424.000000	97.533771 
1423.000000	97.536497 
1422.000000	97.532631 
1421.000000	97.523870 
1420.000000	97.519357 
1419.000000	97.520339 
1418.000000	97.518769 
1417.000000	97.513070 
1416.000000	97.506387 
1415.000000	97.499068 
1414.000000	97.489297 
1413.000000	97.478176 
1412.000000	97.469341 
1411.000000	97.462810 
1410.000000	97.456175 
1409.000000	97.449381 
1408.000000	97.443365 
1407.000000	97.440004 
1406.000000	97.440811 
1405.000000	97.447353 
1404.000000	97.459017 
1403.000000	97.468564 
1402.000000	97.471025 
1401.000000	97.470587 
1400.000000	97.476177 
1399.000000	97.489006 
1398.000000	97.499490 
1397.000000	97.499585 
1396.000000	97.491455 
1395.000000	97.484438 
1394.000000	97.484506 
1393.000000	97.491874 
1392.000000	97.503628 
1391.000000	97.514480 
1390.000000	97.520633 
1389.000000	97.522507 
1388.000000	97.523131 
1387.000000	97.523855 
1386.000000	97.522977 
1385.000000	97.520229 
1384.000000	97.518829 
1383.000000	97.520437 
1382.000000	97.523581 
1381.000000	97.526051 
1380.000000	97.528236 
1379.000000	97.532459 
1378.000000	97.538672 
1377.000000	97.544567 
1376.000000	97.549609 
1375.000000	97.556375 
1374.000000	97.566028 
1373.000000	97.576415 
1372.000000	97.584949 
1371.000000	97.591671 
1370.000000	97.597593 
1369.000000	97.603545 
1368.000000	97.610526 
1367.000000	97.617466 
1366.000000	97.622582 
1365.000000	97.626257 
1364.000000	97.631615 
1363.000000	97.640746 
1362.000000	97.651044 
1361.000000	97.657969 
1360.000000	97.661061 
1359.000000	97.663532 
1358.000000	97.667272 
1357.000000	97.671649 
1356.000000	97.676154 
1355.000000	97.680650 
1354.000000	97.684543 
1353.000000	97.687501 
1352.000000	97.689729 
1351.000000	97.693205 
1350.000000	97.698246 
1349.000000	97.702302 
1348.000000	97.703866 
1347.000000	97.703470 
1346.000000	97.703090 
1345.000000	97.703226 
1344.000000	97.702431 
1343.000000	97.699065 
1342.000000	97.694226 
1341.000000	97.691995 
1340.000000	97.695793 
1339.000000	97.703562 
1338.000000	97.709336 
1337.000000	97.710249 
1336.000000	97.708199 
1335.000000	97.705509 
1334.000000	97.702772 
1333.000000	97.700454 
1332.000000	97.699572 
1331.000000	97.700044 
1330.000000	97.700434 
1329.000000	97.700353 
1328.000000	97.701110 
1327.000000	97.703366 
1326.000000	97.705376 
1325.000000	97.705262 
1324.000000	97.703248 
1323.000000	97.699929 
1322.000000	97.695544 
1321.000000	97.691563 
1320.000000	97.690754 
1319.000000	97.693895 
1318.000000	97.698402 
1317.000000	97.701339 
1316.000000	97.702024 
1315.000000	97.700858 
1314.000000	97.698257 
1313.000000	97.695850 
1312.000000	97.696042 
1311.000000	97.698851 
1310.000000	97.701247 
1309.000000	97.701089 
1308.000000	97.699672 
1307.000000	97.699594 
1306.000000	97.701244 
1305.000000	97.703454 
1304.000000	97.705904 
1303.000000	97.708200 
1302.000000	97.708710 
1301.000000	97.706294 
1300.000000	97.702638 
1299.000000	97.700829 
1298.000000	97.701952 
1297.000000	97.704066 
1296.000000	97.704491 
1295.000000	97.702290 
1294.000000	97.698955 
1293.000000	97.697209 
1292.000000	97.698385 
1291.000000	97.701057 
1290.000000	97.703003 
1289.000000	97.704019 
1288.000000	97.705205 
1287.000000	97.706011 
1286.000000	97.704494 
1285.000000	97.700948 
1284.000000	97.698655 
1283.000000	97.699823 
1282.000000	97.702660 
1281.000000	97.703722 
1280.000000	97.701931 
1279.000000	97.698955 
1278.000000	97.696953 
1277.000000	97.697278 
1276.000000	97.699964 
1275.000000	97.703327 
1274.000000	97.704993 
1273.000000	97.704417 
1272.000000	97.703121 
1271.000000	97.701860 
1270.000000	97.699201 
1269.000000	97.693999 
1268.000000	97.687513 
1267.000000	97.681470 
1266.000000	97.675972 
1265.000000	97.671118 
1264.000000	97.668699 
1263.000000	97.669937 
1262.000000	97.672536 
1261.000000	97.672337 
1260.000000	97.668107 
1259.000000	97.662651 
1258.000000	97.658844 
1257.000000	97.656035 
1256.000000	97.650845 
1255.000000	97.641310 
1254.000000	97.629599 
1253.000000	97.619829 
1252.000000	97.612960 
1251.000000	97.605567 
1250.000000	97.595005 
1249.000000	97.584256 
1248.000000	97.578972 
1247.000000	97.580042 
1246.000000	97.581912 
1245.000000	97.578520 
1244.000000	97.568498 
1243.000000	97.555110 
1242.000000	97.543936 
1241.000000	97.540222 
1240.000000	97.544679 
1239.000000	97.550750 
1238.000000	97.549095 
1237.000000	97.536183 
1236.000000	97.516374 
1235.000000	97.495537 
1234.000000	97.475685 
1233.000000	97.456500 
1232.000000	97.438129 
1231.000000	97.420070 
1230.000000	97.400267 
1229.000000	97.377743 
1228.000000	97.353871 
1227.000000	97.329128 
1226.000000	97.300823 
1225.000000	97.266247 
1224.000000	97.226260 
1223.000000	97.183659 
1222.000000	97.139406 
1221.000000	97.092391 
1220.000000	97.041757 
1219.000000	96.987627 
1218.000000	96.930401 
1217.000000	96.870601 
1216.000000	96.808339 
1215.000000	96.742336 
1214.000000	96.671377 
1213.000000	96.597722 
1212.000000	96.526220 
1211.000000	96.457995 
1210.000000	96.387732 
1209.000000	96.310097 
1208.000000	96.226818 
1207.000000	96.144463 
1206.000000	96.066668 
1205.000000	95.991445 
1204.000000	95.915021 
1203.000000	95.835256 
1202.000000	95.752266 
1201.000000	95.668511 
1200.000000	95.587546 
1199.000000	95.510326 
1198.000000	95.433474 
1197.000000	95.353343 
1196.000000	95.270417 
1195.000000	95.187662 
1194.000000	95.106143 
1193.000000	95.024663 
1192.000000	94.942119 
1191.000000	94.857456 
1190.000000	94.768863 
1189.000000	94.675803 
1188.000000	94.580387 
1187.000000	94.484244 
1186.000000	94.385893 
1185.000000	94.283920 
1184.000000	94.180321 
1183.000000	94.077302 
1182.000000	93.973059 
1181.000000	93.864595 
1180.000000	93.752471 
1179.000000	93.638377 
1178.000000	93.520147 
1177.000000	93.394307 
1176.000000	93.261973 
1175.000000	93.127232 
1174.000000	92.991171 
1173.000000	92.853028 
1172.000000	92.715768 
1171.000000	92.583975 
1170.000000	92.456687 
1169.000000	92.328884 
1168.000000	92.200464 
1167.000000	92.078115 
1166.000000	91.968895 
1165.000000	91.878702 
1164.000000	91.816701 
1163.000000	91.792852 
1162.000000	91.808105 
1161.000000	91.851327 
1160.000000	91.905993 
1159.000000	91.955185 
1158.000000	91.982271 
1157.000000	91.975311 
1156.000000	91.932987 
1155.000000	91.862311 
1154.000000	91.770827 
1153.000000	91.665004 
1152.000000	91.553904 
1151.000000	91.446527 
1150.000000	91.344378 
1149.000000	91.243067 
1148.000000	91.141754 
1147.000000	91.044246 
1146.000000	90.950229 
1145.000000	90.853313 
1144.000000	90.750107 
1143.000000	90.644701 
1142.000000	90.541795 
1141.000000	90.441176 
1140.000000	90.341089 
1139.000000	90.241479 
1138.000000	90.141898 
1137.000000	90.041157 
1136.000000	89.940291 
1135.000000	89.841092 
1134.000000	89.741363 
1133.000000	89.637090 
1132.000000	89.529310 
1131.000000	89.422897 
1130.000000	89.318633 
1129.000000	89.212853 
1128.000000	89.104682 
1127.000000	88.996531 
1126.000000	88.887510 
1125.000000	88.773928 
1124.000000	88.656902 
1123.000000	88.541919 
1122.000000	88.430145 
1121.000000	88.317691 
1120.000000	88.203999 
1119.000000	88.092805 
1118.000000	87.984110 
1117.000000	87.873970 
1116.000000	87.763164 
1115.000000	87.657268 
1114.000000	87.557116 
1113.000000	87.457990 
1112.000000	87.358968 
1111.000000	87.263357 
1110.000000	87.169453 
1109.000000	87.071290 
1108.000000	86.968609 
1107.000000	86.866616 
1106.000000	86.766040 
1105.000000	86.663133 
1104.000000	86.559438 
1103.000000	86.460722 
1102.000000	86.366203 
1101.000000	86.269642 
1100.000000	86.171431 
1099.000000	86.078661 
1098.000000	85.993183 
1097.000000	85.910546 
1096.000000	85.830022 
1095.000000	85.753852 
1094.000000	85.676928 
1093.000000	85.590501 
1092.000000	85.497286 
1091.000000	85.410429 
1090.000000	85.336174 
1089.000000	85.269190 
1088.000000	85.205128 
1087.000000	85.144892 
1086.000000	85.086025 
1085.000000	85.023538 
1084.000000	84.960855 
1083.000000	84.907110 
1082.000000	84.862215 
1081.000000	84.817290 
1080.000000	84.770692 
1079.000000	84.730174 
1078.000000	84.697759 
1077.000000	84.665645 
1076.000000	84.628386 
1075.000000	84.586051 
1074.000000	84.534901 
1073.000000	84.468584 
1072.000000	84.388420 
1071.000000	84.297754 
1070.000000	84.185866 
1069.000000	84.034551 
1068.000000	83.844207 
1067.000000	83.639444 
1066.000000	83.444784 
1065.000000	83.266879 
1064.000000	83.102920 
1063.000000	82.949019 
1062.000000	82.793972 
1061.000000	82.621069 
1060.000000	82.425754 
1059.000000	82.221953 
1058.000000	82.025697 
1057.000000	81.841825 
1056.000000	81.669059 
1055.000000	81.505229 
1054.000000	81.343516 
1053.000000	81.176178 
1052.000000	81.006623 
1051.000000	80.845970 
1050.000000	80.694449 
1049.000000	80.540006 
1048.000000	80.377253 
1047.000000	80.212088 
1046.000000	80.046965 
1045.000000	79.877909 
1044.000000	79.706454 
1043.000000	79.539034 
1042.000000	79.373789 
1041.000000	79.202620 
1040.000000	79.027251 
1039.000000	78.859186 
1038.000000	78.703818 
1037.000000	78.559422 
1036.000000	78.430579 
1035.000000	78.325583 
1034.000000	78.240534 
1033.000000	78.162425 
1032.000000	78.087231 
1031.000000	78.018359 
1030.000000	77.950602 
1029.000000	77.876427 
1028.000000	77.806813 
1027.000000	77.763219 
1026.000000	77.747089 
1025.000000	77.737549 
1024.000000	77.720863 
1023.000000	77.701502 
1022.000000	77.682322 
1021.000000	77.656460 
1020.000000	77.623153 
1019.000000	77.591334 
1018.000000	77.562937 
1017.000000	77.530849 
1016.000000	77.496422 
1015.000000	77.470313 
1014.000000	77.453135 
1013.000000	77.434164 
1012.000000	77.412019 
1011.000000	77.397766 
1010.000000	77.394682 
1009.000000	77.393890 
1008.000000	77.393106 
1007.000000	77.401396 
1006.000000	77.422703 
1005.000000	77.452585 
1004.000000	77.492574 
1003.000000	77.548411 
1002.000000	77.612273 
1001.000000	77.667092 
1000.000000	77.712188 
999.000000	 77.765357 
998.000000	 77.836210 
997.000000	 77.916252 
996.000000	 77.998026 
995.000000	 78.084974 
994.000000	 78.178360 
993.000000	 78.272842 
992.000000	 78.369088 
991.000000	 78.473673 
990.000000	 78.583714 
989.000000	 78.688939 
988.000000	 78.791268 
987.000000	 78.904299 
986.000000	 79.031337 
985.000000	 79.162657 
984.000000	 79.296677 
983.000000	 79.443970 
982.000000	 79.606340 
981.000000	 79.771194 
980.000000	 79.931729 
979.000000	 80.095178 
978.000000	 80.266077 
977.000000	 80.438988 
976.000000	 80.612999 
975.000000	 80.796537 
974.000000	 80.991885 
973.000000	 81.190282 
972.000000	 81.387736 
971.000000	 81.591182 
970.000000	 81.803838 
969.000000	 82.018111 
968.000000	 82.227662 
967.000000	 82.434080 
966.000000	 82.638297 
965.000000	 82.837995 
964.000000	 83.036329 
963.000000	 83.240660 
962.000000	 83.449824 
961.000000	 83.654467 
960.000000	 83.851579 
959.000000	 84.046488 
958.000000	 84.239624 
957.000000	 84.424547 
956.000000	 84.600768 
955.000000	 84.775631 
954.000000	 84.951367 
953.000000	 85.122169 
952.000000	 85.285662 
951.000000	 85.445314 
950.000000	 85.600604 
949.000000	 85.747017 
948.000000	 85.886513 
947.000000	 86.025576 
946.000000	 86.162000 
945.000000	 86.286390 
944.000000	 86.397904 
943.000000	 86.506238 
942.000000	 86.616812 
941.000000	 86.726370 
940.000000	 86.834503 
939.000000	 86.946165 
938.000000	 87.060653 
937.000000	 87.170976 
936.000000	 87.276832 
935.000000	 87.386068 
934.000000	 87.500638 
933.000000	 87.612967 
932.000000	 87.719001 
931.000000	 87.823495 
930.000000	 87.929610 
929.000000	 88.034141 
928.000000	 88.135990 
927.000000	 88.239055 
926.000000	 88.343645 
925.000000	 88.444035 
924.000000	 88.536536 
923.000000	 88.621636 
922.000000	 88.698081 
921.000000	 88.764703 
920.000000	 88.828253 
919.000000	 88.898557 
918.000000	 88.974265 
917.000000	 89.043655 
916.000000	 89.101837 
915.000000	 89.158133 
914.000000	 89.224548 
913.000000	 89.305455 
912.000000	 89.399881 
911.000000	 89.505360 
910.000000	 89.618275 
909.000000	 89.737854 
908.000000	 89.869641 
907.000000	 90.018284 
906.000000	 90.179229 
905.000000	 90.344853 
904.000000	 90.514580 
903.000000	 90.689582 
902.000000	 90.862709 
901.000000	 91.025740 
900.000000	 91.183206 
899.000000	 91.347110 
898.000000	 91.520183 
897.000000	 91.694902 
896.000000	 91.865473 
895.000000	 92.029335 
894.000000	 92.181134 
893.000000	 92.318280 
892.000000	 92.450029 
891.000000	 92.588605 
890.000000	 92.732765 
889.000000	 92.871359 
888.000000	 93.000271 
887.000000	 93.123974 
886.000000	 93.243813 
885.000000	 93.357731 
884.000000	 93.468615 
883.000000	 93.579471 
882.000000	 93.683881 
881.000000	 93.776840 
880.000000	 93.872375 
879.000000	 93.992289 
878.000000	 94.136297 
877.000000	 94.280459 
876.000000	 94.406831 
875.000000	 94.517980 
874.000000	 94.621966 
873.000000	 94.721910 
872.000000	 94.823916 
871.000000	 94.937251 
870.000000	 95.060070 
869.000000	 95.178840 
868.000000	 95.286793 
867.000000	 95.390623 
866.000000	 95.495935 
865.000000	 95.599285 
864.000000	 95.699417 
863.000000	 95.803999 
862.000000	 95.918442 
861.000000	 96.036982 
860.000000	 96.150330 
859.000000	 96.254880 
858.000000	 96.351295 
857.000000	 96.441635 
856.000000	 96.530472 
855.000000	 96.621216 
854.000000	 96.708827 
853.000000	 96.783478 
852.000000	 96.843396 
851.000000	 96.897527 
850.000000	 96.954958 
849.000000	 97.018598 
848.000000	 97.088404 
847.000000	 97.161581 
846.000000	 97.229519 
845.000000	 97.284100 
844.000000	 97.327958 
843.000000	 97.370212 
842.000000	 97.412117 
841.000000	 97.445842 
840.000000	 97.466980 
839.000000	 97.478353 
838.000000	 97.481573 
837.000000	 97.475617 
836.000000	 97.465370 
835.000000	 97.461287 
834.000000	 97.467299 
833.000000	 97.477497 
832.000000	 97.487083 
831.000000	 97.497917 
830.000000	 97.511147 
829.000000	 97.523829 
828.000000	 97.536577 
827.000000	 97.556036 
826.000000	 97.585752 
825.000000	 97.622101 
824.000000	 97.661331 
823.000000	 97.701446 
822.000000	 97.735989 
821.000000	 97.756484 
820.000000	 97.762085 
819.000000	 97.757245 
818.000000	 97.739674 
817.000000	 97.699238 
816.000000	 97.629035 
815.000000	 97.529908 
814.000000	 97.403618 
813.000000	 97.248375 
812.000000	 97.060567 
811.000000	 96.832307 
810.000000	 96.546579 
809.000000	 96.184489 
808.000000	 95.741746 
807.000000	 95.233721 
806.000000	 94.684117 
805.000000	 94.115098 
804.000000	 93.547751 
803.000000	 93.001301 
802.000000	 92.489276 
801.000000	 92.026411 
800.000000	 91.639337 
799.000000	 91.356008 
798.000000	 91.181492 
797.000000	 91.096823 
796.000000	 91.081350 
795.000000	 91.120492 
794.000000	 91.193549 
793.000000	 91.275512 
792.000000	 91.355153 
791.000000	 91.434426 
790.000000	 91.507266 
789.000000	 91.554855 
788.000000	 91.563331 
787.000000	 91.529979 
786.000000	 91.450571 
785.000000	 91.317630 
784.000000	 91.135061 
783.000000	 90.920879 
782.000000	 90.694341 
781.000000	 90.474904 
780.000000	 90.291995 
779.000000	 90.174955 
778.000000	 90.129831 
777.000000	 90.144263 
776.000000	 90.216010 
775.000000	 90.354225 
774.000000	 90.549651 
773.000000	 90.768304 
772.000000	 90.982788 
771.000000	 91.189907 
770.000000	 91.391392 
769.000000	 91.578591 
768.000000	 91.744474 
767.000000	 91.891676 
766.000000	 92.020121 
765.000000	 92.124483 
764.000000	 92.212439 
763.000000	 92.307759 
762.000000	 92.424596 
761.000000	 92.552860 
760.000000	 92.677514 
759.000000	 92.797763 
758.000000	 92.918996 
757.000000	 93.041188 
756.000000	 93.165790 
755.000000	 93.300826 
754.000000	 93.447369 
753.000000	 93.589973 
752.000000	 93.709428 
751.000000	 93.798947 
750.000000	 93.865163 
749.000000	 93.922655 
748.000000	 93.989748 
747.000000	 94.077676 
746.000000	 94.178599 
745.000000	 94.274475 
744.000000	 94.361225 
743.000000	 94.453073 
742.000000	 94.560958 
741.000000	 94.680039 
740.000000	 94.801673 
739.000000	 94.923827 
738.000000	 95.044687 
737.000000	 95.157611 
736.000000	 95.257727 
735.000000	 95.344863 
734.000000	 95.418966 
733.000000	 95.481981 
732.000000	 95.542140 
731.000000	 95.603834 
730.000000	 95.656187 
729.000000	 95.687897 
728.000000	 95.707374 
727.000000	 95.732933 
726.000000	 95.770722 
725.000000	 95.816650 
724.000000	 95.874586 
723.000000	 95.953568 
722.000000	 96.047729 
721.000000	 96.138027 
720.000000	 96.216186 
719.000000	 96.290436 
718.000000	 96.365328 
717.000000	 96.434946 
716.000000	 96.500108 
715.000000	 96.570987 
714.000000	 96.646887 
713.000000	 96.713340 
712.000000	 96.764890 
711.000000	 96.812468 
710.000000	 96.861660 
709.000000	 96.905659 
708.000000	 96.938645 
707.000000	 96.963440 
706.000000	 96.979708 
705.000000	 96.977364 
704.000000	 96.947664 
703.000000	 96.890913 
702.000000	 96.801524 
701.000000	 96.658459 
700.000000	 96.445159 
699.000000	 96.167626 
698.000000	 95.853497 
697.000000	 95.543470 
696.000000	 95.284605 
695.000000	 95.121341 
694.000000	 95.073069 
693.000000	 95.126039 
692.000000	 95.252425 
691.000000	 95.423290 
690.000000	 95.610523 
689.000000	 95.790409 
688.000000	 95.951178 
687.000000	 96.092747 
686.000000	 96.212121 
685.000000	 96.304737 
684.000000	 96.381768 
683.000000	 96.461718 
682.000000	 96.546488 
681.000000	 96.622715 
680.000000	 96.688969 
679.000000	 96.756813 
678.000000	 96.828988 
677.000000	 96.901799 
676.000000	 96.974137 
675.000000	 97.051990 
674.000000	 97.128867 
673.000000	 97.172842 
672.000000	 97.165211 
671.000000	 97.111194 
670.000000	 97.022370 
669.000000	 96.897847 
668.000000	 96.883101 
667.000000	 97.107289 
666.000000	 97.351126 
665.000000	 97.464800 
664.000000	 97.520703 
663.000000	 97.564298 
662.000000	 97.604525 
661.000000	 97.640161 
660.000000	 97.675820 
659.000000	 97.713502 
658.000000	 97.745903 
657.000000	 97.766143 
656.000000	 97.765117 
655.000000	 97.740877 
654.000000	 97.703928 
653.000000	 97.666703 
652.000000	 97.640632 
651.000000	 97.641626 
650.000000	 97.678744 

