4000.000000	97.535880 
3999.000000	97.534794 
3998.000000	97.532516 
3997.000000	97.529971 
3996.000000	97.528103 
3995.000000	97.527363 
3994.000000	97.527876 
3993.000000	97.529283 
3992.000000	97.530648 
3991.000000	97.531246 
3990.000000	97.531145 
3989.000000	97.530857 
3988.000000	97.530604 
3987.000000	97.530279 
3986.000000	97.530023 
3985.000000	97.530303 
3984.000000	97.531219 
3983.000000	97.532311 
3982.000000	97.533245 
3981.000000	97.534149 
3980.000000	97.535035 
3979.000000	97.535338 
3978.000000	97.534610 
3977.000000	97.533395 
3976.000000	97.532694 
3975.000000	97.532641 
3974.000000	97.532384 
3973.000000	97.531283 
3972.000000	97.529535 
3971.000000	97.527754 
3970.000000	97.526455 
3969.000000	97.525848 
3968.000000	97.525838 
3967.000000	97.526042 
3966.000000	97.526027 
3965.000000	97.525594 
3964.000000	97.524806 
3963.000000	97.523867 
3962.000000	97.523012 
3961.000000	97.522441 
3960.000000	97.522106 
3959.000000	97.521738 
3958.000000	97.521239 
3957.000000	97.520734 
3956.000000	97.520301 
3955.000000	97.519811 
3954.000000	97.519121 
3953.000000	97.518256 
3952.000000	97.517381 
3951.000000	97.516679 
3950.000000	97.516213 
3949.000000	97.515904 
3948.000000	97.515614 
3947.000000	97.515272 
3946.000000	97.514865 
3945.000000	97.514354 
3944.000000	97.513728 
3943.000000	97.513111 
3942.000000	97.512684 
3941.000000	97.512494 
3940.000000	97.512377 
3939.000000	97.512052 
3938.000000	97.511450 
3937.000000	97.510730 
3936.000000	97.510062 
3935.000000	97.509406 
3934.000000	97.508684 
3933.000000	97.508051 
3932.000000	97.507711 
3931.000000	97.507590 
3930.000000	97.507414 
3929.000000	97.507067 
3928.000000	97.506697 
3927.000000	97.506365 
3926.000000	97.505997 
3925.000000	97.505613 
3924.000000	97.505291 
3923.000000	97.504994 
3922.000000	97.504677 
3921.000000	97.504354 
3920.000000	97.504048 
3919.000000	97.503782 
3918.000000	97.503550 
3917.000000	97.503322 
3916.000000	97.503077 
3915.000000	97.502812 
3914.000000	97.502537 
3913.000000	97.502254 
3912.000000	97.501947 
3911.000000	97.501604 
3910.000000	97.501237 
3909.000000	97.500867 
3908.000000	97.500501 
3907.000000	97.500134 
3906.000000	97.499768 
3905.000000	97.499425 
3904.000000	97.499135 
3903.000000	97.498916 
3902.000000	97.498757 
3901.000000	97.498632 
3900.000000	97.498510 
3899.000000	97.498379 
3898.000000	97.498241 
3897.000000	97.498106 
3896.000000	97.497974 
3895.000000	97.497829 
3894.000000	97.497653 
3893.000000	97.497450 
3892.000000	97.497223 
3891.000000	97.496974 
3890.000000	97.496717 
3889.000000	97.496465 
3888.000000	97.496213 
3887.000000	97.495950 
3886.000000	97.495684 
3885.000000	97.495439 
3884.000000	97.495227 
3883.000000	97.495031 
3882.000000	97.494825 
3881.000000	97.494615 
3880.000000	97.494432 
3879.000000	97.494297 
3878.000000	97.494197 
3877.000000	97.494092 
3876.000000	97.493962 
3875.000000	97.493826 
3874.000000	97.493722 
3873.000000	97.493670 
3872.000000	97.493650 
3871.000000	97.493633 
3870.000000	97.493621 
3869.000000	97.493659 
3868.000000	97.493767 
3867.000000	97.493914 
3866.000000	97.494060 
3865.000000	97.494210 
3864.000000	97.494392 
3863.000000	97.494587 
3862.000000	97.494751 
3861.000000	97.494874 
3860.000000	97.494983 
3859.000000	97.495105 
3858.000000	97.495237 
3857.000000	97.495377 
3856.000000	97.495535 
3855.000000	97.495731 
3854.000000	97.495958 
3853.000000	97.496210 
3852.000000	97.496536 
3851.000000	97.496985 
3850.000000	97.497542 
3849.000000	97.498154 
3848.000000	97.498789 
3847.000000	97.499436 
3846.000000	97.500096 
3845.000000	97.500772 
3844.000000	97.501456 
3843.000000	97.502134 
3842.000000	97.502808 
3841.000000	97.503493 
3840.000000	97.504202 
3839.000000	97.504923 
3838.000000	97.505634 
3837.000000	97.506322 
3836.000000	97.507000 
3835.000000	97.507691 
3834.000000	97.508399 
3833.000000	97.509115 
3832.000000	97.509829 
3831.000000	97.510538 
3830.000000	97.511251 
3829.000000	97.511975 
3828.000000	97.512708 
3827.000000	97.513436 
3826.000000	97.514149 
3825.000000	97.514852 
3824.000000	97.515553 
3823.000000	97.516239 
3822.000000	97.516885 
3821.000000	97.517500 
3820.000000	97.518136 
3819.000000	97.518823 
3818.000000	97.519519 
3817.000000	97.520166 
3816.000000	97.520763 
3815.000000	97.521359 
3814.000000	97.521985 
3813.000000	97.522607 
3812.000000	97.523189 
3811.000000	97.523737 
3810.000000	97.524268 
3809.000000	97.524754 
3808.000000	97.525151 
3807.000000	97.525461 
3806.000000	97.525738 
3805.000000	97.526032 
3804.000000	97.526339 
3803.000000	97.526621 
3802.000000	97.526872 
3801.000000	97.527126 
3800.000000	97.527421 
3799.000000	97.527739 
3798.000000	97.528031 
3797.000000	97.528279 
3796.000000	97.528499 
3795.000000	97.528699 
3794.000000	97.528861 
3793.000000	97.528963 
3792.000000	97.528998 
3791.000000	97.528969 
3790.000000	97.528886 
3789.000000	97.528761 
3788.000000	97.528605 
3787.000000	97.528418 
3786.000000	97.528188 
3785.000000	97.527912 
3784.000000	97.527610 
3783.000000	97.527292 
3782.000000	97.526941 
3781.000000	97.526536 
3780.000000	97.526085 
3779.000000	97.525604 
3778.000000	97.525091 
3777.000000	97.524527 
3776.000000	97.523912 
3775.000000	97.523278 
3774.000000	97.522649 
3773.000000	97.522013 
3772.000000	97.521341 
3771.000000	97.520625 
3770.000000	97.519889 
3769.000000	97.519152 
3768.000000	97.518412 
3767.000000	97.517654 
3766.000000	97.516885 
3765.000000	97.516132 
3764.000000	97.515409 
3763.000000	97.514689 
3762.000000	97.513936 
3761.000000	97.513142 
3760.000000	97.512328 
3759.000000	97.511498 
3758.000000	97.510628 
3757.000000	97.509705 
3756.000000	97.508749 
3755.000000	97.507793 
3754.000000	97.506859 
3753.000000	97.505967 
3752.000000	97.505139 
3751.000000	97.504373 
3750.000000	97.503644 
3749.000000	97.502942 
3748.000000	97.502279 
3747.000000	97.501633 
3746.000000	97.500949 
3745.000000	97.500182 
3744.000000	97.499326 
3743.000000	97.498413 
3742.000000	97.497436 
3741.000000	97.496338 
3740.000000	97.495098 
3739.000000	97.493739 
3738.000000	97.492226 
3737.000000	97.490644 
3736.000000	97.488994 
3735.000000	97.487567 
3734.000000	97.486775 
3733.000000	97.485764 
3732.000000	97.483182 
3731.000000	97.479771 
3730.000000	97.477748 
3729.000000	97.476902 
3728.000000	97.474625 
3727.000000	97.470508 
3726.000000	97.467696 
3725.000000	97.468399 
3724.000000	97.469788 
3723.000000	97.468364 
3722.000000	97.464700 
3721.000000	97.461133 
3720.000000	97.458160 
3719.000000	97.453557 
3718.000000	97.446361 
3717.000000	97.439393 
3716.000000	97.435796 
3715.000000	97.433971 
3714.000000	97.430543 
3713.000000	97.427128 
3712.000000	97.426914 
3711.000000	97.427093 
3710.000000	97.422833 
3709.000000	97.412640 
3708.000000	97.398083 
3707.000000	97.382276 
3706.000000	97.368114 
3705.000000	97.356114 
3704.000000	97.344709 
3703.000000	97.332727 
3702.000000	97.319866 
3701.000000	97.306654 
3700.000000	97.295297 
3699.000000	97.285980 
3698.000000	97.275518 
3697.000000	97.263510 
3696.000000	97.253542 
3695.000000	97.246986 
3694.000000	97.240330 
3693.000000	97.230736 
3692.000000	97.219860 
3691.000000	97.210224 
3690.000000	97.201147 
3689.000000	97.190200 
3688.000000	97.178389 
3687.000000	97.169000 
3686.000000	97.161560 
3685.000000	97.153076 
3684.000000	97.143012 
3683.000000	97.132691 
3682.000000	97.122509 
3681.000000	97.111962 
3680.000000	97.101144 
3679.000000	97.090574 
3678.000000	97.080257 
3677.000000	97.070023 
3676.000000	97.059850 
3675.000000	97.049732 
3674.000000	97.039706 
3673.000000	97.029773 
3672.000000	97.019886 
3671.000000	97.010029 
3670.000000	97.000235 
3669.000000	96.990546 
3668.000000	96.980980 
3667.000000	96.971520 
3666.000000	96.962140 
3665.000000	96.952833 
3664.000000	96.943599 
3663.000000	96.934428 
3662.000000	96.925290 
3661.000000	96.916059 
3660.000000	96.906610 
3659.000000	96.897187 
3658.000000	96.887913 
3657.000000	96.878069 
3656.000000	96.866946 
3655.000000	96.856560 
3654.000000	96.848850 
3653.000000	96.840217 
3652.000000	96.826460 
3651.000000	96.812045 
3650.000000	96.804722 
3649.000000	96.802448 
3648.000000	96.796808 
3647.000000	96.788208 
3646.000000	96.784006 
3645.000000	96.785615 
3644.000000	96.787761 
3643.000000	96.786280 
3642.000000	96.783216 
3641.000000	96.781715 
3640.000000	96.780067 
3639.000000	96.773747 
3638.000000	96.763575 
3637.000000	96.755790 
3636.000000	96.750630 
3635.000000	96.740486 
3634.000000	96.722981 
3633.000000	96.707741 
3632.000000	96.701364 
3631.000000	96.697585 
3630.000000	96.690148 
3629.000000	96.677211 
3628.000000	96.664116 
3627.000000	96.663406 
3626.000000	96.667546 
3625.000000	96.659447 
3624.000000	96.643317 
3623.000000	96.632133 
3622.000000	96.626044 
3621.000000	96.616709 
3620.000000	96.604204 
3619.000000	96.596577 
3618.000000	96.600371 
3617.000000	96.616677 
3616.000000	96.638159 
3615.000000	96.655764 
3614.000000	96.668959 
3613.000000	96.683635 
3612.000000	96.702439 
3611.000000	96.719842 
3610.000000	96.728476 
3609.000000	96.729714 
3608.000000	96.732093 
3607.000000	96.739910 
3606.000000	96.749205 
3605.000000	96.754680 
3604.000000	96.757526 
3603.000000	96.762851 
3602.000000	96.770430 
3601.000000	96.774738 
3600.000000	96.773845 
3599.000000	96.770599 
3598.000000	96.767729 
3597.000000	96.768607 
3596.000000	96.774979 
3595.000000	96.784640 
3594.000000	96.792045 
3593.000000	96.793686 
3592.000000	96.789494 
3591.000000	96.780769 
3590.000000	96.769869 
3589.000000	96.762652 
3588.000000	96.764759 
3587.000000	96.775198 
3586.000000	96.788171 
3585.000000	96.798089 
3584.000000	96.802720 
3583.000000	96.804506 
3582.000000	96.807090 
3581.000000	96.811082 
3580.000000	96.814198 
3579.000000	96.814909 
3578.000000	96.813622 
3577.000000	96.812139 
3576.000000	96.811633 
3575.000000	96.811445 
3574.000000	96.809964 
3573.000000	96.805991 
3572.000000	96.799627 
3571.000000	96.791864 
3570.000000	96.783897 
3569.000000	96.777653 
3568.000000	96.776216 
3567.000000	96.780815 
3566.000000	96.788748 
3565.000000	96.795571 
3564.000000	96.798175 
3563.000000	96.796760 
3562.000000	96.794274 
3561.000000	96.793473 
3560.000000	96.794673 
3559.000000	96.796302 
3558.000000	96.796796 
3557.000000	96.795858 
3556.000000	96.794529 
3555.000000	96.793838 
3554.000000	96.793805 
3553.000000	96.793728 
3552.000000	96.793195 
3551.000000	96.792256 
3550.000000	96.790680 
3549.000000	96.788112 
3548.000000	96.785438 
3547.000000	96.784422 
3546.000000	96.785485 
3545.000000	96.787246 
3544.000000	96.788396 
3543.000000	96.788916 
3542.000000	96.789273 
3541.000000	96.789548 
3540.000000	96.789698 
3539.000000	96.789750 
3538.000000	96.789764 
3537.000000	96.789798 
3536.000000	96.789895 
3535.000000	96.790005 
3534.000000	96.789900 
3533.000000	96.789494 
3532.000000	96.789085 
3531.000000	96.789131 
3530.000000	96.789626 
3529.000000	96.789971 
3528.000000	96.789618 
3527.000000	96.788671 
3526.000000	96.787675 
3525.000000	96.787121 
3524.000000	96.787310 
3523.000000	96.788320 
3522.000000	96.789938 
3521.000000	96.791527 
3520.000000	96.792554 
3519.000000	96.793056 
3518.000000	96.793345 
3517.000000	96.793504 
3516.000000	96.793251 
3515.000000	96.792446 
3514.000000	96.791521 
3513.000000	96.791121 
3512.000000	96.791406 
3511.000000	96.792025 
3510.000000	96.792540 
3509.000000	96.792793 
3508.000000	96.792847 
3507.000000	96.792684 
3506.000000	96.792101 
3505.000000	96.791117 
3504.000000	96.790245 
3503.000000	96.790068 
3502.000000	96.790697 
3501.000000	96.791809 
3500.000000	96.793024 
3499.000000	96.794110 
3498.000000	96.794905 
3497.000000	96.795245 
3496.000000	96.795031 
3495.000000	96.794280 
3494.000000	96.793216 
3493.000000	96.792284 
3492.000000	96.791837 
3491.000000	96.791824 
3490.000000	96.791881 
3489.000000	96.791728 
3488.000000	96.791381 
3487.000000	96.790877 
3486.000000	96.790051 
3485.000000	96.788876 
3484.000000	96.787796 
3483.000000	96.787361 
3482.000000	96.787597 
3481.000000	96.788070 
3480.000000	96.788435 
3479.000000	96.788543 
3478.000000	96.788092 
3477.000000	96.786735 
3476.000000	96.784619 
3475.000000	96.782379 
3474.000000	96.780595 
3473.000000	96.779444 
3472.000000	96.778755 
3471.000000	96.778231 
3470.000000	96.777595 
3469.000000	96.776666 
3468.000000	96.775548 
3467.000000	96.774703 
3466.000000	96.774612 
3465.000000	96.775154 
3464.000000	96.775445 
3463.000000	96.774571 
3462.000000	96.772450 
3461.000000	96.769863 
3460.000000	96.767642 
3459.000000	96.765865 
3458.000000	96.764059 
3457.000000	96.761914 
3456.000000	96.759634 
3455.000000	96.757708 
3454.000000	96.756329 
3453.000000	96.755332 
3452.000000	96.754600 
3451.000000	96.754223 
3450.000000	96.754049 
3449.000000	96.753496 
3448.000000	96.752111 
3447.000000	96.750094 
3446.000000	96.748009 
3445.000000	96.746156 
3444.000000	96.744560 
3443.000000	96.743380 
3442.000000	96.742798 
3441.000000	96.742483 
3440.000000	96.741629 
3439.000000	96.739685 
3438.000000	96.736866 
3437.000000	96.733914 
3436.000000	96.731564 
3435.000000	96.730351 
3434.000000	96.730428 
3433.000000	96.731354 
3432.000000	96.732246 
3431.000000	96.732479 
3430.000000	96.732086 
3429.000000	96.731435 
3428.000000	96.730665 
3427.000000	96.729560 
3426.000000	96.728050 
3425.000000	96.726594 
3424.000000	96.725797 
3423.000000	96.725677 
3422.000000	96.725583 
3421.000000	96.724952 
3420.000000	96.723906 
3419.000000	96.722954 
3418.000000	96.722314 
3417.000000	96.721840 
3416.000000	96.721432 
3415.000000	96.721129 
3414.000000	96.720796 
3413.000000	96.720101 
3412.000000	96.718927 
3411.000000	96.717606 
3410.000000	96.716636 
3409.000000	96.716320 
3408.000000	96.716647 
3407.000000	96.717233 
3406.000000	96.717461 
3405.000000	96.716919 
3404.000000	96.715729 
3403.000000	96.714422 
3402.000000	96.713456 
3401.000000	96.712975 
3400.000000	96.712899 
3399.000000	96.713037 
3398.000000	96.713166 
3397.000000	96.713214 
3396.000000	96.713340 
3395.000000	96.713732 
3394.000000	96.714360 
3393.000000	96.715016 
3392.000000	96.715498 
3391.000000	96.715709 
3390.000000	96.715692 
3389.000000	96.715688 
3388.000000	96.716084 
3387.000000	96.717094 
3386.000000	96.718489 
3385.000000	96.719707 
3384.000000	96.720302 
3383.000000	96.720304 
3382.000000	96.720244 
3381.000000	96.720763 
3380.000000	96.722030 
3379.000000	96.723597 
3378.000000	96.724901 
3377.000000	96.725948 
3376.000000	96.727208 
3375.000000	96.728866 
3374.000000	96.730461 
3373.000000	96.731415 
3372.000000	96.731709 
3371.000000	96.731930 
3370.000000	96.732730 
3369.000000	96.734334 
3368.000000	96.736527 
3367.000000	96.738847 
3366.000000	96.740827 
3365.000000	96.742245 
3364.000000	96.743221 
3363.000000	96.744096 
3362.000000	96.745170 
3361.000000	96.746564 
3360.000000	96.748291 
3359.000000	96.750314 
3358.000000	96.752481 
3357.000000	96.754550 
3356.000000	96.756357 
3355.000000	96.757923 
3354.000000	96.759401 
3353.000000	96.760976 
3352.000000	96.762782 
3351.000000	96.764839 
3350.000000	96.767019 
3349.000000	96.769080 
3348.000000	96.770856 
3347.000000	96.772424 
3346.000000	96.774030 
3345.000000	96.775821 
3344.000000	96.777619 
3343.000000	96.779010 
3342.000000	96.779763 
3341.000000	96.780136 
3340.000000	96.780653 
3339.000000	96.781560 
3338.000000	96.782768 
3337.000000	96.784176 
3336.000000	96.785798 
3335.000000	96.787602 
3334.000000	96.789376 
3333.000000	96.790912 
3332.000000	96.792220 
3331.000000	96.793467 
3330.000000	96.794761 
3329.000000	96.796088 
3328.000000	96.797430 
3327.000000	96.798841 
3326.000000	96.800371 
3325.000000	96.801973 
3324.000000	96.803512 
3323.000000	96.804877 
3322.000000	96.806097 
3321.000000	96.807316 
3320.000000	96.808660 
3319.000000	96.810132 
3318.000000	96.811653 
3317.000000	96.813146 
3316.000000	96.814585 
3315.000000	96.815978 
3314.000000	96.817345 
3313.000000	96.818703 
3312.000000	96.820066 
3311.000000	96.821444 
3310.000000	96.822843 
3309.000000	96.824261 
3308.000000	96.825678 
3307.000000	96.827078 
3306.000000	96.828464 
3305.000000	96.829856 
3304.000000	96.831269 
3303.000000	96.832711 
3302.000000	96.834181 
3301.000000	96.835673 
3300.000000	96.837178 
3299.000000	96.838689 
3298.000000	96.840198 
3297.000000	96.841703 
3296.000000	96.843215 
3295.000000	96.844751 
3294.000000	96.846319 
3293.000000	96.847913 
3292.000000	96.849519 
3291.000000	96.851133 
3290.000000	96.852746 
3289.000000	96.854342 
3288.000000	96.855911 
3287.000000	96.857453 
3286.000000	96.858973 
3285.000000	96.860471 
3284.000000	96.861953 
3283.000000	96.863428 
3282.000000	96.864911 
3281.000000	96.866412 
3280.000000	96.867931 
3279.000000	96.869457 
3278.000000	96.870982 
3277.000000	96.872507 
3276.000000	96.874037 
3275.000000	96.875577 
3274.000000	96.877124 
3273.000000	96.878679 
3272.000000	96.880252 
3271.000000	96.881847 
3270.000000	96.883461 
3269.000000	96.885081 
3268.000000	96.886695 
3267.000000	96.888299 
3266.000000	96.889897 
3265.000000	96.891508 
3264.000000	96.893148 
3263.000000	96.894826 
3262.000000	96.896520 
3261.000000	96.898194 
3260.000000	96.899825 
3259.000000	96.901430 
3258.000000	96.903035 
3257.000000	96.904650 
3256.000000	96.906299 
3255.000000	96.908014 
3254.000000	96.909789 
3253.000000	96.911559 
3252.000000	96.913266 
3251.000000	96.914921 
3250.000000	96.916570 
3249.000000	96.918210 
3248.000000	96.919772 
3247.000000	96.921209 
3246.000000	96.922590 
3245.000000	96.924086 
3244.000000	96.925801 
3243.000000	96.927640 
3242.000000	96.929391 
3241.000000	96.931022 
3240.000000	96.932771 
3239.000000	96.934852 
3238.000000	96.937201 
3237.000000	96.939568 
3236.000000	96.941820 
3235.000000	96.943999 
3234.000000	96.946110 
3233.000000	96.948031 
3232.000000	96.949654 
3231.000000	96.951054 
3230.000000	96.952465 
3229.000000	96.954069 
3228.000000	96.955856 
3227.000000	96.957719 
3226.000000	96.959698 
3225.000000	96.962003 
3224.000000	96.964693 
3223.000000	96.967460 
3222.000000	96.969887 
3221.000000	96.971860 
3220.000000	96.973599 
3219.000000	96.975295 
3218.000000	96.976954 
3217.000000	96.978541 
3216.000000	96.980066 
3215.000000	96.981616 
3214.000000	96.983339 
3213.000000	96.985341 
3212.000000	96.987547 
3211.000000	96.989746 
3210.000000	96.991814 
3209.000000	96.993826 
3208.000000	96.995878 
3207.000000	96.997908 
3206.000000	96.999784 
3205.000000	97.001537 
3204.000000	97.003400 
3203.000000	97.005554 
3202.000000	97.007942 
3201.000000	97.010344 
3200.000000	97.012590 
3199.000000	97.014705 
3198.000000	97.016841 
3197.000000	97.019097 
3196.000000	97.021412 
3195.000000	97.023633 
3194.000000	97.025701 
3193.000000	97.027716 
3192.000000	97.029833 
3191.000000	97.032082 
3190.000000	97.034348 
3189.000000	97.036510 
3188.000000	97.038578 
3187.000000	97.040667 
3186.000000	97.042875 
3185.000000	97.045210 
3184.000000	97.047579 
3183.000000	97.049875 
3182.000000	97.052069 
3181.000000	97.054208 
3180.000000	97.056338 
3179.000000	97.058440 
3178.000000	97.060502 
3177.000000	97.062570 
3176.000000	97.064703 
3175.000000	97.066903 
3174.000000	97.069139 
3173.000000	97.071386 
3172.000000	97.073630 
3171.000000	97.075830 
3170.000000	97.077941 
3169.000000	97.079982 
3168.000000	97.082016 
3167.000000	97.084060 
3166.000000	97.086079 
3165.000000	97.088056 
3164.000000	97.090009 
3163.000000	97.091950 
3162.000000	97.093874 
3161.000000	97.095784 
3160.000000	97.097690 
3159.000000	97.099600 
3158.000000	97.101514 
3157.000000	97.103426 
3156.000000	97.105327 
3155.000000	97.107207 
3154.000000	97.109060 
3153.000000	97.110898 
3152.000000	97.112734 
3151.000000	97.114569 
3150.000000	97.116391 
3149.000000	97.118193 
3148.000000	97.119978 
3147.000000	97.121756 
3146.000000	97.123538 
3145.000000	97.125328 
3144.000000	97.127119 
3143.000000	97.128885 
3142.000000	97.130602 
3141.000000	97.132262 
3140.000000	97.133889 
3139.000000	97.135532 
3138.000000	97.137220 
3137.000000	97.138942 
3136.000000	97.140650 
3135.000000	97.142298 
3134.000000	97.143864 
3133.000000	97.145372 
3132.000000	97.146886 
3131.000000	97.148456 
3130.000000	97.150079 
3129.000000	97.151779 
3128.000000	97.153648 
3127.000000	97.155749 
3126.000000	97.157985 
3125.000000	97.160126 
3124.000000	97.161979 
3123.000000	97.163450 
3122.000000	97.164537 
3121.000000	97.165414 
3120.000000	97.166399 
3119.000000	97.167678 
3118.000000	97.169134 
3117.000000	97.170583 
3116.000000	97.172087 
3115.000000	97.173823 
3114.000000	97.175747 
3113.000000	97.177652 
3112.000000	97.179553 
3111.000000	97.181728 
3110.000000	97.184303 
3109.000000	97.186993 
3108.000000	97.189373 
3107.000000	97.191285 
3106.000000	97.192823 
3105.000000	97.194042 
3104.000000	97.194850 
3103.000000	97.195149 
3102.000000	97.195051 
3101.000000	97.194914 
3100.000000	97.195041 
3099.000000	97.195438 
3098.000000	97.196150 
3097.000000	97.197774 
3096.000000	97.200979 
3095.000000	97.205390 
3094.000000	97.209574 
3093.000000	97.212413 
3092.000000	97.214027 
3091.000000	97.214934 
3090.000000	97.215032 
3089.000000	97.214012 
3088.000000	97.212260 
3087.000000	97.210828 
3086.000000	97.210697 
3085.000000	97.212220 
3084.000000	97.214787 
3083.000000	97.216797 
3082.000000	97.216956 
3081.000000	97.216156 
3080.000000	97.216890 
3079.000000	97.219963 
3078.000000	97.223231 
3077.000000	97.224706 
3076.000000	97.225296 
3075.000000	97.226811 
3074.000000	97.228697 
3073.000000	97.229109 
3072.000000	97.228229 
3071.000000	97.227861 
3070.000000	97.228315 
3069.000000	97.228375 
3068.000000	97.228221 
3067.000000	97.229671 
3066.000000	97.233085 
3065.000000	97.236361 
3064.000000	97.237504 
3063.000000	97.236133 
3062.000000	97.232331 
3061.000000	97.226313 
3060.000000	97.219851 
3059.000000	97.216012 
3058.000000	97.216589 
3057.000000	97.220776 
3056.000000	97.226189 
3055.000000	97.229872 
3054.000000	97.228934 
3053.000000	97.222865 
3052.000000	97.215834 
3051.000000	97.213928 
3050.000000	97.218701 
3049.000000	97.225094 
3048.000000	97.226734 
3047.000000	97.221775 
3046.000000	97.212731 
3045.000000	97.202917 
3044.000000	97.194822 
3043.000000	97.190490 
3042.000000	97.190850 
3041.000000	97.193957 
3040.000000	97.195366 
3039.000000	97.191477 
3038.000000	97.182408 
3037.000000	97.171389 
3036.000000	97.161218 
3035.000000	97.151700 
3034.000000	97.141139 
3033.000000	97.129570 
3032.000000	97.118964 
3031.000000	97.110177 
3030.000000	97.101258 
3029.000000	97.089663 
3028.000000	97.074840 
3027.000000	97.057761 
3026.000000	97.039343 
3025.000000	97.020732 
3024.000000	97.003911 
3023.000000	96.989822 
3022.000000	96.976389 
3021.000000	96.960631 
3020.000000	96.942559 
3019.000000	96.924818 
3018.000000	96.908336 
3017.000000	96.890670 
3016.000000	96.869489 
3015.000000	96.845876 
3014.000000	96.823202 
3013.000000	96.803809 
3012.000000	96.787207 
3011.000000	96.770393 
3010.000000	96.749705 
3009.000000	96.723642 
3008.000000	96.694407 
3007.000000	96.665778 
3006.000000	96.639331 
3005.000000	96.613852 
3004.000000	96.588399 
3003.000000	96.564147 
3002.000000	96.542571 
3001.000000	96.523483 
3000.000000	96.505699 
2999.000000	96.488350 
2998.000000	96.470887 
2997.000000	96.453031 
2996.000000	96.435320 
2995.000000	96.418098 
2994.000000	96.398706 
2993.000000	96.371463 
2992.000000	96.333080 
2991.000000	96.288250 
2990.000000	96.248142 
2989.000000	96.222568 
2988.000000	96.214094 
2987.000000	96.218819 
2986.000000	96.230811 
2985.000000	96.245182 
2984.000000	96.258305 
2983.000000	96.267547 
2982.000000	96.272032 
2981.000000	96.272977 
2980.000000	96.272117 
2979.000000	96.269564 
2978.000000	96.263975 
2977.000000	96.255187 
2976.000000	96.245906 
2975.000000	96.240026 
2974.000000	96.239566 
2973.000000	96.243848 
2972.000000	96.251099 
2971.000000	96.260020 
2970.000000	96.270172 
2969.000000	96.282044 
2968.000000	96.296894 
2967.000000	96.315456 
2966.000000	96.336458 
2965.000000	96.357100 
2964.000000	96.375247 
2963.000000	96.390669 
2962.000000	96.404153 
2961.000000	96.416453 
2960.000000	96.428536 
2959.000000	96.441916 
2958.000000	96.457691 
2957.000000	96.475189 
2956.000000	96.491882 
2955.000000	96.504865 
2954.000000	96.513083 
2953.000000	96.518929 
2952.000000	96.527407 
2951.000000	96.542301 
2950.000000	96.562192 
2949.000000	96.580822 
2948.000000	96.592152 
2947.000000	96.594958 
2946.000000	96.592875 
2945.000000	96.591001 
2944.000000	96.592664 
2943.000000	96.598271 
2942.000000	96.605605 
2941.000000	96.611144 
2940.000000	96.612477 
2939.000000	96.610446 
2938.000000	96.608532 
2937.000000	96.609738 
2936.000000	96.614100 
2935.000000	96.619028 
2934.000000	96.621463 
2933.000000	96.619639 
2932.000000	96.613798 
2931.000000	96.606171 
2930.000000	96.600036 
2929.000000	96.597754 
2928.000000	96.599025 
2927.000000	96.601099 
2926.000000	96.601048 
2925.000000	96.598238 
2924.000000	96.594736 
2923.000000	96.593298 
2922.000000	96.594777 
2921.000000	96.597395 
2920.000000	96.598637 
2919.000000	96.597760 
2918.000000	96.595914 
2917.000000	96.593555 
2916.000000	96.588618 
2915.000000	96.578618 
2914.000000	96.564730 
2913.000000	96.552324 
2912.000000	96.546187 
2911.000000	96.545703 
2910.000000	96.545773 
2909.000000	96.542498 
2908.000000	96.536773 
2907.000000	96.531825 
2906.000000	96.528212 
2905.000000	96.522294 
2904.000000	96.510182 
2903.000000	96.493416 
2902.000000	96.480297 
2901.000000	96.480324 
2900.000000	96.496683 
2899.000000	96.523677 
2898.000000	96.551237 
2897.000000	96.572224 
2896.000000	96.585161 
2895.000000	96.591671 
2894.000000	96.594282 
2893.000000	96.596663 
2892.000000	96.602800 
2891.000000	96.613567 
2890.000000	96.625283 
2889.000000	96.633529 
2888.000000	96.637764 
2887.000000	96.640614 
2886.000000	96.643680 
2885.000000	96.646663 
2884.000000	96.650632 
2883.000000	96.659041 
2882.000000	96.673818 
2881.000000	96.692271 
2880.000000	96.709933 
2879.000000	96.725743 
2878.000000	96.742136 
2877.000000	96.760227 
2876.000000	96.777254 
2875.000000	96.789796 
2874.000000	96.797950 
2873.000000	96.804889 
2872.000000	96.813109 
2871.000000	96.822578 
2870.000000	96.832405 
2869.000000	96.842687 
2868.000000	96.854112 
2867.000000	96.866804 
2866.000000	96.880336 
2865.000000	96.894348 
2864.000000	96.908635 
2863.000000	96.923184 
2862.000000	96.938723 
2861.000000	96.956531 
2860.000000	96.976835 
2859.000000	96.997916 
2858.000000	97.017810 
2857.000000	97.036606 
2856.000000	97.055870 
2855.000000	97.075706 
2854.000000	97.093780 
2853.000000	97.107596 
2852.000000	97.116679 
2851.000000	97.122547 
2850.000000	97.127650 
2849.000000	97.134440 
2848.000000	97.144199 
2847.000000	97.155975 
2846.000000	97.167264 
2845.000000	97.176265 
2844.000000	97.183126 
2843.000000	97.188995 
2842.000000	97.194706 
2841.000000	97.200547 
2840.000000	97.206417 
2839.000000	97.211843 
2838.000000	97.216572 
2837.000000	97.221438 
2836.000000	97.227828 
2835.000000	97.235923 
2834.000000	97.244422 
2833.000000	97.252470 
2832.000000	97.260736 
2831.000000	97.269693 
2830.000000	97.277762 
2829.000000	97.282445 
2828.000000	97.283083 
2827.000000	97.281726 
2826.000000	97.281519 
2825.000000	97.284570 
2824.000000	97.290792 
2823.000000	97.297926 
2822.000000	97.303048 
2821.000000	97.304922 
2820.000000	97.304885 
2819.000000	97.305051 
2818.000000	97.306066 
2817.000000	97.307351 
2816.000000	97.309007 
2815.000000	97.312200 
2814.000000	97.317318 
2813.000000	97.322623 
2812.000000	97.325470 
2811.000000	97.324794 
2810.000000	97.322205 
2809.000000	97.320620 
2808.000000	97.321791 
2807.000000	97.325234 
2806.000000	97.329392 
2805.000000	97.333326 
2804.000000	97.336863 
2803.000000	97.339617 
2802.000000	97.340997 
2801.000000	97.341423 
2800.000000	97.342547 
2799.000000	97.345524 
2798.000000	97.349507 
2797.000000	97.352514 
2796.000000	97.353546 
2795.000000	97.353365 
2794.000000	97.353456 
2793.000000	97.354720 
2792.000000	97.357101 
2791.000000	97.359945 
2790.000000	97.362475 
2789.000000	97.364231 
2788.000000	97.365316 
2787.000000	97.366227 
2786.000000	97.367414 
2785.000000	97.368986 
2784.000000	97.370735 
2783.000000	97.372390 
2782.000000	97.373835 
2781.000000	97.375172 
2780.000000	97.376544 
2779.000000	97.377991 
2778.000000	97.379470 
2777.000000	97.380937 
2776.000000	97.382372 
2775.000000	97.383773 
2774.000000	97.385158 
2773.000000	97.386544 
2772.000000	97.387926 
2771.000000	97.389286 
2770.000000	97.390618 
2769.000000	97.391954 
2768.000000	97.393346 
2767.000000	97.394802 
2766.000000	97.396241 
2765.000000	97.397565 
2764.000000	97.398763 
2763.000000	97.399890 
2762.000000	97.400978 
2761.000000	97.402031 
2760.000000	97.403083 
2759.000000	97.404199 
2758.000000	97.405412 
2757.000000	97.406658 
2756.000000	97.407809 
2755.000000	97.408796 
2754.000000	97.409713 
2753.000000	97.410758 
2752.000000	97.412033 
2751.000000	97.413439 
2750.000000	97.414795 
2749.000000	97.416052 
2748.000000	97.417252 
2747.000000	97.418315 
2746.000000	97.419074 
2745.000000	97.419552 
2744.000000	97.420060 
2743.000000	97.420889 
2742.000000	97.422034 
2741.000000	97.423261 
2740.000000	97.424400 
2739.000000	97.425463 
2738.000000	97.426476 
2737.000000	97.427424 
2736.000000	97.428347 
2735.000000	97.429367 
2734.000000	97.430549 
2733.000000	97.431832 
2732.000000	97.433111 
2731.000000	97.434332 
2730.000000	97.435518 
2729.000000	97.436725 
2728.000000	97.437969 
2727.000000	97.439152 
2726.000000	97.440115 
2725.000000	97.440817 
2724.000000	97.441422 
2723.000000	97.442140 
2722.000000	97.443015 
2721.000000	97.443946 
2720.000000	97.444875 
2719.000000	97.445874 
2718.000000	97.447014 
2717.000000	97.448225 
2716.000000	97.449337 
2715.000000	97.450262 
2714.000000	97.451097 
2713.000000	97.452019 
2712.000000	97.453060 
2711.000000	97.454057 
2710.000000	97.454834 
2709.000000	97.455401 
2708.000000	97.455940 
2707.000000	97.456639 
2706.000000	97.457586 
2705.000000	97.458740 
2704.000000	97.459889 
2703.000000	97.460701 
2702.000000	97.461001 
2701.000000	97.461087 
2700.000000	97.461630 
2699.000000	97.463080 
2698.000000	97.465213 
2697.000000	97.467187 
2696.000000	97.468205 
2695.000000	97.468105 
2694.000000	97.467441 
2693.000000	97.467028 
2692.000000	97.467181 
2691.000000	97.467503 
2690.000000	97.467467 
2689.000000	97.467084 
2688.000000	97.466753 
2687.000000	97.466585 
2686.000000	97.466369 
2685.000000	97.466193 
2684.000000	97.466489 
2683.000000	97.467241 
2682.000000	97.467777 
2681.000000	97.467737 
2680.000000	97.467744 
2679.000000	97.468573 
2678.000000	97.470099 
2677.000000	97.471613 
2676.000000	97.472722 
2675.000000	97.473275 
2674.000000	97.472869 
2673.000000	97.471343 
2672.000000	97.469503 
2671.000000	97.468402 
2670.000000	97.468039 
2669.000000	97.467636 
2668.000000	97.467010 
2667.000000	97.466647 
2666.000000	97.466403 
2665.000000	97.465210 
2664.000000	97.462564 
2663.000000	97.459528 
2662.000000	97.457710 
2661.000000	97.457492 
2660.000000	97.457726 
2659.000000	97.456970 
2658.000000	97.454812 
2657.000000	97.452144 
2656.000000	97.450249 
2655.000000	97.449490 
2654.000000	97.448991 
2653.000000	97.447768 
2652.000000	97.446034 
2651.000000	97.444922 
2650.000000	97.445037 
2649.000000	97.445818 
2648.000000	97.446370 
2647.000000	97.446292 
2646.000000	97.445419 
2645.000000	97.443432 
2644.000000	97.440347 
2643.000000	97.437150 
2642.000000	97.435201 
2641.000000	97.434902 
2640.000000	97.435388 
2639.000000	97.435593 
2638.000000	97.435340 
2637.000000	97.435188 
2636.000000	97.435536 
2635.000000	97.436270 
2634.000000	97.437103 
2633.000000	97.437823 
2632.000000	97.438159 
2631.000000	97.437783 
2630.000000	97.436707 
2629.000000	97.435504 
2628.000000	97.434872 
2627.000000	97.435028 
2626.000000	97.435741 
2625.000000	97.436783 
2624.000000	97.438093 
2623.000000	97.439548 
2622.000000	97.440812 
2621.000000	97.441467 
2620.000000	97.441152 
2619.000000	97.439712 
2618.000000	97.437518 
2617.000000	97.435577 
2616.000000	97.434829 
2615.000000	97.435313 
2614.000000	97.436297 
2613.000000	97.437166 
2612.000000	97.437950 
2611.000000	97.438872 
2610.000000	97.439845 
2609.000000	97.440604 
2608.000000	97.441024 
2607.000000	97.441165 
2606.000000	97.441213 
2605.000000	97.441454 
2604.000000	97.442026 
2603.000000	97.442657 
2602.000000	97.442946 
2601.000000	97.442976 
2600.000000	97.443282 
2599.000000	97.444121 
2598.000000	97.445139 
2597.000000	97.445870 
2596.000000	97.446254 
2595.000000	97.446445 
2594.000000	97.446410 
2593.000000	97.446083 
2592.000000	97.445792 
2591.000000	97.445984 
2590.000000	97.446514 
2589.000000	97.446767 
2588.000000	97.446574 
2587.000000	97.446537 
2586.000000	97.447216 
2585.000000	97.448483 
2584.000000	97.449762 
2583.000000	97.450582 
2582.000000	97.450745 
2581.000000	97.450366 
2580.000000	97.449943 
2579.000000	97.450096 
2578.000000	97.451059 
2577.000000	97.452535 
2576.000000	97.453987 
2575.000000	97.454897 
2574.000000	97.454891 
2573.000000	97.454008 
2572.000000	97.452821 
2571.000000	97.451873 
2570.000000	97.451089 
2569.000000	97.450172 
2568.000000	97.449421 
2567.000000	97.449496 
2566.000000	97.450362 
2565.000000	97.451126 
2564.000000	97.451137 
2563.000000	97.450709 
2562.000000	97.450550 
2561.000000	97.451094 
2560.000000	97.452622 
2559.000000	97.455361 
2558.000000	97.458897 
2557.000000	97.461933 
2556.000000	97.463320 
2555.000000	97.463096 
2554.000000	97.462168 
2553.000000	97.461140 
2552.000000	97.459923 
2551.000000	97.458586 
2550.000000	97.457855 
2549.000000	97.458214 
2548.000000	97.458917 
2547.000000	97.458620 
2546.000000	97.457123 
2545.000000	97.455800 
2544.000000	97.455836 
2543.000000	97.456558 
2542.000000	97.456348 
2541.000000	97.454968 
2540.000000	97.453980 
2539.000000	97.454629 
2538.000000	97.456275 
2537.000000	97.457445 
2536.000000	97.457788 
2535.000000	97.458083 
2534.000000	97.458638 
2533.000000	97.458688 
2532.000000	97.457574 
2531.000000	97.455719 
2530.000000	97.454104 
2529.000000	97.453148 
2528.000000	97.452478 
2527.000000	97.451654 
2526.000000	97.450856 
2525.000000	97.450746 
2524.000000	97.451698 
2523.000000	97.453280 
2522.000000	97.454626 
2521.000000	97.455306 
2520.000000	97.455615 
2519.000000	97.455987 
2518.000000	97.456389 
2517.000000	97.456418 
2516.000000	97.455779 
2515.000000	97.454546 
2514.000000	97.453181 
2513.000000	97.452419 
2512.000000	97.452844 
2511.000000	97.454437 
2510.000000	97.456613 
2509.000000	97.458708 
2508.000000	97.460329 
2507.000000	97.461250 
2506.000000	97.461483 
2505.000000	97.461590 
2504.000000	97.462406 
2503.000000	97.464062 
2502.000000	97.465667 
2501.000000	97.466308 
2500.000000	97.466089 
2499.000000	97.465862 
2498.000000	97.466168 
2497.000000	97.466882 
2496.000000	97.467785 
2495.000000	97.468876 
2494.000000	97.470032 
2493.000000	97.470862 
2492.000000	97.471205 
2491.000000	97.471487 
2490.000000	97.472299 
2489.000000	97.473710 
2488.000000	97.475167 
2487.000000	97.476102 
2486.000000	97.476515 
2485.000000	97.476907 
2484.000000	97.477730 
2483.000000	97.478963 
2482.000000	97.480199 
2481.000000	97.481097 
2480.000000	97.481681 
2479.000000	97.482193 
2478.000000	97.482837 
2477.000000	97.483727 
2476.000000	97.484804 
2475.000000	97.485664 
2474.000000	97.485716 
2473.000000	97.484783 
2472.000000	97.483389 
2471.000000	97.482261 
2470.000000	97.481750 
2469.000000	97.481971 
2468.000000	97.483039 
2467.000000	97.484712 
2466.000000	97.486100 
2465.000000	97.486329 
2464.000000	97.485565 
2463.000000	97.485004 
2462.000000	97.485689 
2461.000000	97.487618 
2460.000000	97.489911 
2459.000000	97.491535 
2458.000000	97.491810 
2457.000000	97.490610 
2456.000000	97.488369 
2455.000000	97.485913 
2454.000000	97.484079 
2453.000000	97.483254 
2452.000000	97.483152 
2451.000000	97.483101 
2450.000000	97.482852 
2449.000000	97.482971 
2448.000000	97.484069 
2447.000000	97.485770 
2446.000000	97.486873 
2445.000000	97.486634 
2444.000000	97.485441 
2443.000000	97.484256 
2442.000000	97.483891 
2441.000000	97.484789 
2440.000000	97.486873 
2439.000000	97.489427 
2438.000000	97.491706 
2437.000000	97.493810 
2436.000000	97.496352 
2435.000000	97.499193 
2434.000000	97.501230 
2433.000000	97.501713 
2432.000000	97.501176 
2431.000000	97.500826 
2430.000000	97.501514 
2429.000000	97.503500 
2428.000000	97.506501 
2427.000000	97.509504 
2426.000000	97.511035 
2425.000000	97.510134 
2424.000000	97.507286 
2423.000000	97.504212 
2422.000000	97.502440 
2421.000000	97.502767 
2420.000000	97.505371 
2419.000000	97.509282 
2418.000000	97.512708 
2417.000000	97.514976 
2416.000000	97.517173 
2415.000000	97.520008 
2414.000000	97.522528 
2413.000000	97.524014 
2412.000000	97.525503 
2411.000000	97.527836 
2410.000000	97.529692 
2409.000000	97.529498 
2408.000000	97.528194 
2407.000000	97.528080 
2406.000000	97.529591 
2405.000000	97.531019 
2404.000000	97.531034 
2403.000000	97.529882 
2402.000000	97.528511 
2401.000000	97.528060 
2400.000000	97.529805 
2399.000000	97.534135 
2398.000000	97.539717 
2397.000000	97.544850 
2396.000000	97.549151 
2395.000000	97.552776 
2394.000000	97.554845 
2393.000000	97.554535 
2392.000000	97.553205 
2391.000000	97.553647 
2390.000000	97.557078 
2389.000000	97.562311 
2388.000000	97.567893 
2387.000000	97.573677 
2386.000000	97.579997 
2385.000000	97.586512 
2384.000000	97.592281 
2383.000000	97.595863 
2382.000000	97.595063 
2381.000000	97.588048 
2380.000000	97.575255 
2379.000000	97.559524 
2378.000000	97.543901 
2377.000000	97.530355 
2376.000000	97.521213 
2375.000000	97.519698 
2374.000000	97.526833 
2373.000000	97.538812 
2372.000000	97.549579 
2371.000000	97.556482 
2370.000000	97.560982 
2369.000000	97.564183 
2368.000000	97.564699 
2367.000000	97.561420 
2366.000000	97.555884 
2365.000000	97.550969 
2364.000000	97.548488 
2363.000000	97.548647 
2362.000000	97.550768 
2361.000000	97.553684 
2360.000000	97.556399 
2359.000000	97.558593 
2358.000000	97.559684 
2357.000000	97.559092 
2356.000000	97.556994 
2355.000000	97.554415 
2354.000000	97.551830 
2353.000000	97.549988 
2352.000000	97.549913 
2351.000000	97.551292 
2350.000000	97.552686 
2349.000000	97.553075 
2348.000000	97.552724 
2347.000000	97.552340 
2346.000000	97.552405 
2345.000000	97.552907 
2344.000000	97.553553 
2343.000000	97.554107 
2342.000000	97.554529 
2341.000000	97.554910 
2340.000000	97.555348 
2339.000000	97.555896 
2338.000000	97.556516 
2337.000000	97.557085 
2336.000000	97.557640 
2335.000000	97.558366 
2334.000000	97.559258 
2333.000000	97.559919 
2332.000000	97.560317 
2331.000000	97.560825 
2330.000000	97.561871 
2329.000000	97.563057 
2328.000000	97.564274 
2327.000000	97.565467 
2326.000000	97.566183 
2325.000000	97.565765 
2324.000000	97.565082 
2323.000000	97.565881 
2322.000000	97.567736 
2321.000000	97.567859 
2320.000000	97.565773 
2319.000000	97.563676 
2318.000000	97.563506 
2317.000000	97.562762 
2316.000000	97.559917 
2315.000000	97.555973 
2314.000000	97.555158 
2313.000000	97.558659 
2312.000000	97.566853 
2311.000000	97.577636 
2310.000000	97.587978 
2309.000000	97.592814 
2308.000000	97.591514 
2307.000000	97.587357 
2306.000000	97.584722 
2305.000000	97.584095 
2304.000000	97.585101 
2303.000000	97.587011 
2302.000000	97.590322 
2301.000000	97.593549 
2300.000000	97.595147 
2299.000000	97.592188 
2298.000000	97.583559 
2297.000000	97.568907 
2296.000000	97.551713 
2295.000000	97.536075 
2294.000000	97.524312 
2293.000000	97.515182 
2292.000000	97.507591 
2291.000000	97.501610 
2290.000000	97.496752 
2289.000000	97.491321 
2288.000000	97.484314 
2287.000000	97.476715 
2286.000000	97.469460 
2285.000000	97.463085 
2284.000000	97.458573 
2283.000000	97.457447 
2282.000000	97.458964 
2281.000000	97.459956 
2280.000000	97.457654 
2279.000000	97.451999 
2278.000000	97.444790 
2277.000000	97.438407 
2276.000000	97.435306 
2275.000000	97.436007 
2274.000000	97.438068 
2273.000000	97.439057 
2272.000000	97.440465 
2271.000000	97.445116 
2270.000000	97.451854 
2269.000000	97.456372 
2268.000000	97.457298 
2267.000000	97.457103 
2266.000000	97.457222 
2265.000000	97.456328 
2264.000000	97.453803 
2263.000000	97.450855 
2262.000000	97.447522 
2261.000000	97.442383 
2260.000000	97.435784 
2259.000000	97.430265 
2258.000000	97.427047 
2257.000000	97.425346 
2256.000000	97.425367 
2255.000000	97.428720 
2254.000000	97.434947 
2253.000000	97.440220 
2252.000000	97.441329 
2251.000000	97.438446 
2250.000000	97.433123 
2249.000000	97.426099 
2248.000000	97.418599 
2247.000000	97.413192 
2246.000000	97.411337 
2245.000000	97.411421 
2244.000000	97.410607 
2243.000000	97.407960 
2242.000000	97.404725 
2241.000000	97.402406 
2240.000000	97.401455 
2239.000000	97.401401 
2238.000000	97.401299 
2237.000000	97.400349 
2236.000000	97.398551 
2235.000000	97.396509 
2234.000000	97.394650 
2233.000000	97.392918 
2232.000000	97.391187 
2231.000000	97.389506 
2230.000000	97.387870 
2229.000000	97.386093 
2228.000000	97.384091 
2227.000000	97.382063 
2226.000000	97.380201 
2225.000000	97.378421 
2224.000000	97.376497 
2223.000000	97.374416 
2222.000000	97.372377 
2221.000000	97.370513 
2220.000000	97.368729 
2219.000000	97.366924 
2218.000000	97.365085 
2217.000000	97.363239 
2216.000000	97.361398 
2215.000000	97.359572 
2214.000000	97.357759 
2213.000000	97.355952 
2212.000000	97.354149 
2211.000000	97.352364 
2210.000000	97.350609 
2209.000000	97.348879 
2208.000000	97.347159 
2207.000000	97.345427 
2206.000000	97.343665 
2205.000000	97.341940 
2204.000000	97.340411 
2203.000000	97.339255 
2202.000000	97.338600 
2201.000000	97.338163 
2200.000000	97.336938 
2199.000000	97.333811 
2198.000000	97.328619 
2197.000000	97.322761 
2196.000000	97.318671 
2195.000000	97.317755 
2194.000000	97.318735 
2193.000000	97.319055 
2192.000000	97.318055 
2191.000000	97.317111 
2190.000000	97.316665 
2189.000000	97.315494 
2188.000000	97.313317 
2187.000000	97.311132 
2186.000000	97.307953 
2185.000000	97.300886 
2184.000000	97.291033 
2183.000000	97.285942 
2182.000000	97.291909 
2181.000000	97.305486 
2180.000000	97.315606 
2179.000000	97.315038 
2178.000000	97.306377 
2177.000000	97.297887 
2176.000000	97.295934 
2175.000000	97.301112 
2174.000000	97.309150 
2173.000000	97.314732 
2172.000000	97.315861 
2171.000000	97.314402 
2170.000000	97.311963 
2169.000000	97.307014 
2168.000000	97.297921 
2167.000000	97.287129 
2166.000000	97.279023 
2165.000000	97.273831 
2164.000000	97.266953 
2163.000000	97.255996 
2162.000000	97.246892 
2161.000000	97.250887 
2160.000000	97.275085 
2159.000000	97.315476 
2158.000000	97.357952 
2157.000000	97.388898 
2156.000000	97.404814 
2155.000000	97.410412 
2154.000000	97.411627 
2153.000000	97.412372 
2152.000000	97.414496 
2151.000000	97.416664 
2150.000000	97.414551 
2149.000000	97.406478 
2148.000000	97.398567 
2147.000000	97.399663 
2146.000000	97.410833 
2145.000000	97.424445 
2144.000000	97.434553 
2143.000000	97.443004 
2142.000000	97.452995 
2141.000000	97.462272 
2140.000000	97.467053 
2139.000000	97.469212 
2138.000000	97.474745 
2137.000000	97.486301 
2136.000000	97.500387 
2135.000000	97.510895 
2134.000000	97.513288 
2133.000000	97.507496 
2132.000000	97.499161 
2131.000000	97.495831 
2130.000000	97.499785 
2129.000000	97.505986 
2128.000000	97.508367 
2127.000000	97.506401 
2126.000000	97.503957 
2125.000000	97.503541 
2124.000000	97.503848 
2123.000000	97.502085 
2122.000000	97.496812 
2121.000000	97.488832 
2120.000000	97.480474 
2119.000000	97.473735 
2118.000000	97.468914 
2117.000000	97.465421 
2116.000000	97.463227 
2115.000000	97.462013 
2114.000000	97.459447 
2113.000000	97.453207 
2112.000000	97.445341 
2111.000000	97.441390 
2110.000000	97.444115 
2109.000000	97.450707 
2108.000000	97.456885 
2107.000000	97.460917 
2106.000000	97.462492 
2105.000000	97.461253 
2104.000000	97.458536 
2103.000000	97.457455 
2102.000000	97.458572 
2101.000000	97.458029 
2100.000000	97.452675 
2099.000000	97.445122 
2098.000000	97.441298 
2097.000000	97.443956 
2096.000000	97.450840 
2095.000000	97.457795 
2094.000000	97.461849 
2093.000000	97.462053 
2092.000000	97.459101 
2091.000000	97.454724 
2090.000000	97.450743 
2089.000000	97.448082 
2088.000000	97.446596 
2087.000000	97.445456 
2086.000000	97.443613 
2085.000000	97.440462 
2084.000000	97.436437 
2083.000000	97.432587 
2082.000000	97.429413 
2081.000000	97.426662 
2080.000000	97.424421 
2079.000000	97.423479 
2078.000000	97.423946 
2077.000000	97.424312 
2076.000000	97.422984 
2075.000000	97.420218 
2074.000000	97.417369 
2073.000000	97.414668 
2072.000000	97.411003 
2071.000000	97.405858 
2070.000000	97.400307 
2069.000000	97.395971 
2068.000000	97.393713 
2067.000000	97.393157 
2066.000000	97.392830 
2065.000000	97.390886 
2064.000000	97.386493 
2063.000000	97.380594 
2062.000000	97.375256 
2061.000000	97.372085 
2060.000000	97.371364 
2059.000000	97.372283 
2058.000000	97.373369 
2057.000000	97.373145 
2056.000000	97.370855 
2055.000000	97.366515 
2054.000000	97.360566 
2053.000000	97.353840 
2052.000000	97.347692 
2051.000000	97.343293 
2050.000000	97.340576 
2049.000000	97.338401 
2048.000000	97.336023 
2047.000000	97.333854 
2046.000000	97.332391 
2045.000000	97.331258 
2044.000000	97.329882 
2043.000000	97.328370 
2042.000000	97.327091 
2041.000000	97.326041 
2040.000000	97.325337 
2039.000000	97.325706 
2038.000000	97.327409 
2037.000000	97.329066 
2036.000000	97.328743 
2035.000000	97.326171 
2034.000000	97.323239 
2033.000000	97.322409 
2032.000000	97.324784 
2031.000000	97.329120 
2030.000000	97.332047 
2029.000000	97.330557 
2028.000000	97.324913 
2027.000000	97.318754 
2026.000000	97.315240 
2025.000000	97.314332 
2024.000000	97.314927 
2023.000000	97.317781 
2022.000000	97.324289 
2021.000000	97.332813 
2020.000000	97.338804 
2019.000000	97.338952 
2018.000000	97.333474 
2017.000000	97.325168 
2016.000000	97.317659 
2015.000000	97.313779 
2014.000000	97.313463 
2013.000000	97.313080 
2012.000000	97.309438 
2011.000000	97.304893 
2010.000000	97.305511 
2009.000000	97.313728 
2008.000000	97.325427 
2007.000000	97.335294 
2006.000000	97.342173 
2005.000000	97.347330 
2004.000000	97.350800 
2003.000000	97.351879 
2002.000000	97.351739 
2001.000000	97.351867 
2000.000000	97.351014 
1999.000000	97.345194 
1998.000000	97.331302 
1997.000000	97.311575 
1996.000000	97.293355 
1995.000000	97.283556 
1994.000000	97.283312 
1993.000000	97.287962 
1992.000000	97.291466 
1991.000000	97.291860 
1990.000000	97.291981 
1989.000000	97.294960 
1988.000000	97.299786 
1987.000000	97.301325 
1986.000000	97.295132 
1985.000000	97.282703 
1984.000000	97.270781 
1983.000000	97.264174 
1982.000000	97.261107 
1981.000000	97.257204 
1980.000000	97.253342 
1979.000000	97.254846 
1978.000000	97.262613 
1977.000000	97.270687 
1976.000000	97.273992 
1975.000000	97.274902 
1974.000000	97.279012 
1973.000000	97.288462 
1972.000000	97.301036 
1971.000000	97.312884 
1970.000000	97.320179 
1969.000000	97.320368 
1968.000000	97.314111 
1967.000000	97.305749 
1966.000000	97.300591 
1965.000000	97.301368 
1964.000000	97.307597 
1963.000000	97.317350 
1962.000000	97.328801 
1961.000000	97.340220 
1960.000000	97.349150 
1959.000000	97.352789 
1958.000000	97.350672 
1957.000000	97.346682 
1956.000000	97.346278 
1955.000000	97.350764 
1954.000000	97.356051 
1953.000000	97.358068 
1952.000000	97.356961 
1951.000000	97.355379 
1950.000000	97.355099 
1949.000000	97.356606 
1948.000000	97.360666 
1947.000000	97.367301 
1946.000000	97.374019 
1945.000000	97.377734 
1944.000000	97.378171 
1943.000000	97.377570 
1942.000000	97.377400 
1941.000000	97.377422 
1940.000000	97.377594 
1939.000000	97.378408 
1938.000000	97.379973 
1937.000000	97.382156 
1936.000000	97.385109 
1935.000000	97.388704 
1934.000000	97.391887 
1933.000000	97.393877 
1932.000000	97.395365 
1931.000000	97.397751 
1930.000000	97.401139 
1929.000000	97.403779 
1928.000000	97.404814 
1927.000000	97.405017 
1926.000000	97.405157 
1925.000000	97.404958 
1924.000000	97.404233 
1923.000000	97.404248 
1922.000000	97.405643 
1921.000000	97.407299 
1920.000000	97.408186 
1919.000000	97.408730 
1918.000000	97.409319 
1917.000000	97.408951 
1916.000000	97.407269 
1915.000000	97.405752 
1914.000000	97.405361 
1913.000000	97.405341 
1912.000000	97.404584 
1911.000000	97.403514 
1910.000000	97.403278 
1909.000000	97.403893 
1908.000000	97.404907 
1907.000000	97.405980 
1906.000000	97.406559 
1905.000000	97.405622 
1904.000000	97.402773 
1903.000000	97.399815 
1902.000000	97.398722 
1901.000000	97.399200 
1900.000000	97.399664 
1899.000000	97.399392 
1898.000000	97.398901 
1897.000000	97.398602 
1896.000000	97.398047 
1895.000000	97.396921 
1894.000000	97.395172 
1893.000000	97.392661 
1892.000000	97.389784 
1891.000000	97.388028 
1890.000000	97.388516 
1889.000000	97.390290 
1888.000000	97.391691 
1887.000000	97.392870 
1886.000000	97.394593 
1885.000000	97.396167 
1884.000000	97.396112 
1883.000000	97.394511 
1882.000000	97.393132 
1881.000000	97.393158 
1880.000000	97.394375 
1879.000000	97.395648 
1878.000000	97.395763 
1877.000000	97.394606 
1876.000000	97.393324 
1875.000000	97.393488 
1874.000000	97.395650 
1873.000000	97.398438 
1872.000000	97.400077 
1871.000000	97.400480 
1870.000000	97.400767 
1869.000000	97.401241 
1868.000000	97.401746 
1867.000000	97.403722 
1866.000000	97.407587 
1865.000000	97.410326 
1864.000000	97.409487 
1863.000000	97.407146 
1862.000000	97.407331 
1861.000000	97.410613 
1860.000000	97.414544 
1859.000000	97.418427 
1858.000000	97.423556 
1857.000000	97.429551 
1856.000000	97.434448 
1855.000000	97.438025 
1854.000000	97.441527 
1853.000000	97.443907 
1852.000000	97.444481 
1851.000000	97.445053 
1850.000000	97.446638 
1849.000000	97.448725 
1848.000000	97.450641 
1847.000000	97.453546 
1846.000000	97.458180 
1845.000000	97.463339 
1844.000000	97.466873 
1843.000000	97.469418 
1842.000000	97.473049 
1841.000000	97.475771 
1840.000000	97.476140 
1839.000000	97.476593 
1838.000000	97.479529 
1837.000000	97.482605 
1836.000000	97.481892 
1835.000000	97.479227 
1834.000000	97.479129 
1833.000000	97.481481 
1832.000000	97.482913 
1831.000000	97.481632 
1830.000000	97.478739 
1829.000000	97.476755 
1828.000000	97.477026 
1827.000000	97.479081 
1826.000000	97.482114 
1825.000000	97.485903 
1824.000000	97.488437 
1823.000000	97.488386 
1822.000000	97.486800 
1821.000000	97.485029 
1820.000000	97.483958 
1819.000000	97.484350 
1818.000000	97.488108 
1817.000000	97.494142 
1816.000000	97.496767 
1815.000000	97.494122 
1814.000000	97.490081 
1813.000000	97.489070 
1812.000000	97.489660 
1811.000000	97.487193 
1810.000000	97.482757 
1809.000000	97.479906 
1808.000000	97.478708 
1807.000000	97.477582 
1806.000000	97.476047 
1805.000000	97.473489 
1804.000000	97.468888 
1803.000000	97.464493 
1802.000000	97.463139 
1801.000000	97.464151 
1800.000000	97.463116 
1799.000000	97.457951 
1798.000000	97.453459 
1797.000000	97.452532 
1796.000000	97.453111 
1795.000000	97.452979 
1794.000000	97.453101 
1793.000000	97.456130 
1792.000000	97.461477 
1791.000000	97.466531 
1790.000000	97.471459 
1789.000000	97.474908 
1788.000000	97.475237 
1787.000000	97.474136 
1786.000000	97.475191 
1785.000000	97.478263 
1784.000000	97.479778 
1783.000000	97.479628 
1782.000000	97.479175 
1781.000000	97.480068 
1780.000000	97.483203 
1779.000000	97.486913 
1778.000000	97.490406 
1777.000000	97.493053 
1776.000000	97.495462 
1775.000000	97.497468 
1774.000000	97.497788 
1773.000000	97.496902 
1772.000000	97.496689 
1771.000000	97.497994 
1770.000000	97.500901 
1769.000000	97.504603 
1768.000000	97.507985 
1767.000000	97.510233 
1766.000000	97.511195 
1765.000000	97.511652 
1764.000000	97.512352 
1763.000000	97.513592 
1762.000000	97.515017 
1761.000000	97.516299 
1760.000000	97.517521 
1759.000000	97.518761 
1758.000000	97.520034 
1757.000000	97.521296 
1756.000000	97.522546 
1755.000000	97.523698 
1754.000000	97.524748 
1753.000000	97.525753 
1752.000000	97.526752 
1751.000000	97.527727 
1750.000000	97.528657 
1749.000000	97.529516 
1748.000000	97.530287 
1747.000000	97.530977 
1746.000000	97.531586 
1745.000000	97.532138 
1744.000000	97.532685 
1743.000000	97.533229 
1742.000000	97.533687 
1741.000000	97.533969 
1740.000000	97.534079 
1739.000000	97.534150 
1738.000000	97.534342 
1737.000000	97.534548 
1736.000000	97.534522 
1735.000000	97.534441 
1734.000000	97.534504 
1733.000000	97.534368 
1732.000000	97.534290 
1731.000000	97.534543 
1730.000000	97.535072 
1729.000000	97.535559 
1728.000000	97.535635 
1727.000000	97.535273 
1726.000000	97.534668 
1725.000000	97.534286 
1724.000000	97.534212 
1723.000000	97.534147 
1722.000000	97.534044 
1721.000000	97.533722 
1720.000000	97.532913 
1719.000000	97.531820 
1718.000000	97.531295 
1717.000000	97.531328 
1716.000000	97.530871 
1715.000000	97.529789 
1714.000000	97.528714 
1713.000000	97.527673 
1712.000000	97.526159 
1711.000000	97.524299 
1710.000000	97.522619 
1709.000000	97.521116 
1708.000000	97.519421 
1707.000000	97.517441 
1706.000000	97.515531 
1705.000000	97.513796 
1704.000000	97.511971 
1703.000000	97.509894 
1702.000000	97.507627 
1701.000000	97.505443 
1700.000000	97.503195 
1699.000000	97.500836 
1698.000000	97.498641 
1697.000000	97.496402 
1696.000000	97.493941 
1695.000000	97.491291 
1694.000000	97.488626 
1693.000000	97.485920 
1692.000000	97.483134 
1691.000000	97.480268 
1690.000000	97.477337 
1689.000000	97.474361 
1688.000000	97.471353 
1687.000000	97.468314 
1686.000000	97.465252 
1685.000000	97.462176 
1684.000000	97.459092 
1683.000000	97.455997 
1682.000000	97.452891 
1681.000000	97.449766 
1680.000000	97.446624 
1679.000000	97.443467 
1678.000000	97.440295 
1677.000000	97.437103 
1676.000000	97.433890 
1675.000000	97.430661 
1674.000000	97.427426 
1673.000000	97.424198 
1672.000000	97.420994 
1671.000000	97.417825 
1670.000000	97.414699 
1669.000000	97.411611 
1668.000000	97.408557 
1667.000000	97.405531 
1666.000000	97.402521 
1665.000000	97.399527 
1664.000000	97.396548 
1663.000000	97.393602 
1662.000000	97.390711 
1661.000000	97.387838 
1660.000000	97.384984 
1659.000000	97.382170 
1658.000000	97.379363 
1657.000000	97.376548 
1656.000000	97.373807 
1655.000000	97.371221 
1654.000000	97.369132 
1653.000000	97.366887 
1652.000000	97.363069 
1651.000000	97.359615 
1650.000000	97.357124 
1649.000000	97.354299 
1648.000000	97.351853 
1647.000000	97.350940 
1646.000000	97.350471 
1645.000000	97.349214 
1644.000000	97.347592 
1643.000000	97.346214 
1642.000000	97.345059 
1641.000000	97.343669 
1640.000000	97.342381 
1639.000000	97.341474 
1638.000000	97.340926 
1637.000000	97.340859 
1636.000000	97.341617 
1635.000000	97.341186 
1634.000000	97.339941 
1633.000000	97.340417 
1632.000000	97.340742 
1631.000000	97.340674 
1630.000000	97.340827 
1629.000000	97.340726 
1628.000000	97.340176 
1627.000000	97.340923 
1626.000000	97.343100 
1625.000000	97.344745 
1624.000000	97.346024 
1623.000000	97.348975 
1622.000000	97.353147 
1621.000000	97.356463 
1620.000000	97.359014 
1619.000000	97.361413 
1618.000000	97.364467 
1617.000000	97.365680 
1616.000000	97.363498 
1615.000000	97.364404 
1614.000000	97.370386 
1613.000000	97.374583 
1612.000000	97.374500 
1611.000000	97.374874 
1610.000000	97.377830 
1609.000000	97.381651 
1608.000000	97.387903 
1607.000000	97.399546 
1606.000000	97.411051 
1605.000000	97.415789 
1604.000000	97.418022 
1603.000000	97.423479 
1602.000000	97.430638 
1601.000000	97.435103 
1600.000000	97.438027 
1599.000000	97.442593 
1598.000000	97.447380 
1597.000000	97.450173 
1596.000000	97.452979 
1595.000000	97.459097 
1594.000000	97.466963 
1593.000000	97.472296 
1592.000000	97.475211 
1591.000000	97.479005 
1590.000000	97.483600 
1589.000000	97.486504 
1588.000000	97.488919 
1587.000000	97.494266 
1586.000000	97.501233 
1585.000000	97.503935 
1584.000000	97.504411 
1583.000000	97.508440 
1582.000000	97.512557 
1581.000000	97.512211 
1580.000000	97.511977 
1579.000000	97.517231 
1578.000000	97.525027 
1577.000000	97.531479 
1576.000000	97.532992 
1575.000000	97.531871 
1574.000000	97.533933 
1573.000000	97.536248 
1572.000000	97.536077 
1571.000000	97.537617 
1570.000000	97.540889 
1569.000000	97.537624 
1568.000000	97.532623 
1567.000000	97.531881 
1566.000000	97.528979 
1565.000000	97.520572 
1564.000000	97.514409 
1563.000000	97.514238 
1562.000000	97.510207 
1561.000000	97.492447 
1560.000000	97.484966 
1559.000000	97.505518 
1558.000000	97.508281 
1557.000000	97.496390 
1556.000000	97.491124 
1555.000000	97.490062 
1554.000000	97.486659 
1553.000000	97.477537 
1552.000000	97.466914 
1551.000000	97.457204 
1550.000000	97.450419 
1549.000000	97.442668 
1548.000000	97.429155 
1547.000000	97.410865 
1546.000000	97.389694 
1545.000000	97.371223 
1544.000000	97.359526 
1543.000000	97.351006 
1542.000000	97.341074 
1541.000000	97.329902 
1540.000000	97.311006 
1539.000000	97.281243 
1538.000000	97.256208 
1537.000000	97.239692 
1536.000000	97.219522 
1535.000000	97.196672 
1534.000000	97.179268 
1533.000000	97.168566 
1532.000000	97.157557 
1531.000000	97.140424 
1530.000000	97.117527 
1529.000000	97.091748 
1528.000000	97.067092 
1527.000000	97.047526 
1526.000000	97.031803 
1525.000000	97.014908 
1524.000000	96.993826 
1523.000000	96.969376 
1522.000000	96.947185 
1521.000000	96.928002 
1520.000000	96.906745 
1519.000000	96.880726 
1518.000000	96.850004 
1517.000000	96.821066 
1516.000000	96.798973 
1515.000000	96.781461 
1514.000000	96.763204 
1513.000000	96.741578 
1512.000000	96.716339 
1511.000000	96.688006 
1510.000000	96.659039 
1509.000000	96.632031 
1508.000000	96.611676 
1507.000000	96.597376 
1506.000000	96.575692 
1505.000000	96.545067 
1504.000000	96.516848 
1503.000000	96.490884 
1502.000000	96.464218 
1501.000000	96.437131 
1500.000000	96.410716 
1499.000000	96.384682 
1498.000000	96.358673 
1497.000000	96.334588 
1496.000000	96.312213 
1495.000000	96.291508 
1494.000000	96.273454 
1493.000000	96.255704 
1492.000000	96.235833 
1491.000000	96.216289 
1490.000000	96.201732 
1489.000000	96.189083 
1488.000000	96.168540 
1487.000000	96.139401 
1486.000000	96.110082 
1485.000000	96.080483 
1484.000000	96.049156 
1483.000000	96.018707 
1482.000000	95.992928 
1481.000000	95.972775 
1480.000000	95.952472 
1479.000000	95.928353 
1478.000000	95.902212 
1477.000000	95.878685 
1476.000000	95.856922 
1475.000000	95.835063 
1474.000000	95.813219 
1473.000000	95.795069 
1472.000000	95.781478 
1471.000000	95.767414 
1470.000000	95.751557 
1469.000000	95.731940 
1468.000000	95.707009 
1467.000000	95.680090 
1466.000000	95.656564 
1465.000000	95.639151 
1464.000000	95.627144 
1463.000000	95.613452 
1462.000000	95.593052 
1461.000000	95.566131 
1460.000000	95.538198 
1459.000000	95.515155 
1458.000000	95.500576 
1457.000000	95.490087 
1456.000000	95.472709 
1455.000000	95.452057 
1454.000000	95.430135 
1453.000000	95.408686 
1452.000000	95.395813 
1451.000000	95.393556 
1450.000000	95.399096 
1449.000000	95.410628 
1448.000000	95.424843 
1447.000000	95.435558 
1446.000000	95.435281 
1445.000000	95.426702 
1444.000000	95.420263 
1443.000000	95.416643 
1442.000000	95.413042 
1441.000000	95.409503 
1440.000000	95.408072 
1439.000000	95.405020 
1438.000000	95.400829 
1437.000000	95.405351 
1436.000000	95.418564 
1435.000000	95.427383 
1434.000000	95.426521 
1433.000000	95.422122 
1432.000000	95.421646 
1431.000000	95.426813 
1430.000000	95.434358 
1429.000000	95.443274 
1428.000000	95.451306 
1427.000000	95.456791 
1426.000000	95.458205 
1425.000000	95.461363 
1424.000000	95.474978 
1423.000000	95.491086 
1422.000000	95.496843 
1421.000000	95.492495 
1420.000000	95.492191 
1419.000000	95.501408 
1418.000000	95.509865 
1417.000000	95.514398 
1416.000000	95.518853 
1415.000000	95.522324 
1414.000000	95.520881 
1413.000000	95.516646 
1412.000000	95.516942 
1411.000000	95.523271 
1410.000000	95.531545 
1409.000000	95.540519 
1408.000000	95.551434 
1407.000000	95.567308 
1406.000000	95.590142 
1405.000000	95.621760 
1404.000000	95.662014 
1403.000000	95.701392 
1402.000000	95.731772 
1401.000000	95.757149 
1400.000000	95.789931 
1399.000000	95.832351 
1398.000000	95.868866 
1397.000000	95.884874 
1396.000000	95.883630 
1395.000000	95.884886 
1394.000000	95.906121 
1393.000000	95.950767 
1392.000000	96.009930 
1391.000000	96.068281 
1390.000000	96.114992 
1389.000000	96.149740 
1388.000000	96.178677 
1387.000000	96.205176 
1386.000000	96.227226 
1385.000000	96.245315 
1384.000000	96.265337 
1383.000000	96.290291 
1382.000000	96.318192 
1381.000000	96.346090 
1380.000000	96.374455 
1379.000000	96.406027 
1378.000000	96.440346 
1377.000000	96.474171 
1376.000000	96.506588 
1375.000000	96.540814 
1374.000000	96.578306 
1373.000000	96.616310 
1372.000000	96.651830 
1371.000000	96.685245 
1370.000000	96.718092 
1369.000000	96.751230 
1368.000000	96.784365 
1367.000000	96.813928 
1366.000000	96.837622 
1365.000000	96.858869 
1364.000000	96.885058 
1363.000000	96.919324 
1362.000000	96.955656 
1361.000000	96.986412 
1360.000000	97.011605 
1359.000000	97.035681 
1358.000000	97.060142 
1357.000000	97.083509 
1356.000000	97.105198 
1355.000000	97.125525 
1354.000000	97.144586 
1353.000000	97.163031 
1352.000000	97.181334 
1351.000000	97.200722 
1350.000000	97.220935 
1349.000000	97.239720 
1348.000000	97.256233 
1347.000000	97.270771 
1346.000000	97.284748 
1345.000000	97.298499 
1344.000000	97.310643 
1343.000000	97.319330 
1342.000000	97.325808 
1341.000000	97.335190 
1340.000000	97.351693 
1339.000000	97.372306 
1338.000000	97.389552 
1337.000000	97.400465 
1336.000000	97.407369 
1335.000000	97.412019 
1334.000000	97.414571 
1333.000000	97.416837 
1332.000000	97.421928 
1331.000000	97.430204 
1330.000000	97.438763 
1329.000000	97.445957 
1328.000000	97.453264 
1327.000000	97.462027 
1326.000000	97.470419 
1325.000000	97.475725 
1324.000000	97.477626 
1323.000000	97.476935 
1322.000000	97.474644 
1321.000000	97.472890 
1320.000000	97.474633 
1319.000000	97.480590 
1318.000000	97.488435 
1317.000000	97.495672 
1316.000000	97.501344 
1315.000000	97.504904 
1314.000000	97.506487 
1313.000000	97.508607 
1312.000000	97.514107 
1311.000000	97.521747 
1310.000000	97.526899 
1309.000000	97.527544 
1308.000000	97.526538 
1307.000000	97.527682 
1306.000000	97.531421 
1305.000000	97.536064 
1304.000000	97.540675 
1303.000000	97.544076 
1302.000000	97.544176 
1301.000000	97.540366 
1300.000000	97.535390 
1299.000000	97.532711 
1298.000000	97.533030 
1297.000000	97.534356 
1296.000000	97.534753 
1295.000000	97.534003 
1294.000000	97.533370 
1293.000000	97.534493 
1292.000000	97.537548 
1291.000000	97.540567 
1290.000000	97.541672 
1289.000000	97.541503 
1288.000000	97.541735 
1287.000000	97.541851 
1286.000000	97.539812 
1285.000000	97.535930 
1284.000000	97.533338 
1283.000000	97.533829 
1282.000000	97.535315 
1281.000000	97.534437 
1280.000000	97.530544 
1279.000000	97.526046 
1278.000000	97.524122 
1277.000000	97.526798 
1276.000000	97.533372 
1275.000000	97.540057 
1274.000000	97.542762 
1273.000000	97.541216 
1272.000000	97.538734 
1271.000000	97.537323 
1270.000000	97.534994 
1269.000000	97.529199 
1268.000000	97.520888 
1267.000000	97.513027 
1266.000000	97.506738 
1265.000000	97.501140 
1264.000000	97.495821 
1263.000000	97.491268 
1262.000000	97.487260 
1261.000000	97.482805 
1260.000000	97.478059 
1259.000000	97.474479 
1258.000000	97.472301 
1257.000000	97.469132 
1256.000000	97.461900 
1255.000000	97.450358 
1254.000000	97.437836 
1253.000000	97.427620 
1252.000000	97.418905 
1251.000000	97.408226 
1250.000000	97.395571 
1249.000000	97.386915 
1248.000000	97.388382 
1247.000000	97.398305 
1246.000000	97.407001 
1245.000000	97.404510 
1244.000000	97.387961 
1243.000000	97.363821 
1242.000000	97.344979 
1241.000000	97.342533 
1240.000000	97.355841 
1239.000000	97.370923 
1238.000000	97.372413 
1237.000000	97.357126 
1236.000000	97.333239 
1235.000000	97.308219 
1234.000000	97.282590 
1233.000000	97.255168 
1232.000000	97.227899 
1231.000000	97.202763 
1230.000000	97.178521 
1229.000000	97.153546 
1228.000000	97.128374 
1227.000000	97.102701 
1226.000000	97.072959 
1225.000000	97.035861 
1224.000000	96.992021 
1223.000000	96.943590 
1222.000000	96.890580 
1221.000000	96.832017 
1220.000000	96.768722 
1219.000000	96.702246 
1218.000000	96.632484 
1217.000000	96.558453 
1216.000000	96.479790 
1215.000000	96.395743 
1214.000000	96.305136 
1213.000000	96.209918 
1212.000000	96.115993 
1211.000000	96.026740 
1210.000000	95.937492 
1209.000000	95.840663 
1208.000000	95.735410 
1207.000000	95.628381 
1206.000000	95.525409 
1205.000000	95.426013 
1204.000000	95.326143 
1203.000000	95.222985 
1202.000000	95.116802 
1201.000000	95.010502 
1200.000000	94.907378 
1199.000000	94.807498 
1198.000000	94.707098 
1197.000000	94.603312 
1196.000000	94.497724 
1195.000000	94.393132 
1194.000000	94.289028 
1193.000000	94.183155 
1192.000000	94.075413 
1191.000000	93.966656 
1190.000000	93.855531 
1189.000000	93.740235 
1188.000000	93.621719 
1187.000000	93.501509 
1186.000000	93.378308 
1185.000000	93.250693 
1184.000000	93.120897 
1183.000000	92.991383 
1182.000000	92.859837 
1181.000000	92.722526 
1180.000000	92.580445 
1179.000000	92.436424 
1178.000000	92.288100 
1177.000000	92.130332 
1176.000000	91.963483 
1175.000000	91.792819 
1174.000000	91.620542 
1173.000000	91.445174 
1172.000000	91.268195 
1171.000000	91.093644 
1170.000000	90.921040 
1169.000000	90.746573 
1168.000000	90.572439 
1167.000000	90.408182 
1166.000000	90.262700 
1165.000000	90.142942 
1164.000000	90.060522 
1163.000000	90.029252 
1162.000000	90.051828 
1161.000000	90.114285 
1160.000000	90.194204 
1159.000000	90.268437 
1158.000000	90.314741 
1157.000000	90.316681 
1156.000000	90.271091 
1155.000000	90.186526 
1154.000000	90.073797 
1153.000000	89.942007 
1152.000000	89.801747 
1151.000000	89.663435 
1150.000000	89.530270 
1149.000000	89.399105 
1148.000000	89.269079 
1147.000000	89.142597 
1146.000000	89.017800 
1145.000000	88.888612 
1144.000000	88.753938 
1143.000000	88.619270 
1142.000000	88.487654 
1141.000000	88.356500 
1140.000000	88.224598 
1139.000000	88.094522 
1138.000000	87.966603 
1137.000000	87.838062 
1136.000000	87.709185 
1135.000000	87.582627 
1134.000000	87.455810 
1133.000000	87.322429 
1132.000000	87.182456 
1131.000000	87.042251 
1130.000000	86.903956 
1129.000000	86.763706 
1128.000000	86.621237 
1127.000000	86.481484 
1126.000000	86.344862 
1125.000000	86.205454 
1124.000000	86.060994 
1123.000000	85.915633 
1122.000000	85.771127 
1121.000000	85.624539 
1120.000000	85.476239 
1119.000000	85.330356 
1118.000000	85.185805 
1117.000000	85.037463 
1116.000000	84.887614 
1115.000000	84.745134 
1114.000000	84.611576 
1113.000000	84.479353 
1112.000000	84.345265 
1111.000000	84.213393 
1110.000000	84.083590 
1109.000000	83.950588 
1108.000000	83.815139 
1107.000000	83.683566 
1106.000000	83.555407 
1105.000000	83.423770 
1104.000000	83.288881 
1103.000000	83.158219 
1102.000000	83.032818 
1101.000000	82.906819 
1100.000000	82.781331 
1099.000000	82.664452 
1098.000000	82.556669 
1097.000000	82.450248 
1096.000000	82.343240 
1095.000000	82.239693 
1094.000000	82.135505 
1093.000000	82.020389 
1092.000000	81.896138 
1091.000000	81.777698 
1090.000000	81.673523 
1089.000000	81.578978 
1088.000000	81.490111 
1087.000000	81.408337 
1086.000000	81.329954 
1085.000000	81.247155 
1084.000000	81.161831 
1083.000000	81.083482 
1082.000000	81.012355 
1081.000000	80.940329 
1080.000000	80.869011 
1079.000000	80.809654 
1078.000000	80.763350 
1077.000000	80.718447 
1076.000000	80.669328 
1075.000000	80.620162 
1074.000000	80.568516 
1073.000000	80.503137 
1072.000000	80.418787 
1071.000000	80.313955 
1070.000000	80.173068 
1069.000000	79.974223 
1068.000000	79.721740 
1067.000000	79.453627 
1066.000000	79.208110 
1065.000000	78.995371 
1064.000000	78.805985 
1063.000000	78.626172 
1062.000000	78.436760 
1061.000000	78.218072 
1060.000000	77.969812 
1059.000000	77.715367 
1058.000000	77.478609 
1057.000000	77.266209 
1056.000000	77.074435 
1055.000000	76.896663 
1054.000000	76.719619 
1053.000000	76.529746 
1052.000000	76.330782 
1051.000000	76.140030 
1050.000000	75.961859 
1049.000000	75.782476 
1048.000000	75.594652 
1047.000000	75.406765 
1046.000000	75.223896 
1045.000000	75.040762 
1044.000000	74.856337 
1043.000000	74.676333 
1042.000000	74.498094 
1041.000000	74.310910 
1040.000000	74.115183 
1039.000000	73.925307 
1038.000000	73.751514 
1037.000000	73.594767 
1036.000000	73.458776 
1035.000000	73.348008 
1034.000000	73.253605 
1033.000000	73.160168 
1032.000000	73.065737 
1031.000000	72.976229 
1030.000000	72.885253 
1029.000000	72.784435 
1028.000000	72.690930 
1027.000000	72.635741 
1026.000000	72.621963 
1025.000000	72.619889 
1024.000000	72.606316 
1023.000000	72.583363 
1022.000000	72.555626 
1021.000000	72.517380 
1020.000000	72.469278 
1019.000000	72.422956 
1018.000000	72.381613 
1017.000000	72.337157 
1016.000000	72.290875 
1015.000000	72.254784 
1014.000000	72.228788 
1013.000000	72.199343 
1012.000000	72.164550 
1011.000000	72.137841 
1010.000000	72.123478 
1009.000000	72.111669 
1008.000000	72.101512 
1007.000000	72.105182 
1006.000000	72.125309 
1005.000000	72.151208 
1004.000000	72.181021 
1003.000000	72.224291 
1002.000000	72.278984 
1001.000000	72.329948 
1000.000000	72.374845 
999.000000	 72.428443 
998.000000	 72.496498 
997.000000	 72.568175 
996.000000	 72.638737 
995.000000	 72.717123 
994.000000	 72.806120 
993.000000	 72.897003 
992.000000	 72.988285 
991.000000	 73.088457 
990.000000	 73.196629 
989.000000	 73.302194 
988.000000	 73.406916 
987.000000	 73.525211 
986.000000	 73.659642 
985.000000	 73.798927 
984.000000	 73.942845 
983.000000	 74.104759 
982.000000	 74.285435 
981.000000	 74.468362 
980.000000	 74.646555 
979.000000	 74.831550 
978.000000	 75.029885 
977.000000	 75.233338 
976.000000	 75.438637 
975.000000	 75.654999 
974.000000	 75.884821 
973.000000	 76.117000 
972.000000	 76.346444 
971.000000	 76.581791 
970.000000	 76.827571 
969.000000	 77.076237 
968.000000	 77.323063 
967.000000	 77.572099 
966.000000	 77.823072 
965.000000	 78.069072 
964.000000	 78.310778 
963.000000	 78.556645 
962.000000	 78.806270 
961.000000	 79.049974 
960.000000	 79.286636 
959.000000	 79.524671 
958.000000	 79.763430 
957.000000	 79.991387 
956.000000	 80.205595 
955.000000	 80.415992 
954.000000	 80.627867 
953.000000	 80.836281 
952.000000	 81.039713 
951.000000	 81.242269 
950.000000	 81.440404 
949.000000	 81.624514 
948.000000	 81.795907 
947.000000	 81.965744 
946.000000	 82.135221 
945.000000	 82.293612 
944.000000	 82.438143 
943.000000	 82.578916 
942.000000	 82.721485 
941.000000	 82.861067 
940.000000	 82.997272 
939.000000	 83.137966 
938.000000	 83.284633 
937.000000	 83.429450 
936.000000	 83.570690 
935.000000	 83.716267 
934.000000	 83.868690 
933.000000	 84.020906 
932.000000	 84.170077 
931.000000	 84.321329 
930.000000	 84.475110 
929.000000	 84.624581 
928.000000	 84.768244 
927.000000	 84.912000 
926.000000	 85.056500 
925.000000	 85.194822 
924.000000	 85.323875 
923.000000	 85.446184 
922.000000	 85.560758 
921.000000	 85.665191 
920.000000	 85.765917 
919.000000	 85.872261 
918.000000	 85.980550 
917.000000	 86.078420 
916.000000	 86.165160 
915.000000	 86.253922 
914.000000	 86.353937 
913.000000	 86.464894 
912.000000	 86.588544 
911.000000	 86.730176 
910.000000	 86.887315 
909.000000	 87.051771 
908.000000	 87.223996 
907.000000	 87.411729 
906.000000	 87.615016 
905.000000	 87.826795 
904.000000	 88.046581 
903.000000	 88.277954 
902.000000	 88.514116 
901.000000	 88.742616 
900.000000	 88.963706 
899.000000	 89.187858 
898.000000	 89.415665 
897.000000	 89.636268 
896.000000	 89.845034 
895.000000	 90.046428 
894.000000	 90.240032 
893.000000	 90.420704 
892.000000	 90.593129 
891.000000	 90.768999 
890.000000	 90.946448 
889.000000	 91.106178 
888.000000	 91.230070 
887.000000	 91.312231 
886.000000	 91.354392 
885.000000	 91.365193 
884.000000	 91.362447 
883.000000	 91.359755 
882.000000	 91.351078 
881.000000	 91.325579 
880.000000	 91.296749 
879.000000	 91.296309 
878.000000	 91.337679 
877.000000	 91.407247 
876.000000	 91.494610 
875.000000	 91.608441 
874.000000	 91.757076 
873.000000	 91.936625 
872.000000	 92.145256 
871.000000	 92.387183 
870.000000	 92.653926 
869.000000	 92.920809 
868.000000	 93.170729 
867.000000	 93.406183 
866.000000	 93.632902 
865.000000	 93.848449 
864.000000	 94.053639 
863.000000	 94.259370 
862.000000	 94.472672 
861.000000	 94.687057 
860.000000	 94.893600 
859.000000	 95.091216 
858.000000	 95.280424 
857.000000	 95.457466 
856.000000	 95.620577 
855.000000	 95.773375 
854.000000	 95.917054 
853.000000	 96.046678 
852.000000	 96.158767 
851.000000	 96.255945 
850.000000	 96.343331 
849.000000	 96.428022 
848.000000	 96.520856 
847.000000	 96.627476 
846.000000	 96.737180 
845.000000	 96.832179 
844.000000	 96.908575 
843.000000	 96.977025 
842.000000	 97.043076 
841.000000	 97.099860 
840.000000	 97.141295 
839.000000	 97.169042 
838.000000	 97.184309 
837.000000	 97.186089 
836.000000	 97.181066 
835.000000	 97.182872 
834.000000	 97.196530 
833.000000	 97.214006 
832.000000	 97.228949 
831.000000	 97.244968 
830.000000	 97.265656 
829.000000	 97.288155 
828.000000	 97.312144 
827.000000	 97.344571 
826.000000	 97.389598 
825.000000	 97.443067 
824.000000	 97.499810 
823.000000	 97.554759 
822.000000	 97.595790 
821.000000	 97.610443 
820.000000	 97.601612 
819.000000	 97.582668 
818.000000	 97.555388 
817.000000	 97.504643 
816.000000	 97.416263 
815.000000	 97.288523 
814.000000	 97.123298 
813.000000	 96.916293 
812.000000	 96.659069 
811.000000	 96.340278 
810.000000	 95.941534 
809.000000	 95.443724 
808.000000	 94.844578 
807.000000	 94.163793 
806.000000	 93.428102 
805.000000	 92.660419 
804.000000	 91.886117 
803.000000	 91.135953 
802.000000	 90.435895 
801.000000	 89.806575 
800.000000	 89.276866 
799.000000	 88.880212 
798.000000	 88.629259 
797.000000	 88.508253 
796.000000	 88.493086 
795.000000	 88.560685 
794.000000	 88.678449 
793.000000	 88.809373 
792.000000	 88.934717 
791.000000	 89.053071 
790.000000	 89.154154 
789.000000	 89.213173 
788.000000	 89.213333 
787.000000	 89.153362 
786.000000	 89.030116 
785.000000	 88.835358 
784.000000	 88.575698 
783.000000	 88.277354 
782.000000	 87.967296 
781.000000	 87.669133 
780.000000	 87.418872 
779.000000	 87.257847 
778.000000	 87.200903 
777.000000	 87.233266 
776.000000	 87.344088 
775.000000	 87.537195 
774.000000	 87.801412 
773.000000	 88.098433 
772.000000	 88.393385 
771.000000	 88.676395 
770.000000	 88.945319 
769.000000	 89.190493 
768.000000	 89.407665 
767.000000	 89.605136 
766.000000	 89.786618 
765.000000	 89.945336 
764.000000	 90.084767 
763.000000	 90.226105 
762.000000	 90.384006 
761.000000	 90.551746 
760.000000	 90.719515 
759.000000	 90.889415 
758.000000	 91.062808 
757.000000	 91.231803 
756.000000	 91.395445 
755.000000	 91.567551 
754.000000	 91.754982 
753.000000	 91.941239 
752.000000	 92.103128 
751.000000	 92.233340 
750.000000	 92.340059 
749.000000	 92.436687 
748.000000	 92.538530 
747.000000	 92.656480 
746.000000	 92.785752 
745.000000	 92.911804 
744.000000	 93.032241 
743.000000	 93.159875 
742.000000	 93.300760 
741.000000	 93.445408 
740.000000	 93.586704 
739.000000	 93.729740 
738.000000	 93.876963 
737.000000	 94.018383 
736.000000	 94.144121 
735.000000	 94.254013 
734.000000	 94.350110 
733.000000	 94.432611 
732.000000	 94.506237 
731.000000	 94.576866 
730.000000	 94.639876 
729.000000	 94.687389 
728.000000	 94.725454 
727.000000	 94.770024 
726.000000	 94.829462 
725.000000	 94.903007 
724.000000	 94.993427 
723.000000	 95.104525 
722.000000	 95.225652 
721.000000	 95.335594 
720.000000	 95.424770 
719.000000	 95.499486 
718.000000	 95.562541 
717.000000	 95.607783 
716.000000	 95.638461 
715.000000	 95.671313 
714.000000	 95.717043 
713.000000	 95.774823 
712.000000	 95.848461 
711.000000	 95.947318 
710.000000	 96.064271 
709.000000	 96.177107 
708.000000	 96.271065 
707.000000	 96.344333 
706.000000	 96.393582 
705.000000	 96.407787 
704.000000	 96.380336 
703.000000	 96.314070 
702.000000	 96.202394 
701.000000	 96.020591 
700.000000	 95.749534 
699.000000	 95.395536 
698.000000	 94.990061 
697.000000	 94.584697 
696.000000	 94.246416 
695.000000	 94.039683 
694.000000	 93.990860 
693.000000	 94.077646 
692.000000	 94.257383 
691.000000	 94.489301 
690.000000	 94.737579 
689.000000	 94.973836 
688.000000	 95.186604 
687.000000	 95.379819 
686.000000	 95.551683 
685.000000	 95.693051 
684.000000	 95.810005 
683.000000	 95.921360 
682.000000	 96.032939 
681.000000	 96.134033 
680.000000	 96.222933 
679.000000	 96.310268 
678.000000	 96.398016 
677.000000	 96.482867 
676.000000	 96.568444 
675.000000	 96.662225 
674.000000	 96.756935 
673.000000	 96.821783 
672.000000	 96.830767 
671.000000	 96.766168 
670.000000	 96.622697 
669.000000	 96.419414 
668.000000	 96.331048 
667.000000	 96.538175 
666.000000	 96.875258 
665.000000	 97.121176 
664.000000	 97.264850 
663.000000	 97.349977 
662.000000	 97.411650 
661.000000	 97.463212 
660.000000	 97.506387 
659.000000	 97.544065 
658.000000	 97.575211 
657.000000	 97.594773 
656.000000	 97.593306 
655.000000	 97.569880 
654.000000	 97.537117 
653.000000	 97.507386 
652.000000	 97.486559 
651.000000	 97.483708 
650.000000	 97.507927 

