4000.000000	97.364694 
3999.000000	97.364693 
3998.000000	97.363644 
3997.000000	97.361624 
3996.000000	97.359732 
3995.000000	97.358932 
3994.000000	97.359483 
3993.000000	97.360887 
3992.000000	97.362170 
3991.000000	97.362837 
3990.000000	97.363147 
3989.000000	97.363539 
3988.000000	97.363964 
3987.000000	97.364028 
3986.000000	97.363736 
3985.000000	97.363627 
3984.000000	97.363951 
3983.000000	97.364265 
3982.000000	97.364195 
3981.000000	97.364075 
3980.000000	97.364273 
3979.000000	97.364298 
3978.000000	97.363429 
3977.000000	97.362010 
3976.000000	97.361260 
3975.000000	97.361697 
3974.000000	97.362460 
3973.000000	97.362424 
3972.000000	97.361308 
3971.000000	97.359517 
3970.000000	97.357708 
3969.000000	97.356545 
3968.000000	97.356456 
3967.000000	97.357254 
3966.000000	97.358182 
3965.000000	97.358416 
3964.000000	97.357520 
3963.000000	97.355627 
3962.000000	97.353405 
3961.000000	97.351758 
3960.000000	97.350980 
3959.000000	97.350408 
3958.000000	97.349574 
3957.000000	97.348834 
3956.000000	97.348594 
3955.000000	97.348228 
3954.000000	97.346624 
3953.000000	97.343569 
3952.000000	97.340065 
3951.000000	97.337528 
3950.000000	97.336551 
3949.000000	97.336531 
3948.000000	97.336329 
3947.000000	97.335527 
3946.000000	97.334537 
3945.000000	97.333699 
3944.000000	97.333022 
3943.000000	97.332840 
3942.000000	97.333889 
3941.000000	97.336483 
3940.000000	97.339507 
3939.000000	97.340824 
3938.000000	97.339751 
3937.000000	97.337566 
3936.000000	97.335696 
3935.000000	97.333945 
3934.000000	97.331674 
3933.000000	97.329889 
3932.000000	97.330006 
3931.000000	97.331454 
3930.000000	97.332165 
3929.000000	97.331396 
3928.000000	97.330644 
3927.000000	97.330883 
3926.000000	97.331042 
3925.000000	97.330199 
3924.000000	97.329348 
3923.000000	97.329430 
3922.000000	97.329494 
3921.000000	97.328628 
3920.000000	97.327870 
3919.000000	97.328485 
3918.000000	97.329949 
3917.000000	97.330965 
3916.000000	97.331306 
3915.000000	97.331484 
3914.000000	97.331515 
3913.000000	97.331085 
3912.000000	97.330424 
3911.000000	97.329786 
3910.000000	97.329318 
3909.000000	97.329006 
3908.000000	97.328747 
3907.000000	97.328483 
3906.000000	97.328221 
3905.000000	97.327979 
3904.000000	97.327779 
3903.000000	97.327635 
3902.000000	97.327542 
3901.000000	97.327477 
3900.000000	97.327414 
3899.000000	97.327331 
3898.000000	97.327220 
3897.000000	97.327087 
3896.000000	97.326938 
3895.000000	97.326764 
3894.000000	97.326551 
3893.000000	97.326300 
3892.000000	97.326019 
3891.000000	97.325713 
3890.000000	97.325401 
3889.000000	97.325106 
3888.000000	97.324826 
3887.000000	97.324546 
3886.000000	97.324259 
3885.000000	97.323979 
3884.000000	97.323719 
3883.000000	97.323474 
3882.000000	97.323221 
3881.000000	97.322959 
3880.000000	97.322707 
3879.000000	97.322483 
3878.000000	97.322278 
3877.000000	97.322062 
3876.000000	97.321817 
3875.000000	97.321561 
3874.000000	97.321329 
3873.000000	97.321151 
3872.000000	97.321020 
3871.000000	97.320913 
3870.000000	97.320827 
3869.000000	97.320796 
3868.000000	97.320841 
3867.000000	97.320937 
3866.000000	97.321042 
3865.000000	97.321156 
3864.000000	97.321305 
3863.000000	97.321481 
3862.000000	97.321646 
3861.000000	97.321780 
3860.000000	97.321902 
3859.000000	97.322030 
3858.000000	97.322167 
3857.000000	97.322317 
3856.000000	97.322508 
3855.000000	97.322771 
3854.000000	97.323100 
3853.000000	97.323469 
3852.000000	97.323910 
3851.000000	97.324474 
3850.000000	97.325148 
3849.000000	97.325883 
3848.000000	97.326640 
3847.000000	97.327403 
3846.000000	97.328169 
3845.000000	97.328945 
3844.000000	97.329732 
3843.000000	97.330522 
3842.000000	97.331314 
3841.000000	97.332118 
3840.000000	97.332947 
3839.000000	97.333795 
3838.000000	97.334644 
3837.000000	97.335485 
3836.000000	97.336333 
3835.000000	97.337206 
3834.000000	97.338108 
3833.000000	97.339025 
3832.000000	97.339939 
3831.000000	97.340844 
3830.000000	97.341738 
3829.000000	97.342626 
3828.000000	97.343507 
3827.000000	97.344371 
3826.000000	97.345212 
3825.000000	97.346040 
3824.000000	97.346872 
3823.000000	97.347702 
3822.000000	97.348501 
3821.000000	97.349257 
3820.000000	97.350008 
3819.000000	97.350794 
3818.000000	97.351593 
3817.000000	97.352354 
3816.000000	97.353071 
3815.000000	97.353782 
3814.000000	97.354515 
3813.000000	97.355246 
3812.000000	97.355937 
3811.000000	97.356592 
3810.000000	97.357230 
3809.000000	97.357832 
3808.000000	97.358355 
3807.000000	97.358791 
3806.000000	97.359189 
3805.000000	97.359602 
3804.000000	97.360037 
3803.000000	97.360458 
3802.000000	97.360847 
3801.000000	97.361225 
3800.000000	97.361628 
3799.000000	97.362052 
3798.000000	97.362456 
3797.000000	97.362815 
3796.000000	97.363140 
3795.000000	97.363443 
3794.000000	97.363711 
3793.000000	97.363926 
3792.000000	97.364077 
3791.000000	97.364164 
3790.000000	97.364197 
3789.000000	97.364193 
3788.000000	97.364167 
3787.000000	97.364128 
3786.000000	97.364068 
3785.000000	97.363981 
3784.000000	97.363878 
3783.000000	97.363768 
3782.000000	97.363629 
3781.000000	97.363434 
3780.000000	97.363180 
3779.000000	97.362884 
3778.000000	97.362548 
3777.000000	97.362159 
3776.000000	97.361714 
3775.000000	97.361238 
3774.000000	97.360760 
3773.000000	97.360275 
3772.000000	97.359754 
3771.000000	97.359180 
3770.000000	97.358564 
3769.000000	97.357923 
3768.000000	97.357262 
3767.000000	97.356574 
3766.000000	97.355864 
3765.000000	97.355154 
3764.000000	97.354461 
3763.000000	97.353763 
3762.000000	97.353023 
3761.000000	97.352229 
3760.000000	97.351397 
3759.000000	97.350532 
3758.000000	97.349616 
3757.000000	97.348630 
3756.000000	97.347587 
3755.000000	97.346522 
3754.000000	97.345459 
3753.000000	97.344416 
3752.000000	97.343407 
3751.000000	97.342426 
3750.000000	97.341451 
3749.000000	97.340478 
3748.000000	97.339523 
3747.000000	97.338576 
3746.000000	97.337590 
3745.000000	97.336516 
3744.000000	97.335316 
3743.000000	97.333979 
3742.000000	97.332780 
3741.000000	97.331547 
3740.000000	97.329465 
3739.000000	97.326597 
3738.000000	97.324048 
3737.000000	97.322072 
3736.000000	97.320078 
3735.000000	97.318986 
3734.000000	97.319897 
3733.000000	97.320397 
3732.000000	97.317214 
3731.000000	97.311952 
3730.000000	97.309157 
3729.000000	97.308820 
3728.000000	97.306740 
3727.000000	97.301971 
3726.000000	97.298696 
3725.000000	97.300172 
3724.000000	97.302997 
3723.000000	97.302091 
3722.000000	97.297512 
3721.000000	97.292304 
3720.000000	97.287872 
3719.000000	97.282135 
3718.000000	97.273479 
3717.000000	97.264460 
3716.000000	97.258942 
3715.000000	97.256379 
3714.000000	97.253785 
3713.000000	97.252348 
3712.000000	97.253895 
3711.000000	97.253996 
3710.000000	97.248207 
3709.000000	97.236584 
3708.000000	97.220590 
3707.000000	97.202313 
3706.000000	97.184626 
3705.000000	97.169185 
3704.000000	97.155092 
3703.000000	97.140547 
3702.000000	97.123827 
3701.000000	97.105049 
3700.000000	97.088680 
3699.000000	97.077544 
3698.000000	97.067743 
3697.000000	97.056547 
3696.000000	97.047403 
3695.000000	97.042980 
3694.000000	97.038869 
3693.000000	97.029888 
3692.000000	97.018263 
3691.000000	97.009259 
3690.000000	97.002064 
3689.000000	96.990041 
3688.000000	96.973634 
3687.000000	96.962807 
3686.000000	96.959834 
3685.000000	96.955075 
3684.000000	96.943567 
3683.000000	96.930265 
3682.000000	96.919246 
3681.000000	96.906825 
3680.000000	96.888844 
3679.000000	96.869772 
3678.000000	96.855171 
3677.000000	96.842612 
3676.000000	96.824294 
3675.000000	96.799379 
3674.000000	96.780203 
3673.000000	96.771032 
3672.000000	96.760049 
3671.000000	96.741524 
3670.000000	96.720474 
3669.000000	96.702283 
3668.000000	96.688544 
3667.000000	96.675926 
3666.000000	96.660895 
3665.000000	96.644348 
3664.000000	96.628894 
3663.000000	96.614289 
3662.000000	96.597684 
3661.000000	96.577561 
3660.000000	96.556187 
3659.000000	96.537257 
3658.000000	96.520322 
3657.000000	96.500290 
3656.000000	96.473577 
3655.000000	96.448231 
3654.000000	96.431888 
3653.000000	96.415076 
3652.000000	96.387560 
3651.000000	96.359043 
3650.000000	96.342938 
3649.000000	96.332091 
3648.000000	96.313303 
3647.000000	96.291843 
3646.000000	96.281224 
3645.000000	96.281710 
3644.000000	96.282425 
3643.000000	96.275495 
3642.000000	96.263570 
3641.000000	96.252313 
3640.000000	96.241257 
3639.000000	96.225362 
3638.000000	96.205122 
3637.000000	96.187990 
3636.000000	96.173984 
3635.000000	96.152095 
3634.000000	96.117190 
3633.000000	96.081913 
3632.000000	96.060038 
3631.000000	96.049947 
3630.000000	96.043472 
3629.000000	96.028137 
3628.000000	96.002985 
3627.000000	95.990794 
3626.000000	95.990240 
3625.000000	95.976844 
3624.000000	95.950211 
3623.000000	95.926808 
3622.000000	95.912535 
3621.000000	95.901898 
3620.000000	95.893225 
3619.000000	95.890240 
3618.000000	95.897126 
3617.000000	95.916864 
3616.000000	95.944694 
3615.000000	95.971800 
3614.000000	95.995650 
3613.000000	96.019532 
3612.000000	96.045590 
3611.000000	96.069987 
3610.000000	96.086068 
3609.000000	96.093137 
3608.000000	96.097265 
3607.000000	96.103546 
3606.000000	96.111339 
3605.000000	96.117492 
3604.000000	96.123543 
3603.000000	96.134925 
3602.000000	96.150956 
3601.000000	96.163279 
3600.000000	96.166882 
3599.000000	96.164788 
3598.000000	96.162261 
3597.000000	96.164990 
3596.000000	96.175606 
3595.000000	96.190550 
3594.000000	96.202059 
3593.000000	96.205489 
3592.000000	96.200974 
3591.000000	96.190278 
3590.000000	96.176684 
3589.000000	96.167299 
3588.000000	96.168528 
3587.000000	96.179660 
3586.000000	96.196109 
3585.000000	96.212447 
3584.000000	96.223581 
3583.000000	96.229487 
3582.000000	96.234128 
3581.000000	96.239756 
3580.000000	96.244910 
3579.000000	96.247588 
3578.000000	96.247233 
3577.000000	96.245116 
3576.000000	96.242954 
3575.000000	96.241052 
3574.000000	96.238374 
3573.000000	96.233526 
3572.000000	96.226103 
3571.000000	96.216989 
3570.000000	96.208071 
3569.000000	96.202142 
3568.000000	96.202357 
3567.000000	96.209111 
3566.000000	96.219143 
3565.000000	96.228204 
3564.000000	96.232560 
3563.000000	96.231532 
3562.000000	96.228640 
3561.000000	96.228091 
3560.000000	96.230781 
3559.000000	96.234237 
3558.000000	96.235502 
3557.000000	96.233728 
3556.000000	96.230828 
3555.000000	96.229322 
3554.000000	96.229837 
3553.000000	96.230811 
3552.000000	96.230580 
3551.000000	96.228999 
3550.000000	96.226636 
3549.000000	96.223749 
3548.000000	96.221112 
3547.000000	96.219992 
3546.000000	96.220457 
3545.000000	96.221371 
3544.000000	96.222196 
3543.000000	96.223311 
3542.000000	96.224859 
3541.000000	96.226284 
3540.000000	96.227115 
3539.000000	96.227248 
3538.000000	96.226744 
3537.000000	96.225837 
3536.000000	96.224927 
3535.000000	96.224277 
3534.000000	96.223631 
3533.000000	96.222657 
3532.000000	96.221564 
3531.000000	96.221030 
3530.000000	96.221187 
3529.000000	96.221127 
3528.000000	96.219814 
3527.000000	96.217295 
3526.000000	96.214666 
3525.000000	96.213067 
3524.000000	96.213063 
3523.000000	96.214538 
3522.000000	96.216710 
3521.000000	96.218425 
3520.000000	96.219082 
3519.000000	96.219060 
3518.000000	96.219000 
3517.000000	96.218827 
3516.000000	96.217715 
3515.000000	96.215227 
3514.000000	96.212159 
3513.000000	96.209896 
3512.000000	96.208969 
3511.000000	96.208764 
3510.000000	96.208387 
3509.000000	96.207595 
3508.000000	96.206787 
3507.000000	96.206178 
3506.000000	96.205255 
3505.000000	96.203406 
3504.000000	96.200827 
3503.000000	96.198523 
3502.000000	96.197426 
3501.000000	96.197648 
3500.000000	96.198489 
3499.000000	96.199018 
3498.000000	96.198706 
3497.000000	96.197587 
3496.000000	96.195943 
3495.000000	96.193897 
3494.000000	96.191447 
3493.000000	96.188825 
3492.000000	96.186470 
3491.000000	96.184628 
3490.000000	96.183077 
3489.000000	96.181294 
3488.000000	96.178892 
3487.000000	96.175895 
3486.000000	96.172718 
3485.000000	96.169938 
3484.000000	96.167878 
3483.000000	96.166306 
3482.000000	96.164605 
3481.000000	96.162483 
3480.000000	96.160353 
3479.000000	96.158766 
3478.000000	96.157656 
3477.000000	96.156327 
3476.000000	96.154171 
3475.000000	96.151161 
3474.000000	96.147798 
3473.000000	96.144749 
3472.000000	96.142323 
3471.000000	96.140167 
3470.000000	96.137587 
3469.000000	96.134279 
3468.000000	96.130757 
3467.000000	96.127920 
3466.000000	96.126180 
3465.000000	96.125021 
3464.000000	96.123412 
3463.000000	96.120734 
3462.000000	96.117222 
3461.000000	96.113641 
3460.000000	96.110532 
3459.000000	96.107746 
3458.000000	96.104721 
3457.000000	96.101109 
3456.000000	96.097169 
3455.000000	96.093662 
3454.000000	96.091105 
3453.000000	96.089268 
3452.000000	96.087499 
3451.000000	96.085472 
3450.000000	96.083230 
3449.000000	96.080620 
3448.000000	96.077189 
3447.000000	96.072772 
3446.000000	96.067897 
3445.000000	96.063406 
3444.000000	96.059817 
3443.000000	96.057224 
3442.000000	96.055348 
3441.000000	96.053438 
3440.000000	96.050559 
3439.000000	96.046254 
3438.000000	96.040945 
3437.000000	96.035624 
3436.000000	96.031325 
3435.000000	96.028920 
3434.000000	96.028684 
3433.000000	96.029783 
3432.000000	96.030576 
3431.000000	96.030037 
3430.000000	96.028464 
3429.000000	96.026681 
3428.000000	96.024857 
3427.000000	96.022344 
3426.000000	96.018787 
3425.000000	96.014952 
3424.000000	96.012066 
3423.000000	96.010374 
3422.000000	96.008840 
3421.000000	96.006588 
3420.000000	96.004059 
3419.000000	96.002296 
3418.000000	96.001499 
3417.000000	96.000950 
3416.000000	96.000098 
3415.000000	95.999011 
3414.000000	95.997721 
3413.000000	95.995850 
3412.000000	95.993212 
3411.000000	95.990324 
3410.000000	95.988022 
3409.000000	95.986793 
3408.000000	95.986541 
3407.000000	95.986639 
3406.000000	95.986265 
3405.000000	95.985044 
3404.000000	95.983385 
3403.000000	95.981968 
3402.000000	95.980963 
3401.000000	95.980034 
3400.000000	95.978944 
3399.000000	95.977837 
3398.000000	95.976975 
3397.000000	95.976487 
3396.000000	95.976314 
3395.000000	95.976194 
3394.000000	95.975777 
3393.000000	95.974932 
3392.000000	95.973954 
3391.000000	95.973296 
3390.000000	95.973148 
3389.000000	95.973445 
3388.000000	95.974150 
3387.000000	95.975255 
3386.000000	95.976471 
3385.000000	95.977171 
3384.000000	95.976867 
3383.000000	95.975731 
3382.000000	95.974640 
3381.000000	95.974520 
3380.000000	95.975560 
3379.000000	95.977128 
3378.000000	95.978374 
3377.000000	95.979059 
3376.000000	95.979511 
3375.000000	95.979915 
3374.000000	95.979988 
3373.000000	95.979437 
3372.000000	95.978495 
3371.000000	95.977808 
3370.000000	95.977880 
3369.000000	95.978765 
3368.000000	95.980154 
3367.000000	95.981571 
3366.000000	95.982612 
3365.000000	95.983172 
3364.000000	95.983469 
3363.000000	95.983781 
3362.000000	95.984196 
3361.000000	95.984742 
3360.000000	95.985597 
3359.000000	95.986936 
3358.000000	95.988573 
3357.000000	95.989996 
3356.000000	95.990869 
3355.000000	95.991329 
3354.000000	95.991746 
3353.000000	95.992336 
3352.000000	95.993115 
3351.000000	95.994139 
3350.000000	95.995555 
3349.000000	95.997377 
3348.000000	95.999300 
3347.000000	96.000876 
3346.000000	96.001857 
3345.000000	96.002328 
3344.000000	96.002532 
3343.000000	96.002601 
3342.000000	96.002566 
3341.000000	96.002580 
3340.000000	96.002859 
3339.000000	96.003398 
3338.000000	96.003988 
3337.000000	96.004551 
3336.000000	96.005322 
3335.000000	96.006539 
3334.000000	96.008073 
3333.000000	96.009524 
3332.000000	96.010611 
3331.000000	96.011336 
3330.000000	96.011806 
3329.000000	96.012081 
3328.000000	96.012255 
3327.000000	96.012576 
3326.000000	96.013328 
3325.000000	96.014579 
3324.000000	96.016074 
3323.000000	96.017377 
3322.000000	96.018255 
3321.000000	96.018877 
3320.000000	96.019614 
3319.000000	96.020681 
3318.000000	96.022018 
3317.000000	96.023460 
3316.000000	96.024898 
3315.000000	96.026269 
3314.000000	96.027475 
3313.000000	96.028414 
3312.000000	96.029090 
3311.000000	96.029639 
3310.000000	96.030281 
3309.000000	96.031183 
3308.000000	96.032334 
3307.000000	96.033534 
3306.000000	96.034552 
3305.000000	96.035363 
3304.000000	96.036174 
3303.000000	96.037228 
3302.000000	96.038584 
3301.000000	96.040097 
3300.000000	96.041506 
3299.000000	96.042622 
3298.000000	96.043429 
3297.000000	96.044109 
3296.000000	96.044920 
3295.000000	96.046012 
3294.000000	96.047390 
3293.000000	96.049014 
3292.000000	96.050847 
3291.000000	96.052745 
3290.000000	96.054423 
3289.000000	96.055664 
3288.000000	96.056544 
3287.000000	96.057353 
3286.000000	96.058253 
3285.000000	96.059135 
3284.000000	96.059874 
3283.000000	96.060564 
3282.000000	96.061459 
3281.000000	96.062701 
3280.000000	96.064156 
3279.000000	96.065508 
3278.000000	96.066569 
3277.000000	96.067439 
3276.000000	96.068353 
3275.000000	96.069373 
3274.000000	96.070365 
3273.000000	96.071286 
3272.000000	96.072358 
3271.000000	96.073831 
3270.000000	96.075672 
3269.000000	96.077554 
3268.000000	96.079138 
3267.000000	96.080359 
3266.000000	96.081455 
3265.000000	96.082805 
3264.000000	96.084605 
3263.000000	96.086675 
3262.000000	96.088554 
3261.000000	96.089948 
3260.000000	96.090937 
3259.000000	96.091823 
3258.000000	96.092819 
3257.000000	96.093983 
3256.000000	96.095372 
3255.000000	96.097037 
3254.000000	96.098877 
3253.000000	96.100657 
3252.000000	96.102234 
3251.000000	96.103672 
3250.000000	96.105096 
3249.000000	96.106549 
3248.000000	96.108028 
3247.000000	96.109614 
3246.000000	96.111448 
3245.000000	96.113579 
3244.000000	96.115865 
3243.000000	96.118025 
3242.000000	96.119830 
3241.000000	96.121287 
3240.000000	96.122651 
3239.000000	96.124248 
3238.000000	96.126276 
3237.000000	96.128747 
3236.000000	96.131542 
3235.000000	96.134407 
3234.000000	96.136979 
3233.000000	96.139010 
3232.000000	96.140598 
3231.000000	96.142204 
3230.000000	96.144284 
3229.000000	96.146922 
3228.000000	96.149842 
3227.000000	96.152762 
3226.000000	96.155690 
3225.000000	96.158756 
3224.000000	96.161862 
3223.000000	96.164696 
3222.000000	96.167084 
3221.000000	96.169255 
3220.000000	96.171587 
3219.000000	96.174177 
3218.000000	96.176818 
3217.000000	96.179319 
3216.000000	96.181724 
3215.000000	96.184265 
3214.000000	96.187138 
3213.000000	96.190308 
3212.000000	96.193504 
3211.000000	96.196428 
3210.000000	96.199028 
3209.000000	96.201541 
3208.000000	96.204251 
3207.000000	96.207240 
3206.000000	96.210413 
3205.000000	96.213705 
3204.000000	96.217150 
3203.000000	96.220764 
3202.000000	96.224429 
3201.000000	96.227919 
3200.000000	96.231063 
3199.000000	96.233898 
3198.000000	96.236690 
3197.000000	96.239707 
3196.000000	96.242974 
3195.000000	96.246306 
3194.000000	96.249578 
3193.000000	96.252879 
3192.000000	96.256337 
3191.000000	96.259878 
3190.000000	96.263280 
3189.000000	96.266441 
3188.000000	96.269502 
3187.000000	96.272714 
3186.000000	96.276223 
3185.000000	96.279997 
3184.000000	96.283846 
3183.000000	96.287563 
3182.000000	96.291078 
3181.000000	96.294444 
3180.000000	96.297728 
3179.000000	96.300955 
3178.000000	96.304183 
3177.000000	96.307537 
3176.000000	96.311095 
3175.000000	96.314814 
3174.000000	96.318584 
3173.000000	96.322311 
3172.000000	96.325929 
3171.000000	96.329380 
3170.000000	96.332676 
3169.000000	96.335929 
3168.000000	96.339254 
3167.000000	96.342667 
3166.000000	96.346122 
3165.000000	96.349587 
3164.000000	96.353042 
3163.000000	96.356459 
3162.000000	96.359818 
3161.000000	96.363148 
3160.000000	96.366511 
3159.000000	96.369947 
3158.000000	96.373446 
3157.000000	96.376979 
3156.000000	96.380523 
3155.000000	96.384058 
3154.000000	96.387576 
3153.000000	96.391088 
3152.000000	96.394612 
3151.000000	96.398147 
3150.000000	96.401682 
3149.000000	96.405213 
3148.000000	96.408743 
3147.000000	96.412278 
3146.000000	96.415820 
3145.000000	96.419366 
3144.000000	96.422908 
3143.000000	96.426432 
3142.000000	96.429930 
3141.000000	96.433406 
3140.000000	96.436873 
3139.000000	96.440355 
3138.000000	96.443872 
3137.000000	96.447432 
3136.000000	96.451018 
3135.000000	96.454599 
3134.000000	96.458145 
3133.000000	96.461649 
3132.000000	96.465142 
3131.000000	96.468665 
3130.000000	96.472231 
3129.000000	96.475849 
3128.000000	96.479536 
3127.000000	96.483283 
3126.000000	96.487027 
3125.000000	96.490694 
3124.000000	96.494250 
3123.000000	96.497642 
3122.000000	96.500787 
3121.000000	96.503746 
3120.000000	96.506849 
3119.000000	96.510414 
3118.000000	96.514401 
3117.000000	96.518486 
3116.000000	96.522442 
3115.000000	96.526272 
3114.000000	96.530012 
3113.000000	96.533632 
3112.000000	96.537208 
3111.000000	96.541007 
3110.000000	96.545244 
3109.000000	96.549838 
3108.000000	96.554494 
3107.000000	96.558955 
3106.000000	96.562984 
3105.000000	96.566234 
3104.000000	96.568430 
3103.000000	96.569738 
3102.000000	96.570875 
3101.000000	96.572692 
3100.000000	96.575559 
3099.000000	96.579227 
3098.000000	96.583383 
3097.000000	96.588233 
3096.000000	96.594097 
3095.000000	96.600412 
3094.000000	96.605748 
3093.000000	96.609119 
3092.000000	96.610949 
3091.000000	96.612429 
3090.000000	96.614172 
3089.000000	96.615910 
3088.000000	96.617296 
3087.000000	96.618641 
3086.000000	96.620818 
3085.000000	96.624454 
3084.000000	96.629120 
3083.000000	96.633426 
3082.000000	96.636361 
3081.000000	96.638472 
3080.000000	96.641189 
3079.000000	96.644966 
3078.000000	96.648972 
3077.000000	96.652825 
3076.000000	96.657415 
3075.000000	96.663189 
3074.000000	96.668715 
3073.000000	96.672267 
3072.000000	96.674076 
3071.000000	96.675607 
3070.000000	96.677225 
3069.000000	96.678293 
3068.000000	96.679224 
3067.000000	96.681483 
3066.000000	96.685300 
3065.000000	96.689153 
3064.000000	96.691888 
3063.000000	96.693777 
3062.000000	96.695164 
3061.000000	96.695690 
3060.000000	96.695452 
3059.000000	96.695679 
3058.000000	96.697637 
3057.000000	96.701589 
3056.000000	96.706752 
3055.000000	96.711303 
3054.000000	96.712769 
3053.000000	96.710195 
3052.000000	96.706349 
3051.000000	96.705945 
3050.000000	96.710684 
3049.000000	96.717375 
3048.000000	96.721562 
3047.000000	96.721667 
3046.000000	96.718760 
3045.000000	96.714236 
3044.000000	96.709503 
3043.000000	96.706936 
3042.000000	96.708890 
3041.000000	96.714986 
3040.000000	96.721395 
3039.000000	96.723817 
3038.000000	96.721037 
3037.000000	96.715451 
3036.000000	96.710376 
3035.000000	96.706966 
3034.000000	96.704032 
3033.000000	96.700350 
3032.000000	96.696188 
3031.000000	96.692544 
3030.000000	96.689908 
3029.000000	96.688171 
3028.000000	96.686714 
3027.000000	96.683905 
3026.000000	96.677702 
3025.000000	96.668006 
3024.000000	96.657796 
3023.000000	96.650369 
3022.000000	96.645855 
3021.000000	96.642047 
3020.000000	96.638024 
3019.000000	96.634698 
3018.000000	96.631719 
3017.000000	96.626435 
3016.000000	96.617092 
3015.000000	96.605400 
3014.000000	96.594898 
3013.000000	96.587754 
3012.000000	96.583634 
3011.000000	96.580426 
3010.000000	96.575457 
3009.000000	96.567206 
3008.000000	96.556592 
3007.000000	96.545840 
3006.000000	96.535756 
3005.000000	96.525207 
3004.000000	96.513667 
3003.000000	96.502821 
3002.000000	96.494781 
3001.000000	96.489704 
3000.000000	96.485819 
2999.000000	96.480817 
2998.000000	96.472958 
2997.000000	96.462062 
2996.000000	96.449997 
2995.000000	96.439083 
2994.000000	96.429214 
2993.000000	96.417627 
2992.000000	96.402375 
2991.000000	96.385269 
2990.000000	96.370584 
2989.000000	96.361592 
2988.000000	96.358957 
2987.000000	96.361466 
2986.000000	96.367183 
2985.000000	96.374223 
2984.000000	96.381220 
2983.000000	96.387451 
2982.000000	96.392654 
2981.000000	96.396971 
2980.000000	96.400645 
2979.000000	96.402992 
2978.000000	96.402139 
2977.000000	96.397154 
2976.000000	96.390481 
2975.000000	96.386777 
2974.000000	96.388839 
2973.000000	96.395778 
2972.000000	96.405215 
2971.000000	96.415681 
2970.000000	96.426319 
2969.000000	96.436079 
2968.000000	96.444703 
2967.000000	96.453379 
2966.000000	96.463082 
2965.000000	96.472942 
2964.000000	96.481361 
2963.000000	96.488116 
2962.000000	96.494314 
2961.000000	96.500930 
2960.000000	96.508505 
2959.000000	96.517736 
2958.000000	96.528958 
2957.000000	96.540945 
2956.000000	96.551109 
2955.000000	96.557254 
2954.000000	96.559258 
2953.000000	96.559493 
2952.000000	96.561687 
2951.000000	96.568318 
2950.000000	96.578274 
2949.000000	96.587598 
2948.000000	96.593141 
2947.000000	96.595006 
2946.000000	96.595353 
2945.000000	96.595976 
2944.000000	96.597813 
2943.000000	96.601535 
2942.000000	96.606895 
2941.000000	96.611980 
2940.000000	96.614713 
2939.000000	96.615212 
2938.000000	96.615513 
2937.000000	96.616974 
2936.000000	96.618993 
2935.000000	96.620254 
2934.000000	96.620117 
2933.000000	96.618595 
2932.000000	96.616173 
2931.000000	96.614144 
2930.000000	96.614235 
2929.000000	96.617165 
2928.000000	96.621834 
2927.000000	96.626178 
2926.000000	96.628654 
2925.000000	96.629096 
2924.000000	96.628742 
2923.000000	96.629445 
2922.000000	96.632126 
2921.000000	96.635772 
2920.000000	96.638594 
2919.000000	96.640234 
2918.000000	96.641903 
2917.000000	96.643908 
2916.000000	96.644197 
2915.000000	96.640608 
2914.000000	96.634184 
2913.000000	96.628912 
2912.000000	96.627745 
2911.000000	96.629805 
2910.000000	96.631964 
2909.000000	96.632530 
2908.000000	96.632505 
2907.000000	96.633386 
2906.000000	96.634705 
2905.000000	96.634073 
2904.000000	96.629539 
2903.000000	96.622079 
2902.000000	96.615907 
2901.000000	96.615787 
2900.000000	96.623351 
2899.000000	96.635822 
2898.000000	96.648310 
2897.000000	96.657724 
2896.000000	96.664014 
2895.000000	96.668159 
2894.000000	96.670826 
2893.000000	96.673344 
2892.000000	96.678036 
2891.000000	96.685813 
2890.000000	96.694256 
2889.000000	96.699952 
2888.000000	96.702501 
2887.000000	96.704449 
2886.000000	96.707379 
2885.000000	96.710283 
2884.000000	96.712540 
2883.000000	96.716182 
2882.000000	96.723382 
2881.000000	96.733141 
2880.000000	96.742605 
2879.000000	96.751086 
2878.000000	96.760491 
2877.000000	96.771614 
2876.000000	96.782135 
2875.000000	96.789299 
2874.000000	96.793203 
2873.000000	96.796338 
2872.000000	96.800663 
2871.000000	96.806099 
2870.000000	96.811465 
2869.000000	96.815834 
2868.000000	96.819081 
2867.000000	96.822041 
2866.000000	96.826208 
2865.000000	96.832607 
2864.000000	96.840761 
2863.000000	96.849330 
2862.000000	96.857943 
2861.000000	96.867724 
2860.000000	96.879614 
2859.000000	96.892828 
2858.000000	96.905585 
2857.000000	96.917091 
2856.000000	96.927985 
2855.000000	96.938691 
2854.000000	96.948267 
2853.000000	96.955396 
2852.000000	96.959963 
2851.000000	96.963230 
2850.000000	96.966671 
2849.000000	96.970952 
2848.000000	96.975884 
2847.000000	96.980814 
2846.000000	96.985039 
2845.000000	96.988281 
2844.000000	96.990931 
2843.000000	96.993704 
2842.000000	96.997014 
2841.000000	97.000776 
2840.000000	97.004732 
2839.000000	97.008803 
2838.000000	97.013087 
2837.000000	97.017620 
2836.000000	97.022233 
2835.000000	97.026651 
2834.000000	97.030906 
2833.000000	97.035634 
2832.000000	97.041552 
2831.000000	97.048260 
2830.000000	97.053824 
2829.000000	97.056188 
2828.000000	97.055227 
2827.000000	97.053240 
2826.000000	97.053258 
2825.000000	97.056653 
2824.000000	97.062316 
2823.000000	97.067773 
2822.000000	97.071106 
2821.000000	97.072075 
2820.000000	97.071778 
2819.000000	97.071518 
2818.000000	97.072066 
2817.000000	97.073751 
2816.000000	97.076676 
2815.000000	97.080476 
2814.000000	97.084140 
2813.000000	97.086552 
2812.000000	97.087309 
2811.000000	97.086912 
2810.000000	97.086328 
2809.000000	97.086475 
2808.000000	97.087915 
2807.000000	97.090686 
2806.000000	97.094287 
2805.000000	97.097913 
2804.000000	97.100838 
2803.000000	97.102702 
2802.000000	97.103646 
2801.000000	97.104317 
2800.000000	97.105509 
2799.000000	97.107491 
2798.000000	97.109763 
2797.000000	97.111598 
2796.000000	97.112809 
2795.000000	97.113803 
2794.000000	97.115030 
2793.000000	97.116576 
2792.000000	97.118301 
2791.000000	97.120080 
2790.000000	97.121837 
2789.000000	97.123504 
2788.000000	97.125053 
2787.000000	97.126530 
2786.000000	97.128009 
2785.000000	97.129531 
2784.000000	97.131097 
2783.000000	97.132679 
2782.000000	97.134236 
2781.000000	97.135755 
2780.000000	97.137267 
2779.000000	97.138821 
2778.000000	97.140414 
2777.000000	97.141959 
2776.000000	97.143349 
2775.000000	97.144581 
2774.000000	97.145774 
2773.000000	97.147026 
2772.000000	97.148291 
2771.000000	97.149469 
2770.000000	97.150580 
2769.000000	97.151802 
2768.000000	97.153278 
2767.000000	97.154932 
2766.000000	97.156518 
2765.000000	97.157882 
2764.000000	97.159136 
2763.000000	97.160480 
2762.000000	97.161887 
2761.000000	97.163096 
2760.000000	97.163985 
2759.000000	97.164827 
2758.000000	97.165988 
2757.000000	97.167412 
2756.000000	97.168623 
2755.000000	97.169351 
2754.000000	97.169972 
2753.000000	97.171119 
2752.000000	97.172898 
2751.000000	97.174729 
2750.000000	97.176054 
2749.000000	97.176950 
2748.000000	97.177803 
2747.000000	97.178579 
2746.000000	97.178867 
2745.000000	97.178614 
2744.000000	97.178386 
2743.000000	97.178754 
2742.000000	97.179723 
2741.000000	97.180887 
2740.000000	97.181933 
2739.000000	97.182836 
2738.000000	97.183618 
2737.000000	97.184250 
2736.000000	97.184786 
2735.000000	97.185418 
2734.000000	97.186278 
2733.000000	97.187294 
2732.000000	97.188295 
2731.000000	97.189218 
2730.000000	97.190140 
2729.000000	97.191144 
2728.000000	97.192195 
2727.000000	97.193155 
2726.000000	97.193913 
2725.000000	97.194493 
2724.000000	97.195032 
2723.000000	97.195646 
2722.000000	97.196339 
2721.000000	97.197060 
2720.000000	97.197786 
2719.000000	97.198530 
2718.000000	97.199284 
2717.000000	97.200019 
2716.000000	97.200716 
2715.000000	97.201403 
2714.000000	97.202126 
2713.000000	97.202902 
2712.000000	97.203693 
2711.000000	97.204437 
2710.000000	97.205095 
2709.000000	97.205687 
2708.000000	97.206272 
2707.000000	97.206915 
2706.000000	97.207655 
2705.000000	97.208492 
2704.000000	97.209363 
2703.000000	97.210147 
2702.000000	97.210738 
2701.000000	97.211170 
2700.000000	97.211673 
2699.000000	97.212498 
2698.000000	97.213664 
2697.000000	97.214842 
2696.000000	97.215621 
2695.000000	97.215898 
2694.000000	97.215942 
2693.000000	97.216073 
2692.000000	97.216315 
2691.000000	97.216500 
2690.000000	97.216577 
2689.000000	97.216696 
2688.000000	97.216945 
2687.000000	97.217195 
2686.000000	97.217327 
2685.000000	97.217497 
2684.000000	97.217988 
2683.000000	97.218776 
2682.000000	97.219445 
2681.000000	97.219622 
2680.000000	97.219358 
2679.000000	97.219050 
2678.000000	97.219110 
2677.000000	97.219733 
2676.000000	97.220756 
2675.000000	97.221587 
2674.000000	97.221588 
2673.000000	97.220744 
2672.000000	97.219781 
2671.000000	97.219305 
2670.000000	97.219084 
2669.000000	97.218557 
2668.000000	97.217730 
2667.000000	97.217084 
2666.000000	97.216719 
2665.000000	97.216145 
2664.000000	97.215038 
2663.000000	97.213753 
2662.000000	97.212900 
2661.000000	97.212642 
2660.000000	97.212626 
2659.000000	97.212407 
2658.000000	97.211811 
2657.000000	97.210984 
2656.000000	97.210205 
2655.000000	97.209573 
2654.000000	97.208858 
2653.000000	97.207782 
2652.000000	97.206468 
2651.000000	97.205458 
2650.000000	97.205175 
2649.000000	97.205501 
2648.000000	97.205903 
2647.000000	97.205903 
2646.000000	97.205359 
2645.000000	97.204389 
2644.000000	97.203244 
2643.000000	97.202227 
2642.000000	97.201562 
2641.000000	97.201239 
2640.000000	97.201053 
2639.000000	97.200815 
2638.000000	97.200499 
2637.000000	97.200209 
2636.000000	97.200049 
2635.000000	97.200071 
2634.000000	97.200254 
2633.000000	97.200501 
2632.000000	97.200621 
2631.000000	97.200424 
2630.000000	97.199871 
2629.000000	97.199115 
2628.000000	97.198431 
2627.000000	97.198027 
2626.000000	97.197936 
2625.000000	97.198080 
2624.000000	97.198351 
2623.000000	97.198636 
2622.000000	97.198828 
2621.000000	97.198847 
2620.000000	97.198658 
2619.000000	97.198267 
2618.000000	97.197745 
2617.000000	97.197291 
2616.000000	97.197168 
2615.000000	97.197479 
2614.000000	97.198061 
2613.000000	97.198614 
2612.000000	97.198991 
2611.000000	97.199256 
2610.000000	97.199534 
2609.000000	97.199878 
2608.000000	97.200248 
2607.000000	97.200571 
2606.000000	97.200808 
2605.000000	97.201007 
2604.000000	97.201231 
2603.000000	97.201452 
2602.000000	97.201579 
2601.000000	97.201679 
2600.000000	97.202041 
2599.000000	97.202826 
2598.000000	97.203701 
2597.000000	97.204083 
2596.000000	97.203730 
2595.000000	97.202935 
2594.000000	97.202206 
2593.000000	97.201889 
2592.000000	97.202195 
2591.000000	97.203157 
2590.000000	97.204365 
2589.000000	97.205108 
2588.000000	97.205154 
2587.000000	97.205148 
2586.000000	97.205953 
2585.000000	97.207810 
2584.000000	97.210301 
2583.000000	97.212737 
2582.000000	97.214368 
2581.000000	97.214618 
2580.000000	97.213630 
2579.000000	97.212523 
2578.000000	97.212579 
2577.000000	97.214082 
2576.000000	97.216154 
2575.000000	97.217621 
2574.000000	97.217934 
2573.000000	97.217308 
2572.000000	97.216264 
2571.000000	97.215047 
2570.000000	97.213567 
2569.000000	97.211986 
2568.000000	97.211066 
2567.000000	97.211462 
2566.000000	97.212731 
2565.000000	97.213636 
2564.000000	97.213607 
2563.000000	97.213299 
2562.000000	97.213578 
2561.000000	97.214733 
2560.000000	97.216937 
2559.000000	97.220553 
2558.000000	97.225303 
2557.000000	97.229761 
2556.000000	97.232655 
2555.000000	97.234245 
2554.000000	97.235571 
2553.000000	97.236693 
2552.000000	97.236706 
2551.000000	97.235609 
2550.000000	97.234933 
2549.000000	97.235775 
2548.000000	97.237070 
2547.000000	97.236915 
2546.000000	97.235170 
2545.000000	97.233746 
2544.000000	97.234146 
2543.000000	97.235658 
2542.000000	97.236536 
2541.000000	97.236383 
2540.000000	97.236434 
2539.000000	97.237625 
2538.000000	97.239385 
2537.000000	97.240655 
2536.000000	97.241301 
2535.000000	97.241859 
2534.000000	97.242379 
2533.000000	97.242394 
2532.000000	97.241993 
2531.000000	97.242126 
2530.000000	97.243496 
2529.000000	97.245602 
2528.000000	97.247210 
2527.000000	97.247689 
2526.000000	97.247574 
2525.000000	97.247910 
2524.000000	97.249200 
2523.000000	97.251007 
2522.000000	97.252423 
2521.000000	97.252869 
2520.000000	97.252502 
2519.000000	97.251976 
2518.000000	97.251849 
2517.000000	97.252119 
2516.000000	97.252209 
2515.000000	97.251472 
2514.000000	97.249969 
2513.000000	97.248734 
2512.000000	97.248983 
2511.000000	97.251090 
2510.000000	97.254469 
2509.000000	97.258203 
2508.000000	97.261540 
2507.000000	97.263895 
2506.000000	97.265098 
2505.000000	97.265909 
2504.000000	97.267604 
2503.000000	97.270401 
2502.000000	97.272757 
2501.000000	97.273024 
2500.000000	97.271334 
2499.000000	97.269331 
2498.000000	97.268300 
2497.000000	97.268249 
2496.000000	97.268793 
2495.000000	97.269870 
2494.000000	97.271275 
2493.000000	97.272306 
2492.000000	97.272526 
2491.000000	97.272527 
2490.000000	97.273340 
2489.000000	97.275152 
2488.000000	97.277032 
2487.000000	97.278020 
2486.000000	97.278195 
2485.000000	97.278447 
2484.000000	97.279373 
2483.000000	97.280594 
2482.000000	97.281253 
2481.000000	97.281052 
2480.000000	97.280594 
2479.000000	97.280707 
2478.000000	97.281648 
2477.000000	97.283042 
2476.000000	97.284242 
2475.000000	97.284578 
2474.000000	97.283606 
2473.000000	97.281534 
2472.000000	97.279297 
2471.000000	97.277803 
2470.000000	97.277204 
2469.000000	97.277233 
2468.000000	97.277865 
2467.000000	97.279140 
2466.000000	97.280464 
2465.000000	97.280818 
2464.000000	97.279953 
2463.000000	97.278882 
2462.000000	97.278852 
2461.000000	97.280164 
2460.000000	97.282223 
2459.000000	97.284264 
2458.000000	97.285647 
2457.000000	97.285748 
2456.000000	97.284206 
2455.000000	97.281437 
2454.000000	97.278610 
2453.000000	97.276691 
2452.000000	97.275655 
2451.000000	97.274895 
2450.000000	97.274377 
2449.000000	97.274925 
2448.000000	97.277025 
2447.000000	97.279713 
2446.000000	97.281261 
2445.000000	97.281113 
2444.000000	97.280403 
2443.000000	97.280470 
2442.000000	97.281499 
2441.000000	97.282859 
2440.000000	97.284161 
2439.000000	97.285497 
2438.000000	97.287014 
2437.000000	97.288772 
2436.000000	97.290756 
2435.000000	97.292668 
2434.000000	97.293952 
2433.000000	97.294414 
2432.000000	97.294605 
2431.000000	97.295273 
2430.000000	97.296675 
2429.000000	97.298647 
2428.000000	97.300936 
2427.000000	97.303110 
2426.000000	97.304363 
2425.000000	97.303884 
2424.000000	97.301850 
2423.000000	97.299761 
2422.000000	97.299138 
2421.000000	97.300566 
2420.000000	97.303900 
2419.000000	97.308104 
2418.000000	97.311308 
2417.000000	97.312450 
2416.000000	97.312549 
2415.000000	97.313150 
2414.000000	97.314211 
2413.000000	97.314695 
2412.000000	97.314664 
2411.000000	97.315196 
2410.000000	97.316623 
2409.000000	97.318464 
2408.000000	97.320887 
2407.000000	97.324352 
2406.000000	97.327709 
2405.000000	97.328486 
2404.000000	97.325686 
2403.000000	97.321144 
2402.000000	97.317760 
2401.000000	97.317391 
2400.000000	97.320434 
2399.000000	97.326061 
2398.000000	97.332499 
2397.000000	97.338070 
2396.000000	97.342238 
2395.000000	97.344987 
2394.000000	97.345707 
2393.000000	97.344150 
2392.000000	97.342118 
2391.000000	97.342594 
2390.000000	97.346697 
2389.000000	97.352966 
2388.000000	97.359769 
2387.000000	97.366931 
2386.000000	97.374627 
2385.000000	97.381926 
2384.000000	97.387362 
2383.000000	97.389844 
2382.000000	97.388205 
2381.000000	97.381125 
2380.000000	97.368577 
2379.000000	97.352868 
2378.000000	97.337434 
2377.000000	97.325141 
2376.000000	97.318255 
2375.000000	97.318530 
2374.000000	97.325531 
2373.000000	97.335446 
2372.000000	97.343794 
2371.000000	97.349365 
2370.000000	97.353579 
2369.000000	97.356743 
2368.000000	97.357442 
2367.000000	97.355252 
2366.000000	97.351744 
2365.000000	97.348718 
2364.000000	97.346977 
2363.000000	97.346623 
2362.000000	97.347661 
2361.000000	97.349742 
2360.000000	97.351954 
2359.000000	97.353628 
2358.000000	97.354343 
2357.000000	97.354074 
2356.000000	97.353333 
2355.000000	97.352678 
2354.000000	97.352289 
2353.000000	97.352313 
2352.000000	97.352799 
2351.000000	97.353408 
2350.000000	97.353836 
2349.000000	97.354116 
2348.000000	97.354357 
2347.000000	97.354564 
2346.000000	97.354808 
2345.000000	97.355144 
2344.000000	97.355578 
2343.000000	97.356081 
2342.000000	97.356624 
2341.000000	97.357206 
2340.000000	97.357845 
2339.000000	97.358562 
2338.000000	97.359362 
2337.000000	97.360235 
2336.000000	97.361167 
2335.000000	97.362135 
2334.000000	97.363098 
2333.000000	97.364010 
2332.000000	97.364848 
2331.000000	97.365610 
2330.000000	97.366293 
2329.000000	97.366929 
2328.000000	97.367552 
2327.000000	97.368205 
2326.000000	97.368870 
2325.000000	97.369318 
2324.000000	97.369504 
2323.000000	97.369761 
2322.000000	97.370234 
2321.000000	97.370203 
2320.000000	97.369276 
2319.000000	97.368328 
2318.000000	97.368458 
2317.000000	97.369114 
2316.000000	97.368779 
2315.000000	97.367161 
2314.000000	97.365403 
2313.000000	97.364764 
2312.000000	97.366164 
2311.000000	97.370534 
2310.000000	97.376734 
2309.000000	97.381438 
2308.000000	97.382463 
2307.000000	97.382097 
2306.000000	97.383348 
2305.000000	97.386552 
2304.000000	97.390236 
2303.000000	97.393932 
2302.000000	97.397863 
2301.000000	97.401290 
2300.000000	97.401965 
2299.000000	97.397847 
2298.000000	97.388671 
2297.000000	97.375198 
2296.000000	97.359789 
2295.000000	97.345962 
2294.000000	97.335914 
2293.000000	97.328369 
2292.000000	97.321134 
2291.000000	97.313951 
2290.000000	97.308083 
2289.000000	97.303850 
2288.000000	97.300168 
2287.000000	97.295832 
2286.000000	97.290263 
2285.000000	97.284060 
2284.000000	97.279257 
2283.000000	97.278078 
2282.000000	97.280169 
2281.000000	97.282306 
2280.000000	97.281404 
2279.000000	97.277001 
2278.000000	97.270495 
2277.000000	97.263828 
2276.000000	97.259450 
2275.000000	97.259354 
2274.000000	97.262920 
2273.000000	97.267200 
2272.000000	97.270113 
2271.000000	97.271721 
2270.000000	97.272174 
2269.000000	97.270645 
2268.000000	97.267118 
2267.000000	97.263052 
2266.000000	97.259620 
2265.000000	97.256893 
2264.000000	97.254836 
2263.000000	97.253329 
2262.000000	97.251191 
2261.000000	97.247196 
2260.000000	97.242152 
2259.000000	97.238271 
2258.000000	97.236437 
2257.000000	97.235715 
2256.000000	97.235435 
2255.000000	97.236050 
2254.000000	97.237559 
2253.000000	97.238479 
2252.000000	97.237373 
2251.000000	97.234409 
2250.000000	97.230648 
2249.000000	97.226846 
2248.000000	97.223531 
2247.000000	97.221288 
2246.000000	97.220158 
2245.000000	97.219263 
2244.000000	97.217656 
2243.000000	97.215299 
2242.000000	97.212852 
2241.000000	97.210949 
2240.000000	97.209742 
2239.000000	97.209022 
2238.000000	97.208357 
2237.000000	97.207360 
2236.000000	97.206009 
2235.000000	97.204593 
2234.000000	97.203325 
2233.000000	97.202123 
2232.000000	97.200840 
2231.000000	97.199540 
2230.000000	97.198346 
2229.000000	97.197144 
2228.000000	97.195725 
2227.000000	97.194183 
2226.000000	97.192845 
2225.000000	97.191786 
2224.000000	97.190691 
2223.000000	97.189342 
2222.000000	97.187900 
2221.000000	97.186640 
2220.000000	97.185589 
2219.000000	97.184618 
2218.000000	97.183658 
2217.000000	97.182729 
2216.000000	97.181859 
2215.000000	97.181010 
2214.000000	97.180117 
2213.000000	97.179147 
2212.000000	97.178128 
2211.000000	97.177110 
2210.000000	97.176132 
2209.000000	97.175201 
2208.000000	97.174303 
2207.000000	97.173403 
2206.000000	97.172460 
2205.000000	97.171467 
2204.000000	97.170515 
2203.000000	97.169890 
2202.000000	97.169983 
2201.000000	97.170630 
2200.000000	97.170671 
2199.000000	97.168879 
2198.000000	97.165187 
2197.000000	97.160911 
2196.000000	97.157702 
2195.000000	97.156194 
2194.000000	97.155640 
2193.000000	97.154979 
2192.000000	97.154224 
2191.000000	97.154074 
2190.000000	97.154334 
2189.000000	97.154130 
2188.000000	97.153796 
2187.000000	97.154460 
2186.000000	97.155017 
2185.000000	97.152227 
2184.000000	97.145887 
2183.000000	97.141551 
2182.000000	97.144688 
2181.000000	97.153541 
2180.000000	97.160255 
2179.000000	97.159539 
2178.000000	97.153009 
2177.000000	97.146006 
2176.000000	97.142668 
2175.000000	97.143813 
2174.000000	97.147051 
2173.000000	97.148605 
2172.000000	97.147267 
2171.000000	97.145970 
2170.000000	97.147339 
2169.000000	97.149152 
2168.000000	97.147464 
2167.000000	97.143031 
2166.000000	97.140160 
2165.000000	97.139319 
2164.000000	97.135797 
2163.000000	97.127469 
2162.000000	97.120300 
2161.000000	97.123429 
2160.000000	97.140733 
2159.000000	97.167839 
2158.000000	97.195225 
2157.000000	97.215137 
2156.000000	97.226363 
2155.000000	97.232317 
2154.000000	97.235993 
2153.000000	97.238261 
2152.000000	97.239876 
2151.000000	97.241701 
2150.000000	97.242625 
2149.000000	97.240967 
2148.000000	97.239067 
2147.000000	97.242332 
2146.000000	97.251727 
2145.000000	97.261507 
2144.000000	97.267337 
2143.000000	97.272185 
2142.000000	97.280201 
2141.000000	97.289134 
2140.000000	97.294252 
2139.000000	97.297014 
2138.000000	97.303870 
2137.000000	97.317087 
2136.000000	97.331303 
2135.000000	97.339197 
2134.000000	97.337394 
2133.000000	97.328171 
2132.000000	97.318681 
2131.000000	97.316325 
2130.000000	97.321887 
2129.000000	97.328405 
2128.000000	97.329069 
2127.000000	97.324896 
2126.000000	97.322319 
2125.000000	97.324845 
2124.000000	97.330082 
2123.000000	97.333948 
2122.000000	97.334300 
2121.000000	97.330631 
2120.000000	97.323478 
2119.000000	97.314932 
2118.000000	97.307968 
2117.000000	97.304341 
2116.000000	97.303467 
2115.000000	97.303277 
2114.000000	97.301509 
2113.000000	97.297199 
2112.000000	97.292143 
2111.000000	97.289947 
2110.000000	97.292362 
2109.000000	97.297266 
2108.000000	97.301135 
2107.000000	97.302582 
2106.000000	97.302384 
2105.000000	97.301654 
2104.000000	97.301465 
2103.000000	97.302624 
2102.000000	97.303917 
2101.000000	97.302073 
2100.000000	97.295693 
2099.000000	97.288279 
2098.000000	97.285244 
2097.000000	97.288291 
2096.000000	97.294684 
2095.000000	97.300742 
2094.000000	97.304574 
2093.000000	97.305746 
2092.000000	97.304475 
2091.000000	97.301979 
2090.000000	97.300225 
2089.000000	97.300359 
2088.000000	97.301644 
2087.000000	97.302111 
2086.000000	97.300108 
2085.000000	97.295543 
2084.000000	97.290323 
2083.000000	97.286994 
2082.000000	97.286247 
2081.000000	97.286392 
2080.000000	97.286009 
2079.000000	97.286029 
2078.000000	97.287770 
2077.000000	97.289965 
2076.000000	97.290024 
2075.000000	97.287788 
2074.000000	97.285305 
2073.000000	97.283073 
2072.000000	97.279168 
2071.000000	97.272697 
2070.000000	97.265457 
2069.000000	97.259584 
2068.000000	97.255858 
2067.000000	97.254352 
2066.000000	97.254750 
2065.000000	97.255355 
2064.000000	97.253791 
2063.000000	97.249881 
2062.000000	97.246433 
2061.000000	97.246294 
2060.000000	97.249554 
2059.000000	97.254009 
2058.000000	97.257073 
2057.000000	97.257132 
2056.000000	97.253939 
2055.000000	97.248390 
2054.000000	97.242128 
2053.000000	97.236713 
2052.000000	97.232982 
2051.000000	97.230779 
2050.000000	97.229132 
2049.000000	97.227161 
2048.000000	97.225206 
2047.000000	97.224513 
2046.000000	97.225441 
2045.000000	97.226749 
2044.000000	97.227158 
2043.000000	97.226849 
2042.000000	97.226786 
2041.000000	97.227261 
2040.000000	97.227859 
2039.000000	97.228376 
2038.000000	97.228959 
2037.000000	97.229522 
2036.000000	97.229736 
2035.000000	97.229630 
2034.000000	97.229772 
2033.000000	97.230833 
2032.000000	97.233085 
2031.000000	97.236011 
2030.000000	97.238182 
2029.000000	97.238327 
2028.000000	97.236553 
2027.000000	97.234415 
2026.000000	97.233353 
2025.000000	97.233376 
2024.000000	97.233876 
2023.000000	97.234858 
2022.000000	97.236802 
2021.000000	97.239472 
2020.000000	97.241598 
2019.000000	97.242012 
2018.000000	97.240507 
2017.000000	97.237878 
2016.000000	97.235558 
2015.000000	97.234837 
2014.000000	97.235806 
2013.000000	97.236895 
2012.000000	97.236456 
2011.000000	97.235039 
2010.000000	97.234907 
2009.000000	97.237060 
2008.000000	97.240033 
2007.000000	97.242025 
2006.000000	97.242940 
2005.000000	97.243584 
2004.000000	97.244327 
2003.000000	97.245406 
2002.000000	97.247439 
2001.000000	97.250189 
2000.000000	97.251923 
1999.000000	97.250653 
1998.000000	97.245524 
1997.000000	97.237421 
1996.000000	97.228827 
1995.000000	97.222943 
1994.000000	97.221755 
1993.000000	97.224416 
1992.000000	97.227648 
1991.000000	97.229094 
1990.000000	97.229604 
1989.000000	97.231346 
1988.000000	97.234750 
1987.000000	97.237853 
1986.000000	97.238132 
1985.000000	97.234816 
1984.000000	97.229540 
1983.000000	97.224769 
1982.000000	97.221574 
1981.000000	97.219278 
1980.000000	97.217835 
1979.000000	97.218777 
1978.000000	97.222580 
1977.000000	97.226896 
1976.000000	97.229090 
1975.000000	97.229897 
1974.000000	97.232314 
1973.000000	97.237830 
1972.000000	97.245190 
1971.000000	97.252087 
1970.000000	97.256559 
1969.000000	97.257240 
1968.000000	97.254001 
1967.000000	97.248796 
1966.000000	97.244953 
1965.000000	97.244721 
1964.000000	97.248167 
1963.000000	97.254181 
1962.000000	97.261489 
1961.000000	97.268594 
1960.000000	97.273655 
1959.000000	97.275319 
1958.000000	97.273910 
1957.000000	97.271662 
1956.000000	97.271190 
1955.000000	97.273309 
1954.000000	97.276560 
1953.000000	97.278974 
1952.000000	97.279903 
1951.000000	97.280160 
1950.000000	97.280963 
1949.000000	97.282983 
1948.000000	97.286427 
1947.000000	97.290798 
1946.000000	97.294460 
1945.000000	97.295589 
1944.000000	97.293963 
1943.000000	97.291323 
1942.000000	97.289631 
1941.000000	97.289286 
1940.000000	97.289564 
1939.000000	97.289875 
1938.000000	97.290337 
1937.000000	97.291617 
1936.000000	97.294286 
1935.000000	97.297927 
1934.000000	97.301010 
1933.000000	97.302562 
1932.000000	97.303465 
1931.000000	97.305536 
1930.000000	97.309094 
1929.000000	97.312121 
1928.000000	97.313296 
1927.000000	97.313265 
1926.000000	97.313044 
1925.000000	97.312350 
1924.000000	97.310742 
1923.000000	97.309646 
1922.000000	97.310191 
1921.000000	97.311040 
1920.000000	97.310432 
1919.000000	97.308973 
1918.000000	97.308364 
1917.000000	97.308261 
1916.000000	97.307309 
1915.000000	97.305969 
1914.000000	97.305633 
1913.000000	97.306438 
1912.000000	97.306980 
1911.000000	97.306550 
1910.000000	97.305766 
1909.000000	97.305182 
1908.000000	97.305142 
1907.000000	97.305571 
1906.000000	97.305864 
1905.000000	97.305014 
1904.000000	97.302719 
1903.000000	97.300450 
1902.000000	97.299549 
1901.000000	97.299518 
1900.000000	97.299206 
1899.000000	97.298414 
1898.000000	97.297741 
1897.000000	97.297362 
1896.000000	97.296820 
1895.000000	97.295973 
1894.000000	97.295021 
1893.000000	97.293961 
1892.000000	97.292691 
1891.000000	97.291535 
1890.000000	97.290960 
1889.000000	97.290827 
1888.000000	97.290694 
1887.000000	97.290561 
1886.000000	97.290594 
1885.000000	97.290548 
1884.000000	97.289955 
1883.000000	97.288842 
1882.000000	97.287811 
1881.000000	97.287332 
1880.000000	97.287392 
1879.000000	97.287554 
1878.000000	97.287319 
1877.000000	97.286723 
1876.000000	97.286365 
1875.000000	97.286908 
1874.000000	97.288446 
1873.000000	97.290203 
1872.000000	97.291340 
1871.000000	97.291781 
1870.000000	97.291803 
1869.000000	97.291270 
1868.000000	97.290323 
1867.000000	97.290202 
1866.000000	97.291319 
1865.000000	97.292143 
1864.000000	97.291392 
1863.000000	97.290152 
1862.000000	97.290516 
1861.000000	97.292717 
1860.000000	97.295224 
1859.000000	97.297353 
1858.000000	97.299731 
1857.000000	97.302429 
1856.000000	97.304741 
1855.000000	97.306546 
1854.000000	97.308213 
1853.000000	97.309185 
1852.000000	97.309293 
1851.000000	97.309515 
1850.000000	97.310540 
1849.000000	97.312183 
1848.000000	97.313911 
1847.000000	97.315889 
1846.000000	97.318311 
1845.000000	97.320628 
1844.000000	97.321977 
1843.000000	97.322914 
1842.000000	97.324535 
1841.000000	97.326139 
1840.000000	97.327156 
1839.000000	97.328282 
1838.000000	97.330154 
1837.000000	97.331869 
1836.000000	97.332207 
1835.000000	97.331846 
1834.000000	97.332225 
1833.000000	97.333259 
1832.000000	97.333847 
1831.000000	97.333362 
1830.000000	97.332333 
1829.000000	97.332105 
1828.000000	97.333286 
1827.000000	97.335300 
1826.000000	97.337461 
1825.000000	97.339557 
1824.000000	97.341107 
1823.000000	97.341869 
1822.000000	97.342069 
1821.000000	97.341916 
1820.000000	97.341585 
1819.000000	97.341413 
1818.000000	97.342166 
1817.000000	97.343613 
1816.000000	97.344154 
1815.000000	97.343349 
1814.000000	97.342416 
1813.000000	97.342608 
1812.000000	97.343300 
1811.000000	97.343069 
1810.000000	97.342257 
1809.000000	97.341727 
1808.000000	97.341376 
1807.000000	97.341075 
1806.000000	97.341200 
1805.000000	97.341621 
1804.000000	97.341528 
1803.000000	97.341092 
1802.000000	97.341103 
1801.000000	97.341629 
1800.000000	97.341524 
1799.000000	97.340216 
1798.000000	97.339048 
1797.000000	97.338734 
1796.000000	97.338688 
1795.000000	97.338578 
1794.000000	97.338878 
1793.000000	97.339795 
1792.000000	97.340276 
1791.000000	97.340158 
1790.000000	97.340859 
1789.000000	97.342135 
1788.000000	97.342896 
1787.000000	97.343267 
1786.000000	97.344279 
1785.000000	97.345848 
1784.000000	97.346825 
1783.000000	97.347066 
1782.000000	97.346874 
1781.000000	97.346922 
1780.000000	97.347703 
1779.000000	97.348901 
1778.000000	97.350171 
1777.000000	97.351217 
1776.000000	97.352194 
1775.000000	97.353132 
1774.000000	97.353778 
1773.000000	97.354086 
1772.000000	97.354283 
1771.000000	97.354658 
1770.000000	97.355336 
1769.000000	97.356186 
1768.000000	97.357066 
1767.000000	97.357871 
1766.000000	97.358538 
1765.000000	97.359083 
1764.000000	97.359552 
1763.000000	97.359999 
1762.000000	97.360445 
1761.000000	97.360931 
1760.000000	97.361480 
1759.000000	97.362013 
1758.000000	97.362450 
1757.000000	97.362793 
1756.000000	97.363261 
1755.000000	97.363828 
1754.000000	97.364094 
1753.000000	97.363814 
1752.000000	97.363531 
1751.000000	97.363861 
1750.000000	97.364668 
1749.000000	97.365238 
1748.000000	97.365131 
1747.000000	97.364628 
1746.000000	97.363662 
1745.000000	97.362813 
1744.000000	97.363133 
1743.000000	97.364544 
1742.000000	97.365754 
1741.000000	97.365421 
1740.000000	97.363274 
1739.000000	97.361309 
1738.000000	97.362255 
1737.000000	97.364867 
1736.000000	97.366060 
1735.000000	97.366336 
1734.000000	97.365553 
1733.000000	97.362142 
1732.000000	97.360223 
1731.000000	97.360729 
1730.000000	97.363079 
1729.000000	97.365881 
1728.000000	97.366841 
1727.000000	97.364800 
1726.000000	97.360270 
1725.000000	97.356230 
1724.000000	97.353495 
1723.000000	97.351304 
1722.000000	97.351006 
1721.000000	97.351878 
1720.000000	97.350795 
1719.000000	97.346790 
1718.000000	97.343456 
1717.000000	97.341076 
1716.000000	97.335887 
1715.000000	97.329202 
1714.000000	97.325298 
1713.000000	97.323387 
1712.000000	97.318837 
1711.000000	97.311859 
1710.000000	97.306441 
1709.000000	97.303369 
1708.000000	97.299562 
1707.000000	97.292885 
1706.000000	97.285685 
1705.000000	97.280171 
1704.000000	97.275509 
1703.000000	97.270086 
1702.000000	97.264346 
1701.000000	97.260419 
1700.000000	97.253192 
1699.000000	97.242556 
1698.000000	97.236601 
1697.000000	97.231850 
1696.000000	97.224434 
1695.000000	97.215247 
1694.000000	97.208327 
1693.000000	97.202601 
1692.000000	97.194565 
1691.000000	97.184887 
1690.000000	97.175642 
1689.000000	97.167565 
1688.000000	97.160699 
1687.000000	97.153896 
1686.000000	97.146598 
1685.000000	97.138925 
1684.000000	97.129803 
1683.000000	97.120448 
1682.000000	97.113008 
1681.000000	97.105662 
1680.000000	97.098263 
1679.000000	97.091717 
1678.000000	97.085378 
1677.000000	97.078071 
1676.000000	97.070136 
1675.000000	97.062094 
1674.000000	97.053032 
1673.000000	97.043382 
1672.000000	97.033617 
1671.000000	97.024646 
1670.000000	97.016832 
1669.000000	97.008029 
1668.000000	97.000316 
1667.000000	96.995954 
1666.000000	96.992091 
1665.000000	96.985717 
1664.000000	96.976986 
1663.000000	96.968786 
1662.000000	96.960947 
1661.000000	96.951559 
1660.000000	96.942377 
1659.000000	96.934103 
1658.000000	96.925209 
1657.000000	96.915787 
1656.000000	96.908292 
1655.000000	96.904884 
1654.000000	96.907432 
1653.000000	96.897172 
1652.000000	96.868707 
1651.000000	96.858845 
1650.000000	96.857605 
1649.000000	96.850306 
1648.000000	96.842117 
1647.000000	96.839375 
1646.000000	96.838126 
1645.000000	96.836034 
1644.000000	96.832374 
1643.000000	96.827915 
1642.000000	96.823782 
1641.000000	96.819747 
1640.000000	96.817188 
1639.000000	96.815975 
1638.000000	96.815629 
1637.000000	96.816056 
1636.000000	96.816033 
1635.000000	96.810670 
1634.000000	96.806049 
1633.000000	96.807475 
1632.000000	96.808117 
1631.000000	96.809340 
1630.000000	96.813512 
1629.000000	96.817811 
1628.000000	96.819973 
1627.000000	96.824440 
1626.000000	96.832429 
1625.000000	96.839600 
1624.000000	96.844836 
1623.000000	96.851531 
1622.000000	96.860885 
1621.000000	96.871118 
1620.000000	96.881905 
1619.000000	96.893570 
1618.000000	96.906060 
1617.000000	96.911313 
1616.000000	96.906925 
1615.000000	96.907908 
1614.000000	96.917962 
1613.000000	96.926022 
1612.000000	96.929406 
1611.000000	96.934717 
1610.000000	96.943549 
1609.000000	96.952946 
1608.000000	96.965103 
1607.000000	96.982967 
1606.000000	96.999612 
1605.000000	97.008695 
1604.000000	97.016015 
1603.000000	97.026902 
1602.000000	97.038863 
1601.000000	97.047867 
1600.000000	97.055623 
1599.000000	97.064576 
1598.000000	97.072605 
1597.000000	97.078003 
1596.000000	97.083148 
1595.000000	97.090951 
1594.000000	97.100196 
1593.000000	97.108189 
1592.000000	97.115628 
1591.000000	97.124493 
1590.000000	97.133638 
1589.000000	97.140909 
1588.000000	97.147382 
1587.000000	97.155495 
1586.000000	97.164397 
1585.000000	97.170623 
1584.000000	97.175726 
1583.000000	97.182573 
1582.000000	97.188699 
1581.000000	97.192269 
1580.000000	97.196652 
1579.000000	97.204069 
1578.000000	97.211971 
1577.000000	97.218248 
1576.000000	97.222141 
1575.000000	97.226718 
1574.000000	97.234213 
1573.000000	97.241099 
1572.000000	97.246106 
1571.000000	97.251449 
1570.000000	97.255925 
1569.000000	97.256227 
1568.000000	97.257297 
1567.000000	97.261511 
1566.000000	97.264419 
1565.000000	97.264522 
1564.000000	97.265577 
1563.000000	97.268974 
1562.000000	97.270700 
1561.000000	97.268888 
1560.000000	97.273847 
1559.000000	97.284638 
1558.000000	97.284464 
1557.000000	97.282422 
1556.000000	97.283016 
1555.000000	97.284847 
1554.000000	97.286441 
1553.000000	97.286947 
1552.000000	97.286638 
1551.000000	97.285697 
1550.000000	97.285627 
1549.000000	97.286037 
1548.000000	97.285366 
1547.000000	97.283370 
1546.000000	97.280637 
1545.000000	97.278753 
1544.000000	97.278387 
1543.000000	97.278433 
1542.000000	97.278074 
1541.000000	97.276817 
1540.000000	97.272767 
1539.000000	97.267203 
1538.000000	97.264005 
1537.000000	97.262195 
1536.000000	97.259354 
1535.000000	97.255978 
1534.000000	97.253165 
1533.000000	97.250916 
1532.000000	97.248570 
1531.000000	97.245652 
1530.000000	97.242268 
1529.000000	97.238687 
1528.000000	97.235123 
1527.000000	97.231805 
1526.000000	97.228714 
1525.000000	97.225572 
1524.000000	97.222116 
1523.000000	97.218381 
1522.000000	97.214730 
1521.000000	97.211214 
1520.000000	97.207522 
1519.000000	97.203420 
1518.000000	97.198946 
1517.000000	97.194598 
1516.000000	97.190691 
1515.000000	97.187055 
1514.000000	97.183326 
1513.000000	97.179359 
1512.000000	97.175108 
1511.000000	97.170527 
1510.000000	97.165775 
1509.000000	97.161178 
1508.000000	97.157276 
1507.000000	97.154142 
1506.000000	97.150480 
1505.000000	97.145758 
1504.000000	97.140645 
1503.000000	97.135096 
1502.000000	97.129079 
1501.000000	97.123090 
1500.000000	97.117426 
1499.000000	97.111766 
1498.000000	97.106126 
1497.000000	97.101462 
1496.000000	97.097718 
1495.000000	97.094587 
1494.000000	97.092150 
1493.000000	97.089565 
1492.000000	97.085875 
1491.000000	97.081664 
1490.000000	97.078770 
1489.000000	97.076830 
1488.000000	97.072488 
1487.000000	97.065238 
1486.000000	97.058136 
1485.000000	97.051207 
1484.000000	97.043576 
1483.000000	97.035817 
1482.000000	97.029524 
1481.000000	97.025048 
1480.000000	97.019843 
1479.000000	97.012456 
1478.000000	97.004398 
1477.000000	96.998013 
1476.000000	96.992519 
1475.000000	96.986635 
1474.000000	96.980602 
1473.000000	96.975719 
1472.000000	96.971742 
1471.000000	96.967123 
1470.000000	96.961780 
1469.000000	96.955065 
1468.000000	96.946349 
1467.000000	96.936846 
1466.000000	96.928870 
1465.000000	96.923365 
1464.000000	96.919155 
1463.000000	96.913074 
1462.000000	96.903925 
1461.000000	96.892673 
1460.000000	96.881279 
1459.000000	96.871448 
1458.000000	96.865003 
1457.000000	96.862110 
1456.000000	96.859128 
1455.000000	96.853612 
1454.000000	96.843930 
1453.000000	96.832413 
1452.000000	96.823447 
1451.000000	96.818130 
1450.000000	96.815480 
1449.000000	96.815162 
1448.000000	96.816107 
1447.000000	96.816251 
1446.000000	96.812939 
1445.000000	96.806974 
1444.000000	96.801572 
1443.000000	96.795825 
1442.000000	96.788542 
1441.000000	96.780738 
1440.000000	96.773683 
1439.000000	96.765135 
1438.000000	96.756211 
1437.000000	96.753072 
1436.000000	96.755130 
1435.000000	96.754096 
1434.000000	96.746931 
1433.000000	96.738310 
1432.000000	96.733367 
1431.000000	96.732082 
1430.000000	96.731643 
1429.000000	96.732212 
1428.000000	96.732574 
1427.000000	96.730534 
1426.000000	96.724585 
1425.000000	96.720018 
1424.000000	96.723444 
1423.000000	96.728329 
1422.000000	96.725364 
1421.000000	96.716455 
1420.000000	96.712474 
1419.000000	96.714115 
1418.000000	96.712968 
1417.000000	96.710112 
1416.000000	96.709607 
1415.000000	96.709883 
1414.000000	96.706628 
1413.000000	96.700257 
1412.000000	96.695510 
1411.000000	96.693165 
1410.000000	96.691087 
1409.000000	96.689622 
1408.000000	96.689269 
1407.000000	96.690801 
1406.000000	96.695033 
1405.000000	96.704762 
1404.000000	96.721622 
1403.000000	96.738283 
1402.000000	96.747860 
1401.000000	96.753701 
1400.000000	96.765529 
1399.000000	96.784611 
1398.000000	96.800332 
1397.000000	96.804574 
1396.000000	96.801047 
1395.000000	96.800736 
1394.000000	96.809348 
1393.000000	96.825956 
1392.000000	96.846566 
1391.000000	96.864895 
1390.000000	96.877017 
1389.000000	96.884233 
1388.000000	96.890755 
1387.000000	96.898458 
1386.000000	96.905420 
1385.000000	96.911110 
1384.000000	96.918722 
1383.000000	96.929590 
1382.000000	96.941533 
1381.000000	96.951612 
1380.000000	96.959929 
1379.000000	96.969047 
1378.000000	96.979418 
1377.000000	96.989152 
1376.000000	96.997838 
1375.000000	97.008120 
1374.000000	97.021740 
1373.000000	97.037608 
1372.000000	97.053292 
1371.000000	97.067669 
1370.000000	97.080737 
1369.000000	97.093407 
1368.000000	97.106857 
1367.000000	97.119112 
1366.000000	97.127296 
1365.000000	97.131978 
1364.000000	97.137762 
1363.000000	97.148283 
1362.000000	97.161886 
1361.000000	97.174563 
1360.000000	97.185674 
1359.000000	97.197094 
1358.000000	97.208850 
1357.000000	97.219240 
1356.000000	97.227974 
1355.000000	97.235956 
1354.000000	97.243863 
1353.000000	97.252155 
1352.000000	97.260824 
1351.000000	97.270680 
1350.000000	97.281023 
1349.000000	97.289670 
1348.000000	97.296251 
1347.000000	97.301560 
1346.000000	97.306795 
1345.000000	97.312064 
1344.000000	97.316301 
1343.000000	97.317694 
1342.000000	97.316021 
1341.000000	97.314401 
1340.000000	97.317428 
1339.000000	97.325923 
1338.000000	97.336068 
1337.000000	97.344600 
1336.000000	97.351077 
1335.000000	97.355180 
1334.000000	97.356138 
1333.000000	97.355168 
1332.000000	97.355432 
1331.000000	97.358316 
1330.000000	97.361801 
1329.000000	97.363873 
1328.000000	97.365217 
1327.000000	97.367348 
1326.000000	97.369476 
1325.000000	97.369677 
1324.000000	97.367514 
1323.000000	97.363252 
1322.000000	97.357292 
1321.000000	97.351356 
1320.000000	97.348654 
1319.000000	97.350986 
1318.000000	97.356741 
1317.000000	97.362480 
1316.000000	97.365472 
1315.000000	97.364557 
1314.000000	97.360736 
1313.000000	97.357606 
1312.000000	97.358699 
1311.000000	97.363407 
1310.000000	97.367362 
1309.000000	97.367596 
1308.000000	97.365408 
1307.000000	97.364079 
1306.000000	97.364995 
1305.000000	97.367385 
1304.000000	97.370066 
1303.000000	97.371369 
1302.000000	97.369597 
1301.000000	97.365051 
1300.000000	97.360911 
1299.000000	97.360437 
1298.000000	97.363758 
1297.000000	97.367877 
1296.000000	97.369510 
1295.000000	97.367602 
1294.000000	97.363953 
1293.000000	97.361861 
1292.000000	97.363101 
1291.000000	97.366177 
1290.000000	97.368413 
1289.000000	97.369212 
1288.000000	97.369693 
1287.000000	97.369708 
1286.000000	97.367635 
1285.000000	97.363586 
1284.000000	97.360407 
1283.000000	97.360387 
1282.000000	97.362550 
1281.000000	97.364050 
1280.000000	97.363283 
1279.000000	97.360852 
1278.000000	97.358792 
1277.000000	97.359458 
1276.000000	97.363482 
1275.000000	97.368319 
1274.000000	97.370340 
1273.000000	97.369104 
1272.000000	97.367687 
1271.000000	97.368181 
1270.000000	97.368929 
1269.000000	97.367545 
1268.000000	97.364556 
1267.000000	97.362069 
1266.000000	97.360676 
1265.000000	97.359741 
1264.000000	97.359330 
1263.000000	97.360006 
1262.000000	97.361392 
1261.000000	97.362496 
1260.000000	97.363528 
1259.000000	97.365859 
1258.000000	97.369951 
1257.000000	97.374029 
1256.000000	97.375021 
1255.000000	97.371490 
1254.000000	97.365817 
1253.000000	97.362255 
1252.000000	97.361921 
1251.000000	97.361413 
1250.000000	97.358037 
1249.000000	97.354539 
1248.000000	97.355716 
1247.000000	97.361245 
1246.000000	97.365445 
1245.000000	97.364137 
1244.000000	97.358543 
1243.000000	97.352856 
1242.000000	97.351168 
1241.000000	97.356409 
1240.000000	97.368089 
1239.000000	97.380106 
1238.000000	97.384609 
1237.000000	97.379684 
1236.000000	97.370507 
1235.000000	97.362222 
1234.000000	97.354932 
1233.000000	97.346812 
1232.000000	97.338180 
1231.000000	97.329905 
1230.000000	97.320931 
1229.000000	97.310185 
1228.000000	97.298684 
1227.000000	97.287262 
1226.000000	97.273970 
1225.000000	97.256209 
1224.000000	97.234137 
1223.000000	97.209826 
1222.000000	97.183999 
1221.000000	97.155467 
1220.000000	97.123095 
1219.000000	97.086818 
1218.000000	97.047265 
1217.000000	97.005197 
1216.000000	96.960403 
1215.000000	96.910915 
1214.000000	96.855207 
1213.000000	96.796000 
1212.000000	96.739195 
1211.000000	96.686967 
1210.000000	96.634082 
1209.000000	96.573754 
1208.000000	96.505616 
1207.000000	96.435255 
1206.000000	96.366848 
1205.000000	96.298885 
1204.000000	96.227054 
1203.000000	96.149181 
1202.000000	96.067394 
1201.000000	95.986605 
1200.000000	95.910367 
1199.000000	95.837307 
1198.000000	95.762562 
1197.000000	95.683582 
1196.000000	95.602753 
1195.000000	95.523258 
1194.000000	95.444492 
1193.000000	95.363534 
1192.000000	95.279160 
1191.000000	95.191926 
1190.000000	95.101923 
1189.000000	95.009021 
1188.000000	94.914080 
1187.000000	94.817616 
1186.000000	94.718651 
1185.000000	94.616871 
1184.000000	94.513977 
1183.000000	94.410649 
1182.000000	94.304604 
1181.000000	94.194517 
1180.000000	94.083102 
1179.000000	93.972458 
1178.000000	93.858989 
1177.000000	93.737683 
1176.000000	93.609281 
1175.000000	93.478325 
1174.000000	93.346036 
1173.000000	93.210713 
1172.000000	93.073603 
1171.000000	92.937906 
1170.000000	92.802746 
1169.000000	92.665005 
1168.000000	92.527592 
1167.000000	92.399869 
1166.000000	92.289977 
1165.000000	92.203389 
1164.000000	92.148648 
1163.000000	92.135537 
1162.000000	92.163923 
1161.000000	92.219281 
1160.000000	92.280931 
1159.000000	92.330599 
1158.000000	92.353992 
1157.000000	92.341991 
1156.000000	92.293738 
1155.000000	92.215440 
1154.000000	92.115085 
1153.000000	92.000628 
1152.000000	91.881643 
1151.000000	91.766554 
1150.000000	91.656929 
1149.000000	91.549154 
1148.000000	91.442079 
1147.000000	91.337863 
1146.000000	91.235533 
1145.000000	91.130203 
1144.000000	91.019817 
1143.000000	90.906987 
1142.000000	90.793241 
1141.000000	90.677207 
1140.000000	90.559471 
1139.000000	90.443505 
1138.000000	90.330521 
1137.000000	90.218397 
1136.000000	90.105953 
1135.000000	89.992903 
1134.000000	89.876040 
1133.000000	89.751825 
1132.000000	89.622672 
1131.000000	89.494239 
1130.000000	89.366887 
1129.000000	89.236772 
1128.000000	89.104530 
1127.000000	88.974462 
1126.000000	88.844940 
1125.000000	88.708577 
1124.000000	88.563297 
1123.000000	88.415076 
1122.000000	88.268450 
1121.000000	88.122606 
1120.000000	87.978248 
1119.000000	87.839426 
1118.000000	87.706474 
1117.000000	87.575706 
1116.000000	87.447751 
1115.000000	87.327745 
1114.000000	87.215975 
1113.000000	87.107060 
1112.000000	86.999179 
1111.000000	86.894729 
1110.000000	86.791595 
1109.000000	86.684030 
1108.000000	86.571996 
1107.000000	86.459798 
1106.000000	86.346136 
1105.000000	86.226135 
1104.000000	86.102736 
1103.000000	85.984283 
1102.000000	85.871056 
1101.000000	85.756043 
1100.000000	85.638584 
1099.000000	85.524752 
1098.000000	85.414649 
1097.000000	85.302529 
1096.000000	85.189236 
1095.000000	85.080523 
1094.000000	84.972869 
1093.000000	84.855957 
1092.000000	84.730722 
1091.000000	84.610521 
1090.000000	84.502502 
1089.000000	84.401410 
1088.000000	84.302522 
1087.000000	84.205769 
1086.000000	84.106280 
1085.000000	83.996988 
1084.000000	83.882753 
1083.000000	83.776554 
1082.000000	83.679444 
1081.000000	83.579591 
1080.000000	83.472929 
1079.000000	83.368290 
1078.000000	83.269427 
1077.000000	83.168186 
1076.000000	83.058620 
1075.000000	82.941823 
1074.000000	82.814057 
1073.000000	82.666332 
1072.000000	82.498122 
1071.000000	82.314951 
1070.000000	82.110188 
1069.000000	81.867847 
1068.000000	81.588325 
1067.000000	81.294657 
1066.000000	81.007803 
1065.000000	80.730896 
1064.000000	80.461705 
1063.000000	80.200646 
1062.000000	79.938901 
1061.000000	79.657968 
1060.000000	79.351772 
1059.000000	79.035501 
1058.000000	78.724922 
1057.000000	78.420000 
1056.000000	78.114381 
1055.000000	77.805607 
1054.000000	77.489671 
1053.000000	77.160708 
1052.000000	76.822896 
1051.000000	76.488001 
1050.000000	76.155899 
1049.000000	75.814803 
1048.000000	75.464290 
1047.000000	75.117594 
1046.000000	74.778658 
1045.000000	74.438286 
1044.000000	74.094841 
1043.000000	73.757900 
1042.000000	73.428847 
1041.000000	73.098217 
1040.000000	72.765997 
1039.000000	72.444998 
1038.000000	72.140778 
1037.000000	71.848151 
1036.000000	71.569719 
1035.000000	71.316427 
1034.000000	71.087275 
1033.000000	70.870037 
1032.000000	70.663599 
1031.000000	70.476991 
1030.000000	70.306253 
1029.000000	70.138100 
1028.000000	69.978143 
1027.000000	69.848023 
1026.000000	69.750514 
1025.000000	69.663468 
1024.000000	69.572245 
1023.000000	69.482109 
1022.000000	69.394599 
1021.000000	69.299394 
1020.000000	69.195529 
1019.000000	69.095080 
1018.000000	69.000058 
1017.000000	68.899916 
1016.000000	68.795781 
1015.000000	68.701717 
1014.000000	68.618052 
1013.000000	68.529568 
1012.000000	68.434421 
1011.000000	68.348772 
1010.000000	68.278487 
1009.000000	68.212829 
1008.000000	68.150695 
1007.000000	68.106390 
1006.000000	68.084238 
1005.000000	68.073422 
1004.000000	68.072093 
1003.000000	68.089974 
1002.000000	68.123183 
1001.000000	68.154727 
1000.000000	68.185487 
999.000000	 68.236579 
998.000000	 68.314245 
997.000000	 68.399305 
996.000000	 68.478340 
995.000000	 68.559794 
994.000000	 68.652140 
993.000000	 68.751285 
992.000000	 68.856193 
991.000000	 68.972609 
990.000000	 69.095318 
989.000000	 69.210698 
988.000000	 69.322224 
987.000000	 69.449547 
986.000000	 69.598222 
985.000000	 69.754971 
984.000000	 69.916195 
983.000000	 70.094589 
982.000000	 70.292536 
981.000000	 70.495938 
980.000000	 70.700998 
979.000000	 70.921376 
978.000000	 71.161530 
977.000000	 71.408146 
976.000000	 71.655666 
975.000000	 71.916326 
974.000000	 72.196621 
973.000000	 72.486345 
972.000000	 72.778661 
971.000000	 73.079829 
970.000000	 73.391664 
969.000000	 73.704427 
968.000000	 74.013826 
967.000000	 74.326378 
966.000000	 74.642917 
965.000000	 74.955380 
964.000000	 75.263816 
963.000000	 75.577488 
962.000000	 75.895399 
961.000000	 76.204701 
960.000000	 76.501776 
959.000000	 76.795868 
958.000000	 77.088747 
957.000000	 77.370056 
956.000000	 77.636565 
955.000000	 77.897413 
954.000000	 78.156466 
953.000000	 78.407023 
952.000000	 78.646839 
951.000000	 78.880557 
950.000000	 79.105068 
949.000000	 79.310669 
948.000000	 79.498990 
947.000000	 79.681625 
946.000000	 79.858755 
945.000000	 80.017688 
944.000000	 80.155237 
943.000000	 80.283182 
942.000000	 80.408671 
941.000000	 80.527502 
940.000000	 80.640313 
939.000000	 80.756421 
938.000000	 80.877005 
937.000000	 80.992429 
936.000000	 81.101021 
935.000000	 81.213340 
934.000000	 81.333396 
933.000000	 81.452602 
932.000000	 81.566672 
931.000000	 81.681733 
930.000000	 81.799434 
929.000000	 81.912386 
928.000000	 82.018756 
927.000000	 82.125631 
926.000000	 82.233693 
925.000000	 82.333337 
924.000000	 82.419249 
923.000000	 82.494721 
922.000000	 82.560304 
921.000000	 82.613852 
920.000000	 82.662863 
919.000000	 82.719601 
918.000000	 82.781474 
917.000000	 82.833044 
916.000000	 82.870592 
915.000000	 82.909072 
914.000000	 82.962952 
913.000000	 83.036934 
912.000000	 83.136869 
911.000000	 83.271003 
910.000000	 83.436519 
909.000000	 83.621945 
908.000000	 83.826048 
907.000000	 84.058018 
906.000000	 84.317828 
905.000000	 84.594004 
904.000000	 84.881477 
903.000000	 85.183311 
902.000000	 85.494001 
901.000000	 85.800176 
900.000000	 86.099688 
899.000000	 86.402247 
898.000000	 86.709542 
897.000000	 87.011558 
896.000000	 87.302792 
895.000000	 87.584851 
894.000000	 87.853483 
893.000000	 88.101173 
892.000000	 88.333304 
891.000000	 88.564199 
890.000000	 88.795648 
889.000000	 89.015266 
888.000000	 89.216263 
887.000000	 89.402603 
886.000000	 89.575782 
885.000000	 89.734175 
884.000000	 89.884743 
883.000000	 90.036458 
882.000000	 90.182467 
881.000000	 90.309646 
880.000000	 90.426861 
879.000000	 90.561402 
878.000000	 90.723550 
877.000000	 90.896764 
876.000000	 91.067342 
875.000000	 91.240806 
874.000000	 91.423605 
873.000000	 91.612486 
872.000000	 91.810056 
871.000000	 92.028824 
870.000000	 92.269591 
869.000000	 92.513284 
868.000000	 92.742784 
867.000000	 92.958209 
866.000000	 93.165306 
865.000000	 93.364346 
864.000000	 93.557346 
863.000000	 93.752563 
862.000000	 93.953635 
861.000000	 94.153741 
860.000000	 94.345542 
859.000000	 94.527967 
858.000000	 94.700934 
857.000000	 94.863203 
856.000000	 95.017098 
855.000000	 95.165315 
854.000000	 95.302160 
853.000000	 95.418662 
852.000000	 95.517115 
851.000000	 95.609985 
850.000000	 95.704318 
849.000000	 95.798107 
848.000000	 95.890654 
847.000000	 95.982759 
846.000000	 96.066889 
845.000000	 96.131765 
844.000000	 96.178123 
843.000000	 96.216873 
842.000000	 96.250921 
841.000000	 96.272130 
840.000000	 96.276403 
839.000000	 96.267234 
838.000000	 96.244176 
837.000000	 96.204166 
836.000000	 96.156731 
835.000000	 96.121461 
834.000000	 96.104992 
833.000000	 96.094942 
832.000000	 96.081690 
831.000000	 96.071575 
830.000000	 96.073018 
829.000000	 96.084896 
828.000000	 96.106907 
827.000000	 96.147264 
826.000000	 96.210215 
825.000000	 96.287485 
824.000000	 96.369303 
823.000000	 96.451009 
822.000000	 96.524249 
821.000000	 96.578006 
820.000000	 96.613651 
819.000000	 96.643944 
818.000000	 96.672305 
817.000000	 96.685156 
816.000000	 96.668101 
815.000000	 96.618552 
814.000000	 96.539087 
813.000000	 96.428576 
812.000000	 96.282978 
811.000000	 96.094191 
810.000000	 95.844354 
809.000000	 95.512350 
808.000000	 95.092089 
807.000000	 94.598218 
806.000000	 94.052833 
805.000000	 93.476561 
804.000000	 92.893961 
803.000000	 92.332873 
802.000000	 91.812462 
801.000000	 91.344735 
800.000000	 90.950982 
799.000000	 90.659236 
798.000000	 90.479214 
797.000000	 90.395322 
796.000000	 90.387609 
795.000000	 90.441587 
794.000000	 90.535484 
793.000000	 90.640626 
792.000000	 90.741715 
791.000000	 90.839218 
790.000000	 90.927776 
789.000000	 90.990049 
788.000000	 91.014653 
787.000000	 91.001266 
786.000000	 90.944768 
785.000000	 90.833957 
784.000000	 90.671338 
783.000000	 90.477058 
782.000000	 90.270063 
781.000000	 90.064159 
780.000000	 89.884830 
779.000000	 89.765805 
778.000000	 89.720654 
777.000000	 89.737667 
776.000000	 89.808236 
775.000000	 89.937278 
774.000000	 90.118194 
773.000000	 90.321693 
772.000000	 90.521038 
771.000000	 90.709696 
770.000000	 90.885987 
769.000000	 91.040607 
768.000000	 91.168963 
767.000000	 91.277348 
766.000000	 91.367591 
765.000000	 91.433278 
764.000000	 91.479988 
763.000000	 91.530848 
762.000000	 91.600910 
761.000000	 91.681457 
760.000000	 91.758750 
759.000000	 91.832545 
758.000000	 91.907913 
757.000000	 91.986192 
756.000000	 92.074257 
755.000000	 92.185886 
754.000000	 92.321251 
753.000000	 92.457564 
752.000000	 92.570442 
751.000000	 92.655521 
750.000000	 92.724742 
749.000000	 92.793588 
748.000000	 92.876208 
747.000000	 92.978770 
746.000000	 93.091126 
745.000000	 93.197916 
744.000000	 93.302355 
743.000000	 93.424516 
742.000000	 93.572523 
741.000000	 93.732139 
740.000000	 93.889176 
739.000000	 94.044898 
738.000000	 94.203537 
737.000000	 94.360632 
736.000000	 94.510463 
735.000000	 94.650753 
734.000000	 94.775875 
733.000000	 94.879933 
732.000000	 94.968795 
731.000000	 95.052872 
730.000000	 95.126975 
729.000000	 95.177257 
728.000000	 95.206705 
727.000000	 95.234966 
726.000000	 95.274799 
725.000000	 95.325094 
724.000000	 95.387641 
723.000000	 95.470775 
722.000000	 95.571401 
721.000000	 95.671580 
720.000000	 95.759587 
719.000000	 95.839534 
718.000000	 95.914113 
717.000000	 95.974907 
716.000000	 96.017938 
715.000000	 96.051374 
714.000000	 96.081736 
713.000000	 96.110050 
712.000000	 96.145235 
711.000000	 96.201197 
710.000000	 96.272550 
709.000000	 96.337937 
708.000000	 96.383303 
707.000000	 96.408954 
706.000000	 96.416280 
705.000000	 96.400112 
704.000000	 96.358500 
703.000000	 96.296900 
702.000000	 96.210562 
701.000000	 96.077448 
700.000000	 95.880680 
699.000000	 95.623381 
698.000000	 95.324581 
697.000000	 95.016720 
696.000000	 94.748515 
695.000000	 94.573633 
694.000000	 94.515861 
693.000000	 94.556580 
692.000000	 94.662728 
691.000000	 94.807969 
690.000000	 94.970466 
689.000000	 95.128621 
688.000000	 95.269533 
687.000000	 95.393663 
686.000000	 95.499392 
685.000000	 95.580688 
684.000000	 95.646278 
683.000000	 95.717143 
682.000000	 95.802069 
681.000000	 95.891309 
680.000000	 95.977049 
679.000000	 96.059247 
678.000000	 96.133716 
677.000000	 96.199603 
676.000000	 96.267826 
675.000000	 96.349770 
674.000000	 96.438492 
673.000000	 96.505098 
672.000000	 96.524550 
671.000000	 96.479135 
670.000000	 96.364298 
669.000000	 96.200328 
668.000000	 96.136883 
667.000000	 96.319484 
666.000000	 96.608936 
665.000000	 96.821621 
664.000000	 96.951021 
663.000000	 97.036271 
662.000000	 97.106493 
661.000000	 97.171107 
660.000000	 97.230568 
659.000000	 97.286566 
658.000000	 97.336844 
657.000000	 97.376583 
656.000000	 97.396970 
655.000000	 97.391812 
654.000000	 97.366677 
653.000000	 97.336664 
652.000000	 97.317832 
651.000000	 97.322064 
650.000000	 97.348951 

