4000.000000	98.428438 
3999.000000	98.421981 
3998.000000	98.416573 
3997.000000	98.413342 
3996.000000	98.413087 
3995.000000	98.415493 
3994.000000	98.418718 
3993.000000	98.420546 
3992.000000	98.419991 
3991.000000	98.417570 
3990.000000	98.414762 
3989.000000	98.413007 
3988.000000	98.412813 
3987.000000	98.413931 
3986.000000	98.416410 
3985.000000	98.420582 
3984.000000	98.425571 
3983.000000	98.428939 
3982.000000	98.428915 
3981.000000	98.426493 
3980.000000	98.424478 
3979.000000	98.424620 
3978.000000	98.426357 
3977.000000	98.428089 
3976.000000	98.428598 
3975.000000	98.427091 
3974.000000	98.423167 
3973.000000	98.417557 
3972.000000	98.412309 
3971.000000	98.409199 
3970.000000	98.408170 
3969.000000	98.407582 
3968.000000	98.405665 
3967.000000	98.401872 
3966.000000	98.397092 
3965.000000	98.392903 
3964.000000	98.390170 
3963.000000	98.388495 
3962.000000	98.387136 
3961.000000	98.386370 
3960.000000	98.387501 
3959.000000	98.391160 
3958.000000	98.396201 
3957.000000	98.400291 
3956.000000	98.400914 
3955.000000	98.396440 
3954.000000	98.387203 
3953.000000	98.376231 
3952.000000	98.367584 
3951.000000	98.363288 
3950.000000	98.362236 
3949.000000	98.361553 
3948.000000	98.359263 
3947.000000	98.356269 
3946.000000	98.355774 
3945.000000	98.359933 
3944.000000	98.366937 
3943.000000	98.372108 
3942.000000	98.373111 
3941.000000	98.372762 
3940.000000	98.375379 
3939.000000	98.381011 
3938.000000	98.385873 
3937.000000	98.387294 
3936.000000	98.385441 
3935.000000	98.381368 
3934.000000	98.375206 
3933.000000	98.367987 
3932.000000	98.362581 
3931.000000	98.361141 
3930.000000	98.363117 
3929.000000	98.366055 
3928.000000	98.368425 
3927.000000	98.370030 
3926.000000	98.369752 
3925.000000	98.365844 
3924.000000	98.359344 
3923.000000	98.354447 
3922.000000	98.353369 
3921.000000	98.353991 
3920.000000	98.354382 
3919.000000	98.355884 
3918.000000	98.359877 
3917.000000	98.364713 
3916.000000	98.367890 
3915.000000	98.369303 
3914.000000	98.369950 
3913.000000	98.369476 
3912.000000	98.367320 
3911.000000	98.363950 
3910.000000	98.359467 
3909.000000	98.353448 
3908.000000	98.345781 
3907.000000	98.338105 
3906.000000	98.332316 
3905.000000	98.328822 
3904.000000	98.326463 
3903.000000	98.325341 
3902.000000	98.327559 
3901.000000	98.333533 
3900.000000	98.340146 
3899.000000	98.343948 
3898.000000	98.344544 
3897.000000	98.343340 
3896.000000	98.341314 
3895.000000	98.338948 
3894.000000	98.337217 
3893.000000	98.336819 
3892.000000	98.336852 
3891.000000	98.335630 
3890.000000	98.333160 
3889.000000	98.331129 
3888.000000	98.330241 
3887.000000	98.329772 
3886.000000	98.328862 
3885.000000	98.327350 
3884.000000	98.325990 
3883.000000	98.325476 
3882.000000	98.325533 
3881.000000	98.325501 
3880.000000	98.324976 
3879.000000	98.323999 
3878.000000	98.322991 
3877.000000	98.322175 
3876.000000	98.321344 
3875.000000	98.320265 
3874.000000	98.318957 
3873.000000	98.317724 
3872.000000	98.316847 
3871.000000	98.316270 
3870.000000	98.315755 
3869.000000	98.315247 
3868.000000	98.314978 
3867.000000	98.315036 
3866.000000	98.315182 
3865.000000	98.315204 
3864.000000	98.315168 
3863.000000	98.315205 
3862.000000	98.315291 
3861.000000	98.315298 
3860.000000	98.315169 
3859.000000	98.314932 
3858.000000	98.314606 
3857.000000	98.314257 
3856.000000	98.314158 
3855.000000	98.314638 
3854.000000	98.315651 
3853.000000	98.316680 
3852.000000	98.317674 
3851.000000	98.318973 
3850.000000	98.320480 
3849.000000	98.322009 
3848.000000	98.323519 
3847.000000	98.325005 
3846.000000	98.326446 
3845.000000	98.327834 
3844.000000	98.329194 
3843.000000	98.330545 
3842.000000	98.331888 
3841.000000	98.333219 
3840.000000	98.334545 
3839.000000	98.335877 
3838.000000	98.337224 
3837.000000	98.338608 
3836.000000	98.340065 
3835.000000	98.341628 
3834.000000	98.343304 
3833.000000	98.345069 
3832.000000	98.346884 
3831.000000	98.348714 
3830.000000	98.350529 
3829.000000	98.352306 
3828.000000	98.354036 
3827.000000	98.355707 
3826.000000	98.357310 
3825.000000	98.358850 
3824.000000	98.360365 
3823.000000	98.361888 
3822.000000	98.363417 
3821.000000	98.364913 
3820.000000	98.366369 
3819.000000	98.367829 
3818.000000	98.369326 
3817.000000	98.370824 
3816.000000	98.372261 
3815.000000	98.373596 
3814.000000	98.374828 
3813.000000	98.375947 
3812.000000	98.376925 
3811.000000	98.377760 
3810.000000	98.378499 
3809.000000	98.379170 
3808.000000	98.379751 
3807.000000	98.380212 
3806.000000	98.380568 
3805.000000	98.380890 
3804.000000	98.381248 
3803.000000	98.381658 
3802.000000	98.382091 
3801.000000	98.382513 
3800.000000	98.382930 
3799.000000	98.383360 
3798.000000	98.383774 
3797.000000	98.384110 
3796.000000	98.384323 
3795.000000	98.384396 
3794.000000	98.384314 
3793.000000	98.384055 
3792.000000	98.383595 
3791.000000	98.382919 
3790.000000	98.382028 
3789.000000	98.380946 
3788.000000	98.379718 
3787.000000	98.378398 
3786.000000	98.377034 
3785.000000	98.375713 
3784.000000	98.374464 
3783.000000	98.373241 
3782.000000	98.372276 
3781.000000	98.371760 
3780.000000	98.371192 
3779.000000	98.369537 
3778.000000	98.366457 
3777.000000	98.363201 
3776.000000	98.360626 
3775.000000	98.357923 
3774.000000	98.354583 
3773.000000	98.352019 
3772.000000	98.351655 
3771.000000	98.352453 
3770.000000	98.351717 
3769.000000	98.349030 
3768.000000	98.347310 
3767.000000	98.347917 
3766.000000	98.347262 
3765.000000	98.341805 
3764.000000	98.333701 
3763.000000	98.329155 
3762.000000	98.330415 
3761.000000	98.333574 
3760.000000	98.334623 
3759.000000	98.332392 
3758.000000	98.326230 
3757.000000	98.316213 
3756.000000	98.304475 
3755.000000	98.293699 
3754.000000	98.283217 
3753.000000	98.272298 
3752.000000	98.265656 
3751.000000	98.267778 
3750.000000	98.272784 
3749.000000	98.272183 
3748.000000	98.269522 
3747.000000	98.273092 
3746.000000	98.283915 
3745.000000	98.295526 
3744.000000	98.295880 
3743.000000	98.286691 
3742.000000	98.287359 
3741.000000	98.297174 
3740.000000	98.299492 
3739.000000	98.292760 
3738.000000	98.286068 
3737.000000	98.284788 
3736.000000	98.287857 
3735.000000	98.295385 
3734.000000	98.308970 
3733.000000	98.322999 
3732.000000	98.326297 
3731.000000	98.316492 
3730.000000	98.303991 
3729.000000	98.298428 
3728.000000	98.299256 
3727.000000	98.301868 
3726.000000	98.304927 
3725.000000	98.310606 
3724.000000	98.319012 
3723.000000	98.324450 
3722.000000	98.321878 
3721.000000	98.311732 
3720.000000	98.298470 
3719.000000	98.286569 
3718.000000	98.277050 
3717.000000	98.269044 
3716.000000	98.262448 
3715.000000	98.257755 
3714.000000	98.254816 
3713.000000	98.255374 
3712.000000	98.260827 
3711.000000	98.266514 
3710.000000	98.267249 
3709.000000	98.263741 
3708.000000	98.257792 
3707.000000	98.249215 
3706.000000	98.237650 
3705.000000	98.224201 
3704.000000	98.210223 
3703.000000	98.196655 
3702.000000	98.182492 
3701.000000	98.165191 
3700.000000	98.146500 
3699.000000	98.132368 
3698.000000	98.123794 
3697.000000	98.115405 
3696.000000	98.103908 
3695.000000	98.091177 
3694.000000	98.077958 
3693.000000	98.060527 
3692.000000	98.038051 
3691.000000	98.017128 
3690.000000	98.005022 
3689.000000	98.000157 
3688.000000	97.995300 
3687.000000	97.992035 
3686.000000	97.996513 
3685.000000	98.003822 
3684.000000	98.004206 
3683.000000	97.997860 
3682.000000	97.991076 
3681.000000	97.983543 
3680.000000	97.966702 
3679.000000	97.938265 
3678.000000	97.909735 
3677.000000	97.893477 
3676.000000	97.885597 
3675.000000	97.866878 
3674.000000	97.838302 
3673.000000	97.822847 
3672.000000	97.821579 
3671.000000	97.820856 
3670.000000	97.815426 
3669.000000	97.806010 
3668.000000	97.800765 
3667.000000	97.804437 
3666.000000	97.810293 
3665.000000	97.811791 
3664.000000	97.807610 
3663.000000	97.798012 
3662.000000	97.782519 
3661.000000	97.761624 
3660.000000	97.738896 
3659.000000	97.720409 
3658.000000	97.709608 
3657.000000	97.702224 
3656.000000	97.688603 
3655.000000	97.666824 
3654.000000	97.647003 
3653.000000	97.633802 
3652.000000	97.622506 
3651.000000	97.612565 
3650.000000	97.608567 
3649.000000	97.609808 
3648.000000	97.612335 
3647.000000	97.615171 
3646.000000	97.619723 
3645.000000	97.626568 
3644.000000	97.633877 
3643.000000	97.638914 
3642.000000	97.640291 
3641.000000	97.639185 
3640.000000	97.637272 
3639.000000	97.634179 
3638.000000	97.628192 
3637.000000	97.621049 
3636.000000	97.616768 
3635.000000	97.614760 
3634.000000	97.609434 
3633.000000	97.599321 
3632.000000	97.592172 
3631.000000	97.596078 
3630.000000	97.608126 
3629.000000	97.608229 
3628.000000	97.579780 
3627.000000	97.541524 
3626.000000	97.523041 
3625.000000	97.525116 
3624.000000	97.533653 
3623.000000	97.538179 
3622.000000	97.535879 
3621.000000	97.530478 
3620.000000	97.528508 
3619.000000	97.532263 
3618.000000	97.537800 
3617.000000	97.542908 
3616.000000	97.549140 
3615.000000	97.557910 
3614.000000	97.569597 
3613.000000	97.582696 
3612.000000	97.594544 
3611.000000	97.604065 
3610.000000	97.612813 
3609.000000	97.623272 
3608.000000	97.636191 
3607.000000	97.649426 
3606.000000	97.660114 
3605.000000	97.666616 
3604.000000	97.669242 
3603.000000	97.670882 
3602.000000	97.673945 
3601.000000	97.677318 
3600.000000	97.678478 
3599.000000	97.677350 
3598.000000	97.676148 
3597.000000	97.677963 
3596.000000	97.685791 
3595.000000	97.698549 
3594.000000	97.709698 
3593.000000	97.712154 
3592.000000	97.704355 
3591.000000	97.689893 
3590.000000	97.676039 
3589.000000	97.671004 
3588.000000	97.679008 
3587.000000	97.696322 
3586.000000	97.716230 
3585.000000	97.734053 
3584.000000	97.745717 
3583.000000	97.748916 
3582.000000	97.746685 
3581.000000	97.744461 
3580.000000	97.744799 
3579.000000	97.746792 
3578.000000	97.748680 
3577.000000	97.749675 
3576.000000	97.750080 
3575.000000	97.749617 
3574.000000	97.747121 
3573.000000	97.741613 
3572.000000	97.733349 
3571.000000	97.723727 
3570.000000	97.714777 
3569.000000	97.708562 
3568.000000	97.706354 
3567.000000	97.708175 
3566.000000	97.713726 
3565.000000	97.723020 
3564.000000	97.733576 
3563.000000	97.740569 
3562.000000	97.741477 
3561.000000	97.737807 
3560.000000	97.732851 
3559.000000	97.728812 
3558.000000	97.726020 
3557.000000	97.724227 
3556.000000	97.723935 
3555.000000	97.726037 
3554.000000	97.730071 
3553.000000	97.733621 
3552.000000	97.734110 
3551.000000	97.731196 
3550.000000	97.726730 
3549.000000	97.722823 
3548.000000	97.720519 
3547.000000	97.719963 
3546.000000	97.720684 
3545.000000	97.721974 
3544.000000	97.723489 
3543.000000	97.725051 
3542.000000	97.726095 
3541.000000	97.726041 
3540.000000	97.725140 
3539.000000	97.724481 
3538.000000	97.724933 
3537.000000	97.726312 
3536.000000	97.727454 
3535.000000	97.727178 
3534.000000	97.725088 
3533.000000	97.721734 
3532.000000	97.718435 
3531.000000	97.716584 
3530.000000	97.716629 
3529.000000	97.717560 
3528.000000	97.717645 
3527.000000	97.716102 
3526.000000	97.713818 
3525.000000	97.712391 
3524.000000	97.712718 
3523.000000	97.714523 
3522.000000	97.716775 
3521.000000	97.718565 
3520.000000	97.719540 
3519.000000	97.719608 
3518.000000	97.718613 
3517.000000	97.716407 
3516.000000	97.713172 
3515.000000	97.709447 
3514.000000	97.705825 
3513.000000	97.702790 
3512.000000	97.700697 
3511.000000	97.699557 
3510.000000	97.698752 
3509.000000	97.697245 
3508.000000	97.694752 
3507.000000	97.692556 
3506.000000	97.692344 
3505.000000	97.694310 
3504.000000	97.696717 
3503.000000	97.697454 
3502.000000	97.696136 
3501.000000	97.694059 
3500.000000	97.692559 
3499.000000	97.691670 
3498.000000	97.690529 
3497.000000	97.688502 
3496.000000	97.685714 
3495.000000	97.682843 
3494.000000	97.680657 
3493.000000	97.679545 
3492.000000	97.679235 
3491.000000	97.678963 
3490.000000	97.678102 
3489.000000	97.676641 
3488.000000	97.674950 
3487.000000	97.673323 
3486.000000	97.671851 
3485.000000	97.670555 
3484.000000	97.669357 
3483.000000	97.668032 
3482.000000	97.666442 
3481.000000	97.664767 
3480.000000	97.663308 
3479.000000	97.662094 
3478.000000	97.660866 
3477.000000	97.659401 
3476.000000	97.657722 
3475.000000	97.655986 
3474.000000	97.654313 
3473.000000	97.652709 
3472.000000	97.651095 
3471.000000	97.649391 
3470.000000	97.647602 
3469.000000	97.645798 
3468.000000	97.644048 
3467.000000	97.642360 
3466.000000	97.640703 
3465.000000	97.639034 
3464.000000	97.637331 
3463.000000	97.635591 
3462.000000	97.633825 
3461.000000	97.632052 
3460.000000	97.630289 
3459.000000	97.628551 
3458.000000	97.626845 
3457.000000	97.625180 
3456.000000	97.623570 
3455.000000	97.622024 
3454.000000	97.620537 
3453.000000	97.619080 
3452.000000	97.617612 
3451.000000	97.616103 
3450.000000	97.614554 
3449.000000	97.612993 
3448.000000	97.611446 
3447.000000	97.609931 
3446.000000	97.608448 
3445.000000	97.606990 
3444.000000	97.605553 
3443.000000	97.604132 
3442.000000	97.602728 
3441.000000	97.601352 
3440.000000	97.600023 
3439.000000	97.598755 
3438.000000	97.597542 
3437.000000	97.596372 
3436.000000	97.595235 
3435.000000	97.594135 
3434.000000	97.593080 
3433.000000	97.592068 
3432.000000	97.591089 
3431.000000	97.590131 
3430.000000	97.589201 
3429.000000	97.588318 
3428.000000	97.587503 
3427.000000	97.586765 
3426.000000	97.586102 
3425.000000	97.585503 
3424.000000	97.584951 
3423.000000	97.584429 
3422.000000	97.583915 
3421.000000	97.583393 
3420.000000	97.582861 
3419.000000	97.582325 
3418.000000	97.581791 
3417.000000	97.581266 
3416.000000	97.580753 
3415.000000	97.580250 
3414.000000	97.579752 
3413.000000	97.579255 
3412.000000	97.578773 
3411.000000	97.578339 
3410.000000	97.577995 
3409.000000	97.577761 
3408.000000	97.577629 
3407.000000	97.577593 
3406.000000	97.577612 
3405.000000	97.577651 
3404.000000	97.577720 
3403.000000	97.577859 
3402.000000	97.578079 
3401.000000	97.578367 
3400.000000	97.578733 
3399.000000	97.579187 
3398.000000	97.579635 
3397.000000	97.579900 
3396.000000	97.579906 
3395.000000	97.579852 
3394.000000	97.580091 
3393.000000	97.580784 
3392.000000	97.581674 
3391.000000	97.582302 
3390.000000	97.582553 
3389.000000	97.582932 
3388.000000	97.584160 
3387.000000	97.586421 
3386.000000	97.588938 
3385.000000	97.590512 
3384.000000	97.590531 
3383.000000	97.589373 
3382.000000	97.588075 
3381.000000	97.587503 
3380.000000	97.587710 
3379.000000	97.587805 
3378.000000	97.586787 
3377.000000	97.585084 
3376.000000	97.584868 
3375.000000	97.587871 
3374.000000	97.593413 
3373.000000	97.598813 
3372.000000	97.602172 
3371.000000	97.603936 
3370.000000	97.605657 
3369.000000	97.608034 
3368.000000	97.610379 
3367.000000	97.611752 
3366.000000	97.612084 
3365.000000	97.612220 
3364.000000	97.613131 
3363.000000	97.615058 
3362.000000	97.617302 
3361.000000	97.618903 
3360.000000	97.619692 
3359.000000	97.620511 
3358.000000	97.622272 
3357.000000	97.624926 
3356.000000	97.627586 
3355.000000	97.629452 
3354.000000	97.630385 
3353.000000	97.630737 
3352.000000	97.630942 
3351.000000	97.631329 
3350.000000	97.632054 
3349.000000	97.633009 
3348.000000	97.633970 
3347.000000	97.634927 
3346.000000	97.636106 
3345.000000	97.637641 
3344.000000	97.639321 
3343.000000	97.640779 
3342.000000	97.641858 
3341.000000	97.642728 
3340.000000	97.643666 
3339.000000	97.644797 
3338.000000	97.646056 
3337.000000	97.647329 
3336.000000	97.648557 
3335.000000	97.649734 
3334.000000	97.650864 
3333.000000	97.651940 
3332.000000	97.652965 
3331.000000	97.653954 
3330.000000	97.654932 
3329.000000	97.655927 
3328.000000	97.656963 
3327.000000	97.658058 
3326.000000	97.659228 
3325.000000	97.660469 
3324.000000	97.661758 
3323.000000	97.663067 
3322.000000	97.664377 
3321.000000	97.665697 
3320.000000	97.667049 
3319.000000	97.668449 
3318.000000	97.669893 
3317.000000	97.671354 
3316.000000	97.672800 
3315.000000	97.674215 
3314.000000	97.675613 
3313.000000	97.677037 
3312.000000	97.678533 
3311.000000	97.680132 
3310.000000	97.681834 
3309.000000	97.683599 
3308.000000	97.685380 
3307.000000	97.687141 
3306.000000	97.688880 
3305.000000	97.690617 
3304.000000	97.692381 
3303.000000	97.694198 
3302.000000	97.696089 
3301.000000	97.698071 
3300.000000	97.700115 
3299.000000	97.702123 
3298.000000	97.703968 
3297.000000	97.705550 
3296.000000	97.706802 
3295.000000	97.707801 
3294.000000	97.708827 
3293.000000	97.710265 
3292.000000	97.712343 
3291.000000	97.715002 
3290.000000	97.718008 
3289.000000	97.720912 
3288.000000	97.723159 
3287.000000	97.724585 
3286.000000	97.725655 
3285.000000	97.726858 
3284.000000	97.727920 
3283.000000	97.728063 
3282.000000	97.727114 
3281.000000	97.726108 
3280.000000	97.726538 
3279.000000	97.729016 
3278.000000	97.732745 
3277.000000	97.736148 
3276.000000	97.737989 
3275.000000	97.738008 
3274.000000	97.736797 
3273.000000	97.735420 
3272.000000	97.735173 
3271.000000	97.737258 
3270.000000	97.741967 
3269.000000	97.747764 
3268.000000	97.751800 
3267.000000	97.752368 
3266.000000	97.750763 
3265.000000	97.750342 
3264.000000	97.753342 
3263.000000	97.759026 
3262.000000	97.764912 
3261.000000	97.769139 
3260.000000	97.771224 
3259.000000	97.771131 
3258.000000	97.768420 
3257.000000	97.762270 
3256.000000	97.752308 
3255.000000	97.740300 
3254.000000	97.731137 
3253.000000	97.730096 
3252.000000	97.738402 
3251.000000	97.751542 
3250.000000	97.762645 
3249.000000	97.768773 
3248.000000	97.771765 
3247.000000	97.774157 
3246.000000	97.776447 
3245.000000	97.778481 
3244.000000	97.781401 
3243.000000	97.786422 
3242.000000	97.792513 
3241.000000	97.796991 
3240.000000	97.798400 
3239.000000	97.797729 
3238.000000	97.796981 
3237.000000	97.797404 
3236.000000	97.799276 
3235.000000	97.802477 
3234.000000	97.806468 
3233.000000	97.810001 
3232.000000	97.811612 
3231.000000	97.810765 
3230.000000	97.808577 
3229.000000	97.807294 
3228.000000	97.808475 
3227.000000	97.811621 
3226.000000	97.814799 
3225.000000	97.816897 
3224.000000	97.818911 
3223.000000	97.822506 
3222.000000	97.827721 
3221.000000	97.832790 
3220.000000	97.836233 
3219.000000	97.838424 
3218.000000	97.840752 
3217.000000	97.843801 
3216.000000	97.846868 
3215.000000	97.849213 
3214.000000	97.851217 
3213.000000	97.853928 
3212.000000	97.857688 
3211.000000	97.861652 
3210.000000	97.864597 
3209.000000	97.865933 
3208.000000	97.865684 
3207.000000	97.863974 
3206.000000	97.861300 
3205.000000	97.858874 
3204.000000	97.858140 
3203.000000	97.859789 
3202.000000	97.863156 
3201.000000	97.866457 
3200.000000	97.867806 
3199.000000	97.866473 
3198.000000	97.863727 
3197.000000	97.862387 
3196.000000	97.864576 
3195.000000	97.869870 
3194.000000	97.875593 
3193.000000	97.879370 
3192.000000	97.881460 
3191.000000	97.884208 
3190.000000	97.889380 
3189.000000	97.896059 
3188.000000	97.901133 
3187.000000	97.902266 
3186.000000	97.900132 
3185.000000	97.898091 
3184.000000	97.899100 
3183.000000	97.903085 
3182.000000	97.907538 
3181.000000	97.910233 
3180.000000	97.911054 
3179.000000	97.911246 
3178.000000	97.911757 
3177.000000	97.912736 
3176.000000	97.914227 
3175.000000	97.916539 
3174.000000	97.919845 
3173.000000	97.923751 
3172.000000	97.927520 
3171.000000	97.930512 
3170.000000	97.932238 
3169.000000	97.932670 
3168.000000	97.932502 
3167.000000	97.932885 
3166.000000	97.934810 
3165.000000	97.938055 
3164.000000	97.940790 
3163.000000	97.940785 
3162.000000	97.937401 
3161.000000	97.932548 
3160.000000	97.929380 
3159.000000	97.929759 
3158.000000	97.933288 
3157.000000	97.938413 
3156.000000	97.943895 
3155.000000	97.949151 
3154.000000	97.953791 
3153.000000	97.957567 
3152.000000	97.960845 
3151.000000	97.964559 
3150.000000	97.969256 
3149.000000	97.974214 
3148.000000	97.977813 
3147.000000	97.979051 
3146.000000	97.978739 
3145.000000	97.979004 
3144.000000	97.981405 
3143.000000	97.985599 
3142.000000	97.989826 
3141.000000	97.992394 
3140.000000	97.992634 
3139.000000	97.990952 
3138.000000	97.988781 
3137.000000	97.988291 
3136.000000	97.990966 
3135.000000	97.995943 
3134.000000	98.000413 
3133.000000	98.002727 
3132.000000	98.005045 
3131.000000	98.011874 
3130.000000	98.025413 
3129.000000	98.041956 
3128.000000	98.053447 
3127.000000	98.054307 
3126.000000	98.045314 
3125.000000	98.032623 
3124.000000	98.022936 
3123.000000	98.018825 
3122.000000	98.019107 
3121.000000	98.021361 
3120.000000	98.023665 
3119.000000	98.025095 
3118.000000	98.025557 
3117.000000	98.025455 
3116.000000	98.025219 
3115.000000	98.024986 
3114.000000	98.024782 
3113.000000	98.024869 
3112.000000	98.025607 
3111.000000	98.026953 
3110.000000	98.028276 
3109.000000	98.028811 
3108.000000	98.028384 
3107.000000	98.027776 
3106.000000	98.028204 
3105.000000	98.030040 
3104.000000	98.032019 
3103.000000	98.032222 
3102.000000	98.030174 
3101.000000	98.027622 
3100.000000	98.026886 
3099.000000	98.028793 
3098.000000	98.032599 
3097.000000	98.037209 
3096.000000	98.041651 
3095.000000	98.044631 
3094.000000	98.044965 
3093.000000	98.043004 
3092.000000	98.040913 
3091.000000	98.040980 
3090.000000	98.043749 
3089.000000	98.047831 
3088.000000	98.051012 
3087.000000	98.051639 
3086.000000	98.049703 
3085.000000	98.046885 
3084.000000	98.045328 
3083.000000	98.045443 
3082.000000	98.045704 
3081.000000	98.045132 
3080.000000	98.044858 
3079.000000	98.046496 
3078.000000	98.050086 
3077.000000	98.054860 
3076.000000	98.060894 
3075.000000	98.068361 
3074.000000	98.075839 
3073.000000	98.081250 
3072.000000	98.084288 
3071.000000	98.086362 
3070.000000	98.088469 
3069.000000	98.091016 
3068.000000	98.095382 
3067.000000	98.102648 
3066.000000	98.109565 
3065.000000	98.108854 
3064.000000	98.096331 
3063.000000	98.076865 
3062.000000	98.061247 
3061.000000	98.055852 
3060.000000	98.057056 
3059.000000	98.056132 
3058.000000	98.049080 
3057.000000	98.041014 
3056.000000	98.040812 
3055.000000	98.052014 
3054.000000	98.069259 
3053.000000	98.082963 
3052.000000	98.087031 
3051.000000	98.081803 
3050.000000	98.071242 
3049.000000	98.059195 
3048.000000	98.048160 
3047.000000	98.039622 
3046.000000	98.033861 
3045.000000	98.029806 
3044.000000	98.026494 
3043.000000	98.024919 
3042.000000	98.027380 
3041.000000	98.033927 
3040.000000	98.039674 
3039.000000	98.037055 
3038.000000	98.021586 
3037.000000	97.995546 
3036.000000	97.966287 
3035.000000	97.940984 
3034.000000	97.923430 
3033.000000	97.914587 
3032.000000	97.913470 
3031.000000	97.916392 
3030.000000	97.917391 
3029.000000	97.911763 
3028.000000	97.898855 
3027.000000	97.880826 
3026.000000	97.859538 
3025.000000	97.835802 
3024.000000	97.811187 
3023.000000	97.788594 
3022.000000	97.770231 
3021.000000	97.755803 
3020.000000	97.742752 
3019.000000	97.727495 
3018.000000	97.707029 
3017.000000	97.681425 
3016.000000	97.655279 
3015.000000	97.634663 
3014.000000	97.621084 
3013.000000	97.609741 
3012.000000	97.595347 
3011.000000	97.578377 
3010.000000	97.563062 
3009.000000	97.549626 
3008.000000	97.531536 
3007.000000	97.501965 
3006.000000	97.461241 
3005.000000	97.416237 
3004.000000	97.373739 
3003.000000	97.337135 
3002.000000	97.309204 
3001.000000	97.293677 
3000.000000	97.290496 
2999.000000	97.290941 
2998.000000	97.282063 
2997.000000	97.258619 
2996.000000	97.229073 
2995.000000	97.207405 
2994.000000	97.198334 
2993.000000	97.191496 
2992.000000	97.170647 
2991.000000	97.129334 
2990.000000	97.078458 
2989.000000	97.038569 
2988.000000	97.024016 
2987.000000	97.033657 
2986.000000	97.054225 
2985.000000	97.071790 
2984.000000	97.080888 
2983.000000	97.084308 
2982.000000	97.086863 
2981.000000	97.090424 
2980.000000	97.093599 
2979.000000	97.094572 
2978.000000	97.093541 
2977.000000	97.092321 
2976.000000	97.092134 
2975.000000	97.092706 
2974.000000	97.093728 
2973.000000	97.095980 
2972.000000	97.100170 
2971.000000	97.105797 
2970.000000	97.112692 
2969.000000	97.122684 
2968.000000	97.137348 
2967.000000	97.154283 
2966.000000	97.168400 
2965.000000	97.177855 
2964.000000	97.186427 
2963.000000	97.198663 
2962.000000	97.214665 
2961.000000	97.231451 
2960.000000	97.247783 
2959.000000	97.265062 
2958.000000	97.283745 
2957.000000	97.301169 
2956.000000	97.313880 
2955.000000	97.321445 
2954.000000	97.327897 
2953.000000	97.339277 
2952.000000	97.358601 
2951.000000	97.382063 
2950.000000	97.400684 
2949.000000	97.407123 
2948.000000	97.401365 
2947.000000	97.389677 
2946.000000	97.378396 
2945.000000	97.369723 
2944.000000	97.362785 
2943.000000	97.357200 
2942.000000	97.355108 
2941.000000	97.359579 
2940.000000	97.370617 
2939.000000	97.382663 
2938.000000	97.387671 
2937.000000	97.382651 
2936.000000	97.374139 
2935.000000	97.373159 
2934.000000	97.384384 
2933.000000	97.401390 
2932.000000	97.413385 
2931.000000	97.415766 
2930.000000	97.412565 
2929.000000	97.409741 
2928.000000	97.408604 
2927.000000	97.406823 
2926.000000	97.403413 
2925.000000	97.400046 
2924.000000	97.398298 
2923.000000	97.398136 
2922.000000	97.399085 
2921.000000	97.400513 
2920.000000	97.400434 
2919.000000	97.396393 
2918.000000	97.388567 
2917.000000	97.380085 
2916.000000	97.373173 
2915.000000	97.366968 
2914.000000	97.360421 
2913.000000	97.354823 
2912.000000	97.351238 
2911.000000	97.347425 
2910.000000	97.340333 
2909.000000	97.330788 
2908.000000	97.322879 
2907.000000	97.318869 
2906.000000	97.317049 
2905.000000	97.314088 
2904.000000	97.307218 
2903.000000	97.295167 
2902.000000	97.280353 
2901.000000	97.270337 
2900.000000	97.273425 
2899.000000	97.291713 
2898.000000	97.319762 
2897.000000	97.349585 
2896.000000	97.375183 
2895.000000	97.392542 
2894.000000	97.399781 
2893.000000	97.399798 
2892.000000	97.399733 
2891.000000	97.405050 
2890.000000	97.415621 
2889.000000	97.428817 
2888.000000	97.443625 
2887.000000	97.459326 
2886.000000	97.472422 
2885.000000	97.478682 
2884.000000	97.478514 
2883.000000	97.478317 
2882.000000	97.485803 
2881.000000	97.503974 
2880.000000	97.528485 
2879.000000	97.549846 
2878.000000	97.560471 
2877.000000	97.561543 
2876.000000	97.562419 
2875.000000	97.571573 
2874.000000	97.588604 
2873.000000	97.606471 
2872.000000	97.620181 
2871.000000	97.631021 
2870.000000	97.642505 
2869.000000	97.655406 
2868.000000	97.667938 
2867.000000	97.678761 
2866.000000	97.688123 
2865.000000	97.696969 
2864.000000	97.706475 
2863.000000	97.718231 
2862.000000	97.733618 
2861.000000	97.752395 
2860.000000	97.771975 
2859.000000	97.788707 
2858.000000	97.800810 
2857.000000	97.810410 
2856.000000	97.822359 
2855.000000	97.839893 
2854.000000	97.861219 
2853.000000	97.880926 
2852.000000	97.895081 
2851.000000	97.904234 
2850.000000	97.911690 
2849.000000	97.920132 
2848.000000	97.930382 
2847.000000	97.942206 
2846.000000	97.954977 
2845.000000	97.967622 
2844.000000	97.978776 
2843.000000	97.987526 
2842.000000	97.994236 
2841.000000	98.000518 
2840.000000	98.007940 
2839.000000	98.016781 
2838.000000	98.026497 
2837.000000	98.036988 
2836.000000	98.048259 
2835.000000	98.059078 
2834.000000	98.067923 
2833.000000	98.075624 
2832.000000	98.084937 
2831.000000	98.096099 
2830.000000	98.104561 
2829.000000	98.105623 
2828.000000	98.100171 
2827.000000	98.094001 
2826.000000	98.092403 
2825.000000	98.097285 
2824.000000	98.108420 
2823.000000	98.123771 
2822.000000	98.138296 
2821.000000	98.146085 
2820.000000	98.145584 
2819.000000	98.141267 
2818.000000	98.139065 
2817.000000	98.140880 
2816.000000	98.144746 
2815.000000	98.148625 
2814.000000	98.152047 
2813.000000	98.154761 
2812.000000	98.155827 
2811.000000	98.154514 
2810.000000	98.151342 
2809.000000	98.148087 
2808.000000	98.146780 
2807.000000	98.148382 
2806.000000	98.152104 
2805.000000	98.156151 
2804.000000	98.159433 
2803.000000	98.162223 
2802.000000	98.165180 
2801.000000	98.168435 
2800.000000	98.171909 
2799.000000	98.175819 
2798.000000	98.180268 
2797.000000	98.184644 
2796.000000	98.187990 
2795.000000	98.189964 
2794.000000	98.191194 
2793.000000	98.192591 
2792.000000	98.194405 
2791.000000	98.196136 
2790.000000	98.197320 
2789.000000	98.198120 
2788.000000	98.198870 
2787.000000	98.199314 
2786.000000	98.198947 
2785.000000	98.198276 
2784.000000	98.198845 
2783.000000	98.201309 
2782.000000	98.204174 
2781.000000	98.205510 
2780.000000	98.205562 
2779.000000	98.206509 
2778.000000	98.209602 
2777.000000	98.213569 
2776.000000	98.216169 
2775.000000	98.216511 
2774.000000	98.215350 
2773.000000	98.213876 
2772.000000	98.212809 
2771.000000	98.212475 
2770.000000	98.212947 
2769.000000	98.213753 
2768.000000	98.213862 
2767.000000	98.212468 
2766.000000	98.209971 
2765.000000	98.208056 
2764.000000	98.208505 
2763.000000	98.211741 
2762.000000	98.216338 
2761.000000	98.219899 
2760.000000	98.220702 
2759.000000	98.218739 
2758.000000	98.215409 
2757.000000	98.212047 
2756.000000	98.208612 
2755.000000	98.204266 
2754.000000	98.199500 
2753.000000	98.196939 
2752.000000	98.198968 
2751.000000	98.205133 
2750.000000	98.212676 
2749.000000	98.219495 
2748.000000	98.225470 
2747.000000	98.230555 
2746.000000	98.233352 
2745.000000	98.232645 
2744.000000	98.229418 
2743.000000	98.226436 
2742.000000	98.225821 
2741.000000	98.227653 
2740.000000	98.230594 
2739.000000	98.232882 
2738.000000	98.233161 
2737.000000	98.231315 
2736.000000	98.228893 
2735.000000	98.228093 
2734.000000	98.229785 
2733.000000	98.232963 
2732.000000	98.235959 
2731.000000	98.238027 
2730.000000	98.239552 
2729.000000	98.241177 
2728.000000	98.243102 
2727.000000	98.244991 
2726.000000	98.246284 
2725.000000	98.246685 
2724.000000	98.246494 
2723.000000	98.246360 
2722.000000	98.246694 
2721.000000	98.247500 
2720.000000	98.248744 
2719.000000	98.250497 
2718.000000	98.252579 
2717.000000	98.254376 
2716.000000	98.255329 
2715.000000	98.255511 
2714.000000	98.255529 
2713.000000	98.255951 
2712.000000	98.256878 
2711.000000	98.258000 
2710.000000	98.258930 
2709.000000	98.259509 
2708.000000	98.259931 
2707.000000	98.260588 
2706.000000	98.261699 
2705.000000	98.263114 
2704.000000	98.264597 
2703.000000	98.266032 
2702.000000	98.267238 
2701.000000	98.267976 
2700.000000	98.268475 
2699.000000	98.269584 
2698.000000	98.271831 
2697.000000	98.274550 
2696.000000	98.276489 
2695.000000	98.277106 
2694.000000	98.276821 
2693.000000	98.276069 
2692.000000	98.274792 
2691.000000	98.273069 
2690.000000	98.271547 
2689.000000	98.270963 
2688.000000	98.271573 
2687.000000	98.273238 
2686.000000	98.275790 
2685.000000	98.278919 
2684.000000	98.281793 
2683.000000	98.283328 
2682.000000	98.283332 
2681.000000	98.283232 
2680.000000	98.284981 
2679.000000	98.288772 
2678.000000	98.292262 
2677.000000	98.292854 
2676.000000	98.290322 
2675.000000	98.286790 
2674.000000	98.284507 
2673.000000	98.284012 
2672.000000	98.284493 
2671.000000	98.284774 
2670.000000	98.283845 
2669.000000	98.281450 
2668.000000	98.278550 
2667.000000	98.276687 
2666.000000	98.276503 
2665.000000	98.277205 
2664.000000	98.277629 
2663.000000	98.277525 
2662.000000	98.277471 
2661.000000	98.277915 
2660.000000	98.278859 
2659.000000	98.280223 
2658.000000	98.281808 
2657.000000	98.282974 
2656.000000	98.282892 
2655.000000	98.281283 
2654.000000	98.278723 
2653.000000	98.276277 
2652.000000	98.274986 
2651.000000	98.275316 
2650.000000	98.276805 
2649.000000	98.278279 
2648.000000	98.278736 
2647.000000	98.278104 
2646.000000	98.277021 
2645.000000	98.276131 
2644.000000	98.275770 
2643.000000	98.276111 
2642.000000	98.277097 
2641.000000	98.278281 
2640.000000	98.279118 
2639.000000	98.279456 
2638.000000	98.279652 
2637.000000	98.280210 
2636.000000	98.281407 
2635.000000	98.283186 
2634.000000	98.285158 
2633.000000	98.286666 
2632.000000	98.287184 
2631.000000	98.286778 
2630.000000	98.286170 
2629.000000	98.286292 
2628.000000	98.287704 
2627.000000	98.290355 
2626.000000	98.293602 
2625.000000	98.296452 
2624.000000	98.298063 
2623.000000	98.298107 
2622.000000	98.296793 
2621.000000	98.294764 
2620.000000	98.292956 
2619.000000	98.292201 
2618.000000	98.292635 
2617.000000	98.293588 
2616.000000	98.294225 
2615.000000	98.294464 
2614.000000	98.294936 
2613.000000	98.296052 
2612.000000	98.297546 
2611.000000	98.298831 
2610.000000	98.299600 
2609.000000	98.299943 
2608.000000	98.300074 
2607.000000	98.300195 
2606.000000	98.300443 
2605.000000	98.300840 
2604.000000	98.301298 
2603.000000	98.301688 
2602.000000	98.301979 
2601.000000	98.302273 
2600.000000	98.302673 
2599.000000	98.303152 
2598.000000	98.303563 
2597.000000	98.303796 
2596.000000	98.303851 
2595.000000	98.303873 
2594.000000	98.304015 
2593.000000	98.304321 
2592.000000	98.304715 
2591.000000	98.305083 
2590.000000	98.305402 
2589.000000	98.305713 
2588.000000	98.306022 
2587.000000	98.306262 
2586.000000	98.306401 
2585.000000	98.306509 
2584.000000	98.306642 
2583.000000	98.306712 
2582.000000	98.306596 
2581.000000	98.306382 
2580.000000	98.306401 
2579.000000	98.306904 
2578.000000	98.307717 
2577.000000	98.308284 
2576.000000	98.308248 
2575.000000	98.307683 
2574.000000	98.306992 
2573.000000	98.306689 
2572.000000	98.307089 
2571.000000	98.308037 
2570.000000	98.308851 
2569.000000	98.308903 
2568.000000	98.308227 
2567.000000	98.307393 
2566.000000	98.306810 
2565.000000	98.306370 
2564.000000	98.305931 
2563.000000	98.305755 
2562.000000	98.306199 
2561.000000	98.307258 
2560.000000	98.308683 
2559.000000	98.310217 
2558.000000	98.311544 
2557.000000	98.312294 
2556.000000	98.312370 
2555.000000	98.312108 
2554.000000	98.311970 
2553.000000	98.312053 
2552.000000	98.312125 
2551.000000	98.312072 
2550.000000	98.311999 
2549.000000	98.311970 
2548.000000	98.311879 
2547.000000	98.311637 
2546.000000	98.311255 
2545.000000	98.310763 
2544.000000	98.310171 
2543.000000	98.309490 
2542.000000	98.308755 
2541.000000	98.308033 
2540.000000	98.307344 
2539.000000	98.306549 
2538.000000	98.305452 
2537.000000	98.303986 
2536.000000	98.302485 
2535.000000	98.301547 
2534.000000	98.301627 
2533.000000	98.302333 
2532.000000	98.302502 
2531.000000	98.301389 
2530.000000	98.299309 
2529.000000	98.297212 
2528.000000	98.295406 
2527.000000	98.293525 
2526.000000	98.291541 
2525.000000	98.290044 
2524.000000	98.289319 
2523.000000	98.288829 
2522.000000	98.288064 
2521.000000	98.287293 
2520.000000	98.286934 
2519.000000	98.286713 
2518.000000	98.286140 
2517.000000	98.285441 
2516.000000	98.285249 
2515.000000	98.285441 
2514.000000	98.284986 
2513.000000	98.282967 
2512.000000	98.279330 
2511.000000	98.275177 
2510.000000	98.272642 
2509.000000	98.273185 
2508.000000	98.274890 
2507.000000	98.272789 
2506.000000	98.263972 
2505.000000	98.251915 
2504.000000	98.243580 
2503.000000	98.241332 
2502.000000	98.241729 
2501.000000	98.242436 
2500.000000	98.246301 
2499.000000	98.255644 
2498.000000	98.267230 
2497.000000	98.275895 
2496.000000	98.280480 
2495.000000	98.282605 
2494.000000	98.282149 
2493.000000	98.277953 
2492.000000	98.272297 
2491.000000	98.270202 
2490.000000	98.273161 
2489.000000	98.276925 
2488.000000	98.276559 
2487.000000	98.271834 
2486.000000	98.266657 
2485.000000	98.264807 
2484.000000	98.266757 
2483.000000	98.269989 
2482.000000	98.271444 
2481.000000	98.270162 
2480.000000	98.267531 
2479.000000	98.264847 
2478.000000	98.261469 
2477.000000	98.256675 
2476.000000	98.252650 
2475.000000	98.253094 
2474.000000	98.258595 
2473.000000	98.265175 
2472.000000	98.268365 
2471.000000	98.267822 
2470.000000	98.266541 
2469.000000	98.267140 
2468.000000	98.270040 
2467.000000	98.274445 
2466.000000	98.279248 
2465.000000	98.283048 
2464.000000	98.284695 
2463.000000	98.284508 
2462.000000	98.284186 
2461.000000	98.284866 
2460.000000	98.286067 
2459.000000	98.286513 
2458.000000	98.285586 
2457.000000	98.284054 
2456.000000	98.283431 
2455.000000	98.284339 
2454.000000	98.285538 
2453.000000	98.285113 
2452.000000	98.282602 
2451.000000	98.279551 
2450.000000	98.277936 
2449.000000	98.278243 
2448.000000	98.279076 
2447.000000	98.278226 
2446.000000	98.274459 
2445.000000	98.269074 
2444.000000	98.265559 
2443.000000	98.266747 
2442.000000	98.272494 
2441.000000	98.280024 
2440.000000	98.286967 
2439.000000	98.292992 
2438.000000	98.298437 
2437.000000	98.303241 
2436.000000	98.307319 
2435.000000	98.310550 
2434.000000	98.312014 
2433.000000	98.310538 
2432.000000	98.306697 
2431.000000	98.303267 
2430.000000	98.302600 
2429.000000	98.304647 
2428.000000	98.307847 
2427.000000	98.311200 
2426.000000	98.314506 
2425.000000	98.317107 
2424.000000	98.317865 
2423.000000	98.316587 
2422.000000	98.314956 
2421.000000	98.315415 
2420.000000	98.318914 
2419.000000	98.324174 
2418.000000	98.328858 
2417.000000	98.331790 
2416.000000	98.333486 
2415.000000	98.334858 
2414.000000	98.336100 
2413.000000	98.337174 
2412.000000	98.338556 
2411.000000	98.340704 
2410.000000	98.343384 
2409.000000	98.346066 
2408.000000	98.348579 
2407.000000	98.351084 
2406.000000	98.353609 
2405.000000	98.355844 
2404.000000	98.357523 
2403.000000	98.358757 
2402.000000	98.359789 
2401.000000	98.360807 
2400.000000	98.362172 
2399.000000	98.364393 
2398.000000	98.367645 
2397.000000	98.371532 
2396.000000	98.375334 
2395.000000	98.378617 
2394.000000	98.381258 
2393.000000	98.383238 
2392.000000	98.384848 
2391.000000	98.386766 
2390.000000	98.389551 
2389.000000	98.393122 
2388.000000	98.396835 
2387.000000	98.400065 
2386.000000	98.402680 
2385.000000	98.404973 
2384.000000	98.407449 
2383.000000	98.410477 
2382.000000	98.413965 
2381.000000	98.417313 
2380.000000	98.419874 
2379.000000	98.421536 
2378.000000	98.422810 
2377.000000	98.424396 
2376.000000	98.426537 
2375.000000	98.428825 
2374.000000	98.430632 
2373.000000	98.431789 
2372.000000	98.432856 
2371.000000	98.434648 
2370.000000	98.437503 
2369.000000	98.441127 
2368.000000	98.444927 
2367.000000	98.448330 
2366.000000	98.450701 
2365.000000	98.451591 
2364.000000	98.451317 
2363.000000	98.450845 
2362.000000	98.450862 
2361.000000	98.451244 
2360.000000	98.451710 
2359.000000	98.452523 
2358.000000	98.454095 
2357.000000	98.456451 
2356.000000	98.459172 
2355.000000	98.461424 
2354.000000	98.461994 
2353.000000	98.460541 
2352.000000	98.458591 
2351.000000	98.457982 
2350.000000	98.458601 
2349.000000	98.458772 
2348.000000	98.457451 
2347.000000	98.455558 
2346.000000	98.455365 
2345.000000	98.458062 
2344.000000	98.461757 
2343.000000	98.463483 
2342.000000	98.461986 
2341.000000	98.457915 
2340.000000	98.452446 
2339.000000	98.446879 
2338.000000	98.442552 
2337.000000	98.440307 
2336.000000	98.440572 
2335.000000	98.442495 
2334.000000	98.443868 
2333.000000	98.442468 
2332.000000	98.439484 
2331.000000	98.437429 
2330.000000	98.437953 
2329.000000	98.440258 
2328.000000	98.444307 
2327.000000	98.448888 
2326.000000	98.451694 
2325.000000	98.451591 
2324.000000	98.451861 
2323.000000	98.456754 
2322.000000	98.464977 
2321.000000	98.469680 
2320.000000	98.466412 
2319.000000	98.455742 
2318.000000	98.441365 
2317.000000	98.425363 
2316.000000	98.410126 
2315.000000	98.398125 
2314.000000	98.391718 
2313.000000	98.389972 
2312.000000	98.391581 
2311.000000	98.394570 
2310.000000	98.396900 
2309.000000	98.396611 
2308.000000	98.394282 
2307.000000	98.391500 
2306.000000	98.388582 
2305.000000	98.383881 
2304.000000	98.377020 
2303.000000	98.369745 
2302.000000	98.364068 
2301.000000	98.359743 
2300.000000	98.355589 
2299.000000	98.351069 
2298.000000	98.346476 
2297.000000	98.341693 
2296.000000	98.336471 
2295.000000	98.330853 
2294.000000	98.325296 
2293.000000	98.320227 
2292.000000	98.315798 
2291.000000	98.311679 
2290.000000	98.307195 
2289.000000	98.301777 
2288.000000	98.295352 
2287.000000	98.288403 
2286.000000	98.281568 
2285.000000	98.275256 
2284.000000	98.269793 
2283.000000	98.265682 
2282.000000	98.263031 
2281.000000	98.260713 
2280.000000	98.256640 
2279.000000	98.249497 
2278.000000	98.240036 
2277.000000	98.231063 
2276.000000	98.225591 
2275.000000	98.224753 
2274.000000	98.226593 
2273.000000	98.226719 
2272.000000	98.221664 
2271.000000	98.211566 
2270.000000	98.200299 
2269.000000	98.192660 
2268.000000	98.191512 
2267.000000	98.196783 
2266.000000	98.205008 
2265.000000	98.210278 
2264.000000	98.208246 
2263.000000	98.200223 
2262.000000	98.192290 
2261.000000	98.188542 
2260.000000	98.186158 
2259.000000	98.178879 
2258.000000	98.164126 
2257.000000	98.145110 
2256.000000	98.126183 
2255.000000	98.108433 
2254.000000	98.091549 
2253.000000	98.078723 
2252.000000	98.076151 
2251.000000	98.085915 
2250.000000	98.102264 
2249.000000	98.117744 
2248.000000	98.131936 
2247.000000	98.149371 
2246.000000	98.169461 
2245.000000	98.182942 
2244.000000	98.181587 
2243.000000	98.167926 
2242.000000	98.153000 
2241.000000	98.145582 
2240.000000	98.146201 
2239.000000	98.150755 
2238.000000	98.155578 
2237.000000	98.159300 
2236.000000	98.162800 
2235.000000	98.167637 
2234.000000	98.172920 
2233.000000	98.175090 
2232.000000	98.173062 
2231.000000	98.171213 
2230.000000	98.173699 
2229.000000	98.177616 
2228.000000	98.176445 
2227.000000	98.169804 
2226.000000	98.164942 
2225.000000	98.167686 
2224.000000	98.176158 
2223.000000	98.184670 
2222.000000	98.190438 
2221.000000	98.194427 
2220.000000	98.198047 
2219.000000	98.201456 
2218.000000	98.204537 
2217.000000	98.208351 
2216.000000	98.215057 
2215.000000	98.225501 
2214.000000	98.236516 
2213.000000	98.242268 
2212.000000	98.239916 
2211.000000	98.232916 
2210.000000	98.228285 
2209.000000	98.231142 
2208.000000	98.242096 
2207.000000	98.257050 
2206.000000	98.268011 
2205.000000	98.268009 
2204.000000	98.258247 
2203.000000	98.249005 
2202.000000	98.248297 
2201.000000	98.251182 
2200.000000	98.246327 
2199.000000	98.230845 
2198.000000	98.212787 
2197.000000	98.199907 
2196.000000	98.192265 
2195.000000	98.188081 
2194.000000	98.189659 
2193.000000	98.199140 
2192.000000	98.212701 
2191.000000	98.223556 
2190.000000	98.228468 
2189.000000	98.228545 
2188.000000	98.226318 
2187.000000	98.224039 
2186.000000	98.221926 
2185.000000	98.215984 
2184.000000	98.201109 
2183.000000	98.179002 
2182.000000	98.160099 
2181.000000	98.153324 
2180.000000	98.156382 
2179.000000	98.158947 
2178.000000	98.154042 
2177.000000	98.143801 
2176.000000	98.135597 
2175.000000	98.135883 
2174.000000	98.146838 
2173.000000	98.165166 
2172.000000	98.183321 
2171.000000	98.195172 
2170.000000	98.199002 
2169.000000	98.195537 
2168.000000	98.186692 
2167.000000	98.175605 
2166.000000	98.166146 
2165.000000	98.159963 
2164.000000	98.155932 
2163.000000	98.154251 
2162.000000	98.157896 
2161.000000	98.168147 
2160.000000	98.181516 
2159.000000	98.193096 
2158.000000	98.200937 
2157.000000	98.204959 
2156.000000	98.204873 
2155.000000	98.202235 
2154.000000	98.201694 
2153.000000	98.206618 
2152.000000	98.214485 
2151.000000	98.219224 
2150.000000	98.218023 
2149.000000	98.214143 
2148.000000	98.213078 
2147.000000	98.217202 
2146.000000	98.224765 
2145.000000	98.232899 
2144.000000	98.240767 
2143.000000	98.249659 
2142.000000	98.260509 
2141.000000	98.272133 
2140.000000	98.282254 
2139.000000	98.289504 
2138.000000	98.293621 
2137.000000	98.294601 
2136.000000	98.292861 
2135.000000	98.289769 
2134.000000	98.286464 
2133.000000	98.282748 
2132.000000	98.279055 
2131.000000	98.278756 
2130.000000	98.285852 
2129.000000	98.300177 
2128.000000	98.314479 
2127.000000	98.320103 
2126.000000	98.315239 
2125.000000	98.305274 
2124.000000	98.297566 
2123.000000	98.294119 
2122.000000	98.292641 
2121.000000	98.291048 
2120.000000	98.289070 
2119.000000	98.287001 
2118.000000	98.284680 
2117.000000	98.281912 
2116.000000	98.279047 
2115.000000	98.276818 
2114.000000	98.275760 
2113.000000	98.275621 
2112.000000	98.275161 
2111.000000	98.272907 
2110.000000	98.268562 
2109.000000	98.263472 
2108.000000	98.259322 
2107.000000	98.256529 
2106.000000	98.254386 
2105.000000	98.252431 
2104.000000	98.250842 
2103.000000	98.249463 
2102.000000	98.247178 
2101.000000	98.242746 
2100.000000	98.235996 
2099.000000	98.228043 
2098.000000	98.220697 
2097.000000	98.215676 
2096.000000	98.213759 
2095.000000	98.214146 
2094.000000	98.214735 
2093.000000	98.213618 
2092.000000	98.210509 
2091.000000	98.206680 
2090.000000	98.203723 
2089.000000	98.202451 
2088.000000	98.202760 
2087.000000	98.203620 
2086.000000	98.203372 
2085.000000	98.201132 
2084.000000	98.197652 
2083.000000	98.194956 
2082.000000	98.194209 
2081.000000	98.194587 
2080.000000	98.194222 
2079.000000	98.192640 
2078.000000	98.191239 
2077.000000	98.191238 
2076.000000	98.192056 
2075.000000	98.192120 
2074.000000	98.190601 
2073.000000	98.187752 
2072.000000	98.184176 
2071.000000	98.180703 
2070.000000	98.178278 
2069.000000	98.177350 
2068.000000	98.177333 
2067.000000	98.177060 
2066.000000	98.176040 
2065.000000	98.174747 
2064.000000	98.173735 
2063.000000	98.173052 
2062.000000	98.172459 
2061.000000	98.171888 
2060.000000	98.171601 
2059.000000	98.171913 
2058.000000	98.172876 
2057.000000	98.174235 
2056.000000	98.175434 
2055.000000	98.175733 
2054.000000	98.174637 
2053.000000	98.172301 
2052.000000	98.169521 
2051.000000	98.167065 
2050.000000	98.165399 
2049.000000	98.164678 
2048.000000	98.164848 
2047.000000	98.165690 
2046.000000	98.166565 
2045.000000	98.166916 
2044.000000	98.166638 
2043.000000	98.165939 
2042.000000	98.165066 
2041.000000	98.164318 
2040.000000	98.164339 
2039.000000	98.165837 
2038.000000	98.168766 
2037.000000	98.172000 
2036.000000	98.173990 
2035.000000	98.173970 
2034.000000	98.172601 
2033.000000	98.171672 
2032.000000	98.172625 
2031.000000	98.175068 
2030.000000	98.176796 
2029.000000	98.175885 
2028.000000	98.172721 
2027.000000	98.169757 
2026.000000	98.169330 
2025.000000	98.172456 
2024.000000	98.179135 
2023.000000	98.188136 
2022.000000	98.196207 
2021.000000	98.199315 
2020.000000	98.195755 
2019.000000	98.187354 
2018.000000	98.177709 
2017.000000	98.169735 
2016.000000	98.164879 
2015.000000	98.163132 
2014.000000	98.163201 
2013.000000	98.163550 
2012.000000	98.163259 
2011.000000	98.161052 
2010.000000	98.154961 
2009.000000	98.146042 
2008.000000	98.141367 
2007.000000	98.147838 
2006.000000	98.163605 
2005.000000	98.177877 
2004.000000	98.183802 
2003.000000	98.186057 
2002.000000	98.191730 
2001.000000	98.197037 
2000.000000	98.192142 
1999.000000	98.176089 
1998.000000	98.158952 
1997.000000	98.149482 
1996.000000	98.146053 
1995.000000	98.142826 
1994.000000	98.138663 
1993.000000	98.136566 
1992.000000	98.137111 
1991.000000	98.137636 
1990.000000	98.137394 
1989.000000	98.138613 
1988.000000	98.141862 
1987.000000	98.143795 
1986.000000	98.140864 
1985.000000	98.133480 
1984.000000	98.125094 
1983.000000	98.118136 
1982.000000	98.112328 
1981.000000	98.107022 
1980.000000	98.104114 
1979.000000	98.106962 
1978.000000	98.116298 
1977.000000	98.128329 
1976.000000	98.137569 
1975.000000	98.141055 
1974.000000	98.138964 
1973.000000	98.133550 
1972.000000	98.128517 
1971.000000	98.127461 
1970.000000	98.131187 
1969.000000	98.136738 
1968.000000	98.140250 
1967.000000	98.141240 
1966.000000	98.142520 
1965.000000	98.145954 
1964.000000	98.149992 
1963.000000	98.151939 
1962.000000	98.151096 
1961.000000	98.149011 
1960.000000	98.147993 
1959.000000	98.149464 
1958.000000	98.153409 
1957.000000	98.158251 
1956.000000	98.161668 
1955.000000	98.162517 
1954.000000	98.161539 
1953.000000	98.160357 
1952.000000	98.159311 
1951.000000	98.157761 
1950.000000	98.155889 
1949.000000	98.155120 
1948.000000	98.156636 
1947.000000	98.160012 
1946.000000	98.163486 
1945.000000	98.165587 
1944.000000	98.166424 
1943.000000	98.167181 
1942.000000	98.168815 
1941.000000	98.171226 
1940.000000	98.173775 
1939.000000	98.175934 
1938.000000	98.177540 
1937.000000	98.178652 
1936.000000	98.179443 
1935.000000	98.180180 
1934.000000	98.181077 
1933.000000	98.182185 
1932.000000	98.183425 
1931.000000	98.184722 
1930.000000	98.186034 
1929.000000	98.187188 
1928.000000	98.187983 
1927.000000	98.188368 
1926.000000	98.188405 
1925.000000	98.188088 
1924.000000	98.187435 
1923.000000	98.186841 
1922.000000	98.186985 
1921.000000	98.188168 
1920.000000	98.190355 
1919.000000	98.193920 
1918.000000	98.198842 
1917.000000	98.203153 
1916.000000	98.203783 
1915.000000	98.200220 
1914.000000	98.195470 
1913.000000	98.193476 
1912.000000	98.196817 
1911.000000	98.205750 
1910.000000	98.217461 
1909.000000	98.226676 
1908.000000	98.230337 
1907.000000	98.230741 
1906.000000	98.232817 
1905.000000	98.237569 
1904.000000	98.240387 
1903.000000	98.237798 
1902.000000	98.231457 
1901.000000	98.224970 
1900.000000	98.219748 
1899.000000	98.215620 
1898.000000	98.214770 
1897.000000	98.221590 
1896.000000	98.237045 
1895.000000	98.255376 
1894.000000	98.267377 
1893.000000	98.267862 
1892.000000	98.259145 
1891.000000	98.248232 
1890.000000	98.242217 
1889.000000	98.244945 
1888.000000	98.255306 
1887.000000	98.267208 
1886.000000	98.272253 
1885.000000	98.266716 
1884.000000	98.257176 
1883.000000	98.255737 
1882.000000	98.268321 
1881.000000	98.292929 
1880.000000	98.330337 
1879.000000	98.386026 
1878.000000	98.454486 
1877.000000	98.508647 
1876.000000	98.518821 
1875.000000	98.480088 
1874.000000	98.417107 
1873.000000	98.362548 
1872.000000	98.329139 
1871.000000	98.309206 
1870.000000	98.293053 
1869.000000	98.281054 
1868.000000	98.279638 
1867.000000	98.289667 
1866.000000	98.302348 
1865.000000	98.306348 
1864.000000	98.297967 
1863.000000	98.284437 
1862.000000	98.276962 
1861.000000	98.279970 
1860.000000	98.288191 
1859.000000	98.293501 
1858.000000	98.291942 
1857.000000	98.284757 
1856.000000	98.276326 
1855.000000	98.271514 
1854.000000	98.271901 
1853.000000	98.272906 
1852.000000	98.269372 
1851.000000	98.261946 
1850.000000	98.256443 
1849.000000	98.258613 
1848.000000	98.268302 
1847.000000	98.280376 
1846.000000	98.289327 
1845.000000	98.292844 
1844.000000	98.291441 
1843.000000	98.287446 
1842.000000	98.283308 
1841.000000	98.279567 
1840.000000	98.276779 
1839.000000	98.275695 
1838.000000	98.276450 
1837.000000	98.278700 
1836.000000	98.282238 
1835.000000	98.286541 
1834.000000	98.289553 
1833.000000	98.289850 
1832.000000	98.288600 
1831.000000	98.286980 
1830.000000	98.285858 
1829.000000	98.286719 
1828.000000	98.289778 
1827.000000	98.293846 
1826.000000	98.297419 
1825.000000	98.299691 
1824.000000	98.300789 
1823.000000	98.301561 
1822.000000	98.302674 
1821.000000	98.304144 
1820.000000	98.305809 
1819.000000	98.307748 
1818.000000	98.310213 
1817.000000	98.312863 
1816.000000	98.314914 
1815.000000	98.316456 
1814.000000	98.318359 
1813.000000	98.321011 
1812.000000	98.323460 
1811.000000	98.324498 
1810.000000	98.324358 
1809.000000	98.324229 
1808.000000	98.324862 
1807.000000	98.326172 
1806.000000	98.327696 
1805.000000	98.328927 
1804.000000	98.329554 
1803.000000	98.329788 
1802.000000	98.330108 
1801.000000	98.330905 
1800.000000	98.332190 
1799.000000	98.333666 
1798.000000	98.335061 
1797.000000	98.335901 
1796.000000	98.335765 
1795.000000	98.334734 
1794.000000	98.333351 
1793.000000	98.332749 
1792.000000	98.333739 
1791.000000	98.336159 
1790.000000	98.339161 
1789.000000	98.341605 
1788.000000	98.343095 
1787.000000	98.343904 
1786.000000	98.344444 
1785.000000	98.344961 
1784.000000	98.345586 
1783.000000	98.346438 
1782.000000	98.347398 
1781.000000	98.348285 
1780.000000	98.349082 
1779.000000	98.349885 
1778.000000	98.350774 
1777.000000	98.351706 
1776.000000	98.352627 
1775.000000	98.353516 
1774.000000	98.354373 
1773.000000	98.355208 
1772.000000	98.356031 
1771.000000	98.356861 
1770.000000	98.357720 
1769.000000	98.358628 
1768.000000	98.359590 
1767.000000	98.360587 
1766.000000	98.361579 
1765.000000	98.362536 
1764.000000	98.363452 
1763.000000	98.364347 
1762.000000	98.365256 
1761.000000	98.366197 
1760.000000	98.367164 
1759.000000	98.368135 
1758.000000	98.369091 
1757.000000	98.370021 
1756.000000	98.370921 
1755.000000	98.371771 
1754.000000	98.372546 
1753.000000	98.373242 
1752.000000	98.373898 
1751.000000	98.374590 
1750.000000	98.375362 
1749.000000	98.376227 
1748.000000	98.377096 
1747.000000	98.377902 
1746.000000	98.378654 
1745.000000	98.379429 
1744.000000	98.380273 
1743.000000	98.381109 
1742.000000	98.381810 
1741.000000	98.382313 
1740.000000	98.382639 
1739.000000	98.382889 
1738.000000	98.383206 
1737.000000	98.383540 
1736.000000	98.383737 
1735.000000	98.384130 
1734.000000	98.385209 
1733.000000	98.386613 
1732.000000	98.388055 
1731.000000	98.389415 
1730.000000	98.390552 
1729.000000	98.391012 
1728.000000	98.390291 
1727.000000	98.388463 
1726.000000	98.386041 
1725.000000	98.383883 
1724.000000	98.382134 
1723.000000	98.380418 
1722.000000	98.378932 
1721.000000	98.377630 
1720.000000	98.375951 
1719.000000	98.374054 
1718.000000	98.373923 
1717.000000	98.376042 
1716.000000	98.377350 
1715.000000	98.375877 
1714.000000	98.372477 
1713.000000	98.368230 
1712.000000	98.363462 
1711.000000	98.359669 
1710.000000	98.358705 
1709.000000	98.359853 
1708.000000	98.360189 
1707.000000	98.357632 
1706.000000	98.353637 
1705.000000	98.349999 
1704.000000	98.346791 
1703.000000	98.343486 
1702.000000	98.340134 
1701.000000	98.338251 
1700.000000	98.335628 
1699.000000	98.331058 
1698.000000	98.328718 
1697.000000	98.326956 
1696.000000	98.323320 
1695.000000	98.317705 
1694.000000	98.312204 
1693.000000	98.306845 
1692.000000	98.300220 
1691.000000	98.293440 
1690.000000	98.287777 
1689.000000	98.282843 
1688.000000	98.278086 
1687.000000	98.273057 
1686.000000	98.267818 
1685.000000	98.262634 
1684.000000	98.257397 
1683.000000	98.252288 
1682.000000	98.247544 
1681.000000	98.242710 
1680.000000	98.237689 
1679.000000	98.232632 
1678.000000	98.227537 
1677.000000	98.222355 
1676.000000	98.217143 
1675.000000	98.211902 
1674.000000	98.206495 
1673.000000	98.200971 
1672.000000	98.195433 
1671.000000	98.190053 
1670.000000	98.185009 
1669.000000	98.180193 
1668.000000	98.175429 
1667.000000	98.170599 
1666.000000	98.165559 
1665.000000	98.160197 
1664.000000	98.154491 
1663.000000	98.148709 
1662.000000	98.143142 
1661.000000	98.137975 
1660.000000	98.133432 
1659.000000	98.129277 
1658.000000	98.125078 
1657.000000	98.120977 
1656.000000	98.117510 
1655.000000	98.114587 
1654.000000	98.111580 
1653.000000	98.106137 
1652.000000	98.098067 
1651.000000	98.093095 
1650.000000	98.090872 
1649.000000	98.088638 
1648.000000	98.086087 
1647.000000	98.083770 
1646.000000	98.081127 
1645.000000	98.077656 
1644.000000	98.073546 
1643.000000	98.069677 
1642.000000	98.067095 
1641.000000	98.066161 
1640.000000	98.066674 
1639.000000	98.067330 
1638.000000	98.066827 
1637.000000	98.064952 
1636.000000	98.063379 
1635.000000	98.062963 
1634.000000	98.063904 
1633.000000	98.065333 
1632.000000	98.064609 
1631.000000	98.062474 
1630.000000	98.060771 
1629.000000	98.059242 
1628.000000	98.056087 
1627.000000	98.051845 
1626.000000	98.049260 
1625.000000	98.051155 
1624.000000	98.059103 
1623.000000	98.071220 
1622.000000	98.082130 
1621.000000	98.088775 
1620.000000	98.092472 
1619.000000	98.094649 
1618.000000	98.095556 
1617.000000	98.094511 
1616.000000	98.093453 
1615.000000	98.096450 
1614.000000	98.102361 
1613.000000	98.106291 
1612.000000	98.106889 
1611.000000	98.107373 
1610.000000	98.110608 
1609.000000	98.116030 
1608.000000	98.121856 
1607.000000	98.127374 
1606.000000	98.132140 
1605.000000	98.136238 
1604.000000	98.140723 
1603.000000	98.145756 
1602.000000	98.150954 
1601.000000	98.156393 
1600.000000	98.162213 
1599.000000	98.167496 
1598.000000	98.171016 
1597.000000	98.173176 
1596.000000	98.175789 
1595.000000	98.179882 
1594.000000	98.184575 
1593.000000	98.188649 
1592.000000	98.192407 
1591.000000	98.197049 
1590.000000	98.202839 
1589.000000	98.208822 
1588.000000	98.214095 
1587.000000	98.218634 
1586.000000	98.222905 
1585.000000	98.227294 
1584.000000	98.232535 
1583.000000	98.238554 
1582.000000	98.243551 
1581.000000	98.246484 
1580.000000	98.249124 
1579.000000	98.253955 
1578.000000	98.261557 
1577.000000	98.270684 
1576.000000	98.278170 
1575.000000	98.282441 
1574.000000	98.285201 
1573.000000	98.287774 
1572.000000	98.290592 
1571.000000	98.294272 
1570.000000	98.298168 
1569.000000	98.300408 
1568.000000	98.302091 
1567.000000	98.304123 
1566.000000	98.305215 
1565.000000	98.305581 
1564.000000	98.307839 
1563.000000	98.312641 
1562.000000	98.316928 
1561.000000	98.318053 
1560.000000	98.321634 
1559.000000	98.331204 
1558.000000	98.334969 
1557.000000	98.332497 
1556.000000	98.329145 
1555.000000	98.327406 
1554.000000	98.327761 
1553.000000	98.329209 
1552.000000	98.330450 
1551.000000	98.330158 
1550.000000	98.328739 
1549.000000	98.326670 
1548.000000	98.323989 
1547.000000	98.320843 
1546.000000	98.317113 
1545.000000	98.313774 
1544.000000	98.312271 
1543.000000	98.312701 
1542.000000	98.313909 
1541.000000	98.313671 
1540.000000	98.308938 
1539.000000	98.301067 
1538.000000	98.295522 
1537.000000	98.292634 
1536.000000	98.289359 
1535.000000	98.285613 
1534.000000	98.283045 
1533.000000	98.281805 
1532.000000	98.279500 
1531.000000	98.274360 
1530.000000	98.267181 
1529.000000	98.259690 
1528.000000	98.252986 
1527.000000	98.247133 
1526.000000	98.241414 
1525.000000	98.235422 
1524.000000	98.229326 
1523.000000	98.223489 
1522.000000	98.218738 
1521.000000	98.215093 
1520.000000	98.211180 
1519.000000	98.205708 
1518.000000	98.198313 
1517.000000	98.190174 
1516.000000	98.182946 
1515.000000	98.177241 
1514.000000	98.172521 
1513.000000	98.168010 
1512.000000	98.162844 
1511.000000	98.156282 
1510.000000	98.148477 
1509.000000	98.140342 
1508.000000	98.133964 
1507.000000	98.131220 
1506.000000	98.129704 
1505.000000	98.126027 
1504.000000	98.120910 
1503.000000	98.115041 
1502.000000	98.108702 
1501.000000	98.101991 
1500.000000	98.093981 
1499.000000	98.083284 
1498.000000	98.070039 
1497.000000	98.057205 
1496.000000	98.047467 
1495.000000	98.041243 
1494.000000	98.037223 
1493.000000	98.033564 
1492.000000	98.029527 
1491.000000	98.025972 
1490.000000	98.023771 
1489.000000	98.020997 
1488.000000	98.014332 
1487.000000	98.004501 
1486.000000	97.995602 
1485.000000	97.988297 
1484.000000	97.981046 
1483.000000	97.972939 
1482.000000	97.964668 
1481.000000	97.957241 
1480.000000	97.949461 
1479.000000	97.939732 
1478.000000	97.927974 
1477.000000	97.915910 
1476.000000	97.904911 
1475.000000	97.896675 
1474.000000	97.892569 
1473.000000	97.892718 
1472.000000	97.893760 
1471.000000	97.891395 
1470.000000	97.886160 
1469.000000	97.879365 
1468.000000	97.870911 
1467.000000	97.861500 
1466.000000	97.852914 
1465.000000	97.846185 
1464.000000	97.840437 
1463.000000	97.832669 
1462.000000	97.822771 
1461.000000	97.813169 
1460.000000	97.806005 
1459.000000	97.800346 
1458.000000	97.793420 
1457.000000	97.783390 
1456.000000	97.769753 
1455.000000	97.755012 
1454.000000	97.738431 
1453.000000	97.720789 
1452.000000	97.706781 
1451.000000	97.700002 
1450.000000	97.702523 
1449.000000	97.713433 
1448.000000	97.725254 
1447.000000	97.729404 
1446.000000	97.724538 
1445.000000	97.719502 
1444.000000	97.722695 
1443.000000	97.730301 
1442.000000	97.735188 
1441.000000	97.736331 
1440.000000	97.737056 
1439.000000	97.736173 
1438.000000	97.732873 
1437.000000	97.731401 
1436.000000	97.731295 
1435.000000	97.725206 
1434.000000	97.712187 
1433.000000	97.699649 
1432.000000	97.694239 
1431.000000	97.695108 
1430.000000	97.696571 
1429.000000	97.696733 
1428.000000	97.695505 
1427.000000	97.692201 
1426.000000	97.684458 
1425.000000	97.675681 
1424.000000	97.673596 
1423.000000	97.675955 
1422.000000	97.674942 
1421.000000	97.668911 
1420.000000	97.664045 
1419.000000	97.660843 
1418.000000	97.652001 
1417.000000	97.637599 
1416.000000	97.623932 
1415.000000	97.614039 
1414.000000	97.606583 
1413.000000	97.601194 
1412.000000	97.598847 
1411.000000	97.596091 
1410.000000	97.587419 
1409.000000	97.573392 
1408.000000	97.560475 
1407.000000	97.555825 
1406.000000	97.560675 
1405.000000	97.572497 
1404.000000	97.589826 
1403.000000	97.609565 
1402.000000	97.628868 
1401.000000	97.648458 
1400.000000	97.671848 
1399.000000	97.697264 
1398.000000	97.714698 
1397.000000	97.715667 
1396.000000	97.702210 
1395.000000	97.688181 
1394.000000	97.689135 
1393.000000	97.710607 
1392.000000	97.745559 
1391.000000	97.780261 
1390.000000	97.804759 
1389.000000	97.818578 
1388.000000	97.827474 
1387.000000	97.834297 
1386.000000	97.835560 
1385.000000	97.830326 
1384.000000	97.825851 
1383.000000	97.829722 
1382.000000	97.842347 
1381.000000	97.858417 
1380.000000	97.875093 
1379.000000	97.894372 
1378.000000	97.915710 
1377.000000	97.932747 
1376.000000	97.940693 
1375.000000	97.944464 
1374.000000	97.954867 
1373.000000	97.976311 
1372.000000	98.002379 
1371.000000	98.024757 
1370.000000	98.040998 
1369.000000	98.054751 
1368.000000	98.071220 
1367.000000	98.090920 
1366.000000	98.110136 
1365.000000	98.125913 
1364.000000	98.139428 
1363.000000	98.154531 
1362.000000	98.172820 
1361.000000	98.191032 
1360.000000	98.205014 
1359.000000	98.214471 
1358.000000	98.223272 
1357.000000	98.236269 
1356.000000	98.254543 
1355.000000	98.272959 
1354.000000	98.285192 
1353.000000	98.291306 
1352.000000	98.296989 
1351.000000	98.307022 
1350.000000	98.319863 
1349.000000	98.331335 
1348.000000	98.341460 
1347.000000	98.352457 
1346.000000	98.363709 
1345.000000	98.371737 
1344.000000	98.376187 
1343.000000	98.381465 
1342.000000	98.391700 
1341.000000	98.405967 
1340.000000	98.419676 
1339.000000	98.428694 
1338.000000	98.431273 
1337.000000	98.427664 
1336.000000	98.419611 
1335.000000	98.410155 
1334.000000	98.402579 
1333.000000	98.398711 
1332.000000	98.398622 
1331.000000	98.402012 
1330.000000	98.408847 
1329.000000	98.418133 
1328.000000	98.426769 
1327.000000	98.431259 
1326.000000	98.430634 
1325.000000	98.427411 
1324.000000	98.425125 
1323.000000	98.424499 
1322.000000	98.423662 
1321.000000	98.421705 
1320.000000	98.420353 
1319.000000	98.421263 
1318.000000	98.423102 
1317.000000	98.422669 
1316.000000	98.418750 
1315.000000	98.413828 
1314.000000	98.411856 
1313.000000	98.414279 
1312.000000	98.418266 
1311.000000	98.419715 
1310.000000	98.418225 
1309.000000	98.417915 
1308.000000	98.422320 
1307.000000	98.429596 
1306.000000	98.434070 
1305.000000	98.432708 
1304.000000	98.428174 
1303.000000	98.424995 
1302.000000	98.424807 
1301.000000	98.426318 
1300.000000	98.428516 
1299.000000	98.431574 
1298.000000	98.434828 
1297.000000	98.435638 
1296.000000	98.431771 
1295.000000	98.424824 
1294.000000	98.419968 
1293.000000	98.421119 
1292.000000	98.426504 
1291.000000	98.430231 
1290.000000	98.428618 
1289.000000	98.423533 
1288.000000	98.419050 
1287.000000	98.416803 
1286.000000	98.416676 
1285.000000	98.419994 
1284.000000	98.427924 
1283.000000	98.436686 
1282.000000	98.438935 
1281.000000	98.431896 
1280.000000	98.421563 
1279.000000	98.416812 
1278.000000	98.420051 
1277.000000	98.426580 
1276.000000	98.431327 
1275.000000	98.432888 
1274.000000	98.431676 
1273.000000	98.428400 
1272.000000	98.425397 
1271.000000	98.425869 
1270.000000	98.429408 
1269.000000	98.430857 
1268.000000	98.426183 
1267.000000	98.417556 
1266.000000	98.410274 
1265.000000	98.405847 
1264.000000	98.401112 
1263.000000	98.394025 
1262.000000	98.387333 
1261.000000	98.385594 
1260.000000	98.390510 
1259.000000	98.399880 
1258.000000	98.409903 
1257.000000	98.417985 
1256.000000	98.423391 
1255.000000	98.424891 
1254.000000	98.418122 
1253.000000	98.398397 
1252.000000	98.368961 
1251.000000	98.344316 
1250.000000	98.339723 
1249.000000	98.356645 
1248.000000	98.382153 
1247.000000	98.403410 
1246.000000	98.418637 
1245.000000	98.431292 
1244.000000	98.439018 
1243.000000	98.435847 
1242.000000	98.424151 
1241.000000	98.416464 
1240.000000	98.421570 
1239.000000	98.432963 
1238.000000	98.435708 
1237.000000	98.422932 
1236.000000	98.401438 
1235.000000	98.382215 
1234.000000	98.369806 
1233.000000	98.362143 
1232.000000	98.356445 
1231.000000	98.351141 
1230.000000	98.344201 
1229.000000	98.334585 
1228.000000	98.325889 
1227.000000	98.324334 
1226.000000	98.330379 
1225.000000	98.334901 
1224.000000	98.327197 
1223.000000	98.305711 
1222.000000	98.277813 
1221.000000	98.249496 
1220.000000	98.219462 
1219.000000	98.185146 
1218.000000	98.150413 
1217.000000	98.122485 
1216.000000	98.101598 
1215.000000	98.078081 
1214.000000	98.042171 
1213.000000	97.994641 
1212.000000	97.944554 
1211.000000	97.896753 
1210.000000	97.845721 
1209.000000	97.784865 
1208.000000	97.718667 
1207.000000	97.659527 
1206.000000	97.611295 
1205.000000	97.562128 
1204.000000	97.498456 
1203.000000	97.421341 
1202.000000	97.343490 
1201.000000	97.272578 
1200.000000	97.205166 
1199.000000	97.137545 
1198.000000	97.073505 
1197.000000	97.016769 
1196.000000	96.962174 
1195.000000	96.901535 
1194.000000	96.835249 
1193.000000	96.770626 
1192.000000	96.708766 
1191.000000	96.640459 
1190.000000	96.558156 
1189.000000	96.466523 
1188.000000	96.376620 
1187.000000	96.292895 
1186.000000	96.211111 
1185.000000	96.127109 
1184.000000	96.041002 
1183.000000	95.952238 
1182.000000	95.857487 
1181.000000	95.757202 
1180.000000	95.659117 
1179.000000	95.569394 
1178.000000	95.482847 
1177.000000	95.388046 
1176.000000	95.281288 
1175.000000	95.169914 
1174.000000	95.061258 
1173.000000	94.953580 
1172.000000	94.840365 
1171.000000	94.720028 
1170.000000	94.598849 
1169.000000	94.485999 
1168.000000	94.386370 
1167.000000	94.296667 
1166.000000	94.210226 
1165.000000	94.129878 
1164.000000	94.074088 
1163.000000	94.063018 
1162.000000	94.096591 
1161.000000	94.150470 
1160.000000	94.195655 
1159.000000	94.218260 
1158.000000	94.219009 
1157.000000	94.200688 
1156.000000	94.161327 
1155.000000	94.097091 
1154.000000	94.007975 
1153.000000	93.901152 
1152.000000	93.789544 
1151.000000	93.684472 
1150.000000	93.587974 
1149.000000	93.494564 
1148.000000	93.400695 
1147.000000	93.308300 
1146.000000	93.218406 
1145.000000	93.127225 
1144.000000	93.031736 
1143.000000	92.933996 
1142.000000	92.835770 
1141.000000	92.733310 
1140.000000	92.622660 
1139.000000	92.507255 
1138.000000	92.395218 
1137.000000	92.290911 
1136.000000	92.193896 
1135.000000	92.104304 
1134.000000	92.022496 
1133.000000	91.941607 
1132.000000	91.845806 
1131.000000	91.721856 
1130.000000	91.573529 
1129.000000	91.421524 
1128.000000	91.285359 
1127.000000	91.165777 
1126.000000	91.048557 
1125.000000	90.924846 
1124.000000	90.801208 
1123.000000	90.686836 
1122.000000	90.578451 
1121.000000	90.465263 
1120.000000	90.344288 
1119.000000	90.221808 
1118.000000	90.102001 
1117.000000	89.983386 
1116.000000	89.865641 
1115.000000	89.751155 
1114.000000	89.639746 
1113.000000	89.529977 
1112.000000	89.425561 
1111.000000	89.331699 
1110.000000	89.244737 
1109.000000	89.154556 
1108.000000	89.057038 
1107.000000	88.955592 
1106.000000	88.851136 
1105.000000	88.740308 
1104.000000	88.624009 
1103.000000	88.507854 
1102.000000	88.393784 
1101.000000	88.280606 
1100.000000	88.172440 
1099.000000	88.075756 
1098.000000	87.988487 
1097.000000	87.903223 
1096.000000	87.819914 
1095.000000	87.742735 
1094.000000	87.664702 
1093.000000	87.570576 
1092.000000	87.457233 
1091.000000	87.337309 
1090.000000	87.220371 
1089.000000	87.104560 
1088.000000	86.989345 
1087.000000	86.880348 
1086.000000	86.776240 
1085.000000	86.666640 
1084.000000	86.550003 
1083.000000	86.439264 
1082.000000	86.342233 
1081.000000	86.249838 
1080.000000	86.151712 
1079.000000	86.050256 
1078.000000	85.950567 
1077.000000	85.848756 
1076.000000	85.740099 
1075.000000	85.628352 
1074.000000	85.517644 
1073.000000	85.403868 
1072.000000	85.280706 
1071.000000	85.143278 
1070.000000	84.978552 
1069.000000	84.765695 
1068.000000	84.499199 
1067.000000	84.205922 
1066.000000	83.928817 
1065.000000	83.694641 
1064.000000	83.500758 
1063.000000	83.323074 
1062.000000	83.128881 
1061.000000	82.893495 
1060.000000	82.618323 
1059.000000	82.331586 
1058.000000	82.064240 
1057.000000	81.825759 
1056.000000	81.603837 
1055.000000	81.378851 
1054.000000	81.135463 
1053.000000	80.870528 
1052.000000	80.596422 
1051.000000	80.329995 
1050.000000	80.074417 
1049.000000	79.819630 
1048.000000	79.560479 
1047.000000	79.302010 
1046.000000	79.047441 
1045.000000	78.795109 
1044.000000	78.547202 
1043.000000	78.307392 
1042.000000	78.069467 
1041.000000	77.822793 
1040.000000	77.571036 
1039.000000	77.331885 
1038.000000	77.116716 
1037.000000	76.923685 
1036.000000	76.750175 
1035.000000	76.596500 
1034.000000	76.457488 
1033.000000	76.326321 
1032.000000	76.205208 
1031.000000	76.095565 
1030.000000	75.982559 
1029.000000	75.852343 
1028.000000	75.722524 
1027.000000	75.629059 
1026.000000	75.580367 
1025.000000	75.548578 
1024.000000	75.509394 
1023.000000	75.465175 
1022.000000	75.422680 
1021.000000	75.375784 
1020.000000	75.321448 
1019.000000	75.269094 
1018.000000	75.221501 
1017.000000	75.166009 
1016.000000	75.096312 
1015.000000	75.026132 
1014.000000	74.971989 
1013.000000	74.938219 
1012.000000	74.923989 
1011.000000	74.924853 
1010.000000	74.920943 
1009.000000	74.887605 
1008.000000	74.830738 
1007.000000	74.791491 
1006.000000	74.800985 
1005.000000	74.845797 
1004.000000	74.890328 
1003.000000	74.919329 
1002.000000	74.944611 
1001.000000	74.980362 
1000.000000	75.026595 
999.000000	 75.072873 
998.000000	 75.110676 
997.000000	 75.145453 
996.000000	 75.196766 
995.000000	 75.278889 
994.000000	 75.383076 
993.000000	 75.489259 
992.000000	 75.591464 
991.000000	 75.696574 
990.000000	 75.802073 
989.000000	 75.895917 
988.000000	 75.980048 
987.000000	 76.073543 
986.000000	 76.187795 
985.000000	 76.317246 
984.000000	 76.459431 
983.000000	 76.624514 
982.000000	 76.816610 
981.000000	 77.022237 
980.000000	 77.226559 
979.000000	 77.428508 
978.000000	 77.632651 
977.000000	 77.839156 
976.000000	 78.049714 
975.000000	 78.272316 
974.000000	 78.511920 
973.000000	 78.763358 
972.000000	 79.017783 
971.000000	 79.269648 
970.000000	 79.516883 
969.000000	 79.763182 
968.000000	 80.019790 
967.000000	 80.294120 
966.000000	 80.575544 
965.000000	 80.843122 
964.000000	 81.089143 
963.000000	 81.326268 
962.000000	 81.572030 
961.000000	 81.834988 
960.000000	 82.113382 
959.000000	 82.394870 
958.000000	 82.657774 
957.000000	 82.885278 
956.000000	 83.081115 
955.000000	 83.264226 
954.000000	 83.449386 
953.000000	 83.640872 
952.000000	 83.840289 
951.000000	 84.046499 
950.000000	 84.249093 
949.000000	 84.436288 
948.000000	 84.609676 
947.000000	 84.778409 
946.000000	 84.939217 
945.000000	 85.077582 
944.000000	 85.191421 
943.000000	 85.298941 
942.000000	 85.416765 
941.000000	 85.541341 
940.000000	 85.659166 
939.000000	 85.765995 
938.000000	 85.869033 
937.000000	 85.976852 
936.000000	 86.092595 
935.000000	 86.212436 
934.000000	 86.327797 
933.000000	 86.434238 
932.000000	 86.539760 
931.000000	 86.658271 
930.000000	 86.792682 
929.000000	 86.929917 
928.000000	 87.054387 
927.000000	 87.161644 
926.000000	 87.258297 
925.000000	 87.353372 
924.000000	 87.450223 
923.000000	 87.543038 
922.000000	 87.621870 
921.000000	 87.684766 
920.000000	 87.742622 
919.000000	 87.807461 
918.000000	 87.879078 
917.000000	 87.948632 
916.000000	 88.012253 
915.000000	 88.075072 
914.000000	 88.144705 
913.000000	 88.227124 
912.000000	 88.326857 
911.000000	 88.445384 
910.000000	 88.581505 
909.000000	 88.737485 
908.000000	 88.919003 
907.000000	 89.123387 
906.000000	 89.336030 
905.000000	 89.547395 
904.000000	 89.766357 
903.000000	 90.006654 
902.000000	 90.266784 
901.000000	 90.532794 
900.000000	 90.793647 
899.000000	 91.043424 
898.000000	 91.276409 
897.000000	 91.493477 
896.000000	 91.708295 
895.000000	 91.934319 
894.000000	 92.167731 
893.000000	 92.392621 
892.000000	 92.598836 
891.000000	 92.785515 
890.000000	 92.953311 
889.000000	 93.104344 
888.000000	 93.245233 
887.000000	 93.379734 
886.000000	 93.503490 
885.000000	 93.616527 
884.000000	 93.732825 
883.000000	 93.861127 
882.000000	 93.981496 
881.000000	 94.062590 
880.000000	 94.105696 
879.000000	 94.154984 
878.000000	 94.255559 
877.000000	 94.411023 
876.000000	 94.587501 
875.000000	 94.747568 
874.000000	 94.875810 
873.000000	 94.984484 
872.000000	 95.103701 
871.000000	 95.258761 
870.000000	 95.448254 
869.000000	 95.646172 
868.000000	 95.828019 
867.000000	 95.990462 
866.000000	 96.144123 
865.000000	 96.294476 
864.000000	 96.436718 
863.000000	 96.567313 
862.000000	 96.692896 
861.000000	 96.823846 
860.000000	 96.961895 
859.000000	 97.099418 
858.000000	 97.231588 
857.000000	 97.362874 
856.000000	 97.496200 
855.000000	 97.620294 
854.000000	 97.717171 
853.000000	 97.782542 
852.000000	 97.830968 
851.000000	 97.879095 
850.000000	 97.931080 
849.000000	 97.983581 
848.000000	 98.037319 
847.000000	 98.097242 
846.000000	 98.164596 
845.000000	 98.233620 
844.000000	 98.295007 
843.000000	 98.340873 
842.000000	 98.367904 
841.000000	 98.375545 
840.000000	 98.359624 
839.000000	 98.312549 
838.000000	 98.236859 
837.000000	 98.155245 
836.000000	 98.096915 
835.000000	 98.072932 
834.000000	 98.072280 
833.000000	 98.080967 
832.000000	 98.093748 
831.000000	 98.106549 
830.000000	 98.113028 
829.000000	 98.116210 
828.000000	 98.130755 
827.000000	 98.163757 
826.000000	 98.204315 
825.000000	 98.242247 
824.000000	 98.283227 
823.000000	 98.331693 
822.000000	 98.374711 
821.000000	 98.401266 
820.000000	 98.423586 
819.000000	 98.459173 
818.000000	 98.499414 
817.000000	 98.514047 
816.000000	 98.485025 
815.000000	 98.422234 
814.000000	 98.343824 
813.000000	 98.251059 
812.000000	 98.126826 
811.000000	 97.951056 
810.000000	 97.711795 
809.000000	 97.406034 
808.000000	 97.037572 
807.000000	 96.616789 
806.000000	 96.159673 
805.000000	 95.684023 
804.000000	 95.205855 
803.000000	 94.739171 
802.000000	 94.299486 
801.000000	 93.908374 
800.000000	 93.593112 
799.000000	 93.378056 
798.000000	 93.273542 
797.000000	 93.271108 
796.000000	 93.345058 
795.000000	 93.458222 
794.000000	 93.576278 
793.000000	 93.683207 
792.000000	 93.777447 
791.000000	 93.855359 
790.000000	 93.908880 
789.000000	 93.937677 
788.000000	 93.950516 
787.000000	 93.948097 
786.000000	 93.914266 
785.000000	 93.831658 
784.000000	 93.698800 
783.000000	 93.529034 
782.000000	 93.343911 
781.000000	 93.172001 
780.000000	 93.041020 
779.000000	 92.961866 
778.000000	 92.928269 
777.000000	 92.936975 
776.000000	 92.995889 
775.000000	 93.105405 
774.000000	 93.246706 
773.000000	 93.399203 
772.000000	 93.555875 
771.000000	 93.710679 
770.000000	 93.847027 
769.000000	 93.954270 
768.000000	 94.042985 
767.000000	 94.127490 
766.000000	 94.202121 
765.000000	 94.251525 
764.000000	 94.279875 
763.000000	 94.314214 
762.000000	 94.376908 
761.000000	 94.462864 
760.000000	 94.545938 
759.000000	 94.605953 
758.000000	 94.650000 
757.000000	 94.705585 
756.000000	 94.793470 
755.000000	 94.917659 
754.000000	 95.084874 
753.000000	 95.308589 
752.000000	 95.565664 
751.000000	 95.765867 
750.000000	 95.815563 
749.000000	 95.717241 
748.000000	 95.582912 
747.000000	 95.529836 
746.000000	 95.573935 
745.000000	 95.655121 
744.000000	 95.732911 
743.000000	 95.819898 
742.000000	 95.932906 
741.000000	 96.056765 
740.000000	 96.166625 
739.000000	 96.257474 
738.000000	 96.339415 
737.000000	 96.421192 
736.000000	 96.506624 
735.000000	 96.594516 
734.000000	 96.677117 
733.000000	 96.748737 
732.000000	 96.816517 
731.000000	 96.890095 
730.000000	 96.961860 
729.000000	 97.014450 
728.000000	 97.044683 
727.000000	 97.064674 
726.000000	 97.085322 
725.000000	 97.113435 
724.000000	 97.159256 
723.000000	 97.227274 
722.000000	 97.302471 
721.000000	 97.365068 
720.000000	 97.415721 
719.000000	 97.466882 
718.000000	 97.515130 
717.000000	 97.547622 
716.000000	 97.572504 
715.000000	 97.612744 
714.000000	 97.668811 
713.000000	 97.717983 
712.000000	 97.753752 
711.000000	 97.795951 
710.000000	 97.854715 
709.000000	 97.915005 
708.000000	 97.956231 
707.000000	 97.970548 
706.000000	 97.962641 
705.000000	 97.942069 
704.000000	 97.917534 
703.000000	 97.887269 
702.000000	 97.827702 
701.000000	 97.710524 
700.000000	 97.534175 
699.000000	 97.317996 
698.000000	 97.078681 
697.000000	 96.835603 
696.000000	 96.630940 
695.000000	 96.517000 
694.000000	 96.509028 
693.000000	 96.574232 
692.000000	 96.674412 
691.000000	 96.792185 
690.000000	 96.918566 
689.000000	 97.039364 
688.000000	 97.144256 
687.000000	 97.235845 
686.000000	 97.315114 
685.000000	 97.376114 
684.000000	 97.420128 
683.000000	 97.453450 
682.000000	 97.476885 
681.000000	 97.495613 
680.000000	 97.533735 
679.000000	 97.608329 
678.000000	 97.697976 
677.000000	 97.766458 
676.000000	 97.801945 
675.000000	 97.821215 
674.000000	 97.837892 
673.000000	 97.841391 
672.000000	 97.819831 
671.000000	 97.765156 
670.000000	 97.679422 
669.000000	 97.579378 
668.000000	 97.580762 
667.000000	 97.762092 
666.000000	 97.985156 
665.000000	 98.127783 
664.000000	 98.208738 
663.000000	 98.260941 
662.000000	 98.302376 
661.000000	 98.332227 
660.000000	 98.344493 
659.000000	 98.344423 
658.000000	 98.350362 
657.000000	 98.380335 
656.000000	 98.422850 
655.000000	 98.441679 
654.000000	 98.416592 
653.000000	 98.369863 
652.000000	 98.347949 
651.000000	 98.375512 
650.000000	 98.433084 

