4000.000000	98.087182 
3999.000000	98.085527 
3998.000000	98.081928 
3997.000000	98.077853 
3996.000000	98.074954 
3995.000000	98.073814 
3994.000000	98.074238 
3993.000000	98.075511 
3992.000000	98.076619 
3991.000000	98.077007 
3990.000000	98.077030 
3989.000000	98.077414 
3988.000000	98.078296 
3987.000000	98.079096 
3986.000000	98.079352 
3985.000000	98.079278 
3984.000000	98.079252 
3983.000000	98.079298 
3982.000000	98.079405 
3981.000000	98.079843 
3980.000000	98.080631 
3979.000000	98.081082 
3978.000000	98.080463 
3977.000000	98.079012 
3976.000000	98.077773 
3975.000000	98.077327 
3974.000000	98.077188 
3973.000000	98.076583 
3972.000000	98.075334 
3971.000000	98.073784 
3970.000000	98.072442 
3969.000000	98.071787 
3968.000000	98.072043 
3967.000000	98.072914 
3966.000000	98.073679 
3965.000000	98.073723 
3964.000000	98.072865 
3963.000000	98.071342 
3962.000000	98.069664 
3961.000000	98.068411 
3960.000000	98.067829 
3959.000000	98.067580 
3958.000000	98.067270 
3957.000000	98.066922 
3956.000000	98.066684 
3955.000000	98.066280 
3954.000000	98.065179 
3953.000000	98.063268 
3952.000000	98.061038 
3951.000000	98.059276 
3950.000000	98.058470 
3949.000000	98.058506 
3948.000000	98.058812 
3947.000000	98.058906 
3946.000000	98.058716 
3945.000000	98.058294 
3944.000000	98.057575 
3943.000000	98.056662 
3942.000000	98.056194 
3941.000000	98.056991 
3940.000000	98.058993 
3939.000000	98.060681 
3938.000000	98.060610 
3937.000000	98.058852 
3936.000000	98.056626 
3935.000000	98.054862 
3934.000000	98.053617 
3933.000000	98.053054 
3932.000000	98.053430 
3931.000000	98.054246 
3930.000000	98.054435 
3929.000000	98.053618 
3928.000000	98.052801 
3927.000000	98.052786 
3926.000000	98.052758 
3925.000000	98.051591 
3924.000000	98.049915 
3923.000000	98.049195 
3922.000000	98.049106 
3921.000000	98.048273 
3920.000000	98.046990 
3919.000000	98.046819 
3918.000000	98.048006 
3917.000000	98.049238 
3916.000000	98.049816 
3915.000000	98.050266 
3914.000000	98.050828 
3913.000000	98.050877 
3912.000000	98.050236 
3911.000000	98.049220 
3910.000000	98.048144 
3909.000000	98.047105 
3908.000000	98.046193 
3907.000000	98.045561 
3906.000000	98.045205 
3905.000000	98.045012 
3904.000000	98.044902 
3903.000000	98.044815 
3902.000000	98.044728 
3901.000000	98.044699 
3900.000000	98.044689 
3899.000000	98.044657 
3898.000000	98.044578 
3897.000000	98.044453 
3896.000000	98.044300 
3895.000000	98.044120 
3894.000000	98.043903 
3893.000000	98.043655 
3892.000000	98.043387 
3891.000000	98.043112 
3890.000000	98.042846 
3889.000000	98.042617 
3888.000000	98.042429 
3887.000000	98.042268 
3886.000000	98.042120 
3885.000000	98.041985 
3884.000000	98.041878 
3883.000000	98.041801 
3882.000000	98.041736 
3881.000000	98.041672 
3880.000000	98.041619 
3879.000000	98.041593 
3878.000000	98.041602 
3877.000000	98.041629 
3876.000000	98.041650 
3875.000000	98.041660 
3874.000000	98.041676 
3873.000000	98.041724 
3872.000000	98.041813 
3871.000000	98.041931 
3870.000000	98.042073 
3869.000000	98.042258 
3868.000000	98.042511 
3867.000000	98.042817 
3866.000000	98.043132 
3865.000000	98.043436 
3864.000000	98.043740 
3863.000000	98.044042 
3862.000000	98.044309 
3861.000000	98.044519 
3860.000000	98.044686 
3859.000000	98.044837 
3858.000000	98.044992 
3857.000000	98.045178 
3856.000000	98.045444 
3855.000000	98.045832 
3854.000000	98.046334 
3853.000000	98.046903 
3852.000000	98.047542 
3851.000000	98.048297 
3850.000000	98.049150 
3849.000000	98.050044 
3848.000000	98.050930 
3847.000000	98.051789 
3846.000000	98.052617 
3845.000000	98.053426 
3844.000000	98.054229 
3843.000000	98.055027 
3842.000000	98.055820 
3841.000000	98.056618 
3840.000000	98.057436 
3839.000000	98.058278 
3838.000000	98.059127 
3837.000000	98.059969 
3836.000000	98.060803 
3835.000000	98.061636 
3834.000000	98.062470 
3833.000000	98.063298 
3832.000000	98.064118 
3831.000000	98.064931 
3830.000000	98.065739 
3829.000000	98.066544 
3828.000000	98.067343 
3827.000000	98.068123 
3826.000000	98.068872 
3825.000000	98.069597 
3824.000000	98.070319 
3823.000000	98.071047 
3822.000000	98.071765 
3821.000000	98.072454 
3820.000000	98.073141 
3819.000000	98.073873 
3818.000000	98.074650 
3817.000000	98.075419 
3816.000000	98.076147 
3815.000000	98.076840 
3814.000000	98.077519 
3813.000000	98.078163 
3812.000000	98.078736 
3811.000000	98.079243 
3810.000000	98.079717 
3809.000000	98.080160 
3808.000000	98.080544 
3807.000000	98.080860 
3806.000000	98.081143 
3805.000000	98.081446 
3804.000000	98.081787 
3803.000000	98.082140 
3802.000000	98.082477 
3801.000000	98.082798 
3800.000000	98.083128 
3799.000000	98.083478 
3798.000000	98.083805 
3797.000000	98.084067 
3796.000000	98.084261 
3795.000000	98.084405 
3794.000000	98.084517 
3793.000000	98.084599 
3792.000000	98.084645 
3791.000000	98.084650 
3790.000000	98.084606 
3789.000000	98.084511 
3788.000000	98.084365 
3787.000000	98.084176 
3786.000000	98.083941 
3785.000000	98.083663 
3784.000000	98.083363 
3783.000000	98.083070 
3782.000000	98.082774 
3781.000000	98.082448 
3780.000000	98.082076 
3779.000000	98.081672 
3778.000000	98.081247 
3777.000000	98.080793 
3776.000000	98.080295 
3775.000000	98.079762 
3774.000000	98.079218 
3773.000000	98.078669 
3772.000000	98.078101 
3771.000000	98.077494 
3770.000000	98.076850 
3769.000000	98.076188 
3768.000000	98.075515 
3767.000000	98.074825 
3766.000000	98.074112 
3765.000000	98.073392 
3764.000000	98.072684 
3763.000000	98.071982 
3762.000000	98.071254 
3761.000000	98.070476 
3760.000000	98.069653 
3759.000000	98.068796 
3758.000000	98.067898 
3757.000000	98.066948 
3756.000000	98.065962 
3755.000000	98.064989 
3754.000000	98.064074 
3753.000000	98.063240 
3752.000000	98.062482 
3751.000000	98.061770 
3750.000000	98.061068 
3749.000000	98.060370 
3748.000000	98.059705 
3747.000000	98.059088 
3746.000000	98.058503 
3745.000000	98.057918 
3744.000000	98.057301 
3743.000000	98.056655 
3742.000000	98.055973 
3741.000000	98.055197 
3740.000000	98.054285 
3739.000000	98.053260 
3738.000000	98.052173 
3737.000000	98.051043 
3736.000000	98.049857 
3735.000000	98.048604 
3734.000000	98.047315 
3733.000000	98.046020 
3732.000000	98.044530 
3731.000000	98.042701 
3730.000000	98.040908 
3729.000000	98.039452 
3728.000000	98.037917 
3727.000000	98.035898 
3726.000000	98.033858 
3725.000000	98.032682 
3724.000000	98.032184 
3723.000000	98.031022 
3722.000000	98.028583 
3721.000000	98.025479 
3720.000000	98.022434 
3719.000000	98.019139 
3718.000000	98.014806 
3717.000000	98.009796 
3716.000000	98.005569 
3715.000000	98.002995 
3714.000000	98.001843 
3713.000000	98.002324 
3712.000000	98.003694 
3711.000000	98.002637 
3710.000000	97.997480 
3709.000000	97.989806 
3708.000000	97.981111 
3707.000000	97.971981 
3706.000000	97.963185 
3705.000000	97.955426 
3704.000000	97.948447 
3703.000000	97.941254 
3702.000000	97.932632 
3701.000000	97.922472 
3700.000000	97.913117 
3699.000000	97.906533 
3698.000000	97.901257 
3697.000000	97.895170 
3696.000000	97.888584 
3695.000000	97.882752 
3694.000000	97.876959 
3693.000000	97.869545 
3692.000000	97.860767 
3691.000000	97.852149 
3690.000000	97.843895 
3689.000000	97.834721 
3688.000000	97.825003 
3687.000000	97.817216 
3686.000000	97.811598 
3685.000000	97.805277 
3684.000000	97.796600 
3683.000000	97.786712 
3682.000000	97.776994 
3681.000000	97.767104 
3680.000000	97.756206 
3679.000000	97.744985 
3678.000000	97.734564 
3677.000000	97.724679 
3676.000000	97.714034 
3675.000000	97.702357 
3674.000000	97.691016 
3673.000000	97.680656 
3672.000000	97.670423 
3671.000000	97.659560 
3670.000000	97.648109 
3669.000000	97.636434 
3668.000000	97.625266 
3667.000000	97.614799 
3666.000000	97.604200 
3665.000000	97.593076 
3664.000000	97.581963 
3663.000000	97.571206 
3662.000000	97.560098 
3661.000000	97.547632 
3660.000000	97.534011 
3659.000000	97.520997 
3658.000000	97.509598 
3657.000000	97.497786 
3656.000000	97.481996 
3655.000000	97.464536 
3654.000000	97.451168 
3653.000000	97.439121 
3652.000000	97.422807 
3651.000000	97.406644 
3650.000000	97.396913 
3649.000000	97.388160 
3648.000000	97.373842 
3647.000000	97.359018 
3646.000000	97.352115 
3645.000000	97.353100 
3644.000000	97.354543 
3643.000000	97.350336 
3642.000000	97.341340 
3641.000000	97.332230 
3640.000000	97.324619 
3639.000000	97.315305 
3638.000000	97.301979 
3637.000000	97.288492 
3636.000000	97.277602 
3635.000000	97.263839 
3634.000000	97.240317 
3633.000000	97.210799 
3632.000000	97.186312 
3631.000000	97.172357 
3630.000000	97.168226 
3629.000000	97.161875 
3628.000000	97.146791 
3627.000000	97.144539 
3626.000000	97.159543 
3625.000000	97.166184 
3624.000000	97.155617 
3623.000000	97.139606 
3622.000000	97.127008 
3621.000000	97.116940 
3620.000000	97.107218 
3619.000000	97.099426 
3618.000000	97.099048 
3617.000000	97.112051 
3616.000000	97.134983 
3615.000000	97.156927 
3614.000000	97.171292 
3613.000000	97.179828 
3612.000000	97.188791 
3611.000000	97.201476 
3610.000000	97.214642 
3609.000000	97.223557 
3608.000000	97.227614 
3607.000000	97.230121 
3606.000000	97.234098 
3605.000000	97.239271 
3604.000000	97.245261 
3603.000000	97.253680 
3602.000000	97.263126 
3601.000000	97.267931 
3600.000000	97.265640 
3599.000000	97.260768 
3598.000000	97.258554 
3597.000000	97.261524 
3596.000000	97.269481 
3595.000000	97.278900 
3594.000000	97.284524 
3593.000000	97.283772 
3592.000000	97.277503 
3591.000000	97.267285 
3590.000000	97.256204 
3589.000000	97.249581 
3588.000000	97.251014 
3587.000000	97.258965 
3586.000000	97.271168 
3585.000000	97.285140 
3584.000000	97.296083 
3583.000000	97.301955 
3582.000000	97.305433 
3581.000000	97.309181 
3580.000000	97.312803 
3579.000000	97.314759 
3578.000000	97.314758 
3577.000000	97.314018 
3576.000000	97.313911 
3575.000000	97.314236 
3574.000000	97.313582 
3573.000000	97.310611 
3572.000000	97.305043 
3571.000000	97.297662 
3570.000000	97.290227 
3569.000000	97.285204 
3568.000000	97.284785 
3567.000000	97.289041 
3566.000000	97.296178 
3565.000000	97.304004 
3564.000000	97.309397 
3563.000000	97.310477 
3562.000000	97.309076 
3561.000000	97.308601 
3560.000000	97.310329 
3559.000000	97.312759 
3558.000000	97.313860 
3557.000000	97.313065 
3556.000000	97.311584 
3555.000000	97.311002 
3554.000000	97.311641 
3553.000000	97.312353 
3552.000000	97.311840 
3551.000000	97.309894 
3550.000000	97.307030 
3549.000000	97.303802 
3548.000000	97.301213 
3547.000000	97.300538 
3546.000000	97.301793 
3545.000000	97.303606 
3544.000000	97.304927 
3543.000000	97.305745 
3542.000000	97.306249 
3541.000000	97.306274 
3540.000000	97.305760 
3539.000000	97.304999 
3538.000000	97.304279 
3537.000000	97.303670 
3536.000000	97.303106 
3535.000000	97.302532 
3534.000000	97.301818 
3533.000000	97.300924 
3532.000000	97.300112 
3531.000000	97.299721 
3530.000000	97.299550 
3529.000000	97.298810 
3528.000000	97.297010 
3527.000000	97.294594 
3526.000000	97.292585 
3525.000000	97.291595 
3524.000000	97.291586 
3523.000000	97.292156 
3522.000000	97.292819 
3521.000000	97.293156 
3520.000000	97.292950 
3519.000000	97.292262 
3518.000000	97.291251 
3517.000000	97.289959 
3516.000000	97.288343 
3515.000000	97.286516 
3514.000000	97.284837 
3513.000000	97.283618 
3512.000000	97.282782 
3511.000000	97.281940 
3510.000000	97.280815 
3509.000000	97.279490 
3508.000000	97.278242 
3507.000000	97.277185 
3506.000000	97.276145 
3505.000000	97.274899 
3504.000000	97.273446 
3503.000000	97.271973 
3502.000000	97.270643 
3501.000000	97.269449 
3500.000000	97.268274 
3499.000000	97.267022 
3498.000000	97.265680 
3497.000000	97.264260 
3496.000000	97.262757 
3495.000000	97.261183 
3494.000000	97.259605 
3493.000000	97.258103 
3492.000000	97.256692 
3491.000000	97.255306 
3490.000000	97.253850 
3489.000000	97.252289 
3488.000000	97.250654 
3487.000000	97.249005 
3486.000000	97.247360 
3485.000000	97.245714 
3484.000000	97.244058 
3483.000000	97.242385 
3482.000000	97.240693 
3481.000000	97.238978 
3480.000000	97.237243 
3479.000000	97.235484 
3478.000000	97.233696 
3477.000000	97.231873 
3476.000000	97.230016 
3475.000000	97.228127 
3474.000000	97.226219 
3473.000000	97.224316 
3472.000000	97.222441 
3471.000000	97.220582 
3470.000000	97.218689 
3469.000000	97.216724 
3468.000000	97.214716 
3467.000000	97.212762 
3466.000000	97.210976 
3465.000000	97.209399 
3464.000000	97.207918 
3463.000000	97.206295 
3462.000000	97.204343 
3461.000000	97.202093 
3460.000000	97.199789 
3459.000000	97.197644 
3458.000000	97.195650 
3457.000000	97.193638 
3456.000000	97.191502 
3455.000000	97.189374 
3454.000000	97.187545 
3453.000000	97.186207 
3452.000000	97.185292 
3451.000000	97.184505 
3450.000000	97.183453 
3449.000000	97.181811 
3448.000000	97.179546 
3447.000000	97.177000 
3446.000000	97.174669 
3445.000000	97.172765 
3444.000000	97.171123 
3443.000000	97.169554 
3442.000000	97.168086 
3441.000000	97.166750 
3440.000000	97.165300 
3439.000000	97.163337 
3438.000000	97.160708 
3437.000000	97.157711 
3436.000000	97.154927 
3435.000000	97.152934 
3434.000000	97.152015 
3433.000000	97.151929 
3432.000000	97.152039 
3431.000000	97.151843 
3430.000000	97.151298 
3429.000000	97.150548 
3428.000000	97.149545 
3427.000000	97.148065 
3426.000000	97.146174 
3425.000000	97.144440 
3424.000000	97.143452 
3423.000000	97.143112 
3422.000000	97.142624 
3421.000000	97.141388 
3420.000000	97.139686 
3419.000000	97.138335 
3418.000000	97.137739 
3417.000000	97.137575 
3416.000000	97.137292 
3415.000000	97.136613 
3414.000000	97.135498 
3413.000000	97.133937 
3412.000000	97.132025 
3411.000000	97.130093 
3410.000000	97.128596 
3409.000000	97.127848 
3408.000000	97.127804 
3407.000000	97.127963 
3406.000000	97.127606 
3405.000000	97.126361 
3404.000000	97.124505 
3403.000000	97.122652 
3402.000000	97.121156 
3401.000000	97.120005 
3400.000000	97.119180 
3399.000000	97.118756 
3398.000000	97.118667 
3397.000000	97.118684 
3396.000000	97.118670 
3395.000000	97.118611 
3394.000000	97.118435 
3393.000000	97.118016 
3392.000000	97.117408 
3391.000000	97.116860 
3390.000000	97.116577 
3389.000000	97.116577 
3388.000000	97.116820 
3387.000000	97.117306 
3386.000000	97.117950 
3385.000000	97.118457 
3384.000000	97.118472 
3383.000000	97.117892 
3382.000000	97.117052 
3381.000000	97.116532 
3380.000000	97.116631 
3379.000000	97.117098 
3378.000000	97.117478 
3377.000000	97.117734 
3376.000000	97.118249 
3375.000000	97.119122 
3374.000000	97.119808 
3373.000000	97.119701 
3372.000000	97.118905 
3371.000000	97.118265 
3370.000000	97.118546 
3369.000000	97.119785 
3368.000000	97.121374 
3367.000000	97.122597 
3366.000000	97.123154 
3365.000000	97.123248 
3364.000000	97.123351 
3363.000000	97.123827 
3362.000000	97.124680 
3361.000000	97.125672 
3360.000000	97.126658 
3359.000000	97.127681 
3358.000000	97.128788 
3357.000000	97.129900 
3356.000000	97.130890 
3355.000000	97.131720 
3354.000000	97.132459 
3353.000000	97.133267 
3352.000000	97.134337 
3351.000000	97.135757 
3350.000000	97.137352 
3349.000000	97.138752 
3348.000000	97.139723 
3347.000000	97.140401 
3346.000000	97.141125 
3345.000000	97.142032 
3344.000000	97.142868 
3343.000000	97.143272 
3342.000000	97.143204 
3341.000000	97.143053 
3340.000000	97.143283 
3339.000000	97.143965 
3338.000000	97.144843 
3337.000000	97.145680 
3336.000000	97.146454 
3335.000000	97.147254 
3334.000000	97.148101 
3333.000000	97.148936 
3332.000000	97.149691 
3331.000000	97.150335 
3330.000000	97.150872 
3329.000000	97.151348 
3328.000000	97.151841 
3327.000000	97.152426 
3326.000000	97.153112 
3325.000000	97.153851 
3324.000000	97.154568 
3323.000000	97.155220 
3322.000000	97.155824 
3321.000000	97.156420 
3320.000000	97.157031 
3319.000000	97.157655 
3318.000000	97.158282 
3317.000000	97.158910 
3316.000000	97.159537 
3315.000000	97.160159 
3314.000000	97.160767 
3313.000000	97.161361 
3312.000000	97.161948 
3311.000000	97.162540 
3310.000000	97.163140 
3309.000000	97.163745 
3308.000000	97.164348 
3307.000000	97.164947 
3306.000000	97.165543 
3305.000000	97.166145 
3304.000000	97.166764 
3303.000000	97.167408 
3302.000000	97.168078 
3301.000000	97.168774 
3300.000000	97.169489 
3299.000000	97.170207 
3298.000000	97.170904 
3297.000000	97.171559 
3296.000000	97.172185 
3295.000000	97.172845 
3294.000000	97.173594 
3293.000000	97.174440 
3292.000000	97.175341 
3291.000000	97.176252 
3290.000000	97.177141 
3289.000000	97.177994 
3288.000000	97.178808 
3287.000000	97.179594 
3286.000000	97.180366 
3285.000000	97.181123 
3284.000000	97.181862 
3283.000000	97.182597 
3282.000000	97.183358 
3281.000000	97.184162 
3280.000000	97.184996 
3279.000000	97.185816 
3278.000000	97.186594 
3277.000000	97.187347 
3276.000000	97.188118 
3275.000000	97.188909 
3274.000000	97.189684 
3273.000000	97.190436 
3272.000000	97.191228 
3271.000000	97.192125 
3270.000000	97.193120 
3269.000000	97.194131 
3268.000000	97.195075 
3267.000000	97.195933 
3266.000000	97.196761 
3265.000000	97.197652 
3264.000000	97.198664 
3263.000000	97.199764 
3262.000000	97.200845 
3261.000000	97.201824 
3260.000000	97.202690 
3259.000000	97.203470 
3258.000000	97.204193 
3257.000000	97.204940 
3256.000000	97.205847 
3255.000000	97.206968 
3254.000000	97.208184 
3253.000000	97.209320 
3252.000000	97.210346 
3251.000000	97.211376 
3250.000000	97.212482 
3249.000000	97.213592 
3248.000000	97.214581 
3247.000000	97.215447 
3246.000000	97.216350 
3245.000000	97.217476 
3244.000000	97.218864 
3243.000000	97.220366 
3242.000000	97.221739 
3241.000000	97.222859 
3240.000000	97.223831 
3239.000000	97.224909 
3238.000000	97.226270 
3237.000000	97.227907 
3236.000000	97.229697 
3235.000000	97.231492 
3234.000000	97.233116 
3233.000000	97.234400 
3232.000000	97.235343 
3231.000000	97.236217 
3230.000000	97.237372 
3229.000000	97.238927 
3228.000000	97.240729 
3227.000000	97.242614 
3226.000000	97.244619 
3225.000000	97.246800 
3224.000000	97.249000 
3223.000000	97.250953 
3222.000000	97.252621 
3221.000000	97.254268 
3220.000000	97.256133 
3219.000000	97.258118 
3218.000000	97.259982 
3217.000000	97.261716 
3216.000000	97.263576 
3215.000000	97.265775 
3214.000000	97.268272 
3213.000000	97.270825 
3212.000000	97.273134 
3211.000000	97.274952 
3210.000000	97.276212 
3209.000000	97.277164 
3208.000000	97.278263 
3207.000000	97.279805 
3206.000000	97.281761 
3205.000000	97.283954 
3204.000000	97.286337 
3203.000000	97.288987 
3202.000000	97.291863 
3201.000000	97.294686 
3200.000000	97.297130 
3199.000000	97.299112 
3198.000000	97.300872 
3197.000000	97.302745 
3196.000000	97.304847 
3195.000000	97.307057 
3194.000000	97.309280 
3193.000000	97.311592 
3192.000000	97.314088 
3191.000000	97.316662 
3190.000000	97.319085 
3189.000000	97.321263 
3188.000000	97.323316 
3187.000000	97.325431 
3186.000000	97.327706 
3185.000000	97.330128 
3184.000000	97.332611 
3183.000000	97.335072 
3182.000000	97.337509 
3181.000000	97.339962 
3180.000000	97.342426 
3179.000000	97.344846 
3178.000000	97.347197 
3177.000000	97.349532 
3176.000000	97.351925 
3175.000000	97.354400 
3174.000000	97.356929 
3173.000000	97.359465 
3172.000000	97.361965 
3171.000000	97.364413 
3170.000000	97.366827 
3169.000000	97.369241 
3168.000000	97.371679 
3167.000000	97.374137 
3166.000000	97.376596 
3165.000000	97.379038 
3164.000000	97.381460 
3163.000000	97.383866 
3162.000000	97.386254 
3161.000000	97.388628 
3160.000000	97.390990 
3159.000000	97.393349 
3158.000000	97.395714 
3157.000000	97.398094 
3156.000000	97.400490 
3155.000000	97.402900 
3154.000000	97.405318 
3153.000000	97.407741 
3152.000000	97.410174 
3151.000000	97.412618 
3150.000000	97.415071 
3149.000000	97.417529 
3148.000000	97.419990 
3147.000000	97.422459 
3146.000000	97.424942 
3145.000000	97.427438 
3144.000000	97.429939 
3143.000000	97.432431 
3142.000000	97.434903 
3141.000000	97.437357 
3140.000000	97.439802 
3139.000000	97.442248 
3138.000000	97.444702 
3137.000000	97.447181 
3136.000000	97.449692 
3135.000000	97.452210 
3134.000000	97.454692 
3133.000000	97.457102 
3132.000000	97.459450 
3131.000000	97.461780 
3130.000000	97.464133 
3129.000000	97.466544 
3128.000000	97.469074 
3127.000000	97.471773 
3126.000000	97.474599 
3125.000000	97.477415 
3124.000000	97.480081 
3123.000000	97.482489 
3122.000000	97.484563 
3121.000000	97.486338 
3120.000000	97.488077 
3119.000000	97.490130 
3118.000000	97.492655 
3117.000000	97.495544 
3116.000000	97.498585 
3115.000000	97.501592 
3114.000000	97.504425 
3113.000000	97.507069 
3112.000000	97.509735 
3111.000000	97.512744 
3110.000000	97.516197 
3109.000000	97.519848 
3108.000000	97.523375 
3107.000000	97.526673 
3106.000000	97.529720 
3105.000000	97.532253 
3104.000000	97.533869 
3103.000000	97.534444 
3102.000000	97.534428 
3101.000000	97.534643 
3100.000000	97.535772 
3099.000000	97.538027 
3098.000000	97.541272 
3097.000000	97.545343 
3096.000000	97.549948 
3095.000000	97.554331 
3094.000000	97.557512 
3093.000000	97.559060 
3092.000000	97.559484 
3091.000000	97.559675 
3090.000000	97.560124 
3089.000000	97.560895 
3088.000000	97.562039 
3087.000000	97.563750 
3086.000000	97.566172 
3085.000000	97.569115 
3084.000000	97.571944 
3083.000000	97.573981 
3082.000000	97.575176 
3081.000000	97.576291 
3080.000000	97.578147 
3079.000000	97.580735 
3078.000000	97.583423 
3077.000000	97.585942 
3076.000000	97.588687 
3075.000000	97.591857 
3074.000000	97.594876 
3073.000000	97.597134 
3072.000000	97.598859 
3071.000000	97.600690 
3070.000000	97.602687 
3069.000000	97.604390 
3068.000000	97.605695 
3067.000000	97.606978 
3066.000000	97.608390 
3065.000000	97.609705 
3064.000000	97.610919 
3063.000000	97.612312 
3062.000000	97.613820 
3061.000000	97.614947 
3060.000000	97.615568 
3059.000000	97.616324 
3058.000000	97.617955 
3057.000000	97.620534 
3056.000000	97.623437 
3055.000000	97.625727 
3054.000000	97.626603 
3053.000000	97.625970 
3052.000000	97.624884 
3051.000000	97.624948 
3050.000000	97.626826 
3049.000000	97.629638 
3048.000000	97.631870 
3047.000000	97.632609 
3046.000000	97.631743 
3045.000000	97.629649 
3044.000000	97.627301 
3043.000000	97.626247 
3042.000000	97.627710 
3041.000000	97.631458 
3040.000000	97.635633 
3039.000000	97.638121 
3038.000000	97.638130 
3037.000000	97.636355 
3036.000000	97.633986 
3035.000000	97.631636 
3034.000000	97.629313 
3033.000000	97.627161 
3032.000000	97.625770 
3031.000000	97.625619 
3030.000000	97.626482 
3029.000000	97.627486 
3028.000000	97.627547 
3027.000000	97.625707 
3026.000000	97.621617 
3025.000000	97.616208 
3024.000000	97.611518 
3023.000000	97.608979 
3022.000000	97.608010 
3021.000000	97.607003 
3020.000000	97.605525 
3019.000000	97.604507 
3018.000000	97.604093 
3017.000000	97.602630 
3016.000000	97.598607 
3015.000000	97.592782 
3014.000000	97.587672 
3013.000000	97.585289 
3012.000000	97.585734 
3011.000000	97.587295 
3010.000000	97.587483 
3009.000000	97.584704 
3008.000000	97.579523 
3007.000000	97.574069 
3006.000000	97.569839 
3005.000000	97.566540 
3004.000000	97.563276 
3003.000000	97.560081 
3002.000000	97.557724 
3001.000000	97.556625 
3000.000000	97.556410 
2999.000000	97.555991 
2998.000000	97.553849 
2997.000000	97.548968 
2996.000000	97.541872 
2995.000000	97.534306 
2994.000000	97.527577 
2993.000000	97.521724 
2992.000000	97.516366 
2991.000000	97.511575 
2990.000000	97.507611 
2989.000000	97.504586 
2988.000000	97.502823 
2987.000000	97.502936 
2986.000000	97.505256 
2985.000000	97.509556 
2984.000000	97.515257 
2983.000000	97.521414 
2982.000000	97.526683 
2981.000000	97.530057 
2980.000000	97.531614 
2979.000000	97.531815 
2978.000000	97.530363 
2977.000000	97.526923 
2976.000000	97.522986 
2975.000000	97.521612 
2974.000000	97.524766 
2973.000000	97.531812 
2972.000000	97.540703 
2971.000000	97.549574 
2970.000000	97.556923 
2969.000000	97.561766 
2968.000000	97.564567 
2967.000000	97.567040 
2966.000000	97.570189 
2965.000000	97.573300 
2964.000000	97.575537 
2963.000000	97.577609 
2962.000000	97.580903 
2961.000000	97.585656 
2960.000000	97.591012 
2959.000000	97.596475 
2958.000000	97.602297 
2957.000000	97.608486 
2956.000000	97.614093 
2955.000000	97.617689 
2954.000000	97.618514 
2953.000000	97.617501 
2952.000000	97.617215 
2951.000000	97.620030 
2950.000000	97.625750 
2949.000000	97.631506 
2948.000000	97.634544 
2947.000000	97.634760 
2946.000000	97.634260 
2945.000000	97.634996 
2944.000000	97.637269 
2943.000000	97.640073 
2942.000000	97.642068 
2941.000000	97.642439 
2940.000000	97.641604 
2939.000000	97.641269 
2938.000000	97.643164 
2937.000000	97.647427 
2936.000000	97.652457 
2935.000000	97.656353 
2934.000000	97.658270 
2933.000000	97.658414 
2932.000000	97.657409 
2931.000000	97.656034 
2930.000000	97.655228 
2929.000000	97.655810 
2928.000000	97.657975 
2927.000000	97.661078 
2926.000000	97.664017 
2925.000000	97.666038 
2924.000000	97.667335 
2923.000000	97.668781 
2922.000000	97.670933 
2921.000000	97.673374 
2920.000000	97.675230 
2919.000000	97.676199 
2918.000000	97.676601 
2917.000000	97.676349 
2916.000000	97.674463 
2915.000000	97.670258 
2914.000000	97.664975 
2913.000000	97.661458 
2912.000000	97.661565 
2911.000000	97.664287 
2910.000000	97.666791 
2909.000000	97.667442 
2908.000000	97.667195 
2907.000000	97.667771 
2906.000000	97.669283 
2905.000000	97.670182 
2904.000000	97.669086 
2903.000000	97.666226 
2902.000000	97.663324 
2901.000000	97.662491 
2900.000000	97.664854 
2899.000000	97.669837 
2898.000000	97.675598 
2897.000000	97.680517 
2896.000000	97.684208 
2895.000000	97.686861 
2894.000000	97.688564 
2893.000000	97.689902 
2892.000000	97.692305 
2891.000000	97.696519 
2890.000000	97.701182 
2889.000000	97.704306 
2888.000000	97.705922 
2887.000000	97.707683 
2886.000000	97.709935 
2885.000000	97.711143 
2884.000000	97.710887 
2883.000000	97.711370 
2882.000000	97.714492 
2881.000000	97.718999 
2880.000000	97.722405 
2879.000000	97.724928 
2878.000000	97.729198 
2877.000000	97.736186 
2876.000000	97.743504 
2875.000000	97.748338 
2874.000000	97.750555 
2873.000000	97.751977 
2872.000000	97.753769 
2871.000000	97.755672 
2870.000000	97.757252 
2869.000000	97.758684 
2868.000000	97.760288 
2867.000000	97.762156 
2866.000000	97.764385 
2865.000000	97.767137 
2864.000000	97.770402 
2863.000000	97.774171 
2862.000000	97.778907 
2861.000000	97.785247 
2860.000000	97.792928 
2859.000000	97.800532 
2858.000000	97.806879 
2857.000000	97.812451 
2856.000000	97.818780 
2855.000000	97.826301 
2854.000000	97.833428 
2853.000000	97.838110 
2852.000000	97.839729 
2851.000000	97.839200 
2850.000000	97.837872 
2849.000000	97.836867 
2848.000000	97.837045 
2847.000000	97.838644 
2846.000000	97.840859 
2845.000000	97.842510 
2844.000000	97.843341 
2843.000000	97.844186 
2842.000000	97.845761 
2841.000000	97.847819 
2840.000000	97.849665 
2839.000000	97.851010 
2838.000000	97.852056 
2837.000000	97.853118 
2836.000000	97.854485 
2835.000000	97.856433 
2834.000000	97.859179 
2833.000000	97.862880 
2832.000000	97.867520 
2831.000000	97.872410 
2830.000000	97.876022 
2829.000000	97.877031 
2828.000000	97.875761 
2827.000000	97.874259 
2826.000000	97.874535 
2825.000000	97.876846 
2824.000000	97.879929 
2823.000000	97.882416 
2822.000000	97.883785 
2821.000000	97.884286 
2820.000000	97.884415 
2819.000000	97.884490 
2818.000000	97.884548 
2817.000000	97.884632 
2816.000000	97.885072 
2815.000000	97.886209 
2814.000000	97.887840 
2813.000000	97.889260 
2812.000000	97.890017 
2811.000000	97.890353 
2810.000000	97.890828 
2809.000000	97.891724 
2808.000000	97.892949 
2807.000000	97.894294 
2806.000000	97.895628 
2805.000000	97.896909 
2804.000000	97.898112 
2803.000000	97.899196 
2802.000000	97.900143 
2801.000000	97.901024 
2800.000000	97.901979 
2799.000000	97.903080 
2798.000000	97.904238 
2797.000000	97.905289 
2796.000000	97.906174 
2795.000000	97.906974 
2794.000000	97.907814 
2793.000000	97.908737 
2792.000000	97.909709 
2791.000000	97.910689 
2790.000000	97.911653 
2789.000000	97.912600 
2788.000000	97.913545 
2787.000000	97.914514 
2786.000000	97.915518 
2785.000000	97.916545 
2784.000000	97.917568 
2783.000000	97.918573 
2782.000000	97.919561 
2781.000000	97.920544 
2780.000000	97.921529 
2779.000000	97.922517 
2778.000000	97.923505 
2777.000000	97.924490 
2776.000000	97.925468 
2775.000000	97.926437 
2774.000000	97.927399 
2773.000000	97.928357 
2772.000000	97.929309 
2771.000000	97.930254 
2770.000000	97.931195 
2769.000000	97.932145 
2768.000000	97.933107 
2767.000000	97.934069 
2766.000000	97.935020 
2765.000000	97.935955 
2764.000000	97.936877 
2763.000000	97.937777 
2762.000000	97.938636 
2761.000000	97.939440 
2760.000000	97.940210 
2759.000000	97.940997 
2758.000000	97.941834 
2757.000000	97.942696 
2756.000000	97.943512 
2755.000000	97.944244 
2754.000000	97.944930 
2753.000000	97.945646 
2752.000000	97.946417 
2751.000000	97.947193 
2750.000000	97.947919 
2749.000000	97.948604 
2748.000000	97.949284 
2747.000000	97.949940 
2746.000000	97.950523 
2745.000000	97.951032 
2744.000000	97.951534 
2743.000000	97.952097 
2742.000000	97.952727 
2741.000000	97.953379 
2740.000000	97.954003 
2739.000000	97.954592 
2738.000000	97.955166 
2737.000000	97.955748 
2736.000000	97.956353 
2735.000000	97.956984 
2734.000000	97.957628 
2733.000000	97.958272 
2732.000000	97.958915 
2731.000000	97.959558 
2730.000000	97.960198 
2729.000000	97.960828 
2728.000000	97.961434 
2727.000000	97.962003 
2726.000000	97.962536 
2725.000000	97.963047 
2724.000000	97.963555 
2723.000000	97.964070 
2722.000000	97.964595 
2721.000000	97.965129 
2720.000000	97.965673 
2719.000000	97.966231 
2718.000000	97.966803 
2717.000000	97.967383 
2716.000000	97.967962 
2715.000000	97.968536 
2714.000000	97.969106 
2713.000000	97.969679 
2712.000000	97.970255 
2711.000000	97.970832 
2710.000000	97.971408 
2709.000000	97.971985 
2708.000000	97.972569 
2707.000000	97.973162 
2706.000000	97.973760 
2705.000000	97.974355 
2704.000000	97.974940 
2703.000000	97.975514 
2702.000000	97.976080 
2701.000000	97.976640 
2700.000000	97.977194 
2699.000000	97.977740 
2698.000000	97.978273 
2697.000000	97.978785 
2696.000000	97.979272 
2695.000000	97.979736 
2694.000000	97.980177 
2693.000000	97.980600 
2692.000000	97.981003 
2691.000000	97.981385 
2690.000000	97.981746 
2689.000000	97.982086 
2688.000000	97.982413 
2687.000000	97.982731 
2686.000000	97.983050 
2685.000000	97.983377 
2684.000000	97.983714 
2683.000000	97.984055 
2682.000000	97.984387 
2681.000000	97.984696 
2680.000000	97.984975 
2679.000000	97.985234 
2678.000000	97.985494 
2677.000000	97.985754 
2676.000000	97.985990 
2675.000000	97.986178 
2674.000000	97.986319 
2673.000000	97.986437 
2672.000000	97.986555 
2671.000000	97.986674 
2670.000000	97.986768 
2669.000000	97.986831 
2668.000000	97.986900 
2667.000000	97.987012 
2666.000000	97.987113 
2665.000000	97.987084 
2664.000000	97.986884 
2663.000000	97.986633 
2662.000000	97.986533 
2661.000000	97.986668 
2660.000000	97.986924 
2659.000000	97.987083 
2658.000000	97.987030 
2657.000000	97.986846 
2656.000000	97.986733 
2655.000000	97.986821 
2654.000000	97.986986 
2653.000000	97.986908 
2652.000000	97.986417 
2651.000000	97.985787 
2650.000000	97.985545 
2649.000000	97.985911 
2648.000000	97.986592 
2647.000000	97.987103 
2646.000000	97.987197 
2645.000000	97.986866 
2644.000000	97.986167 
2643.000000	97.985227 
2642.000000	97.984282 
2641.000000	97.983509 
2640.000000	97.982933 
2639.000000	97.982643 
2638.000000	97.982897 
2637.000000	97.983777 
2636.000000	97.984934 
2635.000000	97.985942 
2634.000000	97.986814 
2633.000000	97.987806 
2632.000000	97.988758 
2631.000000	97.989046 
2630.000000	97.988353 
2629.000000	97.987204 
2628.000000	97.986530 
2627.000000	97.986747 
2626.000000	97.987555 
2625.000000	97.988512 
2624.000000	97.989522 
2623.000000	97.990641 
2622.000000	97.991626 
2621.000000	97.991957 
2620.000000	97.991276 
2619.000000	97.989701 
2618.000000	97.987795 
2617.000000	97.986230 
2616.000000	97.985445 
2615.000000	97.985460 
2614.000000	97.985896 
2613.000000	97.986273 
2612.000000	97.986397 
2611.000000	97.986493 
2610.000000	97.986954 
2609.000000	97.987885 
2608.000000	97.988899 
2607.000000	97.989456 
2606.000000	97.989459 
2605.000000	97.989404 
2604.000000	97.989746 
2603.000000	97.990269 
2602.000000	97.990427 
2601.000000	97.990232 
2600.000000	97.990331 
2599.000000	97.991056 
2598.000000	97.991914 
2597.000000	97.992284 
2596.000000	97.992210 
2595.000000	97.992101 
2594.000000	97.991984 
2593.000000	97.991647 
2592.000000	97.991366 
2591.000000	97.991727 
2590.000000	97.992615 
2589.000000	97.993116 
2588.000000	97.992754 
2587.000000	97.992150 
2586.000000	97.992115 
2585.000000	97.992659 
2584.000000	97.993315 
2583.000000	97.993937 
2582.000000	97.994667 
2581.000000	97.995368 
2580.000000	97.995656 
2579.000000	97.995496 
2578.000000	97.995383 
2577.000000	97.995817 
2576.000000	97.996756 
2575.000000	97.997632 
2574.000000	97.997861 
2573.000000	97.997308 
2572.000000	97.996290 
2571.000000	97.995171 
2570.000000	97.994021 
2569.000000	97.992840 
2568.000000	97.991990 
2567.000000	97.992022 
2566.000000	97.993006 
2565.000000	97.994358 
2564.000000	97.995440 
2563.000000	97.996113 
2562.000000	97.996536 
2561.000000	97.996814 
2560.000000	97.997128 
2559.000000	97.997832 
2558.000000	97.999041 
2557.000000	98.000276 
2556.000000	98.000937 
2555.000000	98.001014 
2554.000000	98.000963 
2553.000000	98.000965 
2552.000000	98.000752 
2551.000000	98.000284 
2550.000000	98.000072 
2549.000000	98.000530 
2548.000000	98.001306 
2547.000000	98.001592 
2546.000000	98.001107 
2545.000000	98.000381 
2544.000000	98.000119 
2543.000000	98.000384 
2542.000000	98.000724 
2541.000000	98.000922 
2540.000000	98.001276 
2539.000000	98.002026 
2538.000000	98.002914 
2537.000000	98.003503 
2536.000000	98.003762 
2535.000000	98.004035 
2534.000000	98.004489 
2533.000000	98.004854 
2532.000000	98.004862 
2531.000000	98.004638 
2530.000000	98.004526 
2529.000000	98.004645 
2528.000000	98.004824 
2527.000000	98.004930 
2526.000000	98.005083 
2525.000000	98.005462 
2524.000000	98.006051 
2523.000000	98.006662 
2522.000000	98.007131 
2521.000000	98.007458 
2520.000000	98.007758 
2519.000000	98.008128 
2518.000000	98.008546 
2517.000000	98.008870 
2516.000000	98.008959 
2515.000000	98.008801 
2514.000000	98.008545 
2513.000000	98.008417 
2512.000000	98.008549 
2511.000000	98.008926 
2510.000000	98.009450 
2509.000000	98.010009 
2508.000000	98.010505 
2507.000000	98.010857 
2506.000000	98.011087 
2505.000000	98.011362 
2504.000000	98.011859 
2503.000000	98.012540 
2502.000000	98.013137 
2501.000000	98.013441 
2500.000000	98.013487 
2499.000000	98.013472 
2498.000000	98.013536 
2497.000000	98.013675 
2496.000000	98.013863 
2495.000000	98.014136 
2494.000000	98.014504 
2493.000000	98.014854 
2492.000000	98.015068 
2491.000000	98.015200 
2490.000000	98.015458 
2489.000000	98.015944 
2488.000000	98.016469 
2487.000000	98.016721 
2486.000000	98.016593 
2485.000000	98.016291 
2484.000000	98.016137 
2483.000000	98.016283 
2482.000000	98.016639 
2481.000000	98.017012 
2480.000000	98.017294 
2479.000000	98.017520 
2478.000000	98.017765 
2477.000000	98.018018 
2476.000000	98.018146 
2475.000000	98.017968 
2474.000000	98.017388 
2473.000000	98.016547 
2472.000000	98.015866 
2471.000000	98.015761 
2470.000000	98.016271 
2469.000000	98.016942 
2468.000000	98.017154 
2467.000000	98.016659 
2466.000000	98.015785 
2465.000000	98.015128 
2464.000000	98.015067 
2463.000000	98.015637 
2462.000000	98.016816 
2461.000000	98.018701 
2460.000000	98.021237 
2459.000000	98.023841 
2458.000000	98.025509 
2457.000000	98.025527 
2456.000000	98.023953 
2455.000000	98.021578 
2454.000000	98.019467 
2453.000000	98.018277 
2452.000000	98.017906 
2451.000000	98.017771 
2450.000000	98.017546 
2449.000000	98.017555 
2448.000000	98.018214 
2447.000000	98.019256 
2446.000000	98.019893 
2445.000000	98.019756 
2444.000000	98.019268 
2443.000000	98.019012 
2442.000000	98.019083 
2441.000000	98.019256 
2440.000000	98.019451 
2439.000000	98.019849 
2438.000000	98.020777 
2437.000000	98.022573 
2436.000000	98.025245 
2435.000000	98.028050 
2434.000000	98.029778 
2433.000000	98.029800 
2432.000000	98.028700 
2431.000000	98.027724 
2430.000000	98.027763 
2429.000000	98.029006 
2428.000000	98.031108 
2427.000000	98.033257 
2426.000000	98.034297 
2425.000000	98.033265 
2424.000000	98.030380 
2423.000000	98.027133 
2422.000000	98.024941 
2421.000000	98.024538 
2420.000000	98.026173 
2419.000000	98.029217 
2418.000000	98.032200 
2417.000000	98.034339 
2416.000000	98.036525 
2415.000000	98.039773 
2414.000000	98.043420 
2413.000000	98.045981 
2412.000000	98.047056 
2411.000000	98.047009 
2410.000000	98.045637 
2409.000000	98.042817 
2408.000000	98.039880 
2407.000000	98.038537 
2406.000000	98.038588 
2405.000000	98.038244 
2404.000000	98.036674 
2403.000000	98.034833 
2402.000000	98.033867 
2401.000000	98.034204 
2400.000000	98.036195 
2399.000000	98.040143 
2398.000000	98.045426 
2397.000000	98.050695 
2396.000000	98.054950 
2395.000000	98.057453 
2394.000000	98.057183 
2393.000000	98.054151 
2392.000000	98.050884 
2391.000000	98.050812 
2390.000000	98.054664 
2389.000000	98.059995 
2388.000000	98.064678 
2387.000000	98.069355 
2386.000000	98.075687 
2385.000000	98.083478 
2384.000000	98.090431 
2383.000000	98.093582 
2382.000000	98.090099 
2381.000000	98.078291 
2380.000000	98.059284 
2379.000000	98.037193 
2378.000000	98.016305 
2377.000000	97.998710 
2376.000000	97.985995 
2375.000000	97.981428 
2374.000000	97.987317 
2373.000000	98.000653 
2372.000000	98.014179 
2371.000000	98.022978 
2370.000000	98.027456 
2369.000000	98.029364 
2368.000000	98.028515 
2367.000000	98.024534 
2366.000000	98.018903 
2365.000000	98.013690 
2364.000000	98.010053 
2363.000000	98.008783 
2362.000000	98.010689 
2361.000000	98.015261 
2360.000000	98.020560 
2359.000000	98.024828 
2358.000000	98.026489 
2357.000000	98.024721 
2356.000000	98.020129 
2355.000000	98.014638 
2354.000000	98.009092 
2353.000000	98.004959 
2352.000000	98.005057 
2351.000000	98.009766 
2350.000000	98.015754 
2349.000000	98.019161 
2348.000000	98.019381 
2347.000000	98.018310 
2346.000000	98.018369 
2345.000000	98.020692 
2344.000000	98.024342 
2343.000000	98.027666 
2342.000000	98.029670 
2341.000000	98.030723 
2340.000000	98.031765 
2339.000000	98.033349 
2338.000000	98.035264 
2337.000000	98.037017 
2336.000000	98.038927 
2335.000000	98.041530 
2334.000000	98.044551 
2333.000000	98.046877 
2332.000000	98.048643 
2331.000000	98.050704 
2330.000000	98.053662 
2329.000000	98.056703 
2328.000000	98.060018 
2327.000000	98.064170 
2326.000000	98.068924 
2325.000000	98.072970 
2324.000000	98.076056 
2323.000000	98.078947 
2322.000000	98.081164 
2321.000000	98.081008 
2320.000000	98.079360 
2319.000000	98.078881 
2318.000000	98.080991 
2317.000000	98.082365 
2316.000000	98.080751 
2315.000000	98.076977 
2314.000000	98.075625 
2313.000000	98.078483 
2312.000000	98.086016 
2311.000000	98.096418 
2310.000000	98.107482 
2309.000000	98.114780 
2308.000000	98.116796 
2307.000000	98.115417 
2306.000000	98.114529 
2305.000000	98.115329 
2304.000000	98.118098 
2303.000000	98.122192 
2302.000000	98.127626 
2301.000000	98.132390 
2300.000000	98.134520 
2299.000000	98.131523 
2298.000000	98.123299 
2297.000000	98.109947 
2296.000000	98.094207 
2295.000000	98.079878 
2294.000000	98.070105 
2293.000000	98.064138 
2292.000000	98.059582 
2291.000000	98.055074 
2290.000000	98.050878 
2289.000000	98.047377 
2288.000000	98.044128 
2287.000000	98.040622 
2286.000000	98.036603 
2285.000000	98.032888 
2284.000000	98.030763 
2283.000000	98.030619 
2282.000000	98.030297 
2281.000000	98.027067 
2280.000000	98.020820 
2279.000000	98.014042 
2278.000000	98.008095 
2277.000000	98.001896 
2276.000000	97.995155 
2275.000000	97.989994 
2274.000000	97.988435 
2273.000000	97.990073 
2272.000000	97.993550 
2271.000000	97.997692 
2270.000000	98.000531 
2269.000000	97.999763 
2268.000000	97.995848 
2267.000000	97.992155 
2266.000000	97.990966 
2265.000000	97.991132 
2264.000000	97.990505 
2263.000000	97.988446 
2262.000000	97.985110 
2261.000000	97.980611 
2260.000000	97.975739 
2259.000000	97.971835 
2258.000000	97.969063 
2257.000000	97.966392 
2256.000000	97.963603 
2255.000000	97.961914 
2254.000000	97.962047 
2253.000000	97.962725 
2252.000000	97.962014 
2251.000000	97.959327 
2250.000000	97.955163 
2249.000000	97.949970 
2248.000000	97.944433 
2247.000000	97.939981 
2246.000000	97.937652 
2245.000000	97.936769 
2244.000000	97.935549 
2243.000000	97.933039 
2242.000000	97.929796 
2241.000000	97.926888 
2240.000000	97.924959 
2239.000000	97.924123 
2238.000000	97.923972 
2237.000000	97.923666 
2236.000000	97.922609 
2235.000000	97.920992 
2234.000000	97.919383 
2233.000000	97.917977 
2232.000000	97.916555 
2231.000000	97.914957 
2230.000000	97.913136 
2229.000000	97.910972 
2228.000000	97.908509 
2227.000000	97.906278 
2226.000000	97.904784 
2225.000000	97.903731 
2224.000000	97.902213 
2223.000000	97.899902 
2222.000000	97.897389 
2221.000000	97.895368 
2220.000000	97.893793 
2219.000000	97.892190 
2218.000000	97.890303 
2217.000000	97.888303 
2216.000000	97.886501 
2215.000000	97.884987 
2214.000000	97.883549 
2213.000000	97.881929 
2212.000000	97.880179 
2211.000000	97.878634 
2210.000000	97.877438 
2209.000000	97.876361 
2208.000000	97.875143 
2207.000000	97.873748 
2206.000000	97.872251 
2205.000000	97.870733 
2204.000000	97.869304 
2203.000000	97.868143 
2202.000000	97.867332 
2201.000000	97.866536 
2200.000000	97.865036 
2199.000000	97.862432 
2198.000000	97.859157 
2197.000000	97.856156 
2196.000000	97.854125 
2195.000000	97.852907 
2194.000000	97.851496 
2193.000000	97.849019 
2192.000000	97.845822 
2191.000000	97.843043 
2190.000000	97.841023 
2189.000000	97.839124 
2188.000000	97.837271 
2187.000000	97.836090 
2186.000000	97.834778 
2185.000000	97.830958 
2184.000000	97.824529 
2183.000000	97.819908 
2182.000000	97.821460 
2181.000000	97.827775 
2180.000000	97.832431 
2179.000000	97.831242 
2178.000000	97.825893 
2177.000000	97.820816 
2176.000000	97.818542 
2175.000000	97.818497 
2174.000000	97.818606 
2173.000000	97.817478 
2172.000000	97.816317 
2171.000000	97.818255 
2170.000000	97.824099 
2169.000000	97.829280 
2168.000000	97.827666 
2167.000000	97.818413 
2166.000000	97.806695 
2165.000000	97.797266 
2164.000000	97.789897 
2163.000000	97.782723 
2162.000000	97.777464 
2161.000000	97.778739 
2160.000000	97.789182 
2159.000000	97.806645 
2158.000000	97.825153 
2157.000000	97.838760 
2156.000000	97.845492 
2155.000000	97.847712 
2154.000000	97.849312 
2153.000000	97.852856 
2152.000000	97.858444 
2151.000000	97.863807 
2150.000000	97.865795 
2149.000000	97.863885 
2148.000000	97.862366 
2147.000000	97.866376 
2146.000000	97.875256 
2145.000000	97.882879 
2144.000000	97.885800 
2143.000000	97.887403 
2142.000000	97.891806 
2141.000000	97.897567 
2140.000000	97.901129 
2139.000000	97.903662 
2138.000000	97.909801 
2137.000000	97.920650 
2136.000000	97.931858 
2135.000000	97.938434 
2134.000000	97.938549 
2133.000000	97.933588 
2132.000000	97.927595 
2131.000000	97.925610 
2130.000000	97.929911 
2129.000000	97.937973 
2128.000000	97.945454 
2127.000000	97.950730 
2126.000000	97.954852 
2125.000000	97.958232 
2124.000000	97.960050 
2123.000000	97.960293 
2122.000000	97.959920 
2121.000000	97.959105 
2120.000000	97.957065 
2119.000000	97.953826 
2118.000000	97.950836 
2117.000000	97.949647 
2116.000000	97.950521 
2115.000000	97.952119 
2114.000000	97.952134 
2113.000000	97.949063 
2112.000000	97.944173 
2111.000000	97.940880 
2110.000000	97.941239 
2109.000000	97.943800 
2108.000000	97.945775 
2107.000000	97.946367 
2106.000000	97.946667 
2105.000000	97.947464 
2104.000000	97.948801 
2103.000000	97.950639 
2102.000000	97.952158 
2101.000000	97.951249 
2100.000000	97.946734 
2099.000000	97.940751 
2098.000000	97.937336 
2097.000000	97.938390 
2096.000000	97.942518 
2095.000000	97.947117 
2094.000000	97.950270 
2093.000000	97.950979 
2092.000000	97.949120 
2091.000000	97.945879 
2090.000000	97.943153 
2089.000000	97.941823 
2088.000000	97.941072 
2087.000000	97.939441 
2086.000000	97.936144 
2085.000000	97.931551 
2084.000000	97.927001 
2083.000000	97.923852 
2082.000000	97.922253 
2081.000000	97.921176 
2080.000000	97.919884 
2079.000000	97.918652 
2078.000000	97.917514 
2077.000000	97.915370 
2076.000000	97.911526 
2075.000000	97.907250 
2074.000000	97.904316 
2073.000000	97.902368 
2072.000000	97.899325 
2071.000000	97.894205 
2070.000000	97.888117 
2069.000000	97.882715 
2068.000000	97.878826 
2067.000000	97.876473 
2066.000000	97.875131 
2065.000000	97.873632 
2064.000000	97.870852 
2063.000000	97.866877 
2062.000000	97.862916 
2061.000000	97.860023 
2060.000000	97.858272 
2059.000000	97.857201 
2058.000000	97.856243 
2057.000000	97.854762 
2056.000000	97.852264 
2055.000000	97.848734 
2054.000000	97.844694 
2053.000000	97.840831 
2052.000000	97.837551 
2051.000000	97.834847 
2050.000000	97.832425 
2049.000000	97.829905 
2048.000000	97.827140 
2047.000000	97.824342 
2046.000000	97.821756 
2045.000000	97.819310 
2044.000000	97.816799 
2043.000000	97.814297 
2042.000000	97.812081 
2041.000000	97.810252 
2040.000000	97.808792 
2039.000000	97.807983 
2038.000000	97.808092 
2037.000000	97.808482 
2036.000000	97.807813 
2035.000000	97.805432 
2034.000000	97.802174 
2033.000000	97.799684 
2032.000000	97.798966 
2031.000000	97.799586 
2030.000000	97.799817 
2029.000000	97.797899 
2028.000000	97.793682 
2027.000000	97.789007 
2026.000000	97.785824 
2025.000000	97.784497 
2024.000000	97.784641 
2023.000000	97.786764 
2022.000000	97.791597 
2021.000000	97.797805 
2020.000000	97.801987 
2019.000000	97.801639 
2018.000000	97.796835 
2017.000000	97.789626 
2016.000000	97.782604 
2015.000000	97.777608 
2014.000000	97.774611 
2013.000000	97.771682 
2012.000000	97.767663 
2011.000000	97.764978 
2010.000000	97.767326 
2009.000000	97.774592 
2008.000000	97.782119 
2007.000000	97.785963 
2006.000000	97.786633 
2005.000000	97.786738 
2004.000000	97.787617 
2003.000000	97.789521 
2002.000000	97.792875 
2001.000000	97.796918 
2000.000000	97.798766 
1999.000000	97.795490 
1998.000000	97.786793 
1997.000000	97.775598 
1996.000000	97.766346 
1995.000000	97.762422 
1994.000000	97.764236 
1993.000000	97.768741 
1992.000000	97.771507 
1991.000000	97.770992 
1990.000000	97.769632 
1989.000000	97.770186 
1988.000000	97.772227 
1987.000000	97.772778 
1986.000000	97.769608 
1985.000000	97.763317 
1984.000000	97.756680 
1983.000000	97.752320 
1982.000000	97.750848 
1981.000000	97.750931 
1980.000000	97.751516 
1979.000000	97.753143 
1978.000000	97.756330 
1977.000000	97.759760 
1976.000000	97.761488 
1975.000000	97.761765 
1974.000000	97.762820 
1973.000000	97.766105 
1972.000000	97.771064 
1971.000000	97.776379 
1970.000000	97.780953 
1969.000000	97.783643 
1968.000000	97.783496 
1967.000000	97.781089 
1966.000000	97.779022 
1965.000000	97.779963 
1964.000000	97.784501 
1963.000000	97.791291 
1962.000000	97.798352 
1961.000000	97.803963 
1960.000000	97.807092 
1959.000000	97.807768 
1958.000000	97.807333 
1957.000000	97.807808 
1956.000000	97.810307 
1955.000000	97.814271 
1954.000000	97.818196 
1953.000000	97.821155 
1952.000000	97.823301 
1951.000000	97.825145 
1950.000000	97.826978 
1949.000000	97.829124 
1948.000000	97.832183 
1947.000000	97.836345 
1946.000000	97.840722 
1945.000000	97.843972 
1944.000000	97.845655 
1943.000000	97.846500 
1942.000000	97.847563 
1941.000000	97.849267 
1940.000000	97.851442 
1939.000000	97.853801 
1938.000000	97.856203 
1937.000000	97.858716 
1936.000000	97.861506 
1935.000000	97.864511 
1934.000000	97.867311 
1933.000000	97.869623 
1932.000000	97.871807 
1931.000000	97.874591 
1930.000000	97.878091 
1929.000000	97.881332 
1928.000000	97.883460 
1927.000000	97.884636 
1926.000000	97.885552 
1925.000000	97.886383 
1924.000000	97.887035 
1923.000000	97.888061 
1922.000000	97.889861 
1921.000000	97.891703 
1920.000000	97.892654 
1919.000000	97.892916 
1918.000000	97.893187 
1917.000000	97.893291 
1916.000000	97.892921 
1915.000000	97.892760 
1914.000000	97.893535 
1913.000000	97.894822 
1912.000000	97.895539 
1911.000000	97.895675 
1910.000000	97.896154 
1909.000000	97.897386 
1908.000000	97.899251 
1907.000000	97.901433 
1906.000000	97.903359 
1905.000000	97.903992 
1904.000000	97.902877 
1903.000000	97.901275 
1902.000000	97.900685 
1901.000000	97.901073 
1900.000000	97.901575 
1899.000000	97.901918 
1898.000000	97.902457 
1897.000000	97.903189 
1896.000000	97.903601 
1895.000000	97.903471 
1894.000000	97.902839 
1893.000000	97.901604 
1892.000000	97.899903 
1891.000000	97.898602 
1890.000000	97.898550 
1889.000000	97.899568 
1888.000000	97.900849 
1887.000000	97.902053 
1886.000000	97.903207 
1885.000000	97.904036 
1884.000000	97.904136 
1883.000000	97.903662 
1882.000000	97.903330 
1881.000000	97.903654 
1880.000000	97.904565 
1879.000000	97.905540 
1878.000000	97.906047 
1877.000000	97.906128 
1876.000000	97.906455 
1875.000000	97.907766 
1874.000000	97.910123 
1873.000000	97.912655 
1872.000000	97.914461 
1871.000000	97.915537 
1870.000000	97.916378 
1869.000000	97.917030 
1868.000000	97.917401 
1867.000000	97.918103 
1866.000000	97.919393 
1865.000000	97.920463 
1864.000000	97.920724 
1863.000000	97.920907 
1862.000000	97.922164 
1861.000000	97.924449 
1860.000000	97.926774 
1859.000000	97.928835 
1858.000000	97.931091 
1857.000000	97.933510 
1856.000000	97.935587 
1855.000000	97.937341 
1854.000000	97.939161 
1853.000000	97.940777 
1852.000000	97.941969 
1851.000000	97.943179 
1850.000000	97.944837 
1849.000000	97.946920 
1848.000000	97.949256 
1847.000000	97.952095 
1846.000000	97.955554 
1845.000000	97.958912 
1844.000000	97.961108 
1843.000000	97.962479 
1842.000000	97.964054 
1841.000000	97.965561 
1840.000000	97.966755 
1839.000000	97.968139 
1838.000000	97.969944 
1837.000000	97.971427 
1836.000000	97.972039 
1835.000000	97.972553 
1834.000000	97.973885 
1833.000000	97.975748 
1832.000000	97.977303 
1831.000000	97.978130 
1830.000000	97.978451 
1829.000000	97.978914 
1828.000000	97.979907 
1827.000000	97.981273 
1826.000000	97.982771 
1825.000000	97.984182 
1824.000000	97.985241 
1823.000000	97.986012 
1822.000000	97.986759 
1821.000000	97.987551 
1820.000000	97.988287 
1819.000000	97.988996 
1818.000000	97.989947 
1817.000000	97.991129 
1816.000000	97.992079 
1815.000000	97.992617 
1814.000000	97.993075 
1813.000000	97.993765 
1812.000000	97.994391 
1811.000000	97.994580 
1810.000000	97.994558 
1809.000000	97.994666 
1808.000000	97.994911 
1807.000000	97.995216 
1806.000000	97.995560 
1805.000000	97.995847 
1804.000000	97.995986 
1803.000000	97.996112 
1802.000000	97.996378 
1801.000000	97.996712 
1800.000000	97.996894 
1799.000000	97.996890 
1798.000000	97.996926 
1797.000000	97.997147 
1796.000000	97.997483 
1795.000000	97.997840 
1794.000000	97.998242 
1793.000000	97.998694 
1792.000000	97.999060 
1791.000000	97.999373 
1790.000000	97.999833 
1789.000000	98.000386 
1788.000000	98.000883 
1787.000000	98.001329 
1786.000000	98.001820 
1785.000000	98.002322 
1784.000000	98.002738 
1783.000000	98.003127 
1782.000000	98.003582 
1781.000000	98.004156 
1780.000000	98.004814 
1779.000000	98.005484 
1778.000000	98.006140 
1777.000000	98.006775 
1776.000000	98.007394 
1775.000000	98.007995 
1774.000000	98.008583 
1773.000000	98.009164 
1772.000000	98.009745 
1771.000000	98.010343 
1770.000000	98.010975 
1769.000000	98.011652 
1768.000000	98.012364 
1767.000000	98.013089 
1766.000000	98.013806 
1765.000000	98.014504 
1764.000000	98.015187 
1763.000000	98.015859 
1762.000000	98.016522 
1761.000000	98.017177 
1760.000000	98.017819 
1759.000000	98.018439 
1758.000000	98.019027 
1757.000000	98.019595 
1756.000000	98.020194 
1755.000000	98.020799 
1754.000000	98.021269 
1753.000000	98.021553 
1752.000000	98.021929 
1751.000000	98.022673 
1750.000000	98.023601 
1749.000000	98.024182 
1748.000000	98.024041 
1747.000000	98.023249 
1746.000000	98.022058 
1745.000000	98.021223 
1744.000000	98.021471 
1743.000000	98.022478 
1742.000000	98.023184 
1741.000000	98.023031 
1740.000000	98.022226 
1739.000000	98.021685 
1738.000000	98.022291 
1737.000000	98.023058 
1736.000000	98.023039 
1735.000000	98.023468 
1734.000000	98.023235 
1733.000000	98.020274 
1732.000000	98.017601 
1731.000000	98.016332 
1730.000000	98.016745 
1729.000000	98.018221 
1728.000000	98.018989 
1727.000000	98.017813 
1726.000000	98.015099 
1725.000000	98.012889 
1724.000000	98.011229 
1723.000000	98.009154 
1722.000000	98.007388 
1721.000000	98.005738 
1720.000000	98.002867 
1719.000000	97.999062 
1718.000000	97.996519 
1717.000000	97.994263 
1716.000000	97.989738 
1715.000000	97.984481 
1714.000000	97.981365 
1713.000000	97.979360 
1712.000000	97.975282 
1711.000000	97.969688 
1710.000000	97.965517 
1709.000000	97.962934 
1708.000000	97.959257 
1707.000000	97.953270 
1706.000000	97.946962 
1705.000000	97.941472 
1704.000000	97.935720 
1703.000000	97.928947 
1702.000000	97.923036 
1701.000000	97.919876 
1700.000000	97.915373 
1699.000000	97.908490 
1698.000000	97.903277 
1697.000000	97.898666 
1696.000000	97.893295 
1695.000000	97.887362 
1694.000000	97.881936 
1693.000000	97.876450 
1692.000000	97.870235 
1691.000000	97.863762 
1690.000000	97.857473 
1689.000000	97.851381 
1688.000000	97.845412 
1687.000000	97.839391 
1686.000000	97.833390 
1685.000000	97.827411 
1684.000000	97.820811 
1683.000000	97.813746 
1682.000000	97.807194 
1681.000000	97.800757 
1680.000000	97.794512 
1679.000000	97.788754 
1678.000000	97.783111 
1677.000000	97.777174 
1676.000000	97.771334 
1675.000000	97.765514 
1674.000000	97.758669 
1673.000000	97.751099 
1672.000000	97.743695 
1671.000000	97.737497 
1670.000000	97.731971 
1669.000000	97.725022 
1668.000000	97.718325 
1667.000000	97.713907 
1666.000000	97.710175 
1665.000000	97.705329 
1664.000000	97.699548 
1663.000000	97.694255 
1662.000000	97.688801 
1661.000000	97.682121 
1660.000000	97.675606 
1659.000000	97.670164 
1658.000000	97.664654 
1657.000000	97.658184 
1656.000000	97.651510 
1655.000000	97.647577 
1654.000000	97.647276 
1653.000000	97.635873 
1652.000000	97.615031 
1651.000000	97.609695 
1650.000000	97.609252 
1649.000000	97.605421 
1648.000000	97.601419 
1647.000000	97.599486 
1646.000000	97.596708 
1645.000000	97.594475 
1644.000000	97.592874 
1643.000000	97.591479 
1642.000000	97.590787 
1641.000000	97.590864 
1640.000000	97.591961 
1639.000000	97.592975 
1638.000000	97.593291 
1637.000000	97.593237 
1636.000000	97.591535 
1635.000000	97.586337 
1634.000000	97.584268 
1633.000000	97.587437 
1632.000000	97.590258 
1631.000000	97.593123 
1630.000000	97.596721 
1629.000000	97.598507 
1628.000000	97.597562 
1627.000000	97.598098 
1626.000000	97.601622 
1625.000000	97.605485 
1624.000000	97.608786 
1623.000000	97.613347 
1622.000000	97.619874 
1621.000000	97.627255 
1620.000000	97.634774 
1619.000000	97.642933 
1618.000000	97.651843 
1617.000000	97.655160 
1616.000000	97.651533 
1615.000000	97.651916 
1614.000000	97.658327 
1613.000000	97.663609 
1612.000000	97.666429 
1611.000000	97.669890 
1610.000000	97.673741 
1609.000000	97.677260 
1608.000000	97.684462 
1607.000000	97.697281 
1606.000000	97.709569 
1605.000000	97.716600 
1604.000000	97.722025 
1603.000000	97.728979 
1602.000000	97.735668 
1601.000000	97.740290 
1600.000000	97.744918 
1599.000000	97.750877 
1598.000000	97.756338 
1597.000000	97.760226 
1596.000000	97.763855 
1595.000000	97.768457 
1594.000000	97.773431 
1593.000000	97.778051 
1592.000000	97.782758 
1591.000000	97.787942 
1590.000000	97.793178 
1589.000000	97.798141 
1588.000000	97.803016 
1587.000000	97.807934 
1586.000000	97.812760 
1585.000000	97.817444 
1584.000000	97.822138 
1583.000000	97.826861 
1582.000000	97.831538 
1581.000000	97.836144 
1580.000000	97.840687 
1579.000000	97.845159 
1578.000000	97.849554 
1577.000000	97.853866 
1576.000000	97.858089 
1575.000000	97.862232 
1574.000000	97.866302 
1573.000000	97.870291 
1572.000000	97.874188 
1571.000000	97.877984 
1570.000000	97.881668 
1569.000000	97.885235 
1568.000000	97.888691 
1567.000000	97.892046 
1566.000000	97.895297 
1565.000000	97.898441 
1564.000000	97.901493 
1563.000000	97.904469 
1562.000000	97.907382 
1561.000000	97.910238 
1560.000000	97.913037 
1559.000000	97.915745 
1558.000000	97.918322 
1557.000000	97.920788 
1556.000000	97.923169 
1555.000000	97.925479 
1554.000000	97.927721 
1553.000000	97.929884 
1552.000000	97.931956 
1551.000000	97.933932 
1550.000000	97.935818 
1549.000000	97.937623 
1548.000000	97.939350 
1547.000000	97.940997 
1546.000000	97.942561 
1545.000000	97.944041 
1544.000000	97.945429 
1543.000000	97.946719 
1542.000000	97.947908 
1541.000000	97.948985 
1540.000000	97.949942 
1539.000000	97.950798 
1538.000000	97.951585 
1537.000000	97.952315 
1536.000000	97.952996 
1535.000000	97.953645 
1534.000000	97.954283 
1533.000000	97.954917 
1532.000000	97.955546 
1531.000000	97.956171 
1530.000000	97.956796 
1529.000000	97.957423 
1528.000000	97.958057 
1527.000000	97.958694 
1526.000000	97.959350 
1525.000000	97.960033 
1524.000000	97.960683 
1523.000000	97.961260 
1522.000000	97.961896 
1521.000000	97.962654 
1520.000000	97.963300 
1519.000000	97.963511 
1518.000000	97.963220 
1517.000000	97.963082 
1516.000000	97.963698 
1515.000000	97.964982 
1514.000000	97.966412 
1513.000000	97.967817 
1512.000000	97.968818 
1511.000000	97.968799 
1510.000000	97.967958 
1509.000000	97.967556 
1508.000000	97.969393 
1507.000000	97.972916 
1506.000000	97.974675 
1505.000000	97.974279 
1504.000000	97.973154 
1503.000000	97.971144 
1502.000000	97.968718 
1501.000000	97.967165 
1500.000000	97.966582 
1499.000000	97.965838 
1498.000000	97.965365 
1497.000000	97.967077 
1496.000000	97.970355 
1495.000000	97.974282 
1494.000000	97.979155 
1493.000000	97.984356 
1492.000000	97.988894 
1491.000000	97.992802 
1490.000000	97.996707 
1489.000000	97.999571 
1488.000000	97.998965 
1487.000000	97.995933 
1486.000000	97.993865 
1485.000000	97.992435 
1484.000000	97.990577 
1483.000000	97.988927 
1482.000000	97.989017 
1481.000000	97.990649 
1480.000000	97.991412 
1479.000000	97.990560 
1478.000000	97.989883 
1477.000000	97.990715 
1476.000000	97.991640 
1475.000000	97.991737 
1474.000000	97.991986 
1473.000000	97.993324 
1472.000000	97.994840 
1471.000000	97.995478 
1470.000000	97.995362 
1469.000000	97.994349 
1468.000000	97.992342 
1467.000000	97.990140 
1466.000000	97.988900 
1465.000000	97.988819 
1464.000000	97.989021 
1463.000000	97.988488 
1462.000000	97.987240 
1461.000000	97.985824 
1460.000000	97.984718 
1459.000000	97.984106 
1458.000000	97.983870 
1457.000000	97.983608 
1456.000000	97.983041 
1455.000000	97.982279 
1454.000000	97.981450 
1453.000000	97.980573 
1452.000000	97.979662 
1451.000000	97.978727 
1450.000000	97.977773 
1449.000000	97.976797 
1448.000000	97.975792 
1447.000000	97.974757 
1446.000000	97.973700 
1445.000000	97.972637 
1444.000000	97.971570 
1443.000000	97.970496 
1442.000000	97.969417 
1441.000000	97.968334 
1440.000000	97.967246 
1439.000000	97.966129 
1438.000000	97.965013 
1437.000000	97.964049 
1436.000000	97.963278 
1435.000000	97.962437 
1434.000000	97.961344 
1433.000000	97.960161 
1432.000000	97.959186 
1431.000000	97.958428 
1430.000000	97.957676 
1429.000000	97.956985 
1428.000000	97.956345 
1427.000000	97.955560 
1426.000000	97.954573 
1425.000000	97.954177 
1424.000000	97.955052 
1423.000000	97.955706 
1422.000000	97.954380 
1421.000000	97.951849 
1420.000000	97.950923 
1419.000000	97.951719 
1418.000000	97.951686 
1417.000000	97.950724 
1416.000000	97.949973 
1415.000000	97.949292 
1414.000000	97.947657 
1413.000000	97.945168 
1412.000000	97.943094 
1411.000000	97.941439 
1410.000000	97.939522 
1409.000000	97.937739 
1408.000000	97.936449 
1407.000000	97.936005 
1406.000000	97.936950 
1405.000000	97.940400 
1404.000000	97.946113 
1403.000000	97.950377 
1402.000000	97.950934 
1401.000000	97.950396 
1400.000000	97.953165 
1399.000000	97.959374 
1398.000000	97.964759 
1397.000000	97.966694 
1396.000000	97.966690 
1395.000000	97.967604 
1394.000000	97.969977 
1393.000000	97.973371 
1392.000000	97.977399 
1391.000000	97.980740 
1390.000000	97.982496 
1389.000000	97.983335 
1388.000000	97.984574 
1387.000000	97.986244 
1386.000000	97.987139 
1385.000000	97.987337 
1384.000000	97.988676 
1383.000000	97.991786 
1382.000000	97.995207 
1381.000000	97.997205 
1380.000000	97.998114 
1379.000000	97.999706 
1378.000000	98.002287 
1377.000000	98.004531 
1376.000000	98.005946 
1375.000000	98.007995 
1374.000000	98.012089 
1373.000000	98.018071 
1372.000000	98.024296 
1371.000000	98.029340 
1370.000000	98.032769 
1369.000000	98.035278 
1368.000000	98.037945 
1367.000000	98.039991 
1366.000000	98.039957 
1365.000000	98.038418 
1364.000000	98.038200 
1363.000000	98.041278 
1362.000000	98.046514 
1361.000000	98.051593 
1360.000000	98.056162 
1359.000000	98.061014 
1358.000000	98.065514 
1357.000000	98.068128 
1356.000000	98.068801 
1355.000000	98.068670 
1354.000000	98.068805 
1353.000000	98.069903 
1352.000000	98.072156 
1351.000000	98.076083 
1350.000000	98.080864 
1349.000000	98.084590 
1348.000000	98.086635 
1347.000000	98.087421 
1346.000000	98.087824 
1345.000000	98.088131 
1344.000000	98.087762 
1343.000000	98.085636 
1342.000000	98.081904 
1341.000000	98.078943 
1340.000000	98.079509 
1339.000000	98.083196 
1338.000000	98.086794 
1337.000000	98.088495 
1336.000000	98.088905 
1335.000000	98.088408 
1334.000000	98.086656 
1333.000000	98.084444 
1332.000000	98.083588 
1331.000000	98.084328 
1330.000000	98.084855 
1329.000000	98.084284 
1328.000000	98.084082 
1327.000000	98.085716 
1326.000000	98.088155 
1325.000000	98.089354 
1324.000000	98.088613 
1323.000000	98.086082 
1322.000000	98.082302 
1321.000000	98.078745 
1320.000000	98.077274 
1319.000000	98.078122 
1318.000000	98.079767 
1317.000000	98.080983 
1316.000000	98.081583 
1315.000000	98.081307 
1314.000000	98.080110 
1313.000000	98.079573 
1312.000000	98.081650 
1311.000000	98.085495 
1310.000000	98.087751 
1309.000000	98.086671 
1308.000000	98.084023 
1307.000000	98.082710 
1306.000000	98.083598 
1305.000000	98.085876 
1304.000000	98.088678 
1303.000000	98.090758 
1302.000000	98.090527 
1301.000000	98.087731 
1300.000000	98.084361 
1299.000000	98.082725 
1298.000000	98.083223 
1297.000000	98.084501 
1296.000000	98.085115 
1295.000000	98.084538 
1294.000000	98.083340 
1293.000000	98.082854 
1292.000000	98.083818 
1291.000000	98.085353 
1290.000000	98.086205 
1289.000000	98.086684 
1288.000000	98.087838 
1287.000000	98.088950 
1286.000000	98.087995 
1285.000000	98.085014 
1284.000000	98.082838 
1283.000000	98.083468 
1282.000000	98.085347 
1281.000000	98.085367 
1280.000000	98.082671 
1279.000000	98.079355 
1278.000000	98.078272 
1277.000000	98.080691 
1276.000000	98.085006 
1275.000000	98.087553 
1274.000000	98.086057 
1273.000000	98.082667 
1272.000000	98.081873 
1271.000000	98.084979 
1270.000000	98.088535 
1269.000000	98.088984 
1268.000000	98.086644 
1267.000000	98.083925 
1266.000000	98.082053 
1265.000000	98.081242 
1264.000000	98.082074 
1263.000000	98.084692 
1262.000000	98.087521 
1261.000000	98.088496 
1260.000000	98.087536 
1259.000000	98.086554 
1258.000000	98.087036 
1257.000000	98.088132 
1256.000000	98.087070 
1255.000000	98.082070 
1254.000000	98.075110 
1253.000000	98.070388 
1252.000000	98.068877 
1251.000000	98.066303 
1250.000000	98.058734 
1249.000000	98.048461 
1248.000000	98.041167 
1247.000000	98.038140 
1246.000000	98.035210 
1245.000000	98.029274 
1244.000000	98.021814 
1243.000000	98.015560 
1242.000000	98.011332 
1241.000000	98.009202 
1240.000000	98.009189 
1239.000000	98.009221 
1238.000000	98.005478 
1237.000000	97.996643 
1236.000000	97.985443 
1235.000000	97.974584 
1234.000000	97.963504 
1233.000000	97.950608 
1232.000000	97.936231 
1231.000000	97.921486 
1230.000000	97.906278 
1229.000000	97.890188 
1228.000000	97.873400 
1227.000000	97.855071 
1226.000000	97.832485 
1225.000000	97.803699 
1224.000000	97.769777 
1223.000000	97.732988 
1222.000000	97.693894 
1221.000000	97.651563 
1220.000000	97.605567 
1219.000000	97.556375 
1218.000000	97.504586 
1217.000000	97.450714 
1216.000000	97.394771 
1215.000000	97.335490 
1214.000000	97.271679 
1213.000000	97.205329 
1212.000000	97.141106 
1211.000000	97.080726 
1210.000000	97.019651 
1209.000000	96.952038 
1208.000000	96.877941 
1207.000000	96.803177 
1206.000000	96.732539 
1205.000000	96.665287 
1204.000000	96.597361 
1203.000000	96.526011 
1202.000000	96.452046 
1201.000000	96.378848 
1200.000000	96.309238 
1199.000000	96.242670 
1198.000000	96.176024 
1197.000000	96.107543 
1196.000000	96.038469 
1195.000000	95.970097 
1194.000000	95.901239 
1193.000000	95.830249 
1192.000000	95.757749 
1191.000000	95.685259 
1190.000000	95.612455 
1189.000000	95.537701 
1188.000000	95.460179 
1187.000000	95.379899 
1186.000000	95.297124 
1185.000000	95.213259 
1184.000000	95.130338 
1183.000000	95.047860 
1182.000000	94.962378 
1181.000000	94.872270 
1180.000000	94.780169 
1179.000000	94.687852 
1178.000000	94.591838 
1177.000000	94.488060 
1176.000000	94.378317 
1175.000000	94.267623 
1174.000000	94.157249 
1173.000000	94.045372 
1172.000000	93.932787 
1171.000000	93.822143 
1170.000000	93.712522 
1169.000000	93.600930 
1168.000000	93.489286 
1167.000000	93.384616 
1166.000000	93.292677 
1165.000000	93.217312 
1164.000000	93.165759 
1163.000000	93.147093 
1162.000000	93.162783 
1161.000000	93.202857 
1160.000000	93.251873 
1159.000000	93.294415 
1158.000000	93.316031 
1157.000000	93.306195 
1156.000000	93.263141 
1155.000000	93.192912 
1154.000000	93.103329 
1153.000000	93.001631 
1152.000000	92.896302 
1151.000000	92.794869 
1150.000000	92.698452 
1149.000000	92.603364 
1148.000000	92.508790 
1147.000000	92.417654 
1146.000000	92.329523 
1145.000000	92.239111 
1144.000000	92.143673 
1143.000000	92.046184 
1142.000000	91.949107 
1141.000000	91.850450 
1140.000000	91.748556 
1139.000000	91.646043 
1138.000000	91.546365 
1137.000000	91.450217 
1136.000000	91.356846 
1135.000000	91.264857 
1134.000000	91.170620 
1133.000000	91.070476 
1132.000000	90.965715 
1131.000000	90.861181 
1130.000000	90.758383 
1129.000000	90.654585 
1128.000000	90.548810 
1127.000000	90.443042 
1126.000000	90.336858 
1125.000000	90.227011 
1124.000000	90.113674 
1123.000000	90.001353 
1122.000000	89.892238 
1121.000000	89.784238 
1120.000000	89.676703 
1119.000000	89.572029 
1118.000000	89.470462 
1117.000000	89.369633 
1116.000000	89.270306 
1115.000000	89.176163 
1114.000000	89.086851 
1113.000000	88.997812 
1112.000000	88.907940 
1111.000000	88.820503 
1110.000000	88.735894 
1109.000000	88.650836 
1108.000000	88.564720 
1107.000000	88.479751 
1106.000000	88.394960 
1105.000000	88.307233 
1104.000000	88.218109 
1103.000000	88.131854 
1102.000000	88.047293 
1101.000000	87.959698 
1100.000000	87.869937 
1099.000000	87.783729 
1098.000000	87.702595 
1097.000000	87.623883 
1096.000000	87.548597 
1095.000000	87.479275 
1094.000000	87.411446 
1093.000000	87.337970 
1092.000000	87.261883 
1091.000000	87.194434 
1090.000000	87.139905 
1089.000000	87.091841 
1088.000000	87.043630 
1087.000000	86.992834 
1086.000000	86.936548 
1085.000000	86.874109 
1084.000000	86.813938 
1083.000000	86.766027 
1082.000000	86.727457 
1081.000000	86.686661 
1080.000000	86.641392 
1079.000000	86.599996 
1078.000000	86.564803 
1077.000000	86.527038 
1076.000000	86.479413 
1075.000000	86.421478 
1074.000000	86.351682 
1073.000000	86.266309 
1072.000000	86.167177 
1071.000000	86.058314 
1070.000000	85.933884 
1069.000000	85.782027 
1068.000000	85.602675 
1067.000000	85.410423 
1066.000000	85.218251 
1065.000000	85.029524 
1064.000000	84.846639 
1063.000000	84.672895 
1062.000000	84.502238 
1061.000000	84.321103 
1060.000000	84.125504 
1059.000000	83.925523 
1058.000000	83.730012 
1057.000000	83.538199 
1056.000000	83.348805 
1055.000000	83.164479 
1054.000000	82.983269 
1053.000000	82.797494 
1052.000000	82.605061 
1051.000000	82.410587 
1050.000000	82.212523 
1049.000000	82.002641 
1048.000000	81.780929 
1047.000000	81.556858 
1046.000000	81.334648 
1045.000000	81.111234 
1044.000000	80.888366 
1043.000000	80.672215 
1042.000000	80.460900 
1041.000000	80.246730 
1040.000000	80.031448 
1039.000000	79.825205 
1038.000000	79.630574 
1037.000000	79.442725 
1036.000000	79.265045 
1035.000000	79.108038 
1034.000000	78.972192 
1033.000000	78.848247 
1032.000000	78.734381 
1031.000000	78.636240 
1030.000000	78.550786 
1029.000000	78.468954 
1028.000000	78.394387 
1027.000000	78.339909 
1026.000000	78.304254 
1025.000000	78.271433 
1024.000000	78.234600 
1023.000000	78.201181 
1022.000000	78.172857 
1021.000000	78.140753 
1020.000000	78.103115 
1019.000000	78.068407 
1018.000000	78.037930 
1017.000000	78.003955 
1016.000000	77.967640 
1015.000000	77.940095 
1014.000000	77.922993 
1013.000000	77.906642 
1012.000000	77.889735 
1011.000000	77.882457 
1010.000000	77.887574 
1009.000000	77.897236 
1008.000000	77.911221 
1007.000000	77.939705 
1006.000000	77.985060 
1005.000000	78.039142 
1004.000000	78.100942 
1003.000000	78.178214 
1002.000000	78.268956 
1001.000000	78.360386 
1000.000000	78.449871 
999.000000	 78.548608 
998.000000	 78.660760 
997.000000	 78.776623 
996.000000	 78.890246 
995.000000	 79.007281 
994.000000	 79.131870 
993.000000	 79.261610 
992.000000	 79.397857 
991.000000	 79.545009 
990.000000	 79.697778 
989.000000	 79.845400 
988.000000	 79.990080 
987.000000	 80.145007 
986.000000	 80.313435 
985.000000	 80.486950 
984.000000	 80.664995 
983.000000	 80.857312 
982.000000	 81.064408 
981.000000	 81.273889 
980.000000	 81.480066 
979.000000	 81.690599 
978.000000	 81.910142 
977.000000	 82.133802 
976.000000	 82.360228 
975.000000	 82.595162 
974.000000	 82.837946 
973.000000	 83.079432 
972.000000	 83.317039 
971.000000	 83.557827 
970.000000	 83.803571 
969.000000	 84.046779 
968.000000	 84.284481 
967.000000	 84.522133 
966.000000	 84.760632 
965.000000	 84.992909 
964.000000	 85.216941 
963.000000	 85.439415 
962.000000	 85.662975 
961.000000	 85.881605 
960.000000	 86.091741 
959.000000	 86.296416 
958.000000	 86.495534 
957.000000	 86.683438 
956.000000	 86.859566 
955.000000	 87.031267 
954.000000	 87.202917 
953.000000	 87.371198 
952.000000	 87.532827 
951.000000	 87.687438 
950.000000	 87.831996 
949.000000	 87.962590 
948.000000	 88.082942 
947.000000	 88.201173 
946.000000	 88.316927 
945.000000	 88.421868 
944.000000	 88.514077 
943.000000	 88.601690 
942.000000	 88.690751 
941.000000	 88.779567 
940.000000	 88.866826 
939.000000	 88.954982 
938.000000	 89.043283 
937.000000	 89.127035 
936.000000	 89.206162 
935.000000	 89.285944 
934.000000	 89.367900 
933.000000	 89.448720 
932.000000	 89.529011 
931.000000	 89.613535 
930.000000	 89.701338 
929.000000	 89.784879 
928.000000	 89.860567 
927.000000	 89.931729 
926.000000	 90.000101 
925.000000	 90.062756 
924.000000	 90.118436 
923.000000	 90.169001 
922.000000	 90.214486 
921.000000	 90.254929 
920.000000	 90.296449 
919.000000	 90.345955 
918.000000	 90.399551 
917.000000	 90.446024 
916.000000	 90.483313 
915.000000	 90.522856 
914.000000	 90.576514 
913.000000	 90.647435 
912.000000	 90.734111 
911.000000	 90.834530 
910.000000	 90.945374 
909.000000	 91.065302 
908.000000	 91.199451 
907.000000	 91.353422 
906.000000	 91.523701 
905.000000	 91.700826 
904.000000	 91.879263 
903.000000	 92.056353 
902.000000	 92.226063 
901.000000	 92.384429 
900.000000	 92.538247 
899.000000	 92.698245 
898.000000	 92.865325 
897.000000	 93.032167 
896.000000	 93.194418 
895.000000	 93.350167 
894.000000	 93.493277 
893.000000	 93.619546 
892.000000	 93.736901 
891.000000	 93.857739 
890.000000	 93.982459 
889.000000	 94.101131 
888.000000	 94.209219 
887.000000	 94.310811 
886.000000	 94.409101 
885.000000	 94.505242 
884.000000	 94.603886 
883.000000	 94.707358 
882.000000	 94.807130 
881.000000	 94.895217 
880.000000	 94.981900 
879.000000	 95.086286 
878.000000	 95.208800 
877.000000	 95.329044 
876.000000	 95.432354 
875.000000	 95.522598 
874.000000	 95.607842 
873.000000	 95.690767 
872.000000	 95.777171 
871.000000	 95.877159 
870.000000	 95.990588 
869.000000	 96.103660 
868.000000	 96.205642 
867.000000	 96.298616 
866.000000	 96.387596 
865.000000	 96.472576 
864.000000	 96.555181 
863.000000	 96.642490 
862.000000	 96.737416 
861.000000	 96.832737 
860.000000	 96.920123 
859.000000	 96.999148 
858.000000	 97.074197 
857.000000	 97.148789 
856.000000	 97.225637 
855.000000	 97.305230 
854.000000	 97.380928 
853.000000	 97.442016 
852.000000	 97.485332 
851.000000	 97.519401 
850.000000	 97.555366 
849.000000	 97.598335 
848.000000	 97.647408 
847.000000	 97.697399 
846.000000	 97.740232 
845.000000	 97.771979 
844.000000	 97.799082 
843.000000	 97.830758 
842.000000	 97.865202 
841.000000	 97.890797 
840.000000	 97.900553 
839.000000	 97.897129 
838.000000	 97.884474 
837.000000	 97.864717 
836.000000	 97.844780 
835.000000	 97.835674 
834.000000	 97.840768 
833.000000	 97.852103 
832.000000	 97.861226 
831.000000	 97.866497 
830.000000	 97.868348 
829.000000	 97.867117 
828.000000	 97.869784 
827.000000	 97.889433 
826.000000	 97.931241 
825.000000	 97.985417 
824.000000	 98.038254 
823.000000	 98.082443 
822.000000	 98.114120 
821.000000	 98.130499 
820.000000	 98.134595 
819.000000	 98.132894 
818.000000	 98.123867 
817.000000	 98.095816 
816.000000	 98.039864 
815.000000	 97.959534 
814.000000	 97.863859 
813.000000	 97.754753 
812.000000	 97.623115 
811.000000	 97.452399 
810.000000	 97.223959 
809.000000	 96.925081 
808.000000	 96.556843 
807.000000	 96.132900 
806.000000	 95.670002 
805.000000	 95.183755 
804.000000	 94.693546 
803.000000	 94.223170 
802.000000	 93.793037 
801.000000	 93.418900 
800.000000	 93.119509 
799.000000	 92.913751 
798.000000	 92.804916 
797.000000	 92.776602 
796.000000	 92.806705 
795.000000	 92.876280 
794.000000	 92.965507 
793.000000	 93.055274 
792.000000	 93.136840 
791.000000	 93.210345 
790.000000	 93.272336 
789.000000	 93.313737 
788.000000	 93.329118 
787.000000	 93.317050 
786.000000	 93.271567 
785.000000	 93.183773 
784.000000	 93.051921 
783.000000	 92.881741 
782.000000	 92.681869 
781.000000	 92.472108 
780.000000	 92.291268 
779.000000	 92.177776 
778.000000	 92.141065 
777.000000	 92.167348 
776.000000	 92.251210 
775.000000	 92.399797 
774.000000	 92.603886 
773.000000	 92.828313 
772.000000	 93.039362 
771.000000	 93.225147 
770.000000	 93.384880 
769.000000	 93.517706 
768.000000	 93.629548 
767.000000	 93.732911 
766.000000	 93.830396 
765.000000	 93.913781 
764.000000	 93.987536 
763.000000	 94.076042 
762.000000	 94.195284 
761.000000	 94.330772 
760.000000	 94.455408 
759.000000	 94.558334 
758.000000	 94.645879 
757.000000	 94.725755 
756.000000	 94.803836 
755.000000	 94.888559 
754.000000	 94.984251 
753.000000	 95.082694 
752.000000	 95.170739 
751.000000	 95.245039 
750.000000	 95.314710 
749.000000	 95.391876 
748.000000	 95.481763 
747.000000	 95.577632 
746.000000	 95.663492 
745.000000	 95.727550 
744.000000	 95.775134 
743.000000	 95.823328 
742.000000	 95.882937 
741.000000	 95.952921 
740.000000	 96.031233 
739.000000	 96.120269 
738.000000	 96.219849 
737.000000	 96.324088 
736.000000	 96.427181 
735.000000	 96.524310 
734.000000	 96.607462 
733.000000	 96.670060 
732.000000	 96.715029 
731.000000	 96.747744 
730.000000	 96.763559 
729.000000	 96.757608 
728.000000	 96.742894 
727.000000	 96.743429 
726.000000	 96.771941 
725.000000	 96.825214 
724.000000	 96.898876 
723.000000	 96.991308 
722.000000	 97.091274 
721.000000	 97.177560 
720.000000	 97.237386 
719.000000	 97.275375 
718.000000	 97.300137 
717.000000	 97.315361 
716.000000	 97.330537 
715.000000	 97.362295 
714.000000	 97.414037 
713.000000	 97.468657 
712.000000	 97.511021 
711.000000	 97.545144 
710.000000	 97.579773 
709.000000	 97.616218 
708.000000	 97.645646 
707.000000	 97.656781 
706.000000	 97.643657 
705.000000	 97.605577 
704.000000	 97.545753 
703.000000	 97.470441 
702.000000	 97.380282 
701.000000	 97.265237 
700.000000	 97.114991 
699.000000	 96.928751 
698.000000	 96.719751 
697.000000	 96.515232 
696.000000	 96.348911 
695.000000	 96.248894 
694.000000	 96.222736 
693.000000	 96.258842 
692.000000	 96.342971 
691.000000	 96.461250 
690.000000	 96.595390 
689.000000	 96.725798 
688.000000	 96.841587 
687.000000	 96.943439 
686.000000	 97.031875 
685.000000	 97.104912 
684.000000	 97.168118 
683.000000	 97.229751 
682.000000	 97.287946 
681.000000	 97.334593 
680.000000	 97.372370 
679.000000	 97.411571 
678.000000	 97.453500 
677.000000	 97.494974 
676.000000	 97.538004 
675.000000	 97.588545 
674.000000	 97.644433 
673.000000	 97.685589 
672.000000	 97.689656 
671.000000	 97.639725 
670.000000	 97.533691 
669.000000	 97.392196 
668.000000	 97.329942 
667.000000	 97.450020 
666.000000	 97.649392 
665.000000	 97.793033 
664.000000	 97.876034 
663.000000	 97.925885 
662.000000	 97.963950 
661.000000	 97.999302 
660.000000	 98.031598 
659.000000	 98.057783 
658.000000	 98.075614 
657.000000	 98.088221 
656.000000	 98.095769 
655.000000	 98.094198 
654.000000	 98.083387 
653.000000	 98.069374 
652.000000	 98.059300 
651.000000	 98.059147 
650.000000	 98.072137 

