4000.000000	97.515273 
3999.000000	97.514804 
3998.000000	97.513343 
3997.000000	97.511411 
3996.000000	97.509708 
3995.000000	97.508596 
3994.000000	97.508200 
3993.000000	97.508336 
3992.000000	97.508485 
3991.000000	97.508212 
3990.000000	97.507554 
3989.000000	97.506868 
3988.000000	97.506340 
3987.000000	97.505877 
3986.000000	97.505502 
3985.000000	97.505468 
3984.000000	97.505771 
3983.000000	97.505952 
3982.000000	97.505751 
3981.000000	97.505489 
3980.000000	97.505498 
3979.000000	97.505468 
3978.000000	97.504859 
3977.000000	97.503761 
3976.000000	97.502822 
3975.000000	97.502303 
3974.000000	97.501720 
3973.000000	97.500573 
3972.000000	97.499005 
3971.000000	97.497545 
3970.000000	97.496661 
3969.000000	97.496585 
3968.000000	97.497272 
3967.000000	97.498305 
3966.000000	97.499025 
3965.000000	97.498927 
3964.000000	97.497881 
3963.000000	97.496179 
3962.000000	97.494452 
3961.000000	97.493394 
3960.000000	97.493193 
3959.000000	97.493278 
3958.000000	97.493036 
3957.000000	97.492449 
3956.000000	97.491806 
3955.000000	97.491013 
3954.000000	97.489637 
3953.000000	97.487604 
3952.000000	97.485424 
3951.000000	97.483839 
3950.000000	97.483240 
3949.000000	97.483403 
3948.000000	97.483679 
3947.000000	97.483642 
3946.000000	97.483376 
3945.000000	97.483006 
3944.000000	97.482419 
3943.000000	97.481729 
3942.000000	97.481695 
3941.000000	97.483133 
3940.000000	97.485705 
3939.000000	97.487570 
3938.000000	97.487376 
3937.000000	97.485552 
3936.000000	97.483469 
3935.000000	97.481764 
3934.000000	97.480225 
3933.000000	97.479212 
3932.000000	97.479412 
3931.000000	97.480462 
3930.000000	97.481039 
3929.000000	97.480555 
3928.000000	97.480014 
3927.000000	97.480261 
3926.000000	97.480505 
3925.000000	97.479709 
3924.000000	97.478519 
3923.000000	97.478162 
3922.000000	97.478291 
3921.000000	97.477990 
3920.000000	97.477760 
3919.000000	97.478639 
3918.000000	97.480270 
3917.000000	97.481386 
3916.000000	97.481632 
3915.000000	97.481560 
3914.000000	97.481444 
3913.000000	97.481037 
3912.000000	97.480437 
3911.000000	97.479857 
3910.000000	97.479429 
3909.000000	97.479150 
3908.000000	97.478936 
3907.000000	97.478735 
3906.000000	97.478553 
3905.000000	97.478402 
3904.000000	97.478298 
3903.000000	97.478252 
3902.000000	97.478261 
3901.000000	97.478305 
3900.000000	97.478345 
3899.000000	97.478349 
3898.000000	97.478302 
3897.000000	97.478214 
3896.000000	97.478103 
3895.000000	97.477972 
3894.000000	97.477812 
3893.000000	97.477628 
3892.000000	97.477431 
3891.000000	97.477226 
3890.000000	97.477025 
3889.000000	97.476847 
3888.000000	97.476694 
3887.000000	97.476547 
3886.000000	97.476398 
3885.000000	97.476252 
3884.000000	97.476123 
3883.000000	97.476008 
3882.000000	97.475888 
3881.000000	97.475756 
3880.000000	97.475631 
3879.000000	97.475536 
3878.000000	97.475473 
3877.000000	97.475419 
3876.000000	97.475351 
3875.000000	97.475273 
3874.000000	97.475212 
3873.000000	97.475201 
3872.000000	97.475245 
3871.000000	97.475328 
3870.000000	97.475441 
3869.000000	97.475606 
3868.000000	97.475849 
3867.000000	97.476149 
3866.000000	97.476456 
3865.000000	97.476752 
3864.000000	97.477051 
3863.000000	97.477351 
3862.000000	97.477620 
3861.000000	97.477839 
3860.000000	97.478025 
3859.000000	97.478204 
3858.000000	97.478393 
3857.000000	97.478612 
3856.000000	97.478901 
3855.000000	97.479295 
3854.000000	97.479782 
3853.000000	97.480319 
3852.000000	97.480915 
3851.000000	97.481614 
3850.000000	97.482397 
3849.000000	97.483209 
3848.000000	97.484011 
3847.000000	97.484789 
3846.000000	97.485545 
3845.000000	97.486291 
3844.000000	97.487035 
3843.000000	97.487776 
3842.000000	97.488515 
3841.000000	97.489267 
3840.000000	97.490052 
3839.000000	97.490869 
3838.000000	97.491698 
3837.000000	97.492520 
3836.000000	97.493334 
3835.000000	97.494154 
3834.000000	97.494983 
3833.000000	97.495816 
3832.000000	97.496645 
3831.000000	97.497462 
3830.000000	97.498266 
3829.000000	97.499054 
3828.000000	97.499823 
3827.000000	97.500564 
3826.000000	97.501267 
3825.000000	97.501940 
3824.000000	97.502608 
3823.000000	97.503276 
3822.000000	97.503924 
3821.000000	97.504537 
3820.000000	97.505145 
3819.000000	97.505796 
3818.000000	97.506480 
3817.000000	97.507144 
3816.000000	97.507760 
3815.000000	97.508344 
3814.000000	97.508921 
3813.000000	97.509470 
3812.000000	97.509953 
3811.000000	97.510374 
3810.000000	97.510765 
3809.000000	97.511124 
3808.000000	97.511420 
3807.000000	97.511644 
3806.000000	97.511836 
3805.000000	97.512049 
3804.000000	97.512296 
3803.000000	97.512553 
3802.000000	97.512797 
3801.000000	97.513036 
3800.000000	97.513299 
3799.000000	97.513585 
3798.000000	97.513845 
3797.000000	97.514035 
3796.000000	97.514159 
3795.000000	97.514238 
3794.000000	97.514285 
3793.000000	97.514297 
3792.000000	97.514265 
3791.000000	97.514183 
3790.000000	97.514051 
3789.000000	97.513874 
3788.000000	97.513667 
3787.000000	97.513442 
3786.000000	97.513200 
3785.000000	97.512938 
3784.000000	97.512672 
3783.000000	97.512418 
3782.000000	97.512159 
3781.000000	97.511863 
3780.000000	97.511518 
3779.000000	97.511140 
3778.000000	97.510741 
3777.000000	97.510310 
3776.000000	97.509836 
3775.000000	97.509334 
3774.000000	97.508833 
3773.000000	97.508340 
3772.000000	97.507836 
3771.000000	97.507303 
3770.000000	97.506745 
3769.000000	97.506180 
3768.000000	97.505611 
3767.000000	97.505028 
3766.000000	97.504426 
3765.000000	97.503822 
3764.000000	97.503233 
3763.000000	97.502650 
3762.000000	97.502035 
3761.000000	97.501365 
3760.000000	97.500643 
3759.000000	97.499876 
3758.000000	97.499049 
3757.000000	97.498150 
3756.000000	97.497197 
3755.000000	97.496235 
3754.000000	97.495300 
3753.000000	97.494402 
3752.000000	97.493531 
3751.000000	97.492653 
3750.000000	97.491728 
3749.000000	97.490748 
3748.000000	97.489732 
3747.000000	97.488682 
3746.000000	97.487565 
3745.000000	97.486369 
3744.000000	97.484962 
3743.000000	97.483325 
3742.000000	97.482176 
3741.000000	97.481084 
3740.000000	97.478460 
3739.000000	97.474450 
3738.000000	97.471023 
3737.000000	97.468864 
3736.000000	97.466839 
3735.000000	97.465318 
3734.000000	97.465753 
3733.000000	97.466017 
3732.000000	97.462248 
3731.000000	97.455944 
3730.000000	97.452544 
3729.000000	97.452498 
3728.000000	97.450899 
3727.000000	97.445869 
3726.000000	97.441421 
3725.000000	97.441731 
3724.000000	97.444296 
3723.000000	97.443254 
3722.000000	97.437729 
3721.000000	97.431029 
3720.000000	97.425314 
3719.000000	97.418778 
3718.000000	97.409084 
3717.000000	97.398086 
3716.000000	97.390238 
3715.000000	97.386707 
3714.000000	97.384825 
3713.000000	97.383890 
3712.000000	97.383196 
3711.000000	97.377744 
3710.000000	97.365471 
3709.000000	97.349353 
3708.000000	97.331145 
3707.000000	97.311337 
3706.000000	97.291662 
3705.000000	97.274017 
3704.000000	97.258080 
3703.000000	97.241880 
3702.000000	97.222995 
3701.000000	97.201403 
3700.000000	97.182625 
3699.000000	97.171022 
3698.000000	97.162512 
3697.000000	97.151936 
3696.000000	97.141179 
3695.000000	97.134522 
3694.000000	97.129888 
3693.000000	97.121649 
3692.000000	97.109865 
3691.000000	97.098679 
3690.000000	97.087807 
3689.000000	97.071820 
3688.000000	97.052532 
3687.000000	97.041835 
3686.000000	97.042512 
3685.000000	97.041760 
3684.000000	97.030701 
3683.000000	97.013892 
3682.000000	96.997827 
3681.000000	96.980591 
3680.000000	96.957302 
3679.000000	96.932567 
3678.000000	96.914538 
3677.000000	96.900984 
3676.000000	96.878883 
3675.000000	96.843375 
3674.000000	96.814475 
3673.000000	96.805084 
3672.000000	96.797275 
3671.000000	96.776606 
3670.000000	96.747419 
3669.000000	96.719419 
3668.000000	96.700172 
3667.000000	96.686319 
3666.000000	96.669267 
3665.000000	96.647851 
3664.000000	96.625701 
3663.000000	96.603520 
3662.000000	96.578430 
3661.000000	96.549217 
3660.000000	96.519478 
3659.000000	96.494557 
3658.000000	96.474109 
3657.000000	96.450510 
3656.000000	96.416931 
3655.000000	96.381918 
3654.000000	96.357660 
3653.000000	96.336260 
3652.000000	96.304764 
3651.000000	96.269256 
3650.000000	96.241213 
3649.000000	96.215645 
3648.000000	96.185277 
3647.000000	96.157562 
3646.000000	96.143317 
3645.000000	96.140620 
3644.000000	96.137902 
3643.000000	96.126745 
3642.000000	96.108582 
3641.000000	96.088768 
3640.000000	96.067844 
3639.000000	96.041815 
3638.000000	96.010899 
3637.000000	95.983198 
3636.000000	95.961532 
3635.000000	95.936094 
3634.000000	95.898221 
3633.000000	95.856036 
3632.000000	95.824105 
3631.000000	95.804516 
3630.000000	95.789975 
3629.000000	95.765376 
3628.000000	95.729988 
3627.000000	95.714637 
3626.000000	95.722552 
3625.000000	95.721365 
3624.000000	95.701696 
3623.000000	95.678146 
3622.000000	95.659729 
3621.000000	95.643912 
3620.000000	95.629580 
3619.000000	95.621671 
3618.000000	95.627268 
3617.000000	95.651013 
3616.000000	95.686205 
3615.000000	95.719352 
3614.000000	95.744046 
3613.000000	95.763997 
3612.000000	95.786457 
3611.000000	95.812785 
3610.000000	95.835936 
3609.000000	95.849255 
3608.000000	95.854177 
3607.000000	95.857952 
3606.000000	95.865732 
3605.000000	95.876683 
3604.000000	95.889656 
3603.000000	95.906651 
3602.000000	95.926018 
3601.000000	95.939936 
3600.000000	95.943764 
3599.000000	95.941721 
3598.000000	95.940528 
3597.000000	95.945639 
3596.000000	95.958841 
3595.000000	95.975396 
3594.000000	95.986803 
3593.000000	95.988896 
3592.000000	95.983747 
3591.000000	95.975044 
3590.000000	95.967075 
3589.000000	95.965102 
3588.000000	95.971229 
3587.000000	95.981912 
3586.000000	95.995207 
3585.000000	96.010737 
3584.000000	96.024702 
3583.000000	96.035009 
3582.000000	96.043732 
3581.000000	96.052288 
3580.000000	96.058995 
3579.000000	96.061921 
3578.000000	96.061094 
3577.000000	96.058523 
3576.000000	96.056615 
3575.000000	96.055632 
3574.000000	96.053757 
3573.000000	96.048867 
3572.000000	96.040576 
3571.000000	96.030560 
3570.000000	96.021798 
3569.000000	96.017374 
3568.000000	96.019232 
3567.000000	96.026269 
3566.000000	96.035626 
3565.000000	96.045118 
3564.000000	96.051409 
3563.000000	96.052372 
3562.000000	96.050614 
3561.000000	96.050351 
3560.000000	96.052534 
3559.000000	96.054777 
3558.000000	96.054772 
3557.000000	96.052533 
3556.000000	96.050381 
3555.000000	96.050512 
3554.000000	96.052565 
3553.000000	96.053880 
3552.000000	96.052375 
3551.000000	96.048549 
3550.000000	96.043928 
3549.000000	96.039153 
3548.000000	96.035061 
3547.000000	96.033252 
3546.000000	96.033854 
3545.000000	96.035234 
3544.000000	96.036502 
3543.000000	96.038047 
3542.000000	96.039801 
3541.000000	96.040649 
3540.000000	96.039965 
3539.000000	96.038331 
3538.000000	96.036629 
3537.000000	96.035233 
3536.000000	96.033982 
3535.000000	96.032539 
3534.000000	96.030379 
3533.000000	96.027306 
3532.000000	96.024054 
3531.000000	96.021865 
3530.000000	96.020837 
3529.000000	96.019371 
3528.000000	96.016022 
3527.000000	96.011424 
3526.000000	96.007678 
3525.000000	96.005981 
3524.000000	96.005958 
3523.000000	96.006631 
3522.000000	96.007258 
3521.000000	96.007298 
3520.000000	96.006303 
3519.000000	96.004178 
3518.000000	96.001248 
3517.000000	95.997919 
3516.000000	95.994262 
3515.000000	95.990281 
3514.000000	95.986502 
3513.000000	95.983749 
3512.000000	95.982135 
3511.000000	95.980766 
3510.000000	95.978664 
3509.000000	95.975791 
3508.000000	95.972979 
3507.000000	95.970758 
3506.000000	95.968509 
3505.000000	95.965247 
3504.000000	95.961009 
3503.000000	95.956946 
3502.000000	95.954052 
3501.000000	95.952128 
3500.000000	95.950221 
3499.000000	95.947823 
3498.000000	95.945283 
3497.000000	95.943028 
3496.000000	95.940843 
3495.000000	95.938169 
3494.000000	95.934950 
3493.000000	95.931706 
3492.000000	95.928603 
3491.000000	95.925003 
3490.000000	95.920320 
3489.000000	95.914968 
3488.000000	95.910079 
3487.000000	95.906350 
3486.000000	95.903497 
3485.000000	95.900826 
3484.000000	95.897917 
3483.000000	95.894741 
3482.000000	95.891424 
3481.000000	95.888299 
3480.000000	95.885758 
3479.000000	95.883691 
3478.000000	95.881276 
3477.000000	95.877644 
3476.000000	95.872693 
3475.000000	95.867080 
3474.000000	95.861597 
3473.000000	95.856680 
3472.000000	95.852281 
3471.000000	95.848040 
3470.000000	95.843706 
3469.000000	95.839400 
3468.000000	95.835387 
3467.000000	95.831739 
3466.000000	95.828389 
3465.000000	95.825201 
3464.000000	95.821713 
3463.000000	95.817102 
3462.000000	95.810863 
3461.000000	95.803661 
3460.000000	95.797099 
3459.000000	95.792295 
3458.000000	95.788961 
3457.000000	95.785947 
3456.000000	95.782478 
3455.000000	95.778880 
3454.000000	95.775954 
3453.000000	95.773934 
3452.000000	95.772298 
3451.000000	95.770346 
3450.000000	95.767525 
3449.000000	95.763372 
3448.000000	95.757807 
3447.000000	95.751604 
3446.000000	95.746165 
3445.000000	95.742394 
3444.000000	95.739980 
3443.000000	95.737893 
3442.000000	95.735220 
3441.000000	95.731424 
3440.000000	95.726385 
3439.000000	95.720547 
3438.000000	95.714879 
3437.000000	95.710296 
3436.000000	95.707134 
3435.000000	95.705416 
3434.000000	95.704996 
3433.000000	95.705227 
3432.000000	95.705029 
3431.000000	95.703728 
3430.000000	95.701537 
3429.000000	95.699020 
3428.000000	95.696396 
3427.000000	95.693537 
3426.000000	95.690584 
3425.000000	95.688108 
3424.000000	95.686422 
3423.000000	95.684858 
3422.000000	95.682218 
3421.000000	95.678175 
3420.000000	95.673831 
3419.000000	95.670567 
3418.000000	95.668611 
3417.000000	95.667252 
3416.000000	95.666043 
3415.000000	95.665049 
3414.000000	95.663996 
3413.000000	95.662030 
3412.000000	95.658720 
3411.000000	95.654822 
3410.000000	95.651670 
3409.000000	95.650002 
3408.000000	95.649547 
3407.000000	95.649329 
3406.000000	95.648327 
3405.000000	95.646135 
3404.000000	95.643059 
3403.000000	95.639541 
3402.000000	95.635788 
3401.000000	95.632225 
3400.000000	95.629798 
3399.000000	95.629184 
3398.000000	95.629901 
3397.000000	95.630686 
3396.000000	95.630762 
3395.000000	95.630305 
3394.000000	95.629822 
3393.000000	95.629583 
3392.000000	95.629587 
3391.000000	95.629630 
3390.000000	95.629387 
3389.000000	95.628735 
3388.000000	95.628082 
3387.000000	95.628008 
3386.000000	95.628475 
3385.000000	95.628625 
3384.000000	95.627533 
3383.000000	95.625212 
3382.000000	95.622896 
3381.000000	95.622152 
3380.000000	95.623451 
3379.000000	95.625683 
3378.000000	95.627309 
3377.000000	95.628130 
3376.000000	95.629230 
3375.000000	95.631122 
3374.000000	95.632727 
3373.000000	95.632625 
3372.000000	95.630800 
3371.000000	95.628733 
3370.000000	95.627924 
3369.000000	95.628676 
3368.000000	95.630352 
3367.000000	95.632223 
3366.000000	95.633916 
3365.000000	95.635364 
3364.000000	95.636633 
3363.000000	95.637773 
3362.000000	95.638724 
3361.000000	95.639429 
3360.000000	95.640067 
3359.000000	95.641010 
3358.000000	95.642446 
3357.000000	95.644139 
3356.000000	95.645657 
3355.000000	95.646784 
3354.000000	95.647693 
3353.000000	95.648748 
3352.000000	95.650213 
3351.000000	95.652107 
3350.000000	95.654229 
3349.000000	95.656239 
3348.000000	95.657812 
3347.000000	95.658875 
3346.000000	95.659707 
3345.000000	95.660744 
3344.000000	95.662140 
3343.000000	95.663608 
3342.000000	95.664769 
3341.000000	95.665606 
3340.000000	95.666455 
3339.000000	95.667576 
3338.000000	95.668979 
3337.000000	95.670589 
3336.000000	95.672393 
3335.000000	95.674384 
3334.000000	95.676413 
3333.000000	95.678239 
3332.000000	95.679720 
3331.000000	95.680888 
3330.000000	95.681854 
3329.000000	95.682743 
3328.000000	95.683671 
3327.000000	95.684749 
3326.000000	95.686037 
3325.000000	95.687491 
3324.000000	95.688971 
3323.000000	95.690339 
3322.000000	95.691584 
3321.000000	95.692832 
3320.000000	95.694199 
3319.000000	95.695668 
3318.000000	95.697138 
3317.000000	95.698549 
3316.000000	95.699912 
3315.000000	95.701219 
3314.000000	95.702416 
3313.000000	95.703472 
3312.000000	95.704454 
3311.000000	95.705467 
3310.000000	95.706582 
3309.000000	95.707792 
3308.000000	95.709026 
3307.000000	95.710190 
3306.000000	95.711247 
3305.000000	95.712269 
3304.000000	95.713380 
3303.000000	95.714640 
3302.000000	95.716011 
3301.000000	95.717400 
3300.000000	95.718718 
3299.000000	95.719915 
3298.000000	95.720983 
3297.000000	95.721961 
3296.000000	95.722965 
3295.000000	95.724116 
3294.000000	95.725446 
3293.000000	95.726888 
3292.000000	95.728345 
3291.000000	95.729776 
3290.000000	95.731178 
3289.000000	95.732550 
3288.000000	95.733892 
3287.000000	95.735214 
3286.000000	95.736520 
3285.000000	95.737807 
3284.000000	95.739077 
3283.000000	95.740354 
3282.000000	95.741681 
3281.000000	95.743082 
3280.000000	95.744528 
3279.000000	95.745943 
3278.000000	95.747275 
3277.000000	95.748566 
3276.000000	95.749934 
3275.000000	95.751435 
3274.000000	95.752985 
3273.000000	95.754470 
3272.000000	95.755926 
3271.000000	95.757520 
3270.000000	95.759353 
3269.000000	95.761306 
3268.000000	95.763111 
3267.000000	95.764599 
3266.000000	95.765867 
3265.000000	95.767273 
3264.000000	95.769141 
3263.000000	95.771435 
3262.000000	95.773740 
3261.000000	95.775711 
3260.000000	95.777404 
3259.000000	95.779014 
3258.000000	95.780467 
3257.000000	95.781625 
3256.000000	95.782808 
3255.000000	95.784559 
3254.000000	95.786808 
3253.000000	95.788804 
3252.000000	95.790106 
3251.000000	95.791164 
3250.000000	95.792616 
3249.000000	95.794476 
3248.000000	95.796421 
3247.000000	95.798481 
3246.000000	95.800889 
3245.000000	95.803386 
3244.000000	95.805275 
3243.000000	95.806256 
3242.000000	95.806876 
3241.000000	95.807979 
3240.000000	95.809929 
3239.000000	95.812547 
3238.000000	95.815619 
3237.000000	95.819157 
3236.000000	95.823134 
3235.000000	95.827167 
3234.000000	95.830658 
3233.000000	95.833331 
3232.000000	95.835493 
3231.000000	95.837738 
3230.000000	95.840405 
3229.000000	95.843317 
3228.000000	95.846142 
3227.000000	95.849028 
3226.000000	95.852687 
3225.000000	95.857603 
3224.000000	95.863195 
3223.000000	95.868146 
3222.000000	95.871678 
3221.000000	95.874203 
3220.000000	95.876604 
3219.000000	95.879259 
3218.000000	95.882144 
3217.000000	95.885300 
3216.000000	95.888754 
3215.000000	95.892346 
3214.000000	95.896015 
3213.000000	95.899964 
3212.000000	95.904195 
3211.000000	95.908223 
3210.000000	95.911703 
3209.000000	95.915100 
3208.000000	95.919222 
3207.000000	95.924183 
3206.000000	95.929280 
3205.000000	95.933914 
3204.000000	95.938230 
3203.000000	95.942692 
3202.000000	95.947371 
3201.000000	95.951867 
3200.000000	95.955810 
3199.000000	95.959272 
3198.000000	95.962684 
3197.000000	95.966378 
3196.000000	95.970251 
3195.000000	95.974008 
3194.000000	95.977739 
3193.000000	95.981990 
3192.000000	95.987147 
3191.000000	95.992892 
3190.000000	95.998373 
3189.000000	96.003002 
3188.000000	96.006886 
3187.000000	96.010610 
3186.000000	96.014761 
3185.000000	96.019536 
3184.000000	96.024699 
3183.000000	96.029889 
3182.000000	96.035002 
3181.000000	96.040102 
3180.000000	96.045129 
3179.000000	96.049910 
3178.000000	96.054449 
3177.000000	96.058997 
3176.000000	96.063780 
3175.000000	96.068779 
3174.000000	96.073842 
3173.000000	96.078840 
3172.000000	96.083714 
3171.000000	96.088453 
3170.000000	96.093108 
3169.000000	96.097769 
3168.000000	96.102488 
3167.000000	96.107246 
3166.000000	96.112013 
3165.000000	96.116781 
3164.000000	96.121555 
3163.000000	96.126330 
3162.000000	96.131104 
3161.000000	96.135878 
3160.000000	96.140655 
3159.000000	96.145439 
3158.000000	96.150232 
3157.000000	96.155035 
3156.000000	96.159843 
3155.000000	96.164652 
3154.000000	96.169459 
3153.000000	96.174265 
3152.000000	96.179076 
3151.000000	96.183894 
3150.000000	96.188713 
3149.000000	96.193530 
3148.000000	96.198346 
3147.000000	96.203172 
3146.000000	96.208018 
3145.000000	96.212887 
3144.000000	96.217772 
3143.000000	96.222656 
3142.000000	96.227528 
3141.000000	96.232385 
3140.000000	96.237235 
3139.000000	96.242089 
3138.000000	96.246955 
3137.000000	96.251834 
3136.000000	96.256738 
3135.000000	96.261652 
3134.000000	96.266532 
3133.000000	96.271329 
3132.000000	96.276070 
3131.000000	96.280874 
3130.000000	96.285826 
3129.000000	96.290893 
3128.000000	96.295975 
3127.000000	96.301060 
3126.000000	96.306222 
3125.000000	96.311469 
3124.000000	96.316614 
3123.000000	96.321405 
3122.000000	96.325749 
3121.000000	96.329868 
3120.000000	96.334167 
3119.000000	96.338878 
3118.000000	96.343913 
3117.000000	96.349068 
3116.000000	96.354330 
3115.000000	96.359828 
3114.000000	96.365555 
3113.000000	96.371275 
3112.000000	96.376770 
3111.000000	96.382057 
3110.000000	96.387323 
3109.000000	96.392692 
3108.000000	96.398169 
3107.000000	96.403743 
3106.000000	96.409341 
3105.000000	96.414661 
3104.000000	96.419274 
3103.000000	96.422969 
3102.000000	96.425992 
3101.000000	96.428893 
3100.000000	96.432152 
3099.000000	96.436032 
3098.000000	96.440697 
3097.000000	96.446202 
3096.000000	96.452184 
3095.000000	96.457751 
3094.000000	96.462172 
3093.000000	96.465627 
3092.000000	96.469090 
3091.000000	96.473289 
3090.000000	96.478023 
3089.000000	96.482583 
3088.000000	96.486551 
3087.000000	96.490150 
3086.000000	96.494003 
3085.000000	96.498578 
3084.000000	96.503725 
3083.000000	96.508744 
3082.000000	96.513085 
3081.000000	96.516873 
3080.000000	96.520664 
3079.000000	96.524733 
3078.000000	96.528907 
3077.000000	96.533117 
3076.000000	96.537638 
3075.000000	96.542501 
3074.000000	96.547134 
3073.000000	96.551053 
3072.000000	96.554590 
3071.000000	96.558396 
3070.000000	96.562489 
3069.000000	96.566459 
3068.000000	96.570383 
3067.000000	96.574695 
3066.000000	96.579201 
3065.000000	96.583104 
3064.000000	96.586149 
3063.000000	96.588887 
3062.000000	96.591673 
3061.000000	96.594211 
3060.000000	96.596345 
3059.000000	96.598633 
3058.000000	96.601827 
3057.000000	96.606228 
3056.000000	96.611511 
3055.000000	96.616607 
3054.000000	96.619947 
3053.000000	96.620784 
3052.000000	96.620585 
3051.000000	96.622199 
3050.000000	96.626959 
3049.000000	96.633296 
3048.000000	96.638524 
3047.000000	96.641437 
3046.000000	96.642529 
3045.000000	96.642633 
3044.000000	96.642469 
3043.000000	96.643216 
3042.000000	96.646376 
3041.000000	96.652364 
3040.000000	96.659385 
3039.000000	96.664378 
3038.000000	96.665464 
3037.000000	96.663415 
3036.000000	96.660836 
3035.000000	96.659713 
3034.000000	96.660014 
3033.000000	96.660719 
3032.000000	96.661404 
3031.000000	96.662375 
3030.000000	96.663785 
3029.000000	96.665291 
3028.000000	96.666296 
3027.000000	96.666065 
3026.000000	96.664042 
3025.000000	96.660746 
3024.000000	96.657980 
3023.000000	96.657099 
3022.000000	96.657284 
3021.000000	96.656715 
3020.000000	96.655331 
3019.000000	96.654974 
3018.000000	96.656451 
3017.000000	96.657874 
3016.000000	96.656814 
3015.000000	96.653170 
3014.000000	96.649197 
3013.000000	96.647270 
3012.000000	96.648029 
3011.000000	96.650129 
3010.000000	96.651366 
3009.000000	96.650422 
3008.000000	96.647565 
3007.000000	96.643473 
3006.000000	96.637871 
3005.000000	96.630357 
3004.000000	96.622335 
3003.000000	96.616658 
3002.000000	96.615078 
3001.000000	96.617031 
3000.000000	96.620835 
2999.000000	96.624675 
2998.000000	96.626484 
2997.000000	96.624702 
2996.000000	96.619909 
2995.000000	96.614510 
2994.000000	96.609935 
2993.000000	96.605227 
2992.000000	96.599046 
2991.000000	96.591870 
2990.000000	96.585398 
2989.000000	96.580866 
2988.000000	96.578941 
2987.000000	96.580291 
2986.000000	96.585073 
2985.000000	96.592238 
2984.000000	96.600115 
2983.000000	96.607558 
2982.000000	96.614135 
2981.000000	96.619662 
2980.000000	96.623990 
2979.000000	96.626866 
2978.000000	96.627872 
2977.000000	96.627159 
2976.000000	96.626448 
2975.000000	96.628298 
2974.000000	96.633801 
2973.000000	96.641626 
2972.000000	96.649574 
2971.000000	96.656361 
2970.000000	96.661623 
2969.000000	96.665407 
2968.000000	96.668571 
2967.000000	96.672753 
2966.000000	96.678920 
2965.000000	96.686309 
2964.000000	96.693400 
2963.000000	96.699490 
2962.000000	96.704779 
2961.000000	96.709604 
2960.000000	96.714425 
2959.000000	96.720142 
2958.000000	96.727520 
2957.000000	96.736165 
2956.000000	96.744388 
2955.000000	96.750126 
2954.000000	96.752307 
2953.000000	96.752018 
2952.000000	96.752336 
2951.000000	96.755999 
2950.000000	96.762686 
2949.000000	96.769335 
2948.000000	96.773511 
2947.000000	96.775670 
2946.000000	96.777809 
2945.000000	96.780955 
2944.000000	96.784821 
2943.000000	96.789007 
2942.000000	96.793182 
2941.000000	96.796511 
2940.000000	96.798247 
2939.000000	96.799089 
2938.000000	96.800893 
2937.000000	96.804613 
2936.000000	96.809172 
2935.000000	96.812625 
2934.000000	96.813852 
2933.000000	96.812934 
2932.000000	96.810715 
2931.000000	96.808589 
2930.000000	96.808257 
2929.000000	96.810905 
2928.000000	96.816215 
2927.000000	96.822262 
2926.000000	96.826763 
2925.000000	96.828918 
2924.000000	96.830147 
2923.000000	96.832758 
2922.000000	96.837543 
2921.000000	96.842856 
2920.000000	96.846391 
2919.000000	96.847622 
2918.000000	96.847939 
2917.000000	96.848515 
2916.000000	96.848727 
2915.000000	96.847229 
2914.000000	96.844151 
2913.000000	96.841464 
2912.000000	96.840949 
2911.000000	96.842319 
2910.000000	96.843762 
2909.000000	96.844219 
2908.000000	96.844505 
2907.000000	96.845861 
2906.000000	96.847988 
2905.000000	96.849062 
2904.000000	96.847696 
2903.000000	96.844705 
2902.000000	96.842807 
2901.000000	96.844608 
2900.000000	96.850685 
2899.000000	96.859289 
2898.000000	96.867700 
2897.000000	96.874248 
2896.000000	96.879007 
2895.000000	96.882680 
2894.000000	96.885646 
2893.000000	96.888320 
2892.000000	96.891556 
2891.000000	96.895733 
2890.000000	96.899913 
2889.000000	96.902968 
2888.000000	96.905208 
2887.000000	96.907627 
2886.000000	96.909797 
2885.000000	96.910252 
2884.000000	96.909447 
2883.000000	96.910402 
2882.000000	96.915177 
2881.000000	96.922223 
2880.000000	96.928619 
2879.000000	96.934095 
2878.000000	96.940725 
2877.000000	96.948991 
2876.000000	96.956401 
2875.000000	96.960595 
2874.000000	96.962148 
2873.000000	96.963464 
2872.000000	96.966000 
2871.000000	96.969516 
2870.000000	96.973367 
2869.000000	96.977279 
2868.000000	96.981016 
2867.000000	96.984305 
2866.000000	96.987246 
2865.000000	96.990228 
2864.000000	96.993458 
2863.000000	96.997138 
2862.000000	97.001992 
2861.000000	97.008764 
2860.000000	97.016934 
2859.000000	97.024715 
2858.000000	97.030936 
2857.000000	97.036499 
2856.000000	97.043232 
2855.000000	97.051416 
2854.000000	97.059172 
2853.000000	97.064485 
2852.000000	97.067134 
2851.000000	97.068445 
2850.000000	97.069808 
2849.000000	97.071816 
2848.000000	97.074443 
2847.000000	97.077286 
2846.000000	97.079608 
2845.000000	97.080808 
2844.000000	97.081132 
2843.000000	97.081660 
2842.000000	97.083401 
2841.000000	97.086381 
2840.000000	97.089627 
2839.000000	97.091979 
2838.000000	97.093065 
2837.000000	97.093683 
2836.000000	97.095166 
2835.000000	97.098249 
2834.000000	97.102662 
2833.000000	97.107800 
2832.000000	97.113335 
2831.000000	97.118825 
2830.000000	97.123229 
2829.000000	97.125607 
2828.000000	97.126318 
2827.000000	97.126975 
2826.000000	97.129048 
2825.000000	97.132739 
2824.000000	97.137104 
2823.000000	97.140749 
2822.000000	97.142576 
2821.000000	97.142560 
2820.000000	97.141987 
2819.000000	97.142370 
2818.000000	97.143853 
2817.000000	97.145226 
2816.000000	97.145635 
2815.000000	97.145626 
2814.000000	97.146192 
2813.000000	97.147406 
2812.000000	97.148558 
2811.000000	97.149288 
2810.000000	97.150030 
2809.000000	97.151424 
2808.000000	97.153716 
2807.000000	97.156740 
2806.000000	97.160095 
2805.000000	97.163252 
2804.000000	97.165717 
2803.000000	97.167291 
2802.000000	97.168212 
2801.000000	97.169085 
2800.000000	97.170518 
2799.000000	97.172673 
2798.000000	97.175139 
2797.000000	97.177261 
2796.000000	97.178734 
2795.000000	97.179785 
2794.000000	97.180861 
2793.000000	97.182197 
2792.000000	97.183738 
2791.000000	97.185343 
2790.000000	97.186918 
2789.000000	97.188430 
2788.000000	97.189896 
2787.000000	97.191386 
2786.000000	97.192954 
2785.000000	97.194584 
2784.000000	97.196208 
2783.000000	97.197787 
2782.000000	97.199340 
2781.000000	97.200899 
2780.000000	97.202472 
2779.000000	97.204053 
2778.000000	97.205634 
2777.000000	97.207205 
2776.000000	97.208758 
2775.000000	97.210292 
2774.000000	97.211813 
2773.000000	97.213322 
2772.000000	97.214820 
2771.000000	97.216303 
2770.000000	97.217772 
2769.000000	97.219231 
2768.000000	97.220680 
2767.000000	97.222119 
2766.000000	97.223542 
2765.000000	97.224945 
2764.000000	97.226329 
2763.000000	97.227694 
2762.000000	97.229046 
2761.000000	97.230388 
2760.000000	97.231718 
2759.000000	97.233042 
2758.000000	97.234365 
2757.000000	97.235685 
2756.000000	97.236976 
2755.000000	97.238226 
2754.000000	97.239450 
2753.000000	97.240694 
2752.000000	97.241981 
2751.000000	97.243294 
2750.000000	97.244590 
2749.000000	97.245846 
2748.000000	97.247067 
2747.000000	97.248235 
2746.000000	97.249324 
2745.000000	97.250354 
2744.000000	97.251389 
2743.000000	97.252473 
2742.000000	97.253603 
2741.000000	97.254745 
2740.000000	97.255869 
2739.000000	97.256964 
2738.000000	97.258031 
2737.000000	97.259070 
2736.000000	97.260092 
2735.000000	97.261133 
2734.000000	97.262221 
2733.000000	97.263351 
2732.000000	97.264492 
2731.000000	97.265629 
2730.000000	97.266765 
2729.000000	97.267903 
2728.000000	97.269037 
2727.000000	97.270151 
2726.000000	97.271237 
2725.000000	97.272301 
2724.000000	97.273358 
2723.000000	97.274415 
2722.000000	97.275471 
2721.000000	97.276526 
2720.000000	97.277576 
2719.000000	97.278622 
2718.000000	97.279665 
2717.000000	97.280707 
2716.000000	97.281748 
2715.000000	97.282788 
2714.000000	97.283826 
2713.000000	97.284862 
2712.000000	97.285893 
2711.000000	97.286910 
2710.000000	97.287911 
2709.000000	97.288894 
2708.000000	97.289865 
2707.000000	97.290827 
2706.000000	97.291780 
2705.000000	97.292718 
2704.000000	97.293635 
2703.000000	97.294532 
2702.000000	97.295408 
2701.000000	97.296267 
2700.000000	97.297114 
2699.000000	97.297951 
2698.000000	97.298771 
2697.000000	97.299555 
2696.000000	97.300289 
2695.000000	97.300976 
2694.000000	97.301632 
2693.000000	97.302264 
2692.000000	97.302872 
2691.000000	97.303451 
2690.000000	97.304003 
2689.000000	97.304530 
2688.000000	97.305036 
2687.000000	97.305517 
2686.000000	97.305973 
2685.000000	97.306398 
2684.000000	97.306792 
2683.000000	97.307153 
2682.000000	97.307477 
2681.000000	97.307763 
2680.000000	97.308009 
2679.000000	97.308215 
2678.000000	97.308388 
2677.000000	97.308537 
2676.000000	97.308664 
2675.000000	97.308758 
2674.000000	97.308803 
2673.000000	97.308796 
2672.000000	97.308753 
2671.000000	97.308696 
2670.000000	97.308630 
2669.000000	97.308544 
2668.000000	97.308430 
2667.000000	97.308295 
2666.000000	97.308148 
2665.000000	97.307990 
2664.000000	97.307826 
2663.000000	97.307674 
2662.000000	97.307552 
2661.000000	97.307457 
2660.000000	97.307357 
2659.000000	97.307218 
2658.000000	97.307023 
2657.000000	97.306787 
2656.000000	97.306549 
2655.000000	97.306334 
2654.000000	97.306140 
2653.000000	97.305941 
2652.000000	97.305721 
2651.000000	97.305487 
2650.000000	97.305281 
2649.000000	97.305144 
2648.000000	97.305079 
2647.000000	97.305024 
2646.000000	97.304889 
2645.000000	97.304603 
2644.000000	97.304142 
2643.000000	97.303591 
2642.000000	97.303146 
2641.000000	97.302989 
2640.000000	97.303143 
2639.000000	97.303438 
2638.000000	97.303678 
2637.000000	97.303795 
2636.000000	97.303837 
2635.000000	97.303909 
2634.000000	97.304099 
2633.000000	97.304409 
2632.000000	97.304736 
2631.000000	97.304950 
2630.000000	97.305022 
2629.000000	97.305055 
2628.000000	97.305179 
2627.000000	97.305426 
2626.000000	97.305761 
2625.000000	97.306174 
2624.000000	97.306665 
2623.000000	97.307135 
2622.000000	97.307393 
2621.000000	97.307352 
2620.000000	97.307172 
2619.000000	97.307138 
2618.000000	97.307409 
2617.000000	97.307944 
2616.000000	97.308645 
2615.000000	97.309419 
2614.000000	97.310141 
2613.000000	97.310675 
2612.000000	97.311002 
2611.000000	97.311289 
2610.000000	97.311757 
2609.000000	97.312453 
2608.000000	97.313230 
2607.000000	97.313955 
2606.000000	97.314722 
2605.000000	97.315764 
2604.000000	97.317115 
2603.000000	97.318394 
2602.000000	97.319075 
2601.000000	97.319032 
2600.000000	97.318583 
2599.000000	97.318142 
2598.000000	97.317931 
2597.000000	97.318002 
2596.000000	97.318363 
2595.000000	97.318902 
2594.000000	97.319379 
2593.000000	97.319770 
2592.000000	97.320419 
2591.000000	97.321596 
2590.000000	97.323016 
2589.000000	97.324037 
2588.000000	97.324425 
2587.000000	97.324654 
2586.000000	97.325393 
2585.000000	97.326796 
2584.000000	97.328407 
2583.000000	97.329616 
2582.000000	97.330149 
2581.000000	97.330147 
2580.000000	97.329983 
2579.000000	97.330014 
2578.000000	97.330396 
2577.000000	97.331048 
2576.000000	97.331749 
2575.000000	97.332295 
2574.000000	97.332612 
2573.000000	97.332782 
2572.000000	97.332956 
2571.000000	97.333175 
2570.000000	97.333309 
2569.000000	97.333273 
2568.000000	97.333276 
2567.000000	97.333665 
2566.000000	97.334463 
2565.000000	97.335208 
2564.000000	97.335411 
2563.000000	97.335077 
2562.000000	97.334707 
2561.000000	97.334837 
2560.000000	97.335680 
2559.000000	97.337149 
2558.000000	97.338895 
2557.000000	97.340382 
2556.000000	97.341212 
2555.000000	97.341431 
2554.000000	97.341490 
2553.000000	97.341777 
2552.000000	97.342285 
2551.000000	97.342871 
2550.000000	97.343552 
2549.000000	97.344323 
2548.000000	97.344873 
2547.000000	97.344855 
2546.000000	97.344409 
2545.000000	97.344110 
2544.000000	97.344239 
2543.000000	97.344482 
2542.000000	97.344457 
2541.000000	97.344321 
2540.000000	97.344591 
2539.000000	97.345469 
2538.000000	97.346636 
2537.000000	97.347631 
2536.000000	97.348314 
2535.000000	97.348835 
2534.000000	97.349296 
2533.000000	97.349614 
2532.000000	97.349732 
2531.000000	97.349786 
2530.000000	97.349972 
2529.000000	97.350292 
2528.000000	97.350562 
2527.000000	97.350686 
2526.000000	97.350870 
2525.000000	97.351430 
2524.000000	97.352448 
2523.000000	97.353703 
2522.000000	97.354855 
2521.000000	97.355690 
2520.000000	97.356209 
2519.000000	97.356543 
2518.000000	97.356836 
2517.000000	97.357168 
2516.000000	97.357551 
2515.000000	97.357970 
2514.000000	97.358433 
2513.000000	97.358976 
2512.000000	97.359597 
2511.000000	97.360253 
2510.000000	97.360894 
2509.000000	97.361499 
2508.000000	97.362067 
2507.000000	97.362612 
2506.000000	97.363152 
2505.000000	97.363696 
2504.000000	97.364247 
2503.000000	97.364802 
2502.000000	97.365353 
2501.000000	97.365890 
2500.000000	97.366411 
2499.000000	97.366925 
2498.000000	97.367436 
2497.000000	97.367942 
2496.000000	97.368439 
2495.000000	97.368923 
2494.000000	97.369393 
2493.000000	97.369847 
2492.000000	97.370282 
2491.000000	97.370699 
2490.000000	97.371098 
2489.000000	97.371478 
2488.000000	97.371832 
2487.000000	97.372155 
2486.000000	97.372446 
2485.000000	97.372707 
2484.000000	97.372945 
2483.000000	97.373179 
2482.000000	97.373431 
2481.000000	97.373687 
2480.000000	97.373889 
2479.000000	97.373996 
2478.000000	97.374055 
2477.000000	97.374183 
2476.000000	97.374438 
2475.000000	97.374727 
2474.000000	97.374852 
2473.000000	97.374679 
2472.000000	97.374266 
2471.000000	97.373845 
2470.000000	97.373689 
2469.000000	97.373973 
2468.000000	97.374616 
2467.000000	97.375174 
2466.000000	97.375107 
2465.000000	97.374287 
2464.000000	97.373263 
2463.000000	97.372846 
2462.000000	97.373407 
2461.000000	97.374721 
2460.000000	97.376347 
2459.000000	97.377993 
2458.000000	97.379327 
2457.000000	97.379767 
2456.000000	97.378819 
2455.000000	97.376618 
2454.000000	97.374031 
2453.000000	97.371953 
2452.000000	97.370566 
2451.000000	97.369491 
2450.000000	97.368717 
2449.000000	97.368978 
2448.000000	97.370814 
2447.000000	97.373501 
2446.000000	97.375417 
2445.000000	97.375631 
2444.000000	97.374656 
2443.000000	97.373626 
2442.000000	97.373209 
2441.000000	97.373519 
2440.000000	97.374576 
2439.000000	97.376416 
2438.000000	97.378984 
2437.000000	97.382208 
2436.000000	97.385886 
2435.000000	97.389280 
2434.000000	97.391240 
2433.000000	97.391163 
2432.000000	97.389626 
2431.000000	97.387750 
2430.000000	97.386297 
2429.000000	97.385670 
2428.000000	97.386232 
2427.000000	97.387987 
2426.000000	97.390098 
2425.000000	97.391178 
2424.000000	97.390368 
2423.000000	97.388245 
2422.000000	97.386508 
2421.000000	97.386723 
2420.000000	97.389195 
2419.000000	97.392577 
2418.000000	97.395003 
2417.000000	97.396104 
2416.000000	97.397375 
2415.000000	97.400107 
2414.000000	97.403924 
2413.000000	97.407907 
2412.000000	97.411940 
2411.000000	97.415653 
2410.000000	97.417373 
2409.000000	97.416043 
2408.000000	97.413405 
2407.000000	97.412242 
2406.000000	97.412763 
2405.000000	97.412629 
2404.000000	97.410478 
2403.000000	97.407580 
2402.000000	97.405883 
2401.000000	97.406267 
2400.000000	97.408979 
2399.000000	97.413951 
2398.000000	97.420092 
2397.000000	97.425541 
2396.000000	97.429090 
2395.000000	97.430387 
2394.000000	97.429053 
2393.000000	97.425314 
2392.000000	97.421477 
2391.000000	97.421125 
2390.000000	97.425777 
2389.000000	97.433675 
2388.000000	97.442184 
2387.000000	97.450196 
2386.000000	97.457789 
2385.000000	97.464547 
2384.000000	97.469339 
2383.000000	97.470823 
2382.000000	97.467530 
2381.000000	97.458610 
2380.000000	97.445124 
2379.000000	97.429868 
2378.000000	97.415248 
2377.000000	97.402359 
2376.000000	97.392912 
2375.000000	97.390041 
2374.000000	97.395087 
2373.000000	97.404681 
2372.000000	97.413311 
2371.000000	97.418716 
2370.000000	97.422264 
2369.000000	97.424769 
2368.000000	97.425283 
2367.000000	97.423699 
2366.000000	97.421535 
2365.000000	97.419787 
2364.000000	97.418250 
2363.000000	97.416956 
2362.000000	97.416779 
2361.000000	97.418035 
2360.000000	97.419773 
2359.000000	97.421057 
2358.000000	97.421286 
2357.000000	97.420291 
2356.000000	97.418489 
2355.000000	97.416585 
2354.000000	97.414943 
2353.000000	97.414048 
2352.000000	97.414381 
2351.000000	97.415497 
2350.000000	97.416477 
2349.000000	97.416919 
2348.000000	97.417125 
2347.000000	97.417407 
2346.000000	97.417867 
2345.000000	97.418452 
2344.000000	97.419155 
2343.000000	97.419959 
2342.000000	97.420835 
2341.000000	97.421779 
2340.000000	97.422810 
2339.000000	97.423943 
2338.000000	97.425172 
2337.000000	97.426482 
2336.000000	97.427855 
2335.000000	97.429267 
2334.000000	97.430678 
2333.000000	97.432044 
2332.000000	97.433332 
2331.000000	97.434542 
2330.000000	97.435722 
2329.000000	97.436898 
2328.000000	97.438082 
2327.000000	97.439322 
2326.000000	97.440550 
2325.000000	97.441490 
2324.000000	97.442210 
2323.000000	97.443198 
2322.000000	97.444557 
2321.000000	97.445440 
2320.000000	97.445537 
2319.000000	97.445790 
2318.000000	97.447066 
2317.000000	97.448147 
2316.000000	97.447337 
2315.000000	97.444762 
2314.000000	97.442781 
2313.000000	97.443394 
2312.000000	97.447519 
2311.000000	97.454765 
2310.000000	97.462857 
2309.000000	97.467799 
2308.000000	97.467779 
2307.000000	97.465367 
2306.000000	97.464113 
2305.000000	97.464652 
2304.000000	97.466086 
2303.000000	97.468638 
2302.000000	97.473505 
2301.000000	97.479414 
2300.000000	97.482553 
2299.000000	97.479380 
2298.000000	97.470052 
2297.000000	97.456569 
2296.000000	97.441982 
2295.000000	97.429318 
2294.000000	97.420687 
2293.000000	97.415492 
2292.000000	97.411748 
2291.000000	97.408109 
2290.000000	97.404431 
2289.000000	97.400620 
2288.000000	97.396170 
2287.000000	97.390885 
2286.000000	97.385112 
2285.000000	97.379700 
2284.000000	97.375594 
2283.000000	97.373368 
2282.000000	97.372124 
2281.000000	97.369851 
2280.000000	97.365268 
2279.000000	97.359121 
2278.000000	97.353298 
2277.000000	97.349437 
2276.000000	97.348526 
2275.000000	97.350484 
2274.000000	97.354036 
2273.000000	97.358033 
2272.000000	97.362731 
2271.000000	97.368137 
2270.000000	97.371917 
2269.000000	97.371308 
2268.000000	97.367010 
2267.000000	97.362586 
2266.000000	97.360041 
2265.000000	97.358236 
2264.000000	97.355659 
2263.000000	97.352256 
2262.000000	97.348343 
2261.000000	97.344024 
2260.000000	97.340062 
2259.000000	97.337537 
2258.000000	97.336352 
2257.000000	97.335502 
2256.000000	97.334714 
2255.000000	97.334550 
2254.000000	97.334957 
2253.000000	97.334858 
2252.000000	97.333491 
2251.000000	97.331194 
2250.000000	97.328633 
2249.000000	97.326157 
2248.000000	97.324002 
2247.000000	97.322388 
2246.000000	97.321181 
2245.000000	97.320007 
2244.000000	97.318680 
2243.000000	97.317302 
2242.000000	97.315969 
2241.000000	97.314681 
2240.000000	97.313440 
2239.000000	97.312237 
2238.000000	97.311048 
2237.000000	97.309846 
2236.000000	97.308609 
2235.000000	97.307329 
2234.000000	97.306012 
2233.000000	97.304669 
2232.000000	97.303312 
2231.000000	97.301949 
2230.000000	97.300582 
2229.000000	97.299213 
2228.000000	97.297847 
2227.000000	97.296497 
2226.000000	97.295173 
2225.000000	97.293864 
2224.000000	97.292553 
2223.000000	97.291236 
2222.000000	97.289930 
2221.000000	97.288654 
2220.000000	97.287408 
2219.000000	97.286179 
2218.000000	97.284951 
2217.000000	97.283718 
2216.000000	97.282483 
2215.000000	97.281250 
2214.000000	97.280018 
2213.000000	97.278791 
2212.000000	97.277584 
2211.000000	97.276426 
2210.000000	97.275337 
2209.000000	97.274311 
2208.000000	97.273326 
2207.000000	97.272356 
2206.000000	97.271377 
2205.000000	97.270328 
2204.000000	97.269229 
2203.000000	97.268408 
2202.000000	97.268357 
2201.000000	97.268954 
2200.000000	97.269099 
2199.000000	97.267645 
2198.000000	97.264459 
2197.000000	97.260686 
2196.000000	97.257977 
2195.000000	97.257116 
2194.000000	97.257280 
2193.000000	97.257044 
2192.000000	97.256251 
2191.000000	97.255845 
2190.000000	97.255698 
2189.000000	97.254301 
2188.000000	97.251374 
2187.000000	97.248704 
2186.000000	97.247008 
2185.000000	97.244379 
2184.000000	97.240262 
2183.000000	97.238629 
2182.000000	97.243364 
2181.000000	97.251735 
2180.000000	97.256089 
2179.000000	97.252618 
2178.000000	97.245097 
2177.000000	97.240308 
2176.000000	97.241994 
2175.000000	97.249490 
2174.000000	97.259398 
2173.000000	97.267995 
2172.000000	97.273958 
2171.000000	97.278528 
2170.000000	97.281653 
2169.000000	97.279689 
2168.000000	97.269851 
2167.000000	97.255871 
2166.000000	97.245167 
2165.000000	97.239790 
2164.000000	97.234523 
2163.000000	97.225670 
2162.000000	97.218342 
2161.000000	97.221696 
2160.000000	97.239157 
2159.000000	97.265238 
2158.000000	97.290289 
2157.000000	97.308135 
2156.000000	97.318947 
2155.000000	97.325941 
2154.000000	97.331306 
2153.000000	97.335735 
2152.000000	97.340004 
2151.000000	97.344288 
2150.000000	97.346371 
2149.000000	97.343943 
2148.000000	97.339347 
2147.000000	97.338459 
2146.000000	97.343383 
2145.000000	97.349953 
2144.000000	97.354542 
2143.000000	97.359231 
2142.000000	97.366866 
2141.000000	97.374824 
2140.000000	97.378521 
2139.000000	97.379079 
2138.000000	97.382543 
2137.000000	97.391820 
2136.000000	97.402969 
2135.000000	97.409474 
2134.000000	97.407602 
2133.000000	97.398683 
2132.000000	97.388961 
2131.000000	97.385845 
2130.000000	97.391696 
2129.000000	97.401497 
2128.000000	97.408058 
2127.000000	97.409065 
2126.000000	97.407429 
2125.000000	97.406361 
2124.000000	97.406443 
2123.000000	97.406794 
2122.000000	97.406411 
2121.000000	97.404181 
2120.000000	97.399486 
2119.000000	97.393166 
2118.000000	97.386902 
2117.000000	97.381780 
2116.000000	97.377819 
2115.000000	97.374210 
2114.000000	97.369406 
2113.000000	97.362468 
2112.000000	97.355529 
2111.000000	97.353033 
2110.000000	97.356885 
2109.000000	97.363867 
2108.000000	97.369213 
2107.000000	97.371455 
2106.000000	97.371901 
2105.000000	97.371602 
2104.000000	97.371356 
2103.000000	97.372632 
2102.000000	97.375355 
2101.000000	97.376230 
2100.000000	97.372491 
2099.000000	97.366500 
2098.000000	97.363862 
2097.000000	97.367093 
2096.000000	97.373704 
2095.000000	97.379784 
2094.000000	97.383308 
2093.000000	97.383930 
2092.000000	97.381888 
2091.000000	97.378180 
2090.000000	97.374441 
2089.000000	97.371732 
2088.000000	97.369983 
2087.000000	97.368562 
2086.000000	97.366718 
2085.000000	97.363799 
2084.000000	97.359920 
2083.000000	97.356210 
2082.000000	97.353728 
2081.000000	97.352511 
2080.000000	97.352204 
2079.000000	97.352909 
2078.000000	97.354411 
2077.000000	97.355223 
2076.000000	97.353939 
2075.000000	97.351186 
2074.000000	97.348753 
2073.000000	97.346901 
2072.000000	97.344169 
2071.000000	97.339967 
2070.000000	97.335697 
2069.000000	97.332921 
2068.000000	97.331781 
2067.000000	97.331652 
2066.000000	97.332034 
2065.000000	97.332066 
2064.000000	97.330337 
2063.000000	97.326411 
2062.000000	97.322023 
2061.000000	97.319811 
2060.000000	97.320726 
2059.000000	97.323585 
2058.000000	97.326250 
2057.000000	97.327124 
2056.000000	97.325746 
2055.000000	97.322409 
2054.000000	97.317892 
2053.000000	97.313219 
2052.000000	97.309278 
2051.000000	97.306446 
2050.000000	97.304519 
2049.000000	97.303007 
2048.000000	97.301612 
2047.000000	97.300441 
2046.000000	97.299690 
2045.000000	97.299353 
2044.000000	97.299361 
2043.000000	97.299680 
2042.000000	97.300088 
2041.000000	97.300170 
2040.000000	97.299920 
2039.000000	97.300013 
2038.000000	97.300977 
2037.000000	97.302373 
2036.000000	97.303264 
2035.000000	97.303339 
2034.000000	97.303197 
2033.000000	97.303778 
2032.000000	97.305672 
2031.000000	97.308390 
2030.000000	97.310057 
2029.000000	97.308881 
2028.000000	97.305292 
2027.000000	97.301789 
2026.000000	97.299944 
2025.000000	97.298966 
2024.000000	97.298016 
2023.000000	97.298445 
2022.000000	97.302188 
2021.000000	97.308410 
2020.000000	97.313240 
2019.000000	97.313330 
2018.000000	97.308097 
2017.000000	97.299634 
2016.000000	97.291757 
2015.000000	97.287860 
2014.000000	97.288221 
2013.000000	97.289418 
2012.000000	97.288499 
2011.000000	97.287518 
2010.000000	97.290850 
2009.000000	97.298712 
2008.000000	97.306429 
2007.000000	97.310590 
2006.000000	97.312107 
2005.000000	97.312503 
2004.000000	97.311498 
2003.000000	97.309683 
2002.000000	97.309948 
2001.000000	97.313426 
2000.000000	97.316809 
1999.000000	97.315512 
1998.000000	97.307887 
1997.000000	97.295871 
1996.000000	97.283075 
1995.000000	97.273129 
1994.000000	97.268211 
1993.000000	97.267712 
1992.000000	97.268704 
1991.000000	97.269356 
1990.000000	97.270901 
1989.000000	97.274879 
1988.000000	97.279777 
1987.000000	97.281588 
1986.000000	97.277464 
1985.000000	97.268339 
1984.000000	97.258311 
1983.000000	97.251372 
1982.000000	97.248560 
1981.000000	97.248226 
1980.000000	97.249481 
1979.000000	97.253776 
1978.000000	97.261758 
1977.000000	97.270447 
1976.000000	97.275619 
1975.000000	97.276737 
1974.000000	97.276990 
1973.000000	97.279214 
1972.000000	97.283480 
1971.000000	97.288059 
1970.000000	97.290882 
1969.000000	97.290218 
1968.000000	97.285786 
1967.000000	97.280033 
1966.000000	97.277085 
1965.000000	97.279317 
1964.000000	97.285850 
1963.000000	97.294173 
1962.000000	97.302189 
1961.000000	97.308491 
1960.000000	97.311816 
1959.000000	97.311559 
1958.000000	97.308992 
1957.000000	97.307104 
1956.000000	97.308171 
1955.000000	97.311796 
1954.000000	97.315520 
1953.000000	97.317357 
1952.000000	97.317230 
1951.000000	97.316284 
1950.000000	97.315695 
1949.000000	97.316177 
1948.000000	97.318128 
1947.000000	97.321267 
1946.000000	97.324301 
1945.000000	97.325837 
1944.000000	97.325733 
1943.000000	97.325167 
1942.000000	97.325363 
1941.000000	97.326523 
1940.000000	97.328138 
1939.000000	97.329644 
1938.000000	97.330763 
1937.000000	97.331607 
1936.000000	97.332583 
1935.000000	97.333939 
1934.000000	97.335362 
1933.000000	97.336411 
1932.000000	97.337233 
1931.000000	97.338479 
1930.000000	97.340294 
1929.000000	97.341822 
1928.000000	97.342499 
1927.000000	97.342686 
1926.000000	97.342815 
1925.000000	97.342504 
1924.000000	97.341335 
1923.000000	97.340126 
1922.000000	97.339943 
1921.000000	97.340564 
1920.000000	97.340994 
1919.000000	97.340908 
1918.000000	97.340491 
1917.000000	97.339437 
1916.000000	97.337547 
1915.000000	97.335554 
1914.000000	97.334360 
1913.000000	97.334023 
1912.000000	97.333775 
1911.000000	97.333273 
1910.000000	97.332812 
1909.000000	97.332513 
1908.000000	97.332446 
1907.000000	97.332582 
1906.000000	97.332431 
1905.000000	97.331026 
1904.000000	97.327994 
1903.000000	97.324736 
1902.000000	97.322953 
1901.000000	97.322602 
1900.000000	97.322474 
1899.000000	97.321899 
1898.000000	97.321167 
1897.000000	97.320469 
1896.000000	97.319323 
1895.000000	97.317445 
1894.000000	97.315069 
1893.000000	97.312508 
1892.000000	97.310068 
1891.000000	97.308296 
1890.000000	97.307557 
1889.000000	97.307483 
1888.000000	97.307577 
1887.000000	97.307829 
1886.000000	97.308086 
1885.000000	97.307641 
1884.000000	97.305967 
1883.000000	97.303666 
1882.000000	97.302049 
1881.000000	97.301728 
1880.000000	97.302389 
1879.000000	97.303231 
1878.000000	97.303502 
1877.000000	97.303145 
1876.000000	97.302873 
1875.000000	97.303592 
1874.000000	97.305422 
1873.000000	97.307297 
1872.000000	97.308120 
1871.000000	97.307892 
1870.000000	97.307141 
1869.000000	97.305816 
1868.000000	97.304191 
1867.000000	97.303935 
1866.000000	97.305749 
1865.000000	97.307909 
1864.000000	97.308553 
1863.000000	97.308257 
1862.000000	97.308969 
1861.000000	97.311090 
1860.000000	97.313325 
1859.000000	97.315113 
1858.000000	97.317107 
1857.000000	97.319440 
1856.000000	97.321489 
1855.000000	97.323166 
1854.000000	97.324790 
1853.000000	97.325837 
1852.000000	97.326374 
1851.000000	97.327784 
1850.000000	97.330766 
1849.000000	97.334395 
1848.000000	97.337275 
1847.000000	97.339577 
1846.000000	97.342303 
1845.000000	97.345306 
1844.000000	97.347144 
1843.000000	97.347953 
1842.000000	97.349253 
1841.000000	97.350774 
1840.000000	97.352107 
1839.000000	97.353972 
1838.000000	97.356822 
1837.000000	97.359421 
1836.000000	97.360304 
1835.000000	97.360274 
1834.000000	97.361094 
1833.000000	97.362772 
1832.000000	97.364011 
1831.000000	97.363872 
1830.000000	97.362485 
1829.000000	97.361292 
1828.000000	97.361627 
1827.000000	97.363308 
1826.000000	97.365519 
1825.000000	97.367595 
1824.000000	97.368984 
1823.000000	97.369957 
1822.000000	97.371036 
1821.000000	97.372004 
1820.000000	97.372372 
1819.000000	97.372361 
1818.000000	97.373090 
1817.000000	97.374645 
1816.000000	97.375526 
1815.000000	97.375270 
1814.000000	97.375079 
1813.000000	97.375886 
1812.000000	97.376709 
1811.000000	97.376289 
1810.000000	97.375347 
1809.000000	97.374973 
1808.000000	97.375002 
1807.000000	97.374962 
1806.000000	97.374885 
1805.000000	97.374838 
1804.000000	97.374712 
1803.000000	97.374780 
1802.000000	97.375260 
1801.000000	97.375801 
1800.000000	97.375781 
1799.000000	97.375232 
1798.000000	97.374920 
1797.000000	97.375072 
1796.000000	97.375274 
1795.000000	97.375331 
1794.000000	97.375514 
1793.000000	97.375942 
1792.000000	97.376226 
1791.000000	97.376392 
1790.000000	97.376966 
1789.000000	97.377817 
1788.000000	97.378572 
1787.000000	97.379236 
1786.000000	97.379995 
1785.000000	97.380726 
1784.000000	97.381203 
1783.000000	97.381547 
1782.000000	97.381926 
1781.000000	97.382425 
1780.000000	97.383037 
1779.000000	97.383694 
1778.000000	97.384384 
1777.000000	97.385081 
1776.000000	97.385786 
1775.000000	97.386476 
1774.000000	97.387112 
1773.000000	97.387677 
1772.000000	97.388187 
1771.000000	97.388694 
1770.000000	97.389262 
1769.000000	97.389923 
1768.000000	97.390707 
1767.000000	97.391561 
1766.000000	97.392354 
1765.000000	97.392991 
1764.000000	97.393481 
1763.000000	97.393905 
1762.000000	97.394278 
1761.000000	97.394692 
1760.000000	97.395325 
1759.000000	97.396098 
1758.000000	97.396874 
1757.000000	97.397678 
1756.000000	97.398839 
1755.000000	97.399873 
1754.000000	97.399464 
1753.000000	97.397207 
1752.000000	97.395021 
1751.000000	97.394678 
1750.000000	97.395774 
1749.000000	97.396634 
1748.000000	97.396014 
1747.000000	97.394172 
1746.000000	97.391357 
1745.000000	97.389704 
1744.000000	97.391555 
1743.000000	97.395619 
1742.000000	97.398372 
1741.000000	97.397827 
1740.000000	97.394325 
1739.000000	97.390624 
1738.000000	97.390187 
1737.000000	97.391349 
1736.000000	97.391609 
1735.000000	97.393040 
1734.000000	97.392045 
1733.000000	97.384421 
1732.000000	97.379082 
1731.000000	97.378276 
1730.000000	97.380400 
1729.000000	97.382767 
1728.000000	97.382346 
1727.000000	97.378339 
1726.000000	97.371849 
1725.000000	97.365916 
1724.000000	97.360944 
1723.000000	97.356274 
1722.000000	97.353803 
1721.000000	97.352640 
1720.000000	97.349689 
1719.000000	97.344938 
1718.000000	97.341389 
1717.000000	97.336487 
1716.000000	97.326188 
1715.000000	97.314266 
1714.000000	97.306709 
1713.000000	97.302644 
1712.000000	97.296438 
1711.000000	97.287834 
1710.000000	97.280608 
1709.000000	97.274599 
1708.000000	97.265843 
1707.000000	97.252879 
1706.000000	97.239150 
1705.000000	97.226916 
1704.000000	97.215500 
1703.000000	97.204316 
1702.000000	97.195507 
1701.000000	97.190281 
1700.000000	97.178997 
1699.000000	97.162104 
1698.000000	97.151835 
1697.000000	97.144745 
1696.000000	97.134934 
1695.000000	97.122150 
1694.000000	97.111467 
1693.000000	97.102415 
1692.000000	97.091059 
1691.000000	97.077517 
1690.000000	97.063529 
1689.000000	97.050062 
1688.000000	97.037986 
1687.000000	97.026798 
1686.000000	97.016178 
1685.000000	97.004845 
1684.000000	96.988335 
1683.000000	96.969828 
1682.000000	96.956576 
1681.000000	96.945588 
1680.000000	96.935460 
1679.000000	96.926518 
1678.000000	96.917057 
1677.000000	96.905205 
1676.000000	96.891483 
1675.000000	96.876434 
1674.000000	96.859905 
1673.000000	96.844139 
1672.000000	96.829799 
1671.000000	96.816827 
1670.000000	96.803343 
1669.000000	96.786344 
1668.000000	96.771757 
1667.000000	96.764276 
1666.000000	96.759142 
1665.000000	96.751056 
1664.000000	96.739124 
1663.000000	96.725920 
1662.000000	96.712274 
1661.000000	96.698433 
1660.000000	96.686930 
1659.000000	96.677714 
1658.000000	96.667784 
1657.000000	96.656169 
1656.000000	96.645806 
1655.000000	96.641201 
1654.000000	96.640055 
1653.000000	96.613209 
1652.000000	96.567822 
1651.000000	96.554602 
1650.000000	96.554580 
1649.000000	96.549520 
1648.000000	96.542033 
1647.000000	96.534325 
1646.000000	96.524976 
1645.000000	96.520680 
1644.000000	96.521171 
1643.000000	96.521844 
1642.000000	96.521230 
1641.000000	96.519031 
1640.000000	96.517088 
1639.000000	96.516439 
1638.000000	96.517668 
1637.000000	96.519811 
1636.000000	96.517304 
1635.000000	96.506394 
1634.000000	96.500942 
1633.000000	96.507179 
1632.000000	96.514857 
1631.000000	96.522662 
1630.000000	96.531754 
1629.000000	96.539418 
1628.000000	96.544509 
1627.000000	96.552667 
1626.000000	96.566028 
1625.000000	96.580105 
1624.000000	96.591907 
1623.000000	96.602673 
1622.000000	96.614853 
1621.000000	96.629563 
1620.000000	96.646777 
1619.000000	96.666345 
1618.000000	96.687081 
1617.000000	96.698468 
1616.000000	96.697698 
1615.000000	96.702677 
1614.000000	96.718603 
1613.000000	96.734281 
1612.000000	96.745726 
1611.000000	96.756768 
1610.000000	96.768319 
1609.000000	96.780194 
1608.000000	96.797015 
1607.000000	96.820681 
1606.000000	96.842308 
1605.000000	96.854817 
1604.000000	96.863837 
1603.000000	96.875141 
1602.000000	96.887227 
1601.000000	96.897437 
1600.000000	96.908124 
1599.000000	96.920880 
1598.000000	96.932273 
1597.000000	96.940022 
1596.000000	96.946865 
1595.000000	96.956279 
1594.000000	96.967407 
1593.000000	96.977607 
1592.000000	96.987114 
1591.000000	96.997329 
1590.000000	97.007427 
1589.000000	97.016240 
1588.000000	97.024828 
1587.000000	97.034352 
1586.000000	97.043465 
1585.000000	97.050188 
1584.000000	97.056594 
1583.000000	97.064969 
1582.000000	97.073353 
1581.000000	97.080043 
1580.000000	97.086860 
1579.000000	97.095317 
1578.000000	97.104335 
1577.000000	97.112408 
1576.000000	97.118405 
1575.000000	97.124392 
1574.000000	97.132352 
1573.000000	97.140419 
1572.000000	97.147849 
1571.000000	97.155237 
1570.000000	97.161277 
1569.000000	97.164993 
1568.000000	97.169567 
1567.000000	97.175951 
1566.000000	97.181944 
1565.000000	97.186783 
1564.000000	97.191525 
1563.000000	97.196559 
1562.000000	97.201164 
1561.000000	97.205493 
1560.000000	97.211601 
1559.000000	97.217535 
1558.000000	97.220642 
1557.000000	97.224359 
1556.000000	97.229128 
1555.000000	97.234127 
1554.000000	97.238873 
1553.000000	97.243124 
1552.000000	97.246996 
1551.000000	97.250680 
1550.000000	97.254446 
1549.000000	97.258141 
1548.000000	97.261499 
1547.000000	97.264553 
1546.000000	97.267433 
1545.000000	97.270281 
1544.000000	97.273107 
1543.000000	97.275850 
1542.000000	97.278517 
1541.000000	97.281037 
1540.000000	97.283264 
1539.000000	97.285373 
1538.000000	97.287556 
1537.000000	97.289709 
1536.000000	97.291779 
1535.000000	97.293802 
1534.000000	97.295799 
1533.000000	97.297767 
1532.000000	97.299706 
1531.000000	97.301615 
1530.000000	97.303498 
1529.000000	97.305361 
1528.000000	97.307213 
1527.000000	97.309066 
1526.000000	97.310922 
1525.000000	97.312770 
1524.000000	97.314581 
1523.000000	97.316342 
1522.000000	97.318093 
1521.000000	97.319854 
1520.000000	97.321564 
1519.000000	97.323126 
1518.000000	97.324504 
1517.000000	97.325933 
1516.000000	97.327662 
1515.000000	97.329672 
1514.000000	97.331698 
1513.000000	97.333589 
1512.000000	97.335210 
1511.000000	97.336401 
1510.000000	97.337312 
1509.000000	97.338472 
1508.000000	97.340667 
1507.000000	97.343800 
1506.000000	97.346125 
1505.000000	97.347358 
1504.000000	97.348309 
1503.000000	97.348679 
1502.000000	97.348589 
1501.000000	97.348805 
1500.000000	97.349455 
1499.000000	97.349797 
1498.000000	97.349928 
1497.000000	97.351219 
1496.000000	97.353555 
1495.000000	97.356734 
1494.000000	97.361395 
1493.000000	97.366872 
1492.000000	97.371761 
1491.000000	97.375663 
1490.000000	97.379458 
1489.000000	97.382916 
1488.000000	97.383643 
1487.000000	97.381934 
1486.000000	97.381047 
1485.000000	97.380266 
1484.000000	97.377938 
1483.000000	97.374850 
1482.000000	97.373518 
1481.000000	97.374791 
1480.000000	97.375806 
1479.000000	97.374744 
1478.000000	97.373038 
1477.000000	97.372509 
1476.000000	97.371680 
1475.000000	97.369753 
1474.000000	97.368557 
1473.000000	97.369795 
1472.000000	97.372190 
1471.000000	97.373878 
1470.000000	97.374767 
1469.000000	97.373875 
1468.000000	97.370544 
1467.000000	97.366298 
1466.000000	97.363800 
1465.000000	97.363593 
1464.000000	97.363918 
1463.000000	97.362163 
1462.000000	97.357624 
1461.000000	97.351023 
1460.000000	97.343836 
1459.000000	97.337820 
1458.000000	97.334898 
1457.000000	97.335000 
1456.000000	97.335352 
1455.000000	97.334043 
1454.000000	97.330040 
1453.000000	97.325281 
1452.000000	97.322065 
1451.000000	97.320285 
1450.000000	97.319180 
1449.000000	97.318807 
1448.000000	97.318614 
1447.000000	97.317563 
1446.000000	97.315089 
1445.000000	97.312143 
1444.000000	97.310030 
1443.000000	97.307903 
1442.000000	97.304730 
1441.000000	97.300675 
1440.000000	97.296242 
1439.000000	97.290888 
1438.000000	97.286017 
1437.000000	97.284839 
1436.000000	97.286309 
1435.000000	97.285626 
1434.000000	97.281283 
1433.000000	97.276033 
1432.000000	97.272826 
1431.000000	97.271521 
1430.000000	97.270588 
1429.000000	97.270607 
1428.000000	97.271157 
1427.000000	97.270437 
1426.000000	97.267492 
1425.000000	97.265711 
1424.000000	97.268694 
1423.000000	97.272046 
1422.000000	97.270215 
1421.000000	97.265192 
1420.000000	97.263950 
1419.000000	97.265861 
1418.000000	97.265294 
1417.000000	97.263977 
1416.000000	97.264524 
1415.000000	97.265210 
1414.000000	97.262971 
1413.000000	97.258421 
1412.000000	97.255248 
1411.000000	97.254130 
1410.000000	97.253274 
1409.000000	97.252469 
1408.000000	97.251849 
1407.000000	97.252133 
1406.000000	97.254673 
1405.000000	97.261643 
1404.000000	97.272931 
1403.000000	97.282040 
1402.000000	97.284317 
1401.000000	97.283528 
1400.000000	97.287483 
1399.000000	97.297468 
1398.000000	97.307221 
1397.000000	97.312645 
1396.000000	97.316011 
1395.000000	97.321414 
1394.000000	97.328784 
1393.000000	97.336997 
1392.000000	97.345657 
1391.000000	97.352491 
1390.000000	97.355705 
1389.000000	97.356470 
1388.000000	97.357693 
1387.000000	97.360327 
1386.000000	97.362631 
1385.000000	97.364152 
1384.000000	97.367293 
1383.000000	97.373051 
1382.000000	97.379416 
1381.000000	97.383792 
1380.000000	97.386416 
1379.000000	97.389838 
1378.000000	97.394821 
1377.000000	97.399469 
1376.000000	97.402269 
1375.000000	97.404271 
1374.000000	97.407485 
1373.000000	97.413147 
1372.000000	97.420522 
1371.000000	97.427867 
1370.000000	97.433864 
1369.000000	97.438667 
1368.000000	97.443458 
1367.000000	97.447368 
1366.000000	97.448572 
1365.000000	97.447632 
1364.000000	97.448046 
1363.000000	97.452310 
1362.000000	97.458802 
1361.000000	97.464323 
1360.000000	97.468466 
1359.000000	97.472927 
1358.000000	97.478145 
1357.000000	97.483072 
1356.000000	97.487261 
1355.000000	97.490785 
1354.000000	97.493608 
1353.000000	97.496029 
1352.000000	97.498473 
1351.000000	97.502133 
1350.000000	97.506899 
1349.000000	97.511157 
1348.000000	97.514293 
1347.000000	97.516293 
1346.000000	97.517530 
1345.000000	97.518056 
1344.000000	97.517479 
1343.000000	97.514929 
1342.000000	97.510561 
1341.000000	97.506732 
1340.000000	97.506466 
1339.000000	97.509800 
1338.000000	97.513797 
1337.000000	97.516567 
1336.000000	97.518305 
1335.000000	97.518886 
1334.000000	97.517703 
1333.000000	97.515673 
1332.000000	97.514867 
1331.000000	97.515672 
1330.000000	97.516372 
1329.000000	97.516143 
1328.000000	97.516187 
1327.000000	97.517415 
1326.000000	97.518659 
1325.000000	97.518654 
1324.000000	97.517686 
1323.000000	97.515672 
1322.000000	97.511728 
1321.000000	97.506472 
1320.000000	97.502843 
1319.000000	97.503123 
1318.000000	97.506588 
1317.000000	97.510725 
1316.000000	97.513313 
1315.000000	97.513062 
1314.000000	97.510316 
1313.000000	97.507761 
1312.000000	97.508223 
1311.000000	97.511104 
1310.000000	97.512970 
1309.000000	97.512144 
1308.000000	97.510603 
1307.000000	97.511181 
1306.000000	97.514238 
1305.000000	97.518314 
1304.000000	97.522136 
1303.000000	97.524255 
1302.000000	97.523079 
1301.000000	97.518772 
1300.000000	97.514204 
1299.000000	97.512489 
1298.000000	97.514049 
1297.000000	97.516624 
1296.000000	97.517607 
1295.000000	97.516006 
1294.000000	97.513013 
1293.000000	97.511106 
1292.000000	97.511716 
1291.000000	97.513814 
1290.000000	97.515615 
1289.000000	97.517014 
1288.000000	97.518731 
1287.000000	97.519700 
1286.000000	97.517828 
1285.000000	97.513588 
1284.000000	97.510351 
1283.000000	97.510226 
1282.000000	97.511550 
1281.000000	97.511414 
1280.000000	97.509322 
1279.000000	97.507221 
1278.000000	97.507282 
1277.000000	97.510476 
1276.000000	97.515699 
1275.000000	97.519727 
1274.000000	97.519670 
1273.000000	97.516358 
1272.000000	97.513646 
1271.000000	97.513694 
1270.000000	97.514708 
1269.000000	97.514188 
1268.000000	97.512274 
1267.000000	97.510465 
1266.000000	97.509254 
1265.000000	97.508772 
1264.000000	97.509913 
1263.000000	97.513018 
1262.000000	97.516491 
1261.000000	97.518365 
1260.000000	97.518935 
1259.000000	97.520390 
1258.000000	97.523834 
1257.000000	97.527534 
1256.000000	97.528172 
1255.000000	97.524343 
1254.000000	97.518892 
1253.000000	97.516437 
1252.000000	97.517640 
1251.000000	97.517979 
1250.000000	97.514073 
1249.000000	97.509131 
1248.000000	97.508926 
1247.000000	97.513589 
1246.000000	97.517457 
1245.000000	97.516786 
1244.000000	97.513472 
1243.000000	97.511086 
1242.000000	97.511162 
1241.000000	97.514062 
1240.000000	97.519412 
1239.000000	97.524171 
1238.000000	97.523819 
1237.000000	97.517410 
1236.000000	97.508744 
1235.000000	97.501196 
1234.000000	97.494133 
1233.000000	97.485799 
1232.000000	97.476558 
1231.000000	97.467154 
1230.000000	97.456629 
1229.000000	97.444209 
1228.000000	97.430761 
1227.000000	97.416029 
1226.000000	97.396470 
1225.000000	97.368421 
1224.000000	97.332148 
1223.000000	97.290855 
1222.000000	97.246843 
1221.000000	97.200309 
1220.000000	97.150762 
1219.000000	97.097747 
1218.000000	97.040913 
1217.000000	96.980610 
1216.000000	96.917365 
1215.000000	96.849969 
1214.000000	96.776191 
1213.000000	96.697022 
1212.000000	96.617807 
1211.000000	96.542382 
1210.000000	96.467708 
1209.000000	96.387562 
1208.000000	96.300477 
1207.000000	96.210820 
1206.000000	96.122625 
1205.000000	96.035481 
1204.000000	95.946601 
1203.000000	95.854167 
1202.000000	95.758356 
1201.000000	95.661107 
1200.000000	95.565049 
1199.000000	95.471110 
1198.000000	95.377430 
1197.000000	95.282030 
1196.000000	95.185536 
1195.000000	95.089479 
1194.000000	94.993104 
1193.000000	94.894079 
1192.000000	94.791451 
1191.000000	94.685820 
1190.000000	94.577777 
1189.000000	94.468215 
1188.000000	94.358657 
1187.000000	94.248905 
1186.000000	94.136049 
1185.000000	94.018331 
1184.000000	93.897935 
1183.000000	93.777196 
1182.000000	93.654544 
1181.000000	93.527723 
1180.000000	93.398224 
1179.000000	93.267870 
1178.000000	93.133455 
1177.000000	92.990368 
1176.000000	92.839854 
1175.000000	92.687042 
1174.000000	92.533128 
1173.000000	92.375565 
1172.000000	92.214870 
1171.000000	92.054399 
1170.000000	91.893945 
1169.000000	91.730949 
1168.000000	91.568788 
1167.000000	91.417331 
1166.000000	91.285154 
1165.000000	91.178415 
1164.000000	91.107317 
1163.000000	91.084196 
1162.000000	91.111168 
1161.000000	91.174170 
1160.000000	91.249804 
1159.000000	91.313427 
1158.000000	91.343291 
1157.000000	91.326689 
1156.000000	91.265273 
1155.000000	91.170304 
1154.000000	91.052036 
1153.000000	90.917217 
1152.000000	90.774443 
1151.000000	90.633383 
1150.000000	90.497304 
1149.000000	90.363282 
1148.000000	90.230689 
1147.000000	90.102231 
1146.000000	89.976014 
1145.000000	89.845057 
1144.000000	89.706889 
1143.000000	89.566383 
1142.000000	89.427281 
1141.000000	89.288078 
1140.000000	89.147833 
1139.000000	89.008355 
1138.000000	88.868604 
1137.000000	88.724367 
1136.000000	88.575566 
1135.000000	88.426952 
1134.000000	88.279952 
1133.000000	88.130917 
1132.000000	87.978646 
1131.000000	87.826093 
1130.000000	87.673610 
1129.000000	87.518246 
1128.000000	87.360427 
1127.000000	87.203044 
1126.000000	87.043419 
1125.000000	86.875336 
1124.000000	86.699921 
1123.000000	86.525164 
1122.000000	86.353756 
1121.000000	86.181420 
1120.000000	86.008312 
1119.000000	85.840969 
1118.000000	85.681189 
1117.000000	85.524557 
1116.000000	85.371779 
1115.000000	85.229482 
1114.000000	85.097445 
1113.000000	84.967197 
1112.000000	84.835685 
1111.000000	84.707759 
1110.000000	84.583253 
1109.000000	84.454975 
1108.000000	84.321241 
1107.000000	84.187635 
1106.000000	84.054655 
1105.000000	83.916474 
1104.000000	83.773803 
1103.000000	83.634566 
1102.000000	83.500105 
1101.000000	83.364152 
1100.000000	83.226544 
1099.000000	83.094183 
1098.000000	82.967277 
1097.000000	82.839041 
1096.000000	82.710074 
1095.000000	82.587520 
1094.000000	82.469136 
1093.000000	82.344692 
1092.000000	82.215210 
1091.000000	82.094253 
1090.000000	81.987474 
1089.000000	81.886725 
1088.000000	81.786174 
1087.000000	81.687684 
1086.000000	81.588751 
1085.000000	81.482918 
1084.000000	81.374606 
1083.000000	81.276058 
1082.000000	81.186807 
1081.000000	81.093487 
1080.000000	80.992090 
1079.000000	80.892010 
1078.000000	80.795401 
1077.000000	80.691271 
1076.000000	80.573540 
1075.000000	80.446290 
1074.000000	80.307699 
1073.000000	80.147372 
1072.000000	79.962946 
1071.000000	79.760743 
1070.000000	79.536766 
1069.000000	79.276740 
1068.000000	78.980037 
1067.000000	78.665388 
1066.000000	78.348115 
1065.000000	78.029482 
1064.000000	77.712361 
1063.000000	77.405764 
1062.000000	77.106628 
1061.000000	76.797618 
1060.000000	76.471291 
1059.000000	76.138744 
1058.000000	75.808504 
1057.000000	75.475377 
1056.000000	75.135805 
1055.000000	74.794417 
1054.000000	74.448811 
1053.000000	74.087439 
1052.000000	73.709997 
1051.000000	73.330177 
1050.000000	72.951112 
1049.000000	72.560643 
1048.000000	72.157254 
1047.000000	71.755458 
1046.000000	71.360498 
1045.000000	70.962930 
1044.000000	70.561491 
1043.000000	70.166599 
1042.000000	69.777931 
1041.000000	69.383467 
1040.000000	68.985644 
1039.000000	68.603757 
1038.000000	68.245103 
1037.000000	67.898603 
1036.000000	67.561586 
1035.000000	67.246701 
1034.000000	66.957142 
1033.000000	66.681862 
1032.000000	66.420439 
1031.000000	66.185368 
1030.000000	65.974863 
1029.000000	65.771903 
1028.000000	65.575863 
1027.000000	65.405909 
1026.000000	65.266531 
1025.000000	65.138454 
1024.000000	65.009993 
1023.000000	64.888672 
1022.000000	64.775373 
1021.000000	64.656538 
1020.000000	64.529380 
1019.000000	64.406762 
1018.000000	64.290467 
1017.000000	64.167334 
1016.000000	64.037340 
1015.000000	63.917065 
1014.000000	63.809876 
1013.000000	63.701515 
1012.000000	63.590342 
1011.000000	63.492425 
1010.000000	63.411214 
1009.000000	63.332281 
1008.000000	63.254294 
1007.000000	63.195625 
1006.000000	63.164128 
1005.000000	63.149357 
1004.000000	63.149065 
1003.000000	63.172788 
1002.000000	63.214397 
1001.000000	63.253322 
1000.000000	63.289844 
999.000000	 63.347781 
998.000000	 63.434950 
997.000000	 63.531773 
996.000000	 63.626176 
995.000000	 63.729249 
994.000000	 63.847987 
993.000000	 63.972478 
992.000000	 64.098791 
991.000000	 64.236318 
990.000000	 64.384487 
989.000000	 64.529828 
988.000000	 64.673239 
987.000000	 64.832845 
986.000000	 65.013966 
985.000000	 65.204113 
984.000000	 65.402800 
983.000000	 65.626667 
982.000000	 65.878163 
981.000000	 66.138371 
980.000000	 66.398779 
979.000000	 66.672580 
978.000000	 66.966935 
977.000000	 67.271841 
976.000000	 67.584133 
975.000000	 67.915439 
974.000000	 68.267790 
973.000000	 68.626797 
972.000000	 68.986987 
971.000000	 69.359779 
970.000000	 69.749066 
969.000000	 70.142340 
968.000000	 70.532619 
967.000000	 70.926661 
966.000000	 71.325847 
965.000000	 71.721104 
964.000000	 72.111600 
963.000000	 72.506226 
962.000000	 72.902070 
961.000000	 73.283518 
960.000000	 73.647111 
959.000000	 74.005624 
958.000000	 74.363416 
957.000000	 74.709264 
956.000000	 75.037983 
955.000000	 75.357917 
954.000000	 75.672513 
953.000000	 75.974622 
952.000000	 76.263010 
951.000000	 76.544469 
950.000000	 76.816107 
949.000000	 77.065418 
948.000000	 77.291039 
947.000000	 77.503907 
946.000000	 77.705503 
945.000000	 77.885360 
944.000000	 78.043182 
943.000000	 78.192818 
942.000000	 78.340340 
941.000000	 78.478213 
940.000000	 78.605386 
939.000000	 78.732826 
938.000000	 78.864190 
937.000000	 78.990560 
936.000000	 79.109355 
935.000000	 79.229520 
934.000000	 79.353430 
933.000000	 79.472544 
932.000000	 79.585549 
931.000000	 79.702136 
930.000000	 79.824408 
929.000000	 79.942801 
928.000000	 80.054334 
927.000000	 80.166351 
926.000000	 80.278272 
925.000000	 80.378063 
924.000000	 80.460924 
923.000000	 80.534051 
922.000000	 80.600094 
921.000000	 80.654255 
920.000000	 80.700418 
919.000000	 80.750807 
918.000000	 80.805807 
917.000000	 80.853292 
916.000000	 80.892384 
915.000000	 80.939639 
914.000000	 81.007820 
913.000000	 81.096972 
912.000000	 81.209598 
911.000000	 81.355129 
910.000000	 81.534913 
909.000000	 81.741146 
908.000000	 81.973962 
907.000000	 82.241231 
906.000000	 82.539375 
905.000000	 82.853420 
904.000000	 83.177642 
903.000000	 83.516997 
902.000000	 83.867551 
901.000000	 84.215814 
900.000000	 84.558484 
899.000000	 84.903303 
898.000000	 85.249461 
897.000000	 85.586210 
896.000000	 85.910491 
895.000000	 86.226502 
894.000000	 86.529283 
893.000000	 86.809331 
892.000000	 87.072891 
891.000000	 87.336720 
890.000000	 87.602185 
889.000000	 87.854758 
888.000000	 88.089427 
887.000000	 88.316062 
886.000000	 88.539389 
885.000000	 88.754753 
884.000000	 88.964427 
883.000000	 89.176286 
882.000000	 89.385492 
881.000000	 89.581012 
880.000000	 89.772211 
879.000000	 89.983710 
878.000000	 90.218892 
877.000000	 90.453282 
876.000000	 90.669979 
875.000000	 90.877038 
874.000000	 91.084535 
873.000000	 91.290335 
872.000000	 91.496716 
871.000000	 91.716418 
870.000000	 91.951469 
869.000000	 92.185922 
868.000000	 92.408269 
867.000000	 92.623335 
866.000000	 92.836142 
865.000000	 93.042327 
864.000000	 93.241679 
863.000000	 93.444147 
862.000000	 93.654127 
861.000000	 93.862889 
860.000000	 94.063085 
859.000000	 94.257096 
858.000000	 94.446011 
857.000000	 94.624465 
856.000000	 94.791671 
855.000000	 94.953673 
854.000000	 95.109252 
853.000000	 95.247334 
852.000000	 95.364378 
851.000000	 95.471836 
850.000000	 95.580797 
849.000000	 95.690828 
848.000000	 95.797930 
847.000000	 95.900092 
846.000000	 95.990275 
845.000000	 96.057528 
844.000000	 96.101296 
843.000000	 96.133664 
842.000000	 96.162606 
841.000000	 96.183375 
840.000000	 96.189387 
839.000000	 96.179563 
838.000000	 96.152402 
837.000000	 96.106936 
836.000000	 96.054438 
835.000000	 96.015452 
834.000000	 95.997890 
833.000000	 95.989303 
832.000000	 95.976782 
831.000000	 95.963000 
830.000000	 95.957364 
829.000000	 95.964746 
828.000000	 95.990821 
827.000000	 96.044962 
826.000000	 96.126450 
825.000000	 96.218173 
824.000000	 96.303900 
823.000000	 96.382406 
822.000000	 96.458067 
821.000000	 96.529288 
820.000000	 96.592297 
819.000000	 96.644779 
818.000000	 96.680209 
817.000000	 96.687698 
816.000000	 96.661377 
815.000000	 96.603090 
814.000000	 96.513626 
813.000000	 96.387351 
812.000000	 96.215092 
811.000000	 95.983626 
810.000000	 95.672549 
809.000000	 95.263031 
808.000000	 94.754075 
807.000000	 94.163991 
806.000000	 93.515453 
805.000000	 92.828119 
804.000000	 92.126385 
803.000000	 91.441059 
802.000000	 90.799353 
801.000000	 90.225171 
800.000000	 89.749830 
799.000000	 89.404202 
798.000000	 89.195018 
797.000000	 89.104057 
796.000000	 89.111190 
795.000000	 89.199554 
794.000000	 89.340239 
793.000000	 89.497399 
792.000000	 89.652536 
791.000000	 89.803187 
790.000000	 89.936989 
789.000000	 90.029238 
788.000000	 90.067148 
787.000000	 90.053752 
786.000000	 89.985705 
785.000000	 89.850514 
784.000000	 89.650766 
783.000000	 89.410347 
782.000000	 89.152703 
781.000000	 88.894901 
780.000000	 88.667075 
779.000000	 88.511578 
778.000000	 88.452035 
777.000000	 88.482626 
776.000000	 88.592686 
775.000000	 88.777742 
774.000000	 89.019419 
773.000000	 89.280556 
772.000000	 89.532903 
771.000000	 89.771772 
770.000000	 89.997136 
769.000000	 90.200636 
768.000000	 90.377739 
767.000000	 90.532081 
766.000000	 90.660500 
765.000000	 90.753822 
764.000000	 90.820146 
763.000000	 90.887566 
762.000000	 90.974471 
761.000000	 91.074045 
760.000000	 91.174567 
759.000000	 91.276049 
758.000000	 91.380057 
757.000000	 91.483572 
756.000000	 91.592292 
755.000000	 91.720932 
754.000000	 91.869374 
753.000000	 92.014285 
752.000000	 92.133747 
751.000000	 92.227557 
750.000000	 92.309119 
749.000000	 92.392448 
748.000000	 92.490709 
747.000000	 92.609776 
746.000000	 92.736972 
745.000000	 92.853175 
744.000000	 92.961900 
743.000000	 93.089066 
742.000000	 93.248945 
741.000000	 93.428824 
740.000000	 93.611786 
739.000000	 93.794141 
738.000000	 93.973826 
737.000000	 94.141332 
736.000000	 94.291448 
735.000000	 94.428336 
734.000000	 94.553011 
733.000000	 94.661071 
732.000000	 94.755625 
731.000000	 94.844362 
730.000000	 94.921208 
729.000000	 94.971852 
728.000000	 94.998363 
727.000000	 95.020296 
726.000000	 95.052804 
725.000000	 95.099509 
724.000000	 95.165732 
723.000000	 95.257294 
722.000000	 95.362838 
721.000000	 95.458556 
720.000000	 95.537103 
719.000000	 95.614230 
718.000000	 95.701466 
717.000000	 95.793159 
716.000000	 95.885826 
715.000000	 95.984109 
714.000000	 96.079635 
713.000000	 96.149785 
712.000000	 96.188315 
711.000000	 96.216114 
710.000000	 96.249610 
709.000000	 96.283440 
708.000000	 96.305879 
707.000000	 96.314317 
706.000000	 96.308402 
705.000000	 96.280412 
704.000000	 96.223303 
703.000000	 96.138630 
702.000000	 96.021471 
701.000000	 95.849510 
700.000000	 95.602103 
699.000000	 95.279553 
698.000000	 94.905734 
697.000000	 94.525117 
696.000000	 94.198225 
695.000000	 93.985081 
694.000000	 93.912559 
693.000000	 93.964860 
692.000000	 94.108346 
691.000000	 94.307851 
690.000000	 94.527089 
689.000000	 94.733828 
688.000000	 94.913735 
687.000000	 95.071402 
686.000000	 95.209856 
685.000000	 95.327581 
684.000000	 95.435939 
683.000000	 95.551059 
682.000000	 95.670051 
681.000000	 95.776889 
680.000000	 95.873129 
679.000000	 95.975410 
678.000000	 96.085751 
677.000000	 96.195068 
676.000000	 96.302171 
675.000000	 96.412489 
674.000000	 96.518898 
673.000000	 96.594701 
672.000000	 96.620537 
671.000000	 96.581903 
670.000000	 96.469504 
669.000000	 96.291705 
668.000000	 96.213697 
667.000000	 96.423872 
666.000000	 96.765290 
665.000000	 97.017204 
664.000000	 97.169895 
663.000000	 97.266878 
662.000000	 97.338712 
661.000000	 97.395839 
660.000000	 97.444529 
659.000000	 97.494949 
658.000000	 97.546000 
657.000000	 97.585787 
656.000000	 97.599781 
655.000000	 97.584011 
654.000000	 97.546199 
653.000000	 97.497288 
652.000000	 97.453780 
651.000000	 97.442053 
650.000000	 97.475171 

