4000.000000	97.741296 
3999.000000	97.739366 
3998.000000	97.735647 
3997.000000	97.731252 
3996.000000	97.727696 
3995.000000	97.725938 
3994.000000	97.726187 
3993.000000	97.727792 
3992.000000	97.729384 
3991.000000	97.730026 
3990.000000	97.730048 
3989.000000	97.730309 
3988.000000	97.730956 
3987.000000	97.731464 
3986.000000	97.731808 
3985.000000	97.732730 
3984.000000	97.734527 
3983.000000	97.736411 
3982.000000	97.737530 
3981.000000	97.737916 
3980.000000	97.737845 
3979.000000	97.736856 
3978.000000	97.734472 
3977.000000	97.731643 
3976.000000	97.730225 
3975.000000	97.730833 
3974.000000	97.732110 
3973.000000	97.732415 
3972.000000	97.731438 
3971.000000	97.729856 
3970.000000	97.728495 
3969.000000	97.727924 
3968.000000	97.728361 
3967.000000	97.729488 
3966.000000	97.730632 
3965.000000	97.731202 
3964.000000	97.730813 
3963.000000	97.729339 
3962.000000	97.727185 
3961.000000	97.725401 
3960.000000	97.724672 
3959.000000	97.724396 
3958.000000	97.723923 
3957.000000	97.723559 
3956.000000	97.723790 
3955.000000	97.723819 
3954.000000	97.722145 
3953.000000	97.718356 
3952.000000	97.713541 
3951.000000	97.709474 
3950.000000	97.707219 
3949.000000	97.706510 
3948.000000	97.706278 
3947.000000	97.705977 
3946.000000	97.705856 
3945.000000	97.706021 
3944.000000	97.706134 
3943.000000	97.706320 
3942.000000	97.707564 
3941.000000	97.710741 
3940.000000	97.714879 
3939.000000	97.717181 
3938.000000	97.716387 
3937.000000	97.713881 
3936.000000	97.711541 
3935.000000	97.709254 
3934.000000	97.706060 
3933.000000	97.702915 
3932.000000	97.701596 
3931.000000	97.701988 
3930.000000	97.702219 
3929.000000	97.701481 
3928.000000	97.701150 
3927.000000	97.701972 
3926.000000	97.702468 
3925.000000	97.701593 
3924.000000	97.700798 
3923.000000	97.701373 
3922.000000	97.701938 
3921.000000	97.701008 
3920.000000	97.699803 
3919.000000	97.700078 
3918.000000	97.701341 
3917.000000	97.702030 
3916.000000	97.701985 
3915.000000	97.702021 
3914.000000	97.702177 
3913.000000	97.701833 
3912.000000	97.701015 
3911.000000	97.699990 
3910.000000	97.699041 
3909.000000	97.698252 
3908.000000	97.697656 
3907.000000	97.697167 
3906.000000	97.696682 
3905.000000	97.696206 
3904.000000	97.695766 
3903.000000	97.695383 
3902.000000	97.695065 
3901.000000	97.694795 
3900.000000	97.694543 
3899.000000	97.694284 
3898.000000	97.694003 
3897.000000	97.693700 
3896.000000	97.693379 
3895.000000	97.693026 
3894.000000	97.692623 
3893.000000	97.692172 
3892.000000	97.691687 
3891.000000	97.691181 
3890.000000	97.690679 
3889.000000	97.690207 
3888.000000	97.689763 
3887.000000	97.689331 
3886.000000	97.688903 
3885.000000	97.688490 
3884.000000	97.688104 
3883.000000	97.687736 
3882.000000	97.687359 
3881.000000	97.686967 
3880.000000	97.686581 
3879.000000	97.686223 
3878.000000	97.685891 
3877.000000	97.685558 
3876.000000	97.685198 
3875.000000	97.684818 
3874.000000	97.684448 
3873.000000	97.684119 
3872.000000	97.683836 
3871.000000	97.683585 
3870.000000	97.683373 
3869.000000	97.683233 
3868.000000	97.683189 
3867.000000	97.683214 
3866.000000	97.683261 
3865.000000	97.683322 
3864.000000	97.683421 
3863.000000	97.683548 
3862.000000	97.683664 
3861.000000	97.683744 
3860.000000	97.683798 
3859.000000	97.683843 
3858.000000	97.683884 
3857.000000	97.683936 
3856.000000	97.684042 
3855.000000	97.684248 
3854.000000	97.684556 
3853.000000	97.684945 
3852.000000	97.685450 
3851.000000	97.686124 
3850.000000	97.686944 
3849.000000	97.687843 
3848.000000	97.688767 
3847.000000	97.689684 
3846.000000	97.690587 
3845.000000	97.691478 
3844.000000	97.692356 
3843.000000	97.693216 
3842.000000	97.694057 
3841.000000	97.694898 
3840.000000	97.695759 
3839.000000	97.696646 
3838.000000	97.697549 
3837.000000	97.698460 
3836.000000	97.699389 
3835.000000	97.700352 
3834.000000	97.701354 
3833.000000	97.702385 
3832.000000	97.703435 
3831.000000	97.704496 
3830.000000	97.705566 
3829.000000	97.706638 
3828.000000	97.707703 
3827.000000	97.708743 
3826.000000	97.709744 
3825.000000	97.710714 
3824.000000	97.711673 
3823.000000	97.712619 
3822.000000	97.713528 
3821.000000	97.714393 
3820.000000	97.715254 
3819.000000	97.716159 
3818.000000	97.717097 
3817.000000	97.718020 
3816.000000	97.718919 
3815.000000	97.719827 
3814.000000	97.720765 
3813.000000	97.721698 
3812.000000	97.722577 
3811.000000	97.723397 
3810.000000	97.724175 
3809.000000	97.724893 
3808.000000	97.725512 
3807.000000	97.726032 
3806.000000	97.726505 
3805.000000	97.726994 
3804.000000	97.727511 
3803.000000	97.728032 
3802.000000	97.728543 
3801.000000	97.729066 
3800.000000	97.729634 
3799.000000	97.730243 
3798.000000	97.730839 
3797.000000	97.731387 
3796.000000	97.731886 
3795.000000	97.732348 
3794.000000	97.732764 
3793.000000	97.733118 
3792.000000	97.733393 
3791.000000	97.733583 
3790.000000	97.733684 
3789.000000	97.733700 
3788.000000	97.733640 
3787.000000	97.733513 
3786.000000	97.733321 
3785.000000	97.733074 
3784.000000	97.732803 
3783.000000	97.732532 
3782.000000	97.732251 
3781.000000	97.731933 
3780.000000	97.731572 
3779.000000	97.731182 
3778.000000	97.730767 
3777.000000	97.730306 
3776.000000	97.729780 
3775.000000	97.729203 
3774.000000	97.728596 
3773.000000	97.727956 
3772.000000	97.727264 
3771.000000	97.726510 
3770.000000	97.725712 
3769.000000	97.724894 
3768.000000	97.724064 
3767.000000	97.723213 
3766.000000	97.722342 
3765.000000	97.721471 
3764.000000	97.720616 
3763.000000	97.719761 
3762.000000	97.718870 
3761.000000	97.717926 
3760.000000	97.716944 
3759.000000	97.715932 
3758.000000	97.714879 
3757.000000	97.713778 
3756.000000	97.712650 
3755.000000	97.711537 
3754.000000	97.710473 
3753.000000	97.709478 
3752.000000	97.708560 
3751.000000	97.707710 
3750.000000	97.706907 
3749.000000	97.706159 
3748.000000	97.705496 
3747.000000	97.704927 
3746.000000	97.704420 
3745.000000	97.703940 
3744.000000	97.703468 
3743.000000	97.703016 
3742.000000	97.702571 
3741.000000	97.702067 
3740.000000	97.701467 
3739.000000	97.700799 
3738.000000	97.700105 
3737.000000	97.699377 
3736.000000	97.698602 
3735.000000	97.697776 
3734.000000	97.697031 
3733.000000	97.696300 
3732.000000	97.695171 
3731.000000	97.693780 
3730.000000	97.693004 
3729.000000	97.692943 
3728.000000	97.692376 
3727.000000	97.690680 
3726.000000	97.689045 
3725.000000	97.688865 
3724.000000	97.689219 
3723.000000	97.688113 
3722.000000	97.685436 
3721.000000	97.682592 
3720.000000	97.680482 
3719.000000	97.678305 
3718.000000	97.675117 
3717.000000	97.671734 
3716.000000	97.669712 
3715.000000	97.668798 
3714.000000	97.667801 
3713.000000	97.667738 
3712.000000	97.669441 
3711.000000	97.669921 
3710.000000	97.666749 
3709.000000	97.660510 
3708.000000	97.652286 
3707.000000	97.643089 
3706.000000	97.634363 
3705.000000	97.626952 
3704.000000	97.620443 
3703.000000	97.613921 
3702.000000	97.606376 
3701.000000	97.597735 
3700.000000	97.590045 
3699.000000	97.584419 
3698.000000	97.578884 
3697.000000	97.572169 
3696.000000	97.565729 
3695.000000	97.560721 
3694.000000	97.555708 
3693.000000	97.549014 
3692.000000	97.541201 
3691.000000	97.533642 
3690.000000	97.526331 
3689.000000	97.518370 
3688.000000	97.510589 
3687.000000	97.504839 
3686.000000	97.500618 
3685.000000	97.495726 
3684.000000	97.489477 
3683.000000	97.482788 
3682.000000	97.476215 
3681.000000	97.469419 
3680.000000	97.462193 
3679.000000	97.455003 
3678.000000	97.448185 
3677.000000	97.441548 
3676.000000	97.434788 
3675.000000	97.427963 
3674.000000	97.421393 
3673.000000	97.415044 
3672.000000	97.408718 
3671.000000	97.402337 
3670.000000	97.395974 
3669.000000	97.389713 
3668.000000	97.383623 
3667.000000	97.377699 
3666.000000	97.371850 
3665.000000	97.366046 
3664.000000	97.360358 
3663.000000	97.354796 
3662.000000	97.349154 
3661.000000	97.343165 
3660.000000	97.336889 
3659.000000	97.330843 
3658.000000	97.325290 
3657.000000	97.319480 
3656.000000	97.312193 
3655.000000	97.304634 
3654.000000	97.298858 
3653.000000	97.292723 
3652.000000	97.283351 
3651.000000	97.274063 
3650.000000	97.269545 
3649.000000	97.267002 
3648.000000	97.261514 
3647.000000	97.255630 
3646.000000	97.254923 
3645.000000	97.259439 
3644.000000	97.264327 
3643.000000	97.265799 
3642.000000	97.264831 
3641.000000	97.264115 
3640.000000	97.263681 
3639.000000	97.261040 
3638.000000	97.256036 
3637.000000	97.252401 
3636.000000	97.250540 
3635.000000	97.244397 
3634.000000	97.229765 
3633.000000	97.212197 
3632.000000	97.200236 
3631.000000	97.195825 
3630.000000	97.196723 
3629.000000	97.194165 
3628.000000	97.184754 
3627.000000	97.183592 
3626.000000	97.191774 
3625.000000	97.192898 
3624.000000	97.184538 
3623.000000	97.175482 
3622.000000	97.168759 
3621.000000	97.160654 
3620.000000	97.150310 
3619.000000	97.141624 
3618.000000	97.140163 
3617.000000	97.149716 
3616.000000	97.166046 
3615.000000	97.180532 
3614.000000	97.189759 
3613.000000	97.196633 
3612.000000	97.205174 
3611.000000	97.215257 
3610.000000	97.223014 
3609.000000	97.226719 
3608.000000	97.228632 
3607.000000	97.231408 
3606.000000	97.235100 
3605.000000	97.237856 
3604.000000	97.240206 
3603.000000	97.245132 
3602.000000	97.252031 
3601.000000	97.255923 
3600.000000	97.254584 
3599.000000	97.251010 
3598.000000	97.248598 
3597.000000	97.249969 
3596.000000	97.255621 
3595.000000	97.262475 
3594.000000	97.265452 
3593.000000	97.262430 
3592.000000	97.254706 
3591.000000	97.244205 
3590.000000	97.233379 
3589.000000	97.226614 
3588.000000	97.227036 
3587.000000	97.233417 
3586.000000	97.243765 
3585.000000	97.255489 
3584.000000	97.264436 
3583.000000	97.269586 
3582.000000	97.273526 
3581.000000	97.277852 
3580.000000	97.281220 
3579.000000	97.281969 
3578.000000	97.279971 
3577.000000	97.276862 
3576.000000	97.274512 
3575.000000	97.273104 
3574.000000	97.271165 
3573.000000	97.266791 
3572.000000	97.259177 
3571.000000	97.249052 
3570.000000	97.238431 
3569.000000	97.230238 
3568.000000	97.227418 
3567.000000	97.230337 
3566.000000	97.236803 
3565.000000	97.243956 
3564.000000	97.248202 
3563.000000	97.248206 
3562.000000	97.247043 
3561.000000	97.248510 
3560.000000	97.252987 
3559.000000	97.257818 
3558.000000	97.260398 
3557.000000	97.260171 
3556.000000	97.258668 
3555.000000	97.257639 
3554.000000	97.257407 
3553.000000	97.256936 
3552.000000	97.255393 
3551.000000	97.252994 
3550.000000	97.250055 
3549.000000	97.246581 
3548.000000	97.243668 
3547.000000	97.243081 
3546.000000	97.244628 
3545.000000	97.246306 
3544.000000	97.247230 
3543.000000	97.248325 
3542.000000	97.250350 
3541.000000	97.252690 
3540.000000	97.254368 
3539.000000	97.254987 
3538.000000	97.254769 
3537.000000	97.254302 
3536.000000	97.254164 
3535.000000	97.254406 
3534.000000	97.254202 
3533.000000	97.252867 
3532.000000	97.251034 
3531.000000	97.250272 
3530.000000	97.251006 
3529.000000	97.251693 
3528.000000	97.250580 
3527.000000	97.247800 
3526.000000	97.245097 
3525.000000	97.244017 
3524.000000	97.245024 
3523.000000	97.247748 
3522.000000	97.251321 
3521.000000	97.254614 
3520.000000	97.256878 
3519.000000	97.258152 
3518.000000	97.258843 
3517.000000	97.258982 
3516.000000	97.258085 
3515.000000	97.256007 
3514.000000	97.253670 
3513.000000	97.252422 
3512.000000	97.252654 
3511.000000	97.253575 
3510.000000	97.254160 
3509.000000	97.254166 
3508.000000	97.254104 
3507.000000	97.254319 
3506.000000	97.254364 
3505.000000	97.253592 
3504.000000	97.252016 
3503.000000	97.250375 
3502.000000	97.249485 
3501.000000	97.249581 
3500.000000	97.250253 
3499.000000	97.250924 
3498.000000	97.251386 
3497.000000	97.251854 
3496.000000	97.252507 
3495.000000	97.253098 
3494.000000	97.253181 
3493.000000	97.252686 
3492.000000	97.251981 
3491.000000	97.251441 
3490.000000	97.251138 
3489.000000	97.250922 
3488.000000	97.250597 
3487.000000	97.249960 
3486.000000	97.248897 
3485.000000	97.247581 
3484.000000	97.246414 
3483.000000	97.245590 
3482.000000	97.244938 
3481.000000	97.244380 
3480.000000	97.244227 
3479.000000	97.244712 
3478.000000	97.245411 
3477.000000	97.245476 
3476.000000	97.244532 
3475.000000	97.242936 
3474.000000	97.241324 
3473.000000	97.240085 
3472.000000	97.239190 
3471.000000	97.238358 
3470.000000	97.237345 
3469.000000	97.236136 
3468.000000	97.234940 
3467.000000	97.234022 
3466.000000	97.233507 
3465.000000	97.233181 
3464.000000	97.232508 
3463.000000	97.231021 
3462.000000	97.228773 
3461.000000	97.226407 
3460.000000	97.224626 
3459.000000	97.223548 
3458.000000	97.222698 
3457.000000	97.221547 
3456.000000	97.220030 
3455.000000	97.218568 
3454.000000	97.217561 
3453.000000	97.217017 
3452.000000	97.216708 
3451.000000	97.216469 
3450.000000	97.216124 
3449.000000	97.215321 
3448.000000	97.213790 
3447.000000	97.211710 
3446.000000	97.209638 
3445.000000	97.207971 
3444.000000	97.206699 
3443.000000	97.205704 
3442.000000	97.204978 
3441.000000	97.204424 
3440.000000	97.203725 
3439.000000	97.202576 
3438.000000	97.200987 
3437.000000	97.199281 
3436.000000	97.197878 
3435.000000	97.197113 
3434.000000	97.197049 
3433.000000	97.197366 
3432.000000	97.197527 
3431.000000	97.197229 
3430.000000	97.196560 
3429.000000	97.195769 
3428.000000	97.194959 
3427.000000	97.194040 
3426.000000	97.192988 
3425.000000	97.192013 
3424.000000	97.191368 
3423.000000	97.191024 
3422.000000	97.190676 
3421.000000	97.190109 
3420.000000	97.189443 
3419.000000	97.188934 
3418.000000	97.188627 
3417.000000	97.188347 
3416.000000	97.187966 
3415.000000	97.187507 
3414.000000	97.186995 
3413.000000	97.186374 
3412.000000	97.185638 
3411.000000	97.184938 
3410.000000	97.184462 
3409.000000	97.184276 
3408.000000	97.184286 
3407.000000	97.184293 
3406.000000	97.184116 
3405.000000	97.183702 
3404.000000	97.183136 
3403.000000	97.182562 
3402.000000	97.182052 
3401.000000	97.181609 
3400.000000	97.181254 
3399.000000	97.181055 
3398.000000	97.181038 
3397.000000	97.181151 
3396.000000	97.181295 
3395.000000	97.181381 
3394.000000	97.181336 
3393.000000	97.181131 
3392.000000	97.180814 
3391.000000	97.180504 
3390.000000	97.180316 
3389.000000	97.180322 
3388.000000	97.180569 
3387.000000	97.181045 
3386.000000	97.181593 
3385.000000	97.181938 
3384.000000	97.181864 
3383.000000	97.181427 
3382.000000	97.181040 
3381.000000	97.181237 
3380.000000	97.182147 
3379.000000	97.183228 
3378.000000	97.183792 
3377.000000	97.183926 
3376.000000	97.184473 
3375.000000	97.185853 
3374.000000	97.187316 
3373.000000	97.187749 
3372.000000	97.187033 
3371.000000	97.186188 
3370.000000	97.186250 
3369.000000	97.187355 
3368.000000	97.188904 
3367.000000	97.190172 
3366.000000	97.190690 
3365.000000	97.190402 
3364.000000	97.189730 
3363.000000	97.189342 
3362.000000	97.189677 
3361.000000	97.190752 
3360.000000	97.192385 
3359.000000	97.194378 
3358.000000	97.196484 
3357.000000	97.198436 
3356.000000	97.200079 
3355.000000	97.201422 
3354.000000	97.202671 
3353.000000	97.204271 
3352.000000	97.206720 
3351.000000	97.210043 
3350.000000	97.213526 
3349.000000	97.216160 
3348.000000	97.217447 
3347.000000	97.217740 
3346.000000	97.217872 
3345.000000	97.218485 
3344.000000	97.219452 
3343.000000	97.219916 
3342.000000	97.219187 
3341.000000	97.217707 
3340.000000	97.216783 
3339.000000	97.217132 
3338.000000	97.218202 
3337.000000	97.219050 
3336.000000	97.219510 
3335.000000	97.220123 
3334.000000	97.221216 
3333.000000	97.222528 
3332.000000	97.223657 
3331.000000	97.224435 
3330.000000	97.224833 
3329.000000	97.224847 
3328.000000	97.224672 
3327.000000	97.224767 
3326.000000	97.225488 
3325.000000	97.226702 
3324.000000	97.227845 
3323.000000	97.228459 
3322.000000	97.228647 
3321.000000	97.228933 
3320.000000	97.229688 
3319.000000	97.230807 
3318.000000	97.231960 
3317.000000	97.232976 
3316.000000	97.233892 
3315.000000	97.234719 
3314.000000	97.235375 
3313.000000	97.235860 
3312.000000	97.236344 
3311.000000	97.236999 
3310.000000	97.237830 
3309.000000	97.238715 
3308.000000	97.239524 
3307.000000	97.240153 
3306.000000	97.240553 
3305.000000	97.240796 
3304.000000	97.241075 
3303.000000	97.241593 
3302.000000	97.242421 
3301.000000	97.243469 
3300.000000	97.244530 
3299.000000	97.245370 
3298.000000	97.245848 
3297.000000	97.246029 
3296.000000	97.246233 
3295.000000	97.246810 
3294.000000	97.247870 
3293.000000	97.249268 
3292.000000	97.250769 
3291.000000	97.252206 
3290.000000	97.253483 
3289.000000	97.254533 
3288.000000	97.255338 
3287.000000	97.255939 
3286.000000	97.256387 
3285.000000	97.256716 
3284.000000	97.256998 
3283.000000	97.257360 
3282.000000	97.257934 
3281.000000	97.258756 
3280.000000	97.259705 
3279.000000	97.260576 
3278.000000	97.261274 
3277.000000	97.261895 
3276.000000	97.262592 
3275.000000	97.263370 
3274.000000	97.264107 
3273.000000	97.264759 
3272.000000	97.265475 
3271.000000	97.266418 
3270.000000	97.267575 
3269.000000	97.268768 
3268.000000	97.269797 
3267.000000	97.270609 
3266.000000	97.271296 
3265.000000	97.272032 
3264.000000	97.272926 
3263.000000	97.273944 
3262.000000	97.274952 
3261.000000	97.275844 
3260.000000	97.276617 
3259.000000	97.277326 
3258.000000	97.278023 
3257.000000	97.278755 
3256.000000	97.279578 
3255.000000	97.280503 
3254.000000	97.281464 
3253.000000	97.282382 
3252.000000	97.283249 
3251.000000	97.284121 
3250.000000	97.285038 
3249.000000	97.285993 
3248.000000	97.286952 
3247.000000	97.287900 
3246.000000	97.288848 
3245.000000	97.289814 
3244.000000	97.290804 
3243.000000	97.291811 
3242.000000	97.292819 
3241.000000	97.293818 
3240.000000	97.294811 
3239.000000	97.295818 
3238.000000	97.296857 
3237.000000	97.297933 
3236.000000	97.299037 
3235.000000	97.300140 
3234.000000	97.301216 
3233.000000	97.302251 
3232.000000	97.303254 
3231.000000	97.304250 
3230.000000	97.305250 
3229.000000	97.306250 
3228.000000	97.307233 
3227.000000	97.308203 
3226.000000	97.309196 
3225.000000	97.310267 
3224.000000	97.311431 
3223.000000	97.312626 
3222.000000	97.313750 
3221.000000	97.314753 
3220.000000	97.315679 
3219.000000	97.316592 
3218.000000	97.317518 
3217.000000	97.318461 
3216.000000	97.319430 
3215.000000	97.320445 
3214.000000	97.321533 
3213.000000	97.322703 
3212.000000	97.323926 
3211.000000	97.325121 
3210.000000	97.326210 
3209.000000	97.327194 
3208.000000	97.328162 
3207.000000	97.329187 
3206.000000	97.330241 
3205.000000	97.331273 
3204.000000	97.332341 
3203.000000	97.333592 
3202.000000	97.335073 
3201.000000	97.336600 
3200.000000	97.337855 
3199.000000	97.338640 
3198.000000	97.339098 
3197.000000	97.339682 
3196.000000	97.340732 
3195.000000	97.342161 
3194.000000	97.343582 
3193.000000	97.344804 
3192.000000	97.346000 
3191.000000	97.347326 
3190.000000	97.348607 
3189.000000	97.349562 
3188.000000	97.350197 
3187.000000	97.350846 
3186.000000	97.351909 
3185.000000	97.353568 
3184.000000	97.355640 
3183.000000	97.357729 
3182.000000	97.359566 
3181.000000	97.361103 
3180.000000	97.362321 
3179.000000	97.363164 
3178.000000	97.363804 
3177.000000	97.364766 
3176.000000	97.366496 
3175.000000	97.368925 
3174.000000	97.371619 
3173.000000	97.374231 
3172.000000	97.376555 
3171.000000	97.378315 
3170.000000	97.379375 
3169.000000	97.380116 
3168.000000	97.381161 
3167.000000	97.382646 
3166.000000	97.384125 
3165.000000	97.385149 
3164.000000	97.385653 
3163.000000	97.385825 
3162.000000	97.385941 
3161.000000	97.386342 
3160.000000	97.387264 
3159.000000	97.388619 
3158.000000	97.390120 
3157.000000	97.391625 
3156.000000	97.393181 
3155.000000	97.394763 
3154.000000	97.396238 
3153.000000	97.397602 
3152.000000	97.399001 
3151.000000	97.400472 
3150.000000	97.401842 
3149.000000	97.402967 
3148.000000	97.403927 
3147.000000	97.404964 
3146.000000	97.406257 
3145.000000	97.407801 
3144.000000	97.409432 
3143.000000	97.410930 
3142.000000	97.412171 
3141.000000	97.413188 
3140.000000	97.414157 
3139.000000	97.415272 
3138.000000	97.416601 
3137.000000	97.418069 
3136.000000	97.419523 
3135.000000	97.420829 
3134.000000	97.421938 
3133.000000	97.422931 
3132.000000	97.423983 
3131.000000	97.425197 
3130.000000	97.426520 
3129.000000	97.427857 
3128.000000	97.429227 
3127.000000	97.430730 
3126.000000	97.432384 
3125.000000	97.434059 
3124.000000	97.435576 
3123.000000	97.436810 
3122.000000	97.437678 
3121.000000	97.438221 
3120.000000	97.438673 
3119.000000	97.439295 
3118.000000	97.440161 
3117.000000	97.441202 
3116.000000	97.442405 
3115.000000	97.443823 
3114.000000	97.445409 
3113.000000	97.447022 
3112.000000	97.448629 
3111.000000	97.450371 
3110.000000	97.452290 
3109.000000	97.454114 
3108.000000	97.455522 
3107.000000	97.456540 
3106.000000	97.457475 
3105.000000	97.458404 
3104.000000	97.458946 
3103.000000	97.458648 
3102.000000	97.457536 
3101.000000	97.456284 
3100.000000	97.455770 
3099.000000	97.456432 
3098.000000	97.458160 
3097.000000	97.460720 
3096.000000	97.463909 
3095.000000	97.467178 
3094.000000	97.469648 
3093.000000	97.470760 
3092.000000	97.470820 
3091.000000	97.470608 
3090.000000	97.470488 
3089.000000	97.470243 
3088.000000	97.469649 
3087.000000	97.469012 
3086.000000	97.469120 
3085.000000	97.470599 
3084.000000	97.473086 
3083.000000	97.475113 
3082.000000	97.475366 
3081.000000	97.474228 
3080.000000	97.473534 
3079.000000	97.474397 
3078.000000	97.476187 
3077.000000	97.478199 
3076.000000	97.481074 
3075.000000	97.485298 
3074.000000	97.489316 
3073.000000	97.490908 
3072.000000	97.489985 
3071.000000	97.488288 
3070.000000	97.486702 
3069.000000	97.484790 
3068.000000	97.482830 
3067.000000	97.482119 
3066.000000	97.482860 
3065.000000	97.483617 
3064.000000	97.483367 
3063.000000	97.482458 
3062.000000	97.481220 
3061.000000	97.479366 
3060.000000	97.477212 
3059.000000	97.476022 
3058.000000	97.476711 
3057.000000	97.479296 
3056.000000	97.483358 
3055.000000	97.487493 
3054.000000	97.488629 
3053.000000	97.484430 
3052.000000	97.477107 
3051.000000	97.472557 
3050.000000	97.474225 
3049.000000	97.479431 
3048.000000	97.482898 
3047.000000	97.482255 
3046.000000	97.478556 
3045.000000	97.473290 
3044.000000	97.467355 
3043.000000	97.462427 
3042.000000	97.460842 
3041.000000	97.462962 
3040.000000	97.465714 
3039.000000	97.464962 
3038.000000	97.459218 
3037.000000	97.450655 
3036.000000	97.442607 
3035.000000	97.436310 
3034.000000	97.430396 
3033.000000	97.423031 
3032.000000	97.413711 
3031.000000	97.403286 
3030.000000	97.393246 
3029.000000	97.384974 
3028.000000	97.378425 
3027.000000	97.371120 
3026.000000	97.359817 
3025.000000	97.344248 
3024.000000	97.328253 
3023.000000	97.315777 
3022.000000	97.306556 
3021.000000	97.297494 
3020.000000	97.287373 
3019.000000	97.277700 
3018.000000	97.268902 
3017.000000	97.258385 
3016.000000	97.243620 
3015.000000	97.225548 
3014.000000	97.207925 
3013.000000	97.194057 
3012.000000	97.184388 
3011.000000	97.176117 
3010.000000	97.164931 
3009.000000	97.148434 
3008.000000	97.128378 
3007.000000	97.108720 
3006.000000	97.091408 
3005.000000	97.075263 
3004.000000	97.058969 
3003.000000	97.043276 
3002.000000	97.029561 
3001.000000	97.017841 
3000.000000	97.007069 
2999.000000	96.995975 
2998.000000	96.982994 
2997.000000	96.966992 
2996.000000	96.949025 
2995.000000	96.931835 
2994.000000	96.916025 
2993.000000	96.897982 
2992.000000	96.873662 
2991.000000	96.844281 
2990.000000	96.816775 
2989.000000	96.798370 
2988.000000	96.791582 
2987.000000	96.793966 
2986.000000	96.801134 
2985.000000	96.809669 
2984.000000	96.817943 
2983.000000	96.825351 
2982.000000	96.831427 
2981.000000	96.835709 
2980.000000	96.837882 
2979.000000	96.837534 
2978.000000	96.834150 
2977.000000	96.828114 
2976.000000	96.821582 
2975.000000	96.817393 
2974.000000	96.816888 
2973.000000	96.819480 
2972.000000	96.824241 
2971.000000	96.830905 
2970.000000	96.839186 
2969.000000	96.848389 
2968.000000	96.858267 
2967.000000	96.869292 
2966.000000	96.881541 
2965.000000	96.894211 
2964.000000	96.906697 
2963.000000	96.919143 
2962.000000	96.931330 
2961.000000	96.942126 
2960.000000	96.951042 
2959.000000	96.959513 
2958.000000	96.969506 
2957.000000	96.981146 
2956.000000	96.992471 
2955.000000	97.001228 
2954.000000	97.006607 
2953.000000	97.010005 
2952.000000	97.014647 
2951.000000	97.023373 
2950.000000	97.035526 
2949.000000	97.046604 
2948.000000	97.052247 
2947.000000	97.052296 
2946.000000	97.050328 
2945.000000	97.049852 
2944.000000	97.051879 
2943.000000	97.055621 
2942.000000	97.059717 
2941.000000	97.062525 
2940.000000	97.062924 
2939.000000	97.061819 
2938.000000	97.061904 
2937.000000	97.064991 
2936.000000	97.069901 
2935.000000	97.073404 
2934.000000	97.072902 
2933.000000	97.067993 
2932.000000	97.060316 
2931.000000	97.052666 
2930.000000	97.047864 
2929.000000	97.047441 
2928.000000	97.050733 
2927.000000	97.055183 
2926.000000	97.057927 
2925.000000	97.057733 
2924.000000	97.055734 
2923.000000	97.054139 
2922.000000	97.053983 
2921.000000	97.054355 
2920.000000	97.054076 
2919.000000	97.053564 
2918.000000	97.054120 
2917.000000	97.055369 
2916.000000	97.054559 
2915.000000	97.049268 
2914.000000	97.040442 
2913.000000	97.031870 
2912.000000	97.026516 
2911.000000	97.023987 
2910.000000	97.021793 
2909.000000	97.018578 
2908.000000	97.015395 
2907.000000	97.013781 
2906.000000	97.013165 
2905.000000	97.010588 
2904.000000	97.003332 
2903.000000	96.992422 
2902.000000	96.983430 
2901.000000	96.982991 
2900.000000	96.993570 
2899.000000	97.011458 
2898.000000	97.029598 
2897.000000	97.042877 
2896.000000	97.050633 
2895.000000	97.054750 
2894.000000	97.057391 
2893.000000	97.060744 
2892.000000	97.066766 
2891.000000	97.075273 
2890.000000	97.083174 
2889.000000	97.087565 
2888.000000	97.089249 
2887.000000	97.091386 
2886.000000	97.094954 
2885.000000	97.097931 
2884.000000	97.099618 
2883.000000	97.103173 
2882.000000	97.111980 
2881.000000	97.125234 
2880.000000	97.139303 
2879.000000	97.152548 
2878.000000	97.166160 
2877.000000	97.180316 
2876.000000	97.192295 
2875.000000	97.199683 
2874.000000	97.203664 
2873.000000	97.207608 
2872.000000	97.213281 
2871.000000	97.219722 
2870.000000	97.225405 
2869.000000	97.230145 
2868.000000	97.234932 
2867.000000	97.240958 
2866.000000	97.249013 
2865.000000	97.259159 
2864.000000	97.270724 
2863.000000	97.283046 
2862.000000	97.296149 
2861.000000	97.310119 
2860.000000	97.323982 
2859.000000	97.336204 
2858.000000	97.346668 
2857.000000	97.357383 
2856.000000	97.370458 
2855.000000	97.385588 
2854.000000	97.400069 
2853.000000	97.411138 
2852.000000	97.417836 
2851.000000	97.421155 
2850.000000	97.423327 
2849.000000	97.426836 
2848.000000	97.433096 
2847.000000	97.441463 
2846.000000	97.449796 
2845.000000	97.456369 
2844.000000	97.461198 
2843.000000	97.465547 
2842.000000	97.470517 
2841.000000	97.476206 
2840.000000	97.481865 
2839.000000	97.486528 
2838.000000	97.489742 
2837.000000	97.491991 
2836.000000	97.494453 
2835.000000	97.498180 
2834.000000	97.503557 
2833.000000	97.510492 
2832.000000	97.518577 
2831.000000	97.526670 
2830.000000	97.532723 
2829.000000	97.534938 
2828.000000	97.533487 
2827.000000	97.530924 
2826.000000	97.530543 
2825.000000	97.533961 
2824.000000	97.540077 
2823.000000	97.546091 
2822.000000	97.549734 
2821.000000	97.550890 
2820.000000	97.551238 
2819.000000	97.552335 
2818.000000	97.554199 
2817.000000	97.555909 
2816.000000	97.557143 
2815.000000	97.558475 
2814.000000	97.560142 
2813.000000	97.561256 
2812.000000	97.560721 
2811.000000	97.558674 
2810.000000	97.556674 
2809.000000	97.556482 
2808.000000	97.558849 
2807.000000	97.563326 
2806.000000	97.568742 
2805.000000	97.573675 
2804.000000	97.576902 
2803.000000	97.577894 
2802.000000	97.577194 
2801.000000	97.576278 
2800.000000	97.576622 
2799.000000	97.578590 
2798.000000	97.581243 
2797.000000	97.583272 
2796.000000	97.584163 
2795.000000	97.584417 
2794.000000	97.584834 
2793.000000	97.585751 
2792.000000	97.586964 
2791.000000	97.588142 
2790.000000	97.589116 
2789.000000	97.589878 
2788.000000	97.590529 
2787.000000	97.591259 
2786.000000	97.592240 
2785.000000	97.593486 
2784.000000	97.594827 
2783.000000	97.596058 
2782.000000	97.597125 
2781.000000	97.598132 
2780.000000	97.599178 
2779.000000	97.600259 
2778.000000	97.601321 
2777.000000	97.602334 
2776.000000	97.603306 
2775.000000	97.604262 
2774.000000	97.605223 
2773.000000	97.606199 
2772.000000	97.607184 
2771.000000	97.608170 
2770.000000	97.609154 
2769.000000	97.610149 
2768.000000	97.611155 
2767.000000	97.612155 
2766.000000	97.613118 
2765.000000	97.614033 
2764.000000	97.614913 
2763.000000	97.615787 
2762.000000	97.616664 
2761.000000	97.617536 
2760.000000	97.618397 
2759.000000	97.619257 
2758.000000	97.620136 
2757.000000	97.621027 
2756.000000	97.621889 
2755.000000	97.622695 
2754.000000	97.623461 
2753.000000	97.624240 
2752.000000	97.625061 
2751.000000	97.625904 
2750.000000	97.626729 
2749.000000	97.627533 
2748.000000	97.628332 
2747.000000	97.629100 
2746.000000	97.629782 
2745.000000	97.630384 
2744.000000	97.630972 
2743.000000	97.631607 
2742.000000	97.632293 
2741.000000	97.633004 
2740.000000	97.633713 
2739.000000	97.634414 
2738.000000	97.635106 
2737.000000	97.635785 
2736.000000	97.636454 
2735.000000	97.637122 
2734.000000	97.637798 
2733.000000	97.638480 
2732.000000	97.639163 
2731.000000	97.639842 
2730.000000	97.640514 
2729.000000	97.641178 
2728.000000	97.641832 
2727.000000	97.642474 
2726.000000	97.643102 
2725.000000	97.643720 
2724.000000	97.644333 
2723.000000	97.644949 
2722.000000	97.645569 
2721.000000	97.646192 
2720.000000	97.646817 
2719.000000	97.647442 
2718.000000	97.648068 
2717.000000	97.648693 
2716.000000	97.649316 
2715.000000	97.649937 
2714.000000	97.650556 
2713.000000	97.651175 
2712.000000	97.651792 
2711.000000	97.652405 
2710.000000	97.653009 
2709.000000	97.653605 
2708.000000	97.654196 
2707.000000	97.654783 
2706.000000	97.655368 
2705.000000	97.655945 
2704.000000	97.656513 
2703.000000	97.657068 
2702.000000	97.657609 
2701.000000	97.658133 
2700.000000	97.658640 
2699.000000	97.659128 
2698.000000	97.659599 
2697.000000	97.660052 
2696.000000	97.660469 
2695.000000	97.660820 
2694.000000	97.661113 
2693.000000	97.661387 
2692.000000	97.661668 
2691.000000	97.661942 
2690.000000	97.662168 
2689.000000	97.662341 
2688.000000	97.662493 
2687.000000	97.662643 
2686.000000	97.662776 
2685.000000	97.662895 
2684.000000	97.663052 
2683.000000	97.663270 
2682.000000	97.663478 
2681.000000	97.663568 
2680.000000	97.663521 
2679.000000	97.663411 
2678.000000	97.663341 
2677.000000	97.663424 
2676.000000	97.663738 
2675.000000	97.664157 
2674.000000	97.664321 
2673.000000	97.663991 
2672.000000	97.663375 
2671.000000	97.662901 
2670.000000	97.662677 
2669.000000	97.662459 
2668.000000	97.662122 
2667.000000	97.661838 
2666.000000	97.661702 
2665.000000	97.661491 
2664.000000	97.660986 
2663.000000	97.660300 
2662.000000	97.659696 
2661.000000	97.659213 
2660.000000	97.658659 
2659.000000	97.657893 
2658.000000	97.656976 
2657.000000	97.656135 
2656.000000	97.655613 
2655.000000	97.655441 
2654.000000	97.655305 
2653.000000	97.654808 
2652.000000	97.653955 
2651.000000	97.653248 
2650.000000	97.653155 
2649.000000	97.653616 
2648.000000	97.654155 
2647.000000	97.654337 
2646.000000	97.654005 
2645.000000	97.653173 
2644.000000	97.651970 
2643.000000	97.650731 
2642.000000	97.649893 
2641.000000	97.649645 
2640.000000	97.649795 
2639.000000	97.650009 
2638.000000	97.650141 
2637.000000	97.650233 
2636.000000	97.650322 
2635.000000	97.650404 
2634.000000	97.650506 
2633.000000	97.650646 
2632.000000	97.650731 
2631.000000	97.650623 
2630.000000	97.650318 
2629.000000	97.649959 
2628.000000	97.649654 
2627.000000	97.649376 
2626.000000	97.649082 
2625.000000	97.648852 
2624.000000	97.648820 
2623.000000	97.649007 
2622.000000	97.649273 
2621.000000	97.649416 
2620.000000	97.649330 
2619.000000	97.649045 
2618.000000	97.648700 
2617.000000	97.648493 
2616.000000	97.648544 
2615.000000	97.648830 
2614.000000	97.649206 
2613.000000	97.649527 
2612.000000	97.649743 
2611.000000	97.649888 
2610.000000	97.650034 
2609.000000	97.650245 
2608.000000	97.650516 
2607.000000	97.650766 
2606.000000	97.650933 
2605.000000	97.651055 
2604.000000	97.651225 
2603.000000	97.651454 
2602.000000	97.651666 
2601.000000	97.651825 
2600.000000	97.651982 
2599.000000	97.652169 
2598.000000	97.652352 
2597.000000	97.652499 
2596.000000	97.652632 
2595.000000	97.652776 
2594.000000	97.652903 
2593.000000	97.652992 
2592.000000	97.653113 
2591.000000	97.653360 
2590.000000	97.653695 
2589.000000	97.653969 
2588.000000	97.654119 
2587.000000	97.654257 
2586.000000	97.654536 
2585.000000	97.654975 
2584.000000	97.655461 
2583.000000	97.655861 
2582.000000	97.656114 
2581.000000	97.656253 
2580.000000	97.656404 
2579.000000	97.656697 
2578.000000	97.657151 
2577.000000	97.657659 
2576.000000	97.658108 
2575.000000	97.658455 
2574.000000	97.658673 
2573.000000	97.658717 
2572.000000	97.658595 
2571.000000	97.658398 
2570.000000	97.658258 
2569.000000	97.658287 
2568.000000	97.658532 
2567.000000	97.658949 
2566.000000	97.659394 
2565.000000	97.659737 
2564.000000	97.659984 
2563.000000	97.660217 
2562.000000	97.660453 
2561.000000	97.660646 
2560.000000	97.660837 
2559.000000	97.661165 
2558.000000	97.661669 
2557.000000	97.662191 
2556.000000	97.662539 
2555.000000	97.662676 
2554.000000	97.662707 
2553.000000	97.662707 
2552.000000	97.662651 
2551.000000	97.662565 
2550.000000	97.662609 
2549.000000	97.662889 
2548.000000	97.663255 
2547.000000	97.663415 
2546.000000	97.663293 
2545.000000	97.663128 
2544.000000	97.663148 
2543.000000	97.663256 
2542.000000	97.663200 
2541.000000	97.663004 
2540.000000	97.663036 
2539.000000	97.663537 
2538.000000	97.664291 
2537.000000	97.664832 
2536.000000	97.665001 
2535.000000	97.665048 
2534.000000	97.665200 
2533.000000	97.665337 
2532.000000	97.665280 
2531.000000	97.665134 
2530.000000	97.665134 
2529.000000	97.665238 
2528.000000	97.665173 
2527.000000	97.664874 
2526.000000	97.664657 
2525.000000	97.664826 
2524.000000	97.665326 
2523.000000	97.665891 
2522.000000	97.666383 
2521.000000	97.666854 
2520.000000	97.667331 
2519.000000	97.667739 
2518.000000	97.667991 
2517.000000	97.668011 
2516.000000	97.667676 
2515.000000	97.666971 
2514.000000	97.666261 
2513.000000	97.666177 
2512.000000	97.667021 
2511.000000	97.668515 
2510.000000	97.670116 
2509.000000	97.671489 
2508.000000	97.672506 
2507.000000	97.673047 
2506.000000	97.673134 
2505.000000	97.673149 
2504.000000	97.673564 
2503.000000	97.674406 
2502.000000	97.675212 
2501.000000	97.675578 
2500.000000	97.675556 
2499.000000	97.675465 
2498.000000	97.675530 
2497.000000	97.675792 
2496.000000	97.676241 
2495.000000	97.676838 
2494.000000	97.677445 
2493.000000	97.677898 
2492.000000	97.678184 
2491.000000	97.678471 
2490.000000	97.678921 
2489.000000	97.679504 
2488.000000	97.680017 
2487.000000	97.680272 
2486.000000	97.680277 
2485.000000	97.680229 
2484.000000	97.680348 
2483.000000	97.680711 
2482.000000	97.681225 
2481.000000	97.681727 
2480.000000	97.682094 
2479.000000	97.682283 
2478.000000	97.682339 
2477.000000	97.682381 
2476.000000	97.682516 
2475.000000	97.682682 
2474.000000	97.682666 
2473.000000	97.682317 
2472.000000	97.681704 
2471.000000	97.681038 
2470.000000	97.680567 
2469.000000	97.680556 
2468.000000	97.681118 
2467.000000	97.681923 
2466.000000	97.682262 
2465.000000	97.681715 
2464.000000	97.680710 
2463.000000	97.680218 
2462.000000	97.680834 
2461.000000	97.682383 
2460.000000	97.684235 
2459.000000	97.685835 
2458.000000	97.686826 
2457.000000	97.686930 
2456.000000	97.686056 
2455.000000	97.684525 
2454.000000	97.683046 
2453.000000	97.682180 
2452.000000	97.681801 
2451.000000	97.681266 
2450.000000	97.680312 
2449.000000	97.679584 
2448.000000	97.679898 
2447.000000	97.681131 
2446.000000	97.682277 
2445.000000	97.682623 
2444.000000	97.682372 
2443.000000	97.682035 
2442.000000	97.681834 
2441.000000	97.681883 
2440.000000	97.682403 
2439.000000	97.683451 
2438.000000	97.684857 
2437.000000	97.686645 
2436.000000	97.688983 
2435.000000	97.691500 
2434.000000	97.693214 
2433.000000	97.693542 
2432.000000	97.693051 
2431.000000	97.692888 
2430.000000	97.693700 
2429.000000	97.695395 
2428.000000	97.697539 
2427.000000	97.699548 
2426.000000	97.700646 
2425.000000	97.700180 
2424.000000	97.698535 
2423.000000	97.697018 
2422.000000	97.696457 
2421.000000	97.697163 
2420.000000	97.699572 
2419.000000	97.703380 
2418.000000	97.706873 
2417.000000	97.708579 
2416.000000	97.708981 
2415.000000	97.709354 
2414.000000	97.710070 
2413.000000	97.711206 
2412.000000	97.713427 
2411.000000	97.716670 
2410.000000	97.719059 
2409.000000	97.719023 
2408.000000	97.717702 
2407.000000	97.717426 
2406.000000	97.718415 
2405.000000	97.718758 
2404.000000	97.717242 
2403.000000	97.714550 
2402.000000	97.712059 
2401.000000	97.711096 
2400.000000	97.712981 
2399.000000	97.717984 
2398.000000	97.724320 
2397.000000	97.729620 
2396.000000	97.733142 
2395.000000	97.735220 
2394.000000	97.735353 
2393.000000	97.733035 
2392.000000	97.730108 
2391.000000	97.729967 
2390.000000	97.733974 
2389.000000	97.740513 
2388.000000	97.747904 
2387.000000	97.756355 
2386.000000	97.766308 
2385.000000	97.776506 
2384.000000	97.784725 
2383.000000	97.788968 
2382.000000	97.786979 
2381.000000	97.776466 
2380.000000	97.757272 
2379.000000	97.732598 
2378.000000	97.706929 
2377.000000	97.683847 
2376.000000	97.667247 
2375.000000	97.662239 
2374.000000	97.671016 
2373.000000	97.688602 
2372.000000	97.705926 
2371.000000	97.718357 
2370.000000	97.727387 
2369.000000	97.733890 
2368.000000	97.734967 
2367.000000	97.729055 
2366.000000	97.719615 
2365.000000	97.711480 
2364.000000	97.706491 
2363.000000	97.704882 
2362.000000	97.707253 
2361.000000	97.712828 
2360.000000	97.719372 
2359.000000	97.725039 
2358.000000	97.727902 
2357.000000	97.726677 
2356.000000	97.721424 
2355.000000	97.714596 
2354.000000	97.706525 
2353.000000	97.698920 
2352.000000	97.697031 
2351.000000	97.702920 
2350.000000	97.712237 
2349.000000	97.718294 
2348.000000	97.719322 
2347.000000	97.718023 
2346.000000	97.718213 
2345.000000	97.722565 
2344.000000	97.729246 
2343.000000	97.734662 
2342.000000	97.735597 
2341.000000	97.732683 
2340.000000	97.729162 
2339.000000	97.727075 
2338.000000	97.725707 
2337.000000	97.723222 
2336.000000	97.721421 
2335.000000	97.722658 
2334.000000	97.726566 
2333.000000	97.729398 
2332.000000	97.731883 
2331.000000	97.735753 
2330.000000	97.742397 
2329.000000	97.748437 
2328.000000	97.753908 
2327.000000	97.758794 
2326.000000	97.762102 
2325.000000	97.762457 
2324.000000	97.761708 
2323.000000	97.763303 
2322.000000	97.766283 
2321.000000	97.766782 
2320.000000	97.765629 
2319.000000	97.765756 
2318.000000	97.768460 
2317.000000	97.767973 
2316.000000	97.762999 
2315.000000	97.755873 
2314.000000	97.753895 
2313.000000	97.758068 
2312.000000	97.768754 
2311.000000	97.782259 
2310.000000	97.795460 
2309.000000	97.802511 
2308.000000	97.803301 
2307.000000	97.800895 
2306.000000	97.800204 
2305.000000	97.801367 
2304.000000	97.804284 
2303.000000	97.807799 
2302.000000	97.812451 
2301.000000	97.816014 
2300.000000	97.817459 
2299.000000	97.814252 
2298.000000	97.805898 
2297.000000	97.790902 
2296.000000	97.772049 
2295.000000	97.754046 
2294.000000	97.741457 
2293.000000	97.733733 
2292.000000	97.728084 
2291.000000	97.722559 
2290.000000	97.716973 
2289.000000	97.711797 
2288.000000	97.707300 
2287.000000	97.703947 
2286.000000	97.701300 
2285.000000	97.698876 
2284.000000	97.696667 
2283.000000	97.695300 
2282.000000	97.693790 
2281.000000	97.690036 
2280.000000	97.683084 
2279.000000	97.674336 
2278.000000	97.665667 
2277.000000	97.658128 
2276.000000	97.652979 
2275.000000	97.651212 
2274.000000	97.652318 
2273.000000	97.654727 
2272.000000	97.658288 
2271.000000	97.663311 
2270.000000	97.667913 
2269.000000	97.669195 
2268.000000	97.667436 
2267.000000	97.665752 
2266.000000	97.665680 
2265.000000	97.665779 
2264.000000	97.664756 
2263.000000	97.662914 
2262.000000	97.660291 
2261.000000	97.656318 
2260.000000	97.651483 
2259.000000	97.647339 
2258.000000	97.644460 
2257.000000	97.642342 
2256.000000	97.641002 
2255.000000	97.640999 
2254.000000	97.641941 
2253.000000	97.642211 
2252.000000	97.640717 
2251.000000	97.637815 
2250.000000	97.634442 
2249.000000	97.631216 
2248.000000	97.628551 
2247.000000	97.626696 
2246.000000	97.625405 
2245.000000	97.624092 
2244.000000	97.622449 
2243.000000	97.620659 
2242.000000	97.618961 
2241.000000	97.617407 
2240.000000	97.615921 
2239.000000	97.614440 
2238.000000	97.612961 
2237.000000	97.611464 
2236.000000	97.609930 
2235.000000	97.608359 
2234.000000	97.606761 
2233.000000	97.605147 
2232.000000	97.603519 
2231.000000	97.601875 
2230.000000	97.600205 
2229.000000	97.598499 
2228.000000	97.596754 
2227.000000	97.594981 
2226.000000	97.593187 
2225.000000	97.591371 
2224.000000	97.589532 
2223.000000	97.587683 
2222.000000	97.585848 
2221.000000	97.584038 
2220.000000	97.582249 
2219.000000	97.580465 
2218.000000	97.578676 
2217.000000	97.576887 
2216.000000	97.575106 
2215.000000	97.573336 
2214.000000	97.571568 
2213.000000	97.569793 
2212.000000	97.568013 
2211.000000	97.566244 
2210.000000	97.564504 
2209.000000	97.562790 
2208.000000	97.561092 
2207.000000	97.559398 
2206.000000	97.557700 
2205.000000	97.555984 
2204.000000	97.554177 
2203.000000	97.552455 
2202.000000	97.551368 
2201.000000	97.551082 
2200.000000	97.550733 
2199.000000	97.549105 
2198.000000	97.545769 
2197.000000	97.541471 
2196.000000	97.537566 
2195.000000	97.534936 
2194.000000	97.533354 
2193.000000	97.532149 
2192.000000	97.531398 
2191.000000	97.531423 
2190.000000	97.531174 
2189.000000	97.528902 
2188.000000	97.524984 
2187.000000	97.521868 
2186.000000	97.520149 
2185.000000	97.517275 
2184.000000	97.512296 
2183.000000	97.509406 
2182.000000	97.513182 
2181.000000	97.521584 
2180.000000	97.526842 
2179.000000	97.524059 
2178.000000	97.515781 
2177.000000	97.508566 
2176.000000	97.506693 
2175.000000	97.509673 
2174.000000	97.514081 
2173.000000	97.516984 
2172.000000	97.518458 
2171.000000	97.520402 
2170.000000	97.522481 
2169.000000	97.520945 
2168.000000	97.513392 
2167.000000	97.503209 
2166.000000	97.496260 
2165.000000	97.493505 
2164.000000	97.490003 
2163.000000	97.481985 
2162.000000	97.472793 
2161.000000	97.470534 
2160.000000	97.480984 
2159.000000	97.503012 
2158.000000	97.528939 
2157.000000	97.549973 
2156.000000	97.562536 
2155.000000	97.568702 
2154.000000	97.572450 
2153.000000	97.577071 
2152.000000	97.584063 
2151.000000	97.591414 
2150.000000	97.593857 
2149.000000	97.588514 
2148.000000	97.580458 
2147.000000	97.578726 
2146.000000	97.585969 
2145.000000	97.596211 
2144.000000	97.603938 
2143.000000	97.610732 
2142.000000	97.620001 
2141.000000	97.629915 
2140.000000	97.636172 
2139.000000	97.639218 
2138.000000	97.644047 
2137.000000	97.653407 
2136.000000	97.664340 
2135.000000	97.671199 
2134.000000	97.670296 
2133.000000	97.662886 
2132.000000	97.655149 
2131.000000	97.653275 
2130.000000	97.657517 
2129.000000	97.662720 
2128.000000	97.665222 
2127.000000	97.667041 
2126.000000	97.671875 
2125.000000	97.679414 
2124.000000	97.685774 
2123.000000	97.687812 
2122.000000	97.684895 
2121.000000	97.677961 
2120.000000	97.669094 
2119.000000	97.661219 
2118.000000	97.656493 
2117.000000	97.655105 
2116.000000	97.655830 
2115.000000	97.656902 
2114.000000	97.656197 
2113.000000	97.652399 
2112.000000	97.647137 
2111.000000	97.644224 
2110.000000	97.645513 
2109.000000	97.648856 
2108.000000	97.651049 
2107.000000	97.651230 
2106.000000	97.650285 
2105.000000	97.649155 
2104.000000	97.649225 
2103.000000	97.652018 
2102.000000	97.656445 
2101.000000	97.658276 
2100.000000	97.654728 
2099.000000	97.648374 
2098.000000	97.644764 
2097.000000	97.646586 
2096.000000	97.652077 
2095.000000	97.657866 
2094.000000	97.661584 
2093.000000	97.662317 
2092.000000	97.660372 
2091.000000	97.657326 
2090.000000	97.655262 
2089.000000	97.655169 
2088.000000	97.656192 
2087.000000	97.656323 
2086.000000	97.653825 
2085.000000	97.648568 
2084.000000	97.642471 
2083.000000	97.638063 
2082.000000	97.636153 
2081.000000	97.635486 
2080.000000	97.634824 
2079.000000	97.634350 
2078.000000	97.634341 
2077.000000	97.633640 
2076.000000	97.630938 
2075.000000	97.626896 
2074.000000	97.623321 
2073.000000	97.620571 
2072.000000	97.617315 
2071.000000	97.612719 
2070.000000	97.607565 
2069.000000	97.603184 
2068.000000	97.600327 
2067.000000	97.598994 
2066.000000	97.598400 
2065.000000	97.597017 
2064.000000	97.593623 
2063.000000	97.588543 
2062.000000	97.583494 
2061.000000	97.580166 
2060.000000	97.579088 
2059.000000	97.579742 
2058.000000	97.580874 
2057.000000	97.580945 
2056.000000	97.578998 
2055.000000	97.575037 
2054.000000	97.569808 
2053.000000	97.564424 
2052.000000	97.559993 
2051.000000	97.557035 
2050.000000	97.554960 
2049.000000	97.552541 
2048.000000	97.549470 
2047.000000	97.546889 
2046.000000	97.545755 
2045.000000	97.545449 
2044.000000	97.544644 
2043.000000	97.542942 
2042.000000	97.540928 
2041.000000	97.539235 
2040.000000	97.538344 
2039.000000	97.538812 
2038.000000	97.540643 
2037.000000	97.542513 
2036.000000	97.542760 
2035.000000	97.541187 
2034.000000	97.539196 
2033.000000	97.538301 
2032.000000	97.538913 
2031.000000	97.540354 
2030.000000	97.541209 
2029.000000	97.540073 
2028.000000	97.536798 
2027.000000	97.532976 
2026.000000	97.530378 
2025.000000	97.529413 
2024.000000	97.529819 
2023.000000	97.532085 
2022.000000	97.536834 
2021.000000	97.542748 
2020.000000	97.546620 
2019.000000	97.546180 
2018.000000	97.541644 
2017.000000	97.535201 
2016.000000	97.529511 
2015.000000	97.526296 
2014.000000	97.525329 
2013.000000	97.524395 
2012.000000	97.521772 
2011.000000	97.519005 
2010.000000	97.519340 
2009.000000	97.523422 
2008.000000	97.528353 
2007.000000	97.531531 
2006.000000	97.533276 
2005.000000	97.534809 
2004.000000	97.536010 
2003.000000	97.536545 
2002.000000	97.537497 
2001.000000	97.539670 
2000.000000	97.541493 
1999.000000	97.539843 
1998.000000	97.532980 
1997.000000	97.522548 
1996.000000	97.512816 
1995.000000	97.507570 
1994.000000	97.507340 
1993.000000	97.509235 
1992.000000	97.509535 
1991.000000	97.507564 
1990.000000	97.506174 
1989.000000	97.508140 
1988.000000	97.512800 
1987.000000	97.516187 
1986.000000	97.514500 
1985.000000	97.507677 
1984.000000	97.499713 
1983.000000	97.494935 
1982.000000	97.494044 
1981.000000	97.494391 
1980.000000	97.494313 
1979.000000	97.495303 
1978.000000	97.498948 
1977.000000	97.503799 
1976.000000	97.506844 
1975.000000	97.507436 
1974.000000	97.507866 
1973.000000	97.510659 
1972.000000	97.516278 
1971.000000	97.522992 
1970.000000	97.528108 
1969.000000	97.529758 
1968.000000	97.528158 
1967.000000	97.525525 
1966.000000	97.524539 
1965.000000	97.526556 
1964.000000	97.531330 
1963.000000	97.537694 
1962.000000	97.544117 
1961.000000	97.549137 
1960.000000	97.551894 
1959.000000	97.552460 
1958.000000	97.551946 
1957.000000	97.552142 
1956.000000	97.554349 
1955.000000	97.558302 
1954.000000	97.562291 
1953.000000	97.564845 
1952.000000	97.565981 
1951.000000	97.566784 
1950.000000	97.568188 
1949.000000	97.570527 
1948.000000	97.573909 
1947.000000	97.578016 
1946.000000	97.581676 
1945.000000	97.583700 
1944.000000	97.584171 
1943.000000	97.584406 
1942.000000	97.585462 
1941.000000	97.587220 
1940.000000	97.589118 
1939.000000	97.590821 
1938.000000	97.592281 
1937.000000	97.593776 
1936.000000	97.595845 
1935.000000	97.598687 
1934.000000	97.601620 
1933.000000	97.603753 
1932.000000	97.605216 
1931.000000	97.607215 
1930.000000	97.610370 
1929.000000	97.613502 
1928.000000	97.615360 
1927.000000	97.616081 
1926.000000	97.616564 
1925.000000	97.616884 
1924.000000	97.616700 
1923.000000	97.616707 
1922.000000	97.617540 
1921.000000	97.618453 
1920.000000	97.618625 
1919.000000	97.618636 
1918.000000	97.619114 
1917.000000	97.618992 
1916.000000	97.617471 
1915.000000	97.615895 
1914.000000	97.615903 
1913.000000	97.617182 
1912.000000	97.617978 
1911.000000	97.617737 
1910.000000	97.617276 
1909.000000	97.617047 
1908.000000	97.617188 
1907.000000	97.617789 
1906.000000	97.618526 
1905.000000	97.618104 
1904.000000	97.615688 
1903.000000	97.612776 
1902.000000	97.611429 
1901.000000	97.611699 
1900.000000	97.612336 
1899.000000	97.612620 
1898.000000	97.612682 
1897.000000	97.612398 
1896.000000	97.611310 
1895.000000	97.609717 
1894.000000	97.608236 
1893.000000	97.606746 
1892.000000	97.604933 
1891.000000	97.603438 
1890.000000	97.603205 
1889.000000	97.603997 
1888.000000	97.604931 
1887.000000	97.605827 
1886.000000	97.606800 
1885.000000	97.607348 
1884.000000	97.606801 
1883.000000	97.605455 
1882.000000	97.604403 
1881.000000	97.604315 
1880.000000	97.605094 
1879.000000	97.606097 
1878.000000	97.606603 
1877.000000	97.606503 
1876.000000	97.606484 
1875.000000	97.607518 
1874.000000	97.609848 
1873.000000	97.612459 
1872.000000	97.614178 
1871.000000	97.614912 
1870.000000	97.615226 
1869.000000	97.615285 
1868.000000	97.615354 
1867.000000	97.616494 
1866.000000	97.618853 
1865.000000	97.620880 
1864.000000	97.621412 
1863.000000	97.621343 
1862.000000	97.622366 
1861.000000	97.624592 
1860.000000	97.626848 
1859.000000	97.628899 
1858.000000	97.631468 
1857.000000	97.634467 
1856.000000	97.637094 
1855.000000	97.639258 
1854.000000	97.641398 
1853.000000	97.643162 
1852.000000	97.644534 
1851.000000	97.646407 
1850.000000	97.649319 
1849.000000	97.652741 
1848.000000	97.655661 
1847.000000	97.657877 
1846.000000	97.659705 
1845.000000	97.661253 
1844.000000	97.662492 
1843.000000	97.664190 
1842.000000	97.666782 
1841.000000	97.669081 
1840.000000	97.670555 
1839.000000	97.672001 
1838.000000	97.673971 
1837.000000	97.675513 
1836.000000	97.675730 
1835.000000	97.675663 
1834.000000	97.676756 
1833.000000	97.678634 
1832.000000	97.679908 
1831.000000	97.679882 
1830.000000	97.679196 
1829.000000	97.679197 
1828.000000	97.680367 
1827.000000	97.682142 
1826.000000	97.684089 
1825.000000	97.686037 
1824.000000	97.687310 
1823.000000	97.687733 
1822.000000	97.687867 
1821.000000	97.688007 
1820.000000	97.687945 
1819.000000	97.687851 
1818.000000	97.688988 
1817.000000	97.691422 
1816.000000	97.692960 
1815.000000	97.692509 
1814.000000	97.691423 
1813.000000	97.691581 
1812.000000	97.692371 
1811.000000	97.692040 
1810.000000	97.691194 
1809.000000	97.690970 
1808.000000	97.690925 
1807.000000	97.690632 
1806.000000	97.690571 
1805.000000	97.690504 
1804.000000	97.689361 
1803.000000	97.687852 
1802.000000	97.687564 
1801.000000	97.688457 
1800.000000	97.688047 
1799.000000	97.685363 
1798.000000	97.683060 
1797.000000	97.682419 
1796.000000	97.681974 
1795.000000	97.680881 
1794.000000	97.680502 
1793.000000	97.682065 
1792.000000	97.683874 
1791.000000	97.685109 
1790.000000	97.687528 
1789.000000	97.690153 
1788.000000	97.690878 
1787.000000	97.690170 
1786.000000	97.690492 
1785.000000	97.692129 
1784.000000	97.692967 
1783.000000	97.692764 
1782.000000	97.692049 
1781.000000	97.692219 
1780.000000	97.694083 
1779.000000	97.696850 
1778.000000	97.699824 
1777.000000	97.702232 
1776.000000	97.704336 
1775.000000	97.706139 
1774.000000	97.707199 
1773.000000	97.707679 
1772.000000	97.707984 
1771.000000	97.708489 
1770.000000	97.709677 
1769.000000	97.711337 
1768.000000	97.713094 
1767.000000	97.714573 
1766.000000	97.715572 
1765.000000	97.716331 
1764.000000	97.717118 
1763.000000	97.718093 
1762.000000	97.719190 
1761.000000	97.720394 
1760.000000	97.721602 
1759.000000	97.722646 
1758.000000	97.723553 
1757.000000	97.724489 
1756.000000	97.725580 
1755.000000	97.726642 
1754.000000	97.727505 
1753.000000	97.728233 
1752.000000	97.729027 
1751.000000	97.729928 
1750.000000	97.730838 
1749.000000	97.731639 
1748.000000	97.732298 
1747.000000	97.732858 
1746.000000	97.733326 
1745.000000	97.733820 
1744.000000	97.734474 
1743.000000	97.735234 
1742.000000	97.735900 
1741.000000	97.736348 
1740.000000	97.736597 
1739.000000	97.736841 
1738.000000	97.737273 
1737.000000	97.737720 
1736.000000	97.737977 
1735.000000	97.738330 
1734.000000	97.738673 
1733.000000	97.738459 
1732.000000	97.738153 
1731.000000	97.738123 
1730.000000	97.738555 
1729.000000	97.739241 
1728.000000	97.739621 
1727.000000	97.739366 
1726.000000	97.738640 
1725.000000	97.738142 
1724.000000	97.738022 
1723.000000	97.737996 
1722.000000	97.738052 
1721.000000	97.737915 
1720.000000	97.737155 
1719.000000	97.736008 
1718.000000	97.735433 
1717.000000	97.735145 
1716.000000	97.733972 
1715.000000	97.732191 
1714.000000	97.730848 
1713.000000	97.729871 
1712.000000	97.728461 
1711.000000	97.726704 
1710.000000	97.725249 
1709.000000	97.724087 
1708.000000	97.722594 
1707.000000	97.720552 
1706.000000	97.718510 
1705.000000	97.716751 
1704.000000	97.714945 
1703.000000	97.712833 
1702.000000	97.710723 
1701.000000	97.709048 
1700.000000	97.707118 
1699.000000	97.704632 
1698.000000	97.702313 
1697.000000	97.700006 
1696.000000	97.697530 
1695.000000	97.694973 
1694.000000	97.692483 
1693.000000	97.689891 
1692.000000	97.687124 
1691.000000	97.684307 
1690.000000	97.681497 
1689.000000	97.678676 
1688.000000	97.675830 
1687.000000	97.672959 
1686.000000	97.670074 
1685.000000	97.667184 
1684.000000	97.664290 
1683.000000	97.661396 
1682.000000	97.658510 
1681.000000	97.655636 
1680.000000	97.652782 
1679.000000	97.649954 
1678.000000	97.647146 
1677.000000	97.644348 
1676.000000	97.641555 
1675.000000	97.638765 
1674.000000	97.635980 
1673.000000	97.633210 
1672.000000	97.630467 
1671.000000	97.627759 
1670.000000	97.625089 
1669.000000	97.622457 
1668.000000	97.619864 
1667.000000	97.617310 
1666.000000	97.614785 
1665.000000	97.612282 
1664.000000	97.609799 
1663.000000	97.607337 
1662.000000	97.604893 
1661.000000	97.602468 
1660.000000	97.600072 
1659.000000	97.597709 
1658.000000	97.595380 
1657.000000	97.593089 
1656.000000	97.590846 
1655.000000	97.588662 
1654.000000	97.586574 
1653.000000	97.584474 
1652.000000	97.582100 
1651.000000	97.579874 
1650.000000	97.577840 
1649.000000	97.575614 
1648.000000	97.573520 
1647.000000	97.572038 
1646.000000	97.570762 
1645.000000	97.569445 
1644.000000	97.568070 
1643.000000	97.566795 
1642.000000	97.565726 
1641.000000	97.564758 
1640.000000	97.564029 
1639.000000	97.563412 
1638.000000	97.562826 
1637.000000	97.562456 
1636.000000	97.562222 
1635.000000	97.560841 
1634.000000	97.559461 
1633.000000	97.559139 
1632.000000	97.558343 
1631.000000	97.557639 
1630.000000	97.557486 
1629.000000	97.556852 
1628.000000	97.555450 
1627.000000	97.555312 
1626.000000	97.556620 
1625.000000	97.557431 
1624.000000	97.557432 
1623.000000	97.558154 
1622.000000	97.559575 
1621.000000	97.560457 
1620.000000	97.560943 
1619.000000	97.562040 
1618.000000	97.564373 
1617.000000	97.564231 
1616.000000	97.560663 
1615.000000	97.560348 
1614.000000	97.563671 
1613.000000	97.564888 
1612.000000	97.563837 
1611.000000	97.564534 
1610.000000	97.566803 
1609.000000	97.568593 
1608.000000	97.572636 
1607.000000	97.581385 
1606.000000	97.589547 
1605.000000	97.592517 
1604.000000	97.594324 
1603.000000	97.598677 
1602.000000	97.603567 
1601.000000	97.606625 
1600.000000	97.610103 
1599.000000	97.615903 
1598.000000	97.621401 
1597.000000	97.624062 
1596.000000	97.625392 
1595.000000	97.628236 
1594.000000	97.632312 
1593.000000	97.635753 
1592.000000	97.639017 
1591.000000	97.643510 
1590.000000	97.648205 
1589.000000	97.651546 
1588.000000	97.654833 
1587.000000	97.660153 
1586.000000	97.666122 
1585.000000	97.669311 
1584.000000	97.671415 
1583.000000	97.675194 
1582.000000	97.678212 
1581.000000	97.678683 
1580.000000	97.680245 
1579.000000	97.685247 
1578.000000	97.691245 
1577.000000	97.696061 
1576.000000	97.699194 
1575.000000	97.702902 
1574.000000	97.707332 
1573.000000	97.709208 
1572.000000	97.709901 
1571.000000	97.713687 
1570.000000	97.718057 
1569.000000	97.716976 
1568.000000	97.715619 
1567.000000	97.717222 
1566.000000	97.717052 
1565.000000	97.713693 
1564.000000	97.712173 
1563.000000	97.713848 
1562.000000	97.712835 
1561.000000	97.707483 
1560.000000	97.713388 
1559.000000	97.726757 
1558.000000	97.722383 
1557.000000	97.713860 
1556.000000	97.708378 
1555.000000	97.706565 
1554.000000	97.706071 
1553.000000	97.704697 
1552.000000	97.701858 
1551.000000	97.697812 
1550.000000	97.694783 
1549.000000	97.691773 
1548.000000	97.686887 
1547.000000	97.680456 
1546.000000	97.673296 
1545.000000	97.666958 
1544.000000	97.662207 
1543.000000	97.658132 
1542.000000	97.654818 
1541.000000	97.650561 
1540.000000	97.638885 
1539.000000	97.623143 
1538.000000	97.613738 
1537.000000	97.606971 
1536.000000	97.596380 
1535.000000	97.585114 
1534.000000	97.577788 
1533.000000	97.573542 
1532.000000	97.568332 
1531.000000	97.559883 
1530.000000	97.548990 
1529.000000	97.536927 
1528.000000	97.524997 
1527.000000	97.515464 
1526.000000	97.508478 
1525.000000	97.500977 
1524.000000	97.490008 
1523.000000	97.476490 
1522.000000	97.464675 
1521.000000	97.455293 
1520.000000	97.445060 
1519.000000	97.431639 
1518.000000	97.416036 
1517.000000	97.402861 
1516.000000	97.394028 
1515.000000	97.387066 
1514.000000	97.378966 
1513.000000	97.369332 
1512.000000	97.357835 
1511.000000	97.343819 
1510.000000	97.328644 
1509.000000	97.315104 
1508.000000	97.306359 
1507.000000	97.300672 
1506.000000	97.291033 
1505.000000	97.276634 
1504.000000	97.260962 
1503.000000	97.244385 
1502.000000	97.227586 
1501.000000	97.212317 
1500.000000	97.198834 
1499.000000	97.185501 
1498.000000	97.172293 
1497.000000	97.161533 
1496.000000	97.152746 
1495.000000	97.145200 
1494.000000	97.139394 
1493.000000	97.134142 
1492.000000	97.127709 
1491.000000	97.120269 
1490.000000	97.113466 
1489.000000	97.106142 
1488.000000	97.093756 
1487.000000	97.077434 
1486.000000	97.062626 
1485.000000	97.047950 
1484.000000	97.031713 
1483.000000	97.015851 
1482.000000	97.003951 
1481.000000	96.995832 
1480.000000	96.985936 
1479.000000	96.972067 
1478.000000	96.958253 
1477.000000	96.948540 
1476.000000	96.940114 
1475.000000	96.930419 
1474.000000	96.920987 
1473.000000	96.914706 
1472.000000	96.910099 
1471.000000	96.903531 
1470.000000	96.894890 
1469.000000	96.883853 
1468.000000	96.870049 
1467.000000	96.856070 
1466.000000	96.846009 
1465.000000	96.841368 
1464.000000	96.839400 
1463.000000	96.833682 
1462.000000	96.821721 
1461.000000	96.805480 
1460.000000	96.789104 
1459.000000	96.776245 
1458.000000	96.770434 
1457.000000	96.771240 
1456.000000	96.770913 
1455.000000	96.764008 
1454.000000	96.749421 
1453.000000	96.734496 
1452.000000	96.727436 
1451.000000	96.728656 
1450.000000	96.735013 
1449.000000	96.745206 
1448.000000	96.756334 
1447.000000	96.763789 
1446.000000	96.764054 
1445.000000	96.760766 
1444.000000	96.759575 
1443.000000	96.759235 
1442.000000	96.757576 
1441.000000	96.755376 
1440.000000	96.753719 
1439.000000	96.750486 
1438.000000	96.748793 
1437.000000	96.756314 
1436.000000	96.769986 
1435.000000	96.777391 
1434.000000	96.775630 
1433.000000	96.772270 
1432.000000	96.773889 
1431.000000	96.779313 
1430.000000	96.784364 
1429.000000	96.789164 
1428.000000	96.793413 
1427.000000	96.795535 
1426.000000	96.794919 
1425.000000	96.797704 
1424.000000	96.809012 
1423.000000	96.820237 
1422.000000	96.821876 
1421.000000	96.817603 
1420.000000	96.819189 
1419.000000	96.826774 
1418.000000	96.831060 
1417.000000	96.831800 
1416.000000	96.833088 
1415.000000	96.834837 
1414.000000	96.834186 
1413.000000	96.831720 
1412.000000	96.831216 
1411.000000	96.832930 
1410.000000	96.834906 
1409.000000	96.837501 
1408.000000	96.841742 
1407.000000	96.849156 
1406.000000	96.860969 
1405.000000	96.879238 
1404.000000	96.903461 
1403.000000	96.925716 
1402.000000	96.940461 
1401.000000	96.952220 
1400.000000	96.969997 
1399.000000	96.993616 
1398.000000	97.012084 
1397.000000	97.017654 
1396.000000	97.014335 
1395.000000	97.013967 
1394.000000	97.024949 
1393.000000	97.048021 
1392.000000	97.077821 
1391.000000	97.106031 
1390.000000	97.127321 
1389.000000	97.142005 
1388.000000	97.153543 
1387.000000	97.163897 
1386.000000	97.172321 
1385.000000	97.179527 
1384.000000	97.189002 
1383.000000	97.202163 
1382.000000	97.216998 
1381.000000	97.230743 
1380.000000	97.243533 
1379.000000	97.257708 
1378.000000	97.273727 
1377.000000	97.289871 
1376.000000	97.305489 
1375.000000	97.322075 
1374.000000	97.340450 
1373.000000	97.359987 
1372.000000	97.379457 
1371.000000	97.398180 
1370.000000	97.415587 
1369.000000	97.432050 
1368.000000	97.448819 
1367.000000	97.464430 
1366.000000	97.476153 
1365.000000	97.484293 
1364.000000	97.493179 
1363.000000	97.506556 
1362.000000	97.523179 
1361.000000	97.539053 
1360.000000	97.552846 
1359.000000	97.565791 
1358.000000	97.578219 
1357.000000	97.589621 
1356.000000	97.600679 
1355.000000	97.611941 
1354.000000	97.622855 
1353.000000	97.633061 
1352.000000	97.642722 
1351.000000	97.653113 
1350.000000	97.663512 
1349.000000	97.671909 
1348.000000	97.678588 
1347.000000	97.684920 
1346.000000	97.691695 
1345.000000	97.697993 
1344.000000	97.702365 
1343.000000	97.703841 
1342.000000	97.703317 
1341.000000	97.703945 
1340.000000	97.708955 
1339.000000	97.717533 
1338.000000	97.725363 
1337.000000	97.730039 
1336.000000	97.732604 
1335.000000	97.734276 
1334.000000	97.735136 
1333.000000	97.735736 
1332.000000	97.737281 
1331.000000	97.739583 
1330.000000	97.740825 
1329.000000	97.740243 
1328.000000	97.739174 
1327.000000	97.739123 
1326.000000	97.739851 
1325.000000	97.740650 
1324.000000	97.741192 
1323.000000	97.739998 
1322.000000	97.735748 
1321.000000	97.730112 
1320.000000	97.726894 
1319.000000	97.727517 
1318.000000	97.729833 
1317.000000	97.731503 
1316.000000	97.731946 
1315.000000	97.730922 
1314.000000	97.728526 
1313.000000	97.727026 
1312.000000	97.729381 
1311.000000	97.734933 
1310.000000	97.739402 
1309.000000	97.740100 
1308.000000	97.738612 
1307.000000	97.738115 
1306.000000	97.739645 
1305.000000	97.742566 
1304.000000	97.746175 
1303.000000	97.748789 
1302.000000	97.748027 
1301.000000	97.743541 
1300.000000	97.738302 
1299.000000	97.735666 
1298.000000	97.736222 
1297.000000	97.738062 
1296.000000	97.739160 
1295.000000	97.738783 
1294.000000	97.737719 
1293.000000	97.737729 
1292.000000	97.739592 
1291.000000	97.741795 
1290.000000	97.742478 
1289.000000	97.742220 
1288.000000	97.742941 
1287.000000	97.744343 
1286.000000	97.743917 
1285.000000	97.740836 
1284.000000	97.737351 
1283.000000	97.735534 
1282.000000	97.734545 
1281.000000	97.732248 
1280.000000	97.728453 
1279.000000	97.725238 
1278.000000	97.724992 
1277.000000	97.728728 
1276.000000	97.735018 
1275.000000	97.740273 
1274.000000	97.741448 
1273.000000	97.739090 
1272.000000	97.736271 
1271.000000	97.734366 
1270.000000	97.731708 
1269.000000	97.726946 
1268.000000	97.721406 
1267.000000	97.716698 
1266.000000	97.712206 
1265.000000	97.706727 
1264.000000	97.700926 
1263.000000	97.696437 
1262.000000	97.693364 
1261.000000	97.690261 
1260.000000	97.686505 
1259.000000	97.683046 
1258.000000	97.680544 
1257.000000	97.677615 
1256.000000	97.671432 
1255.000000	97.660706 
1254.000000	97.647827 
1253.000000	97.636712 
1252.000000	97.628035 
1251.000000	97.618524 
1250.000000	97.606363 
1249.000000	97.595368 
1248.000000	97.591128 
1247.000000	97.593607 
1246.000000	97.596147 
1245.000000	97.591689 
1244.000000	97.578353 
1243.000000	97.560522 
1242.000000	97.546773 
1241.000000	97.544665 
1240.000000	97.553636 
1239.000000	97.563270 
1238.000000	97.561989 
1237.000000	97.547451 
1236.000000	97.525869 
1235.000000	97.502788 
1234.000000	97.478866 
1233.000000	97.454141 
1232.000000	97.430753 
1231.000000	97.409515 
1230.000000	97.388188 
1229.000000	97.365390 
1228.000000	97.342554 
1227.000000	97.319690 
1226.000000	97.292443 
1225.000000	97.256361 
1224.000000	97.211974 
1223.000000	97.163235 
1222.000000	97.112469 
1221.000000	97.059055 
1220.000000	97.001870 
1219.000000	96.940818 
1218.000000	96.876434 
1217.000000	96.809195 
1216.000000	96.738548 
1215.000000	96.662413 
1214.000000	96.579582 
1213.000000	96.493298 
1212.000000	96.409613 
1211.000000	96.330281 
1210.000000	96.249837 
1209.000000	96.162318 
1208.000000	96.068844 
1207.000000	95.975722 
1206.000000	95.886607 
1205.000000	95.799573 
1204.000000	95.711046 
1203.000000	95.619459 
1202.000000	95.525553 
1201.000000	95.431683 
1200.000000	95.340550 
1199.000000	95.252535 
1198.000000	95.164675 
1197.000000	95.074012 
1196.000000	94.980919 
1195.000000	94.887516 
1194.000000	94.794249 
1193.000000	94.700144 
1192.000000	94.605028 
1191.000000	94.508998 
1190.000000	94.410820 
1189.000000	94.309152 
1188.000000	94.204261 
1187.000000	94.096682 
1186.000000	93.985990 
1185.000000	93.872921 
1184.000000	93.760186 
1183.000000	93.648304 
1182.000000	93.533065 
1181.000000	93.410589 
1180.000000	93.282430 
1179.000000	93.151608 
1178.000000	93.016173 
1177.000000	92.871861 
1176.000000	92.719390 
1175.000000	92.563857 
1174.000000	92.408115 
1173.000000	92.252204 
1172.000000	92.098090 
1171.000000	91.948651 
1170.000000	91.802419 
1169.000000	91.655928 
1168.000000	91.511745 
1167.000000	91.378537 
1166.000000	91.263625 
1165.000000	91.172149 
1164.000000	91.113031 
1163.000000	91.096912 
1162.000000	91.124846 
1161.000000	91.183440 
1160.000000	91.251685 
1159.000000	91.308299 
1158.000000	91.334721 
1157.000000	91.319585 
1156.000000	91.263036 
1155.000000	91.173363 
1154.000000	91.059405 
1153.000000	90.929282 
1152.000000	90.793841 
1151.000000	90.663588 
1150.000000	90.541039 
1149.000000	90.422056 
1148.000000	90.305036 
1147.000000	90.192315 
1146.000000	90.082526 
1145.000000	89.969520 
1144.000000	89.850808 
1143.000000	89.730509 
1142.000000	89.612181 
1141.000000	89.494970 
1140.000000	89.378395 
1139.000000	89.264496 
1138.000000	89.153291 
1137.000000	89.041838 
1136.000000	88.929206 
1135.000000	88.816921 
1134.000000	88.703982 
1133.000000	88.587579 
1132.000000	88.469057 
1131.000000	88.352459 
1130.000000	88.236829 
1129.000000	88.117108 
1128.000000	87.993137 
1127.000000	87.870205 
1126.000000	87.749867 
1125.000000	87.628016 
1124.000000	87.503133 
1123.000000	87.378543 
1122.000000	87.255301 
1121.000000	87.130874 
1120.000000	87.006087 
1119.000000	86.884959 
1118.000000	86.766449 
1117.000000	86.645261 
1116.000000	86.521971 
1115.000000	86.403110 
1114.000000	86.290053 
1113.000000	86.177577 
1112.000000	86.064775 
1111.000000	85.956649 
1110.000000	85.853487 
1109.000000	85.749416 
1108.000000	85.642259 
1107.000000	85.535267 
1106.000000	85.428559 
1105.000000	85.318817 
1104.000000	85.208258 
1103.000000	85.103289 
1102.000000	85.003453 
1101.000000	84.902309 
1100.000000	84.799686 
1099.000000	84.702682 
1098.000000	84.614193 
1097.000000	84.531014 
1096.000000	84.452808 
1095.000000	84.380698 
1094.000000	84.307518 
1093.000000	84.223049 
1092.000000	84.130492 
1091.000000	84.045173 
1090.000000	83.975329 
1089.000000	83.915821 
1088.000000	83.861031 
1087.000000	83.810911 
1086.000000	83.763391 
1085.000000	83.714270 
1084.000000	83.666449 
1083.000000	83.626989 
1082.000000	83.594096 
1081.000000	83.559637 
1080.000000	83.524934 
1079.000000	83.500370 
1078.000000	83.487896 
1077.000000	83.477007 
1076.000000	83.459166 
1075.000000	83.433132 
1074.000000	83.395937 
1073.000000	83.342342 
1072.000000	83.272959 
1071.000000	83.188020 
1070.000000	83.073006 
1069.000000	82.907918 
1068.000000	82.695016 
1067.000000	82.464047 
1066.000000	82.245093 
1065.000000	82.046946 
1064.000000	81.864492 
1063.000000	81.690315 
1062.000000	81.512533 
1061.000000	81.317026 
1060.000000	81.102113 
1059.000000	80.882850 
1058.000000	80.675587 
1057.000000	80.485899 
1056.000000	80.312596 
1055.000000	80.151486 
1054.000000	79.992661 
1053.000000	79.826552 
1052.000000	79.656224 
1051.000000	79.492437 
1050.000000	79.335231 
1049.000000	79.174239 
1048.000000	79.007011 
1047.000000	78.840578 
1046.000000	78.675702 
1045.000000	78.506328 
1044.000000	78.333662 
1043.000000	78.164918 
1042.000000	77.998753 
1041.000000	77.827367 
1040.000000	77.653184 
1039.000000	77.488617 
1038.000000	77.339731 
1037.000000	77.204915 
1036.000000	77.087475 
1035.000000	76.992545 
1034.000000	76.913075 
1033.000000	76.836022 
1032.000000	76.760506 
1031.000000	76.692812 
1030.000000	76.628292 
1029.000000	76.559403 
1028.000000	76.498045 
1027.000000	76.465610 
1026.000000	76.460606 
1025.000000	76.458631 
1024.000000	76.445823 
1023.000000	76.430010 
1022.000000	76.417232 
1021.000000	76.401109 
1020.000000	76.379272 
1019.000000	76.358704 
1018.000000	76.340162 
1017.000000	76.316412 
1016.000000	76.289141 
1015.000000	76.268986 
1014.000000	76.256536 
1013.000000	76.241916 
1012.000000	76.224597 
1011.000000	76.214580 
1010.000000	76.213157 
1009.000000	76.212361 
1008.000000	76.214490 
1007.000000	76.231843 
1006.000000	76.265749 
1005.000000	76.305829 
1004.000000	76.350576 
1003.000000	76.407614 
1002.000000	76.472693 
1001.000000	76.531119 
1000.000000	76.583177 
999.000000	 76.646266 
998.000000	 76.727693 
997.000000	 76.815802 
996.000000	 76.901847 
995.000000	 76.990953 
994.000000	 77.087225 
993.000000	 77.187118 
992.000000	 77.291457 
991.000000	 77.405716 
990.000000	 77.525280 
989.000000	 77.638752 
988.000000	 77.748712 
987.000000	 77.870708 
986.000000	 78.009507 
985.000000	 78.155412 
984.000000	 78.305973 
983.000000	 78.470893 
982.000000	 78.651605 
981.000000	 78.835677 
980.000000	 79.016483 
979.000000	 79.200643 
978.000000	 79.391551 
977.000000	 79.583660 
976.000000	 79.777625 
975.000000	 79.983379 
974.000000	 80.202697 
973.000000	 80.424715 
972.000000	 80.643690 
971.000000	 80.866161 
970.000000	 81.096060 
969.000000	 81.327444 
968.000000	 81.556181 
967.000000	 81.785201 
966.000000	 82.014751 
965.000000	 82.240637 
964.000000	 82.464678 
963.000000	 82.693642 
962.000000	 82.925509 
961.000000	 83.149861 
960.000000	 83.363773 
959.000000	 83.574275 
958.000000	 83.783657 
957.000000	 83.985739 
956.000000	 84.178784 
955.000000	 84.369239 
954.000000	 84.560221 
953.000000	 84.747792 
952.000000	 84.929986 
951.000000	 85.108022 
950.000000	 85.278294 
949.000000	 85.435403 
948.000000	 85.583399 
947.000000	 85.731805 
946.000000	 85.880080 
945.000000	 86.018656 
944.000000	 86.145579 
943.000000	 86.269405 
942.000000	 86.395050 
941.000000	 86.519634 
940.000000	 86.643327 
939.000000	 86.770995 
938.000000	 86.901305 
937.000000	 87.026820 
936.000000	 87.146898 
935.000000	 87.268765 
934.000000	 87.394531 
933.000000	 87.519127 
932.000000	 87.642308 
931.000000	 87.770188 
930.000000	 87.902638 
929.000000	 88.030901 
928.000000	 88.150448 
927.000000	 88.265731 
926.000000	 88.380144 
925.000000	 88.490930 
924.000000	 88.595559 
923.000000	 88.693976 
922.000000	 88.784070 
921.000000	 88.864622 
920.000000	 88.942873 
919.000000	 89.028913 
918.000000	 89.121665 
917.000000	 89.209908 
916.000000	 89.288150 
915.000000	 89.362926 
914.000000	 89.443431 
913.000000	 89.534609 
912.000000	 89.639067 
911.000000	 89.756567 
910.000000	 89.881542 
909.000000	 90.009438 
908.000000	 90.144261 
907.000000	 90.291928 
906.000000	 90.449574 
905.000000	 90.610552 
904.000000	 90.775772 
903.000000	 90.949175 
902.000000	 91.126003 
901.000000	 91.297675 
900.000000	 91.465464 
899.000000	 91.637486 
898.000000	 91.814004 
897.000000	 91.986659 
896.000000	 92.149753 
895.000000	 92.301552 
894.000000	 92.438319 
893.000000	 92.559181 
892.000000	 92.674216 
891.000000	 92.795306 
890.000000	 92.919883 
889.000000	 93.034180 
888.000000	 93.129716 
887.000000	 93.206148 
886.000000	 93.263220 
885.000000	 93.303366 
884.000000	 93.338484 
883.000000	 93.379132 
882.000000	 93.419592 
881.000000	 93.449874 
880.000000	 93.480616 
879.000000	 93.537182 
878.000000	 93.627728 
877.000000	 93.735443 
876.000000	 93.844824 
875.000000	 93.957781 
874.000000	 94.080270 
873.000000	 94.212196 
872.000000	 94.356432 
871.000000	 94.520255 
870.000000	 94.700013 
869.000000	 94.877897 
868.000000	 95.040363 
867.000000	 95.188762 
866.000000	 95.328432 
865.000000	 95.459815 
864.000000	 95.585222 
863.000000	 95.712700 
862.000000	 95.845887 
861.000000	 95.977839 
860.000000	 96.100434 
859.000000	 96.213695 
858.000000	 96.322468 
857.000000	 96.429741 
856.000000	 96.535296 
855.000000	 96.635162 
854.000000	 96.721601 
853.000000	 96.790076 
852.000000	 96.846595 
851.000000	 96.902211 
850.000000	 96.961357 
849.000000	 97.022311 
848.000000	 97.086098 
847.000000	 97.155042 
846.000000	 97.224264 
845.000000	 97.285302 
844.000000	 97.337701 
843.000000	 97.387068 
842.000000	 97.432563 
841.000000	 97.467051 
840.000000	 97.489335 
839.000000	 97.505151 
838.000000	 97.515895 
837.000000	 97.517730 
836.000000	 97.513271 
835.000000	 97.512869 
834.000000	 97.521103 
833.000000	 97.531809 
832.000000	 97.539672 
831.000000	 97.547318 
830.000000	 97.557628 
829.000000	 97.568600 
828.000000	 97.580681 
827.000000	 97.601073 
826.000000	 97.635622 
825.000000	 97.682288 
824.000000	 97.734257 
823.000000	 97.781644 
822.000000	 97.810824 
821.000000	 97.813036 
820.000000	 97.794173 
819.000000	 97.766857 
818.000000	 97.732981 
817.000000	 97.681894 
816.000000	 97.604554 
815.000000	 97.500357 
814.000000	 97.369278 
813.000000	 97.205315 
812.000000	 96.998712 
811.000000	 96.736895 
810.000000	 96.402505 
809.000000	 95.979876 
808.000000	 95.467863 
807.000000	 94.882155 
806.000000	 94.244975 
805.000000	 93.579427 
804.000000	 92.913349 
803.000000	 92.276819 
802.000000	 91.692148 
801.000000	 91.176430 
800.000000	 90.754339 
799.000000	 90.452722 
798.000000	 90.278289 
797.000000	 90.213837 
796.000000	 90.236836 
795.000000	 90.325794 
794.000000	 90.450668 
793.000000	 90.579481 
792.000000	 90.698589 
791.000000	 90.809302 
790.000000	 90.903182 
789.000000	 90.958056 
788.000000	 90.959217 
787.000000	 90.906429 
786.000000	 90.798629 
785.000000	 90.630481 
784.000000	 90.408291 
783.000000	 90.153504 
782.000000	 89.888004 
781.000000	 89.632593 
780.000000	 89.420211 
779.000000	 89.287861 
778.000000	 89.248459 
777.000000	 89.288547 
776.000000	 89.396738 
775.000000	 89.572634 
774.000000	 89.803334 
773.000000	 90.055866 
772.000000	 90.303470 
771.000000	 90.541603 
770.000000	 90.771315 
769.000000	 90.985466 
768.000000	 91.178537 
767.000000	 91.352528 
766.000000	 91.506024 
765.000000	 91.634058 
764.000000	 91.745430 
763.000000	 91.863195 
762.000000	 91.999674 
761.000000	 92.145357 
760.000000	 92.288639 
759.000000	 92.430971 
758.000000	 92.576296 
757.000000	 92.722130 
756.000000	 92.869430 
755.000000	 93.026205 
754.000000	 93.191883 
753.000000	 93.350075 
752.000000	 93.484477 
751.000000	 93.592647 
750.000000	 93.681630 
749.000000	 93.761815 
748.000000	 93.846993 
747.000000	 93.946038 
746.000000	 94.050362 
745.000000	 94.143783 
744.000000	 94.228424 
743.000000	 94.325283 
742.000000	 94.445326 
741.000000	 94.576992 
740.000000	 94.707108 
739.000000	 94.836183 
738.000000	 94.965711 
737.000000	 95.086426 
736.000000	 95.188733 
735.000000	 95.272691 
734.000000	 95.341739 
733.000000	 95.398217 
732.000000	 95.448235 
731.000000	 95.497667 
730.000000	 95.540757 
729.000000	 95.567998 
728.000000	 95.584575 
727.000000	 95.608093 
726.000000	 95.650631 
725.000000	 95.712930 
724.000000	 95.794271 
723.000000	 95.894138 
722.000000	 96.002896 
721.000000	 96.104748 
720.000000	 96.192899 
719.000000	 96.271142 
718.000000	 96.339593 
717.000000	 96.393061 
716.000000	 96.436287 
715.000000	 96.483727 
714.000000	 96.540394 
713.000000	 96.599538 
712.000000	 96.660957 
711.000000	 96.733266 
710.000000	 96.812911 
709.000000	 96.885863 
708.000000	 96.944894 
707.000000	 96.991906 
706.000000	 97.025453 
705.000000	 97.035291 
704.000000	 97.013190 
703.000000	 96.960148 
702.000000	 96.872448 
701.000000	 96.732408 
700.000000	 96.524522 
699.000000	 96.249809 
698.000000	 95.928478 
697.000000	 95.600532 
696.000000	 95.322886 
695.000000	 95.152583 
694.000000	 95.113842 
693.000000	 95.187811 
692.000000	 95.337447 
691.000000	 95.527682 
690.000000	 95.729753 
689.000000	 95.922175 
688.000000	 96.094670 
687.000000	 96.246036 
686.000000	 96.370791 
685.000000	 96.462980 
684.000000	 96.534340 
683.000000	 96.605642 
682.000000	 96.681833 
681.000000	 96.752172 
680.000000	 96.815423 
679.000000	 96.881096 
678.000000	 96.949372 
677.000000	 97.015583 
676.000000	 97.081554 
675.000000	 97.153242 
674.000000	 97.224905 
673.000000	 97.269507 
672.000000	 97.263309 
671.000000	 97.190244 
670.000000	 97.048245 
669.000000	 96.857446 
668.000000	 96.767944 
667.000000	 96.930210 
666.000000	 97.207568 
665.000000	 97.411309 
664.000000	 97.529427 
663.000000	 97.597141 
662.000000	 97.643187 
661.000000	 97.680931 
660.000000	 97.714665 
659.000000	 97.747291 
658.000000	 97.775291 
657.000000	 97.791997 
656.000000	 97.789209 
655.000000	 97.768408 
654.000000	 97.742880 
653.000000	 97.721652 
652.000000	 97.703883 
651.000000	 97.694271 
650.000000	 97.705852 

