4000.000000	98.922048 
3999.000000	98.921380 
3998.000000	98.921231 
3997.000000	98.921635 
3996.000000	98.922273 
3995.000000	98.922750 
3994.000000	98.922875 
3993.000000	98.922743 
3992.000000	98.922597 
3991.000000	98.922586 
3990.000000	98.922755 
3989.000000	98.923098 
3988.000000	98.923518 
3987.000000	98.923798 
3986.000000	98.923751 
3985.000000	98.923401 
3984.000000	98.922994 
3983.000000	98.922803 
3982.000000	98.922905 
3981.000000	98.923107 
3980.000000	98.923125 
3979.000000	98.922852 
3978.000000	98.922381 
3977.000000	98.921818 
3976.000000	98.921144 
3975.000000	98.920311 
3974.000000	98.919397 
3973.000000	98.918596 
3972.000000	98.918087 
3971.000000	98.917923 
3970.000000	98.918114 
3969.000000	98.918726 
3968.000000	98.919753 
3967.000000	98.920943 
3966.000000	98.921846 
3965.000000	98.922069 
3964.000000	98.921549 
3963.000000	98.920635 
3962.000000	98.919850 
3961.000000	98.919513 
3960.000000	98.919575 
3959.000000	98.919618 
3958.000000	98.919155 
3957.000000	98.918114 
3956.000000	98.916941 
3955.000000	98.916233 
3954.000000	98.916255 
3953.000000	98.916738 
3952.000000	98.917121 
3951.000000	98.917033 
3950.000000	98.916781 
3949.000000	98.917061 
3948.000000	98.917986 
3947.000000	98.918795 
3946.000000	98.918604 
3945.000000	98.917106 
3944.000000	98.914643 
3943.000000	98.912141 
3942.000000	98.910538 
3941.000000	98.910074 
3940.000000	98.910292 
3939.000000	98.910569 
3938.000000	98.910657 
3937.000000	98.910915 
3936.000000	98.911911 
3935.000000	98.913798 
3934.000000	98.916044 
3933.000000	98.917709 
3932.000000	98.917992 
3931.000000	98.916589 
3930.000000	98.913843 
3929.000000	98.910477 
3928.000000	98.907186 
3927.000000	98.904664 
3926.000000	98.903411 
3925.000000	98.903590 
3924.000000	98.905298 
3923.000000	98.908243 
3922.000000	98.911567 
3921.000000	98.914295 
3920.000000	98.916056 
3919.000000	98.917143 
3918.000000	98.917585 
3917.000000	98.916932 
3916.000000	98.915158 
3915.000000	98.913141 
3914.000000	98.911750 
3913.000000	98.911024 
3912.000000	98.910688 
3911.000000	98.910640 
3910.000000	98.910819 
3909.000000	98.911134 
3908.000000	98.911619 
3907.000000	98.912450 
3906.000000	98.913963 
3905.000000	98.916289 
3904.000000	98.919257 
3903.000000	98.921981 
3902.000000	98.923087 
3901.000000	98.922021 
3900.000000	98.919371 
3899.000000	98.916556 
3898.000000	98.914826 
3897.000000	98.914208 
3896.000000	98.913866 
3895.000000	98.913049 
3894.000000	98.911565 
3893.000000	98.909936 
3892.000000	98.908918 
3891.000000	98.908722 
3890.000000	98.909122 
3889.000000	98.909995 
3888.000000	98.911153 
3887.000000	98.911837 
3886.000000	98.911494 
3885.000000	98.910605 
3884.000000	98.910073 
3883.000000	98.909904 
3882.000000	98.909400 
3881.000000	98.908510 
3880.000000	98.907949 
3879.000000	98.908116 
3878.000000	98.908728 
3877.000000	98.909182 
3876.000000	98.908742 
3875.000000	98.907103 
3874.000000	98.905053 
3873.000000	98.904103 
3872.000000	98.904906 
3871.000000	98.906353 
3870.000000	98.906764 
3869.000000	98.905902 
3868.000000	98.904902 
3867.000000	98.904324 
3866.000000	98.903109 
3865.000000	98.900575 
3864.000000	98.898644 
3863.000000	98.899151 
3862.000000	98.901243 
3861.000000	98.902942 
3860.000000	98.903135 
3859.000000	98.901273 
3858.000000	98.897454 
3857.000000	98.892821 
3856.000000	98.889608 
3855.000000	98.887809 
3854.000000	98.886178 
3853.000000	98.885731 
3852.000000	98.887295 
3851.000000	98.890044 
3850.000000	98.893101 
3849.000000	98.895510 
3848.000000	98.897422 
3847.000000	98.899547 
3846.000000	98.901594 
3845.000000	98.903084 
3844.000000	98.904211 
3843.000000	98.904660 
3842.000000	98.904223 
3841.000000	98.903861 
3840.000000	98.904454 
3839.000000	98.905962 
3838.000000	98.907727 
3837.000000	98.908762 
3836.000000	98.908776 
3835.000000	98.907852 
3834.000000	98.906503 
3833.000000	98.905354 
3832.000000	98.904694 
3831.000000	98.904646 
3830.000000	98.904946 
3829.000000	98.904918 
3828.000000	98.904282 
3827.000000	98.903315 
3826.000000	98.902738 
3825.000000	98.903729 
3824.000000	98.906720 
3823.000000	98.909590 
3822.000000	98.909720 
3821.000000	98.907643 
3820.000000	98.906187 
3819.000000	98.906477 
3818.000000	98.907345 
3817.000000	98.906623 
3816.000000	98.903268 
3815.000000	98.898842 
3814.000000	98.895799 
3813.000000	98.894498 
3812.000000	98.893581 
3811.000000	98.892586 
3810.000000	98.892478 
3809.000000	98.893929 
3808.000000	98.896102 
3807.000000	98.897456 
3806.000000	98.897835 
3805.000000	98.898170 
3804.000000	98.898387 
3803.000000	98.896921 
3802.000000	98.892875 
3801.000000	98.888110 
3800.000000	98.885473 
3799.000000	98.885393 
3798.000000	98.886098 
3797.000000	98.885894 
3796.000000	98.884606 
3795.000000	98.882876 
3794.000000	98.880940 
3793.000000	98.878373 
3792.000000	98.875064 
3791.000000	98.872070 
3790.000000	98.870470 
3789.000000	98.870062 
3788.000000	98.869741 
3787.000000	98.868998 
3786.000000	98.868353 
3785.000000	98.868643 
3784.000000	98.870182 
3783.000000	98.872992 
3782.000000	98.876462 
3781.000000	98.878978 
3780.000000	98.879386 
3779.000000	98.878128 
3778.000000	98.876365 
3777.000000	98.875146 
3776.000000	98.875141 
3775.000000	98.875865 
3774.000000	98.876875 
3773.000000	98.878850 
3772.000000	98.882258 
3771.000000	98.885475 
3770.000000	98.886944 
3769.000000	98.887538 
3768.000000	98.888288 
3767.000000	98.888966 
3766.000000	98.888737 
3765.000000	98.887179 
3764.000000	98.885707 
3763.000000	98.886380 
3762.000000	98.888532 
3761.000000	98.889013 
3760.000000	98.887573 
3759.000000	98.888415 
3758.000000	98.892895 
3757.000000	98.897423 
3756.000000	98.900415 
3755.000000	98.903486 
3754.000000	98.907937 
3753.000000	98.912680 
3752.000000	98.917409 
3751.000000	98.924540 
3750.000000	98.931190 
3749.000000	98.931277 
3748.000000	98.926678 
3747.000000	98.924881 
3746.000000	98.926886 
3745.000000	98.923962 
3744.000000	98.911378 
3743.000000	98.898348 
3742.000000	98.895136 
3741.000000	98.900094 
3740.000000	98.906149 
3739.000000	98.912376 
3738.000000	98.920096 
3737.000000	98.925151 
3736.000000	98.924600 
3735.000000	98.921685 
3734.000000	98.918932 
3733.000000	98.911925 
3732.000000	98.897657 
3731.000000	98.881882 
3730.000000	98.872005 
3729.000000	98.869456 
3728.000000	98.868708 
3727.000000	98.863611 
3726.000000	98.854700 
3725.000000	98.847266 
3724.000000	98.843127 
3723.000000	98.838958 
3722.000000	98.832481 
3721.000000	98.823720 
3720.000000	98.812971 
3719.000000	98.802305 
3718.000000	98.793843 
3717.000000	98.788483 
3716.000000	98.787455 
3715.000000	98.790646 
3714.000000	98.794368 
3713.000000	98.792154 
3712.000000	98.781448 
3711.000000	98.764873 
3710.000000	98.744320 
3709.000000	98.720673 
3708.000000	98.695245 
3707.000000	98.669603 
3706.000000	98.645191 
3705.000000	98.622189 
3704.000000	98.598730 
3703.000000	98.572334 
3702.000000	98.543443 
3701.000000	98.514467 
3700.000000	98.486426 
3699.000000	98.459808 
3698.000000	98.435294 
3697.000000	98.413502 
3696.000000	98.397004 
3695.000000	98.388905 
3694.000000	98.387348 
3693.000000	98.385118 
3692.000000	98.376649 
3691.000000	98.363517 
3690.000000	98.352345 
3689.000000	98.346274 
3688.000000	98.340833 
3687.000000	98.332093 
3686.000000	98.322472 
3685.000000	98.314993 
3684.000000	98.310237 
3683.000000	98.307700 
3682.000000	98.305359 
3681.000000	98.298577 
3680.000000	98.283137 
3679.000000	98.260833 
3678.000000	98.238999 
3677.000000	98.220852 
3676.000000	98.204345 
3675.000000	98.190493 
3674.000000	98.179913 
3673.000000	98.170296 
3672.000000	98.158373 
3671.000000	98.139531 
3670.000000	98.115196 
3669.000000	98.092179 
3668.000000	98.072393 
3667.000000	98.053636 
3666.000000	98.035674 
3665.000000	98.019517 
3664.000000	98.004539 
3663.000000	97.988510 
3662.000000	97.969412 
3661.000000	97.948070 
3660.000000	97.928677 
3659.000000	97.915286 
3658.000000	97.907975 
3657.000000	97.902626 
3656.000000	97.895507 
3655.000000	97.887631 
3654.000000	97.882707 
3653.000000	97.881603 
3652.000000	97.880302 
3651.000000	97.873738 
3650.000000	97.863166 
3649.000000	97.853169 
3648.000000	97.842173 
3647.000000	97.826671 
3646.000000	97.808472 
3645.000000	97.791414 
3644.000000	97.776732 
3643.000000	97.763662 
3642.000000	97.750423 
3641.000000	97.736488 
3640.000000	97.722660 
3639.000000	97.709803 
3638.000000	97.698656 
3637.000000	97.689603 
3636.000000	97.682105 
3635.000000	97.673814 
3634.000000	97.662941 
3633.000000	97.651707 
3632.000000	97.644358 
3631.000000	97.641625 
3630.000000	97.638840 
3629.000000	97.634115 
3628.000000	97.629133 
3627.000000	97.622489 
3626.000000	97.611694 
3625.000000	97.595444 
3624.000000	97.574538 
3623.000000	97.552363 
3622.000000	97.533692 
3621.000000	97.521957 
3620.000000	97.520614 
3619.000000	97.532700 
3618.000000	97.554815 
3617.000000	97.578505 
3616.000000	97.599797 
3615.000000	97.619685 
3614.000000	97.640624 
3613.000000	97.664245 
3612.000000	97.689256 
3611.000000	97.711781 
3610.000000	97.728132 
3609.000000	97.736983 
3608.000000	97.740802 
3607.000000	97.743219 
3606.000000	97.744605 
3605.000000	97.743452 
3604.000000	97.739530 
3603.000000	97.734644 
3602.000000	97.732184 
3601.000000	97.734649 
3600.000000	97.743219 
3599.000000	97.757475 
3598.000000	97.773681 
3597.000000	97.786541 
3596.000000	97.794322 
3595.000000	97.800094 
3594.000000	97.808944 
3593.000000	97.822904 
3592.000000	97.838445 
3591.000000	97.850338 
3590.000000	97.855249 
3589.000000	97.853819 
3588.000000	97.851474 
3587.000000	97.853843 
3586.000000	97.859296 
3585.000000	97.862804 
3584.000000	97.862735 
3583.000000	97.860824 
3582.000000	97.858486 
3581.000000	97.855733 
3580.000000	97.852659 
3579.000000	97.850684 
3578.000000	97.851663 
3577.000000	97.856020 
3576.000000	97.862489 
3575.000000	97.868823 
3574.000000	97.872840 
3573.000000	97.874079 
3572.000000	97.874185 
3571.000000	97.875781 
3570.000000	97.880212 
3569.000000	97.885451 
3568.000000	97.888110 
3567.000000	97.888088 
3566.000000	97.887708 
3565.000000	97.888064 
3564.000000	97.888863 
3563.000000	97.889003 
3562.000000	97.887350 
3561.000000	97.884156 
3560.000000	97.881006 
3559.000000	97.879462 
3558.000000	97.879446 
3557.000000	97.879418 
3556.000000	97.878288 
3555.000000	97.876963 
3554.000000	97.877368 
3553.000000	97.880371 
3552.000000	97.884682 
3551.000000	97.888112 
3550.000000	97.889835 
3549.000000	97.890748 
3548.000000	97.891800 
3547.000000	97.893106 
3546.000000	97.894112 
3545.000000	97.894470 
3544.000000	97.894520 
3543.000000	97.894905 
3542.000000	97.895803 
3541.000000	97.896783 
3540.000000	97.897262 
3539.000000	97.897147 
3538.000000	97.896926 
3537.000000	97.897213 
3536.000000	97.898191 
3535.000000	97.899478 
3534.000000	97.900578 
3533.000000	97.901306 
3532.000000	97.901772 
3531.000000	97.902138 
3530.000000	97.902530 
3529.000000	97.903070 
3528.000000	97.903825 
3527.000000	97.904710 
3526.000000	97.905521 
3525.000000	97.906101 
3524.000000	97.906453 
3523.000000	97.906717 
3522.000000	97.907032 
3521.000000	97.907443 
3520.000000	97.907909 
3519.000000	97.908384 
3518.000000	97.908840 
3517.000000	97.909260 
3516.000000	97.909642 
3515.000000	97.909998 
3514.000000	97.910374 
3513.000000	97.910824 
3512.000000	97.911366 
3511.000000	97.911960 
3510.000000	97.912541 
3509.000000	97.913008 
3508.000000	97.913223 
3507.000000	97.913125 
3506.000000	97.912832 
3505.000000	97.912624 
3504.000000	97.912732 
3503.000000	97.913132 
3502.000000	97.913518 
3501.000000	97.913570 
3500.000000	97.913234 
3499.000000	97.912713 
3498.000000	97.912297 
3497.000000	97.912183 
3496.000000	97.912371 
3495.000000	97.912568 
3494.000000	97.912300 
3493.000000	97.911315 
3492.000000	97.909803 
3491.000000	97.908272 
3490.000000	97.907147 
3489.000000	97.906499 
3488.000000	97.906127 
3487.000000	97.905729 
3486.000000	97.905068 
3485.000000	97.904045 
3484.000000	97.902719 
3483.000000	97.901293 
3482.000000	97.900013 
3481.000000	97.898969 
3480.000000	97.898012 
3479.000000	97.896925 
3478.000000	97.895667 
3477.000000	97.894388 
3476.000000	97.893218 
3475.000000	97.892086 
3474.000000	97.890796 
3473.000000	97.889245 
3472.000000	97.887511 
3471.000000	97.885751 
3470.000000	97.884085 
3469.000000	97.882559 
3468.000000	97.881106 
3467.000000	97.879536 
3466.000000	97.877661 
3465.000000	97.875479 
3464.000000	97.873225 
3463.000000	97.871180 
3462.000000	97.869417 
3461.000000	97.867764 
3460.000000	97.865993 
3459.000000	97.864049 
3458.000000	97.862036 
3457.000000	97.860064 
3456.000000	97.858155 
3455.000000	97.856275 
3454.000000	97.854421 
3453.000000	97.852619 
3452.000000	97.850877 
3451.000000	97.849145 
3450.000000	97.847330 
3449.000000	97.845379 
3448.000000	97.843333 
3447.000000	97.841310 
3446.000000	97.839358 
3445.000000	97.837362 
3444.000000	97.835178 
3443.000000	97.832855 
3442.000000	97.830683 
3441.000000	97.828964 
3440.000000	97.827758 
3439.000000	97.826798 
3438.000000	97.825662 
3437.000000	97.824092 
3436.000000	97.822094 
3435.000000	97.819853 
3434.000000	97.817647 
3433.000000	97.815766 
3432.000000	97.814446 
3431.000000	97.813669 
3430.000000	97.813002 
3429.000000	97.811789 
3428.000000	97.809649 
3427.000000	97.806848 
3426.000000	97.804125 
3425.000000	97.802071 
3424.000000	97.800715 
3423.000000	97.799683 
3422.000000	97.798662 
3421.000000	97.797636 
3420.000000	97.796594 
3419.000000	97.795257 
3418.000000	97.793398 
3417.000000	97.791333 
3416.000000	97.789795 
3415.000000	97.789241 
3414.000000	97.789416 
3413.000000	97.789637 
3412.000000	97.789369 
3411.000000	97.788475 
3410.000000	97.787140 
3409.000000	97.785660 
3408.000000	97.784195 
3407.000000	97.782696 
3406.000000	97.781183 
3405.000000	97.780129 
3404.000000	97.780256 
3403.000000	97.781699 
3402.000000	97.783560 
3401.000000	97.784587 
3400.000000	97.784375 
3399.000000	97.783585 
3398.000000	97.783099 
3397.000000	97.783170 
3396.000000	97.783478 
3395.000000	97.783801 
3394.000000	97.784349 
3393.000000	97.785399 
3392.000000	97.786796 
3391.000000	97.787996 
3390.000000	97.788548 
3389.000000	97.788409 
3388.000000	97.787845 
3387.000000	97.787277 
3386.000000	97.787209 
3385.000000	97.788020 
3384.000000	97.789636 
3383.000000	97.791497 
3382.000000	97.793035 
3381.000000	97.794146 
3380.000000	97.795082 
3379.000000	97.795957 
3378.000000	97.796553 
3377.000000	97.796617 
3376.000000	97.796182 
3375.000000	97.795640 
3374.000000	97.795605 
3373.000000	97.796637 
3372.000000	97.798869 
3371.000000	97.801820 
3370.000000	97.804644 
3369.000000	97.806736 
3368.000000	97.807984 
3367.000000	97.808516 
3366.000000	97.808492 
3365.000000	97.808288 
3364.000000	97.808601 
3363.000000	97.809990 
3362.000000	97.812274 
3361.000000	97.814580 
3360.000000	97.816193 
3359.000000	97.817257 
3358.000000	97.818442 
3357.000000	97.820089 
3356.000000	97.821928 
3355.000000	97.823571 
3354.000000	97.825003 
3353.000000	97.826475 
3352.000000	97.828139 
3351.000000	97.829953 
3350.000000	97.831859 
3349.000000	97.833876 
3348.000000	97.835987 
3347.000000	97.838089 
3346.000000	97.840103 
3345.000000	97.842029 
3344.000000	97.843852 
3343.000000	97.845428 
3342.000000	97.846548 
3341.000000	97.847091 
3340.000000	97.847113 
3339.000000	97.846844 
3338.000000	97.846691 
3337.000000	97.847167 
3336.000000	97.848648 
3335.000000	97.851100 
3334.000000	97.854041 
3333.000000	97.856807 
3332.000000	97.858896 
3331.000000	97.860075 
3330.000000	97.860354 
3329.000000	97.860048 
3328.000000	97.859829 
3327.000000	97.860453 
3326.000000	97.862183 
3325.000000	97.864466 
3324.000000	97.866371 
3323.000000	97.867519 
3322.000000	97.868481 
3321.000000	97.870188 
3320.000000	97.872987 
3319.000000	97.876351 
3318.000000	97.879384 
3317.000000	97.881572 
3316.000000	97.883096 
3315.000000	97.884592 
3314.000000	97.886612 
3313.000000	97.889148 
3312.000000	97.891610 
3311.000000	97.893356 
3310.000000	97.894317 
3309.000000	97.895083 
3308.000000	97.896341 
3307.000000	97.898232 
3306.000000	97.900287 
3305.000000	97.901927 
3304.000000	97.903003 
3303.000000	97.903872 
3302.000000	97.905032 
3301.000000	97.906649 
3300.000000	97.908465 
3299.000000	97.910098 
3298.000000	97.911424 
3297.000000	97.912609 
3296.000000	97.913864 
3295.000000	97.915255 
3294.000000	97.916771 
3293.000000	97.918417 
3292.000000	97.920137 
3291.000000	97.921752 
3290.000000	97.923119 
3289.000000	97.924313 
3288.000000	97.925577 
3287.000000	97.927055 
3286.000000	97.928674 
3285.000000	97.930270 
3284.000000	97.931773 
3283.000000	97.933222 
3282.000000	97.934670 
3281.000000	97.936131 
3280.000000	97.937578 
3279.000000	97.938982 
3278.000000	97.940343 
3277.000000	97.941698 
3276.000000	97.943093 
3275.000000	97.944532 
3274.000000	97.945975 
3273.000000	97.947369 
3272.000000	97.948669 
3271.000000	97.949855 
3270.000000	97.950977 
3269.000000	97.952156 
3268.000000	97.953517 
3267.000000	97.955084 
3266.000000	97.956744 
3265.000000	97.958346 
3264.000000	97.959821 
3263.000000	97.961179 
3262.000000	97.962425 
3261.000000	97.963554 
3260.000000	97.964599 
3259.000000	97.965664 
3258.000000	97.966910 
3257.000000	97.968477 
3256.000000	97.970391 
3255.000000	97.972467 
3254.000000	97.974387 
3253.000000	97.975965 
3252.000000	97.977298 
3251.000000	97.978615 
3250.000000	97.980018 
3249.000000	97.981449 
3248.000000	97.982873 
3247.000000	97.984371 
3246.000000	97.985990 
3245.000000	97.987656 
3244.000000	97.989279 
3243.000000	97.990849 
3242.000000	97.992370 
3241.000000	97.993795 
3240.000000	97.995130 
3239.000000	97.996570 
3238.000000	97.998415 
3237.000000	98.000823 
3236.000000	98.003687 
3235.000000	98.006680 
3234.000000	98.009382 
3233.000000	98.011466 
3232.000000	98.012875 
3231.000000	98.013895 
3230.000000	98.014996 
3229.000000	98.016463 
3228.000000	98.018236 
3227.000000	98.020123 
3226.000000	98.022087 
3225.000000	98.024279 
3224.000000	98.026787 
3223.000000	98.029437 
3222.000000	98.031870 
3221.000000	98.033823 
3220.000000	98.035350 
3219.000000	98.036805 
3218.000000	98.038554 
3217.000000	98.040675 
3216.000000	98.042966 
3215.000000	98.045235 
3214.000000	98.047526 
3213.000000	98.050013 
3212.000000	98.052763 
3211.000000	98.055698 
3210.000000	98.058692 
3209.000000	98.061581 
3208.000000	98.064117 
3207.000000	98.066110 
3206.000000	98.067691 
3205.000000	98.069339 
3204.000000	98.071509 
3203.000000	98.074285 
3202.000000	98.077441 
3201.000000	98.080713 
3200.000000	98.083898 
3199.000000	98.086750 
3198.000000	98.088997 
3197.000000	98.090587 
3196.000000	98.091860 
3195.000000	98.093373 
3194.000000	98.095508 
3193.000000	98.098280 
3192.000000	98.101480 
3191.000000	98.104934 
3190.000000	98.108599 
3189.000000	98.112470 
3188.000000	98.116414 
3187.000000	98.120087 
3186.000000	98.123079 
3185.000000	98.125317 
3184.000000	98.127276 
3183.000000	98.129666 
3182.000000	98.132773 
3181.000000	98.136236 
3180.000000	98.139502 
3179.000000	98.142431 
3178.000000	98.145307 
3177.000000	98.148365 
3176.000000	98.151488 
3175.000000	98.154422 
3174.000000	98.157039 
3173.000000	98.159338 
3172.000000	98.161363 
3171.000000	98.163304 
3170.000000	98.165556 
3169.000000	98.168451 
3168.000000	98.171895 
3167.000000	98.175420 
3166.000000	98.178643 
3165.000000	98.181598 
3164.000000	98.184514 
3163.000000	98.187413 
3162.000000	98.190056 
3161.000000	98.192342 
3160.000000	98.194652 
3159.000000	98.197664 
3158.000000	98.201770 
3157.000000	98.206674 
3156.000000	98.211536 
3155.000000	98.215584 
3154.000000	98.218614 
3153.000000	98.220927 
3152.000000	98.222898 
3151.000000	98.224621 
3150.000000	98.226000 
3149.000000	98.227093 
3148.000000	98.228281 
3147.000000	98.230069 
3146.000000	98.232718 
3145.000000	98.236175 
3144.000000	98.240322 
3143.000000	98.245185 
3142.000000	98.250712 
3141.000000	98.256396 
3140.000000	98.261352 
3139.000000	98.264944 
3138.000000	98.267300 
3137.000000	98.269104 
3136.000000	98.271006 
3135.000000	98.273270 
3134.000000	98.275915 
3133.000000	98.278872 
3132.000000	98.281905 
3131.000000	98.284621 
3130.000000	98.286824 
3129.000000	98.288837 
3128.000000	98.291331 
3127.000000	98.294766 
3126.000000	98.299055 
3125.000000	98.303674 
3124.000000	98.308030 
3123.000000	98.311783 
3122.000000	98.314891 
3121.000000	98.317485 
3120.000000	98.319737 
3119.000000	98.321831 
3118.000000	98.324025 
3117.000000	98.326595 
3116.000000	98.329626 
3115.000000	98.332882 
3114.000000	98.335998 
3113.000000	98.338842 
3112.000000	98.341627 
3111.000000	98.344631 
3110.000000	98.347887 
3109.000000	98.351145 
3108.000000	98.354113 
3107.000000	98.356708 
3106.000000	98.359099 
3105.000000	98.361560 
3104.000000	98.364224 
3103.000000	98.366990 
3102.000000	98.369638 
3101.000000	98.372152 
3100.000000	98.374854 
3099.000000	98.378011 
3098.000000	98.381295 
3097.000000	98.383971 
3096.000000	98.385867 
3095.000000	98.387875 
3094.000000	98.391060 
3093.000000	98.395396 
3092.000000	98.399691 
3091.000000	98.402610 
3090.000000	98.403645 
3089.000000	98.403409 
3088.000000	98.403401 
3087.000000	98.405184 
3086.000000	98.409305 
3085.000000	98.414816 
3084.000000	98.419952 
3083.000000	98.423454 
3082.000000	98.425251 
3081.000000	98.426296 
3080.000000	98.427945 
3079.000000	98.431053 
3078.000000	98.435089 
3077.000000	98.438250 
3076.000000	98.439084 
3075.000000	98.438147 
3074.000000	98.437694 
3073.000000	98.439256 
3072.000000	98.441980 
3071.000000	98.443875 
3070.000000	98.444468 
3069.000000	98.445438 
3068.000000	98.448238 
3067.000000	98.451995 
3066.000000	98.454737 
3065.000000	98.456263 
3064.000000	98.458379 
3063.000000	98.461935 
3062.000000	98.464997 
3061.000000	98.465180 
3060.000000	98.463078 
3059.000000	98.461967 
3058.000000	98.463900 
3057.000000	98.467147 
3056.000000	98.468192 
3055.000000	98.465517 
3054.000000	98.460830 
3053.000000	98.456940 
3052.000000	98.455320 
3051.000000	98.455596 
3050.000000	98.456412 
3049.000000	98.456370 
3048.000000	98.454730 
3047.000000	98.451964 
3046.000000	98.449515 
3045.000000	98.448472 
3044.000000	98.448466 
3043.000000	98.448197 
3042.000000	98.446705 
3041.000000	98.443664 
3040.000000	98.438671 
3039.000000	98.431330 
3038.000000	98.422195 
3037.000000	98.412560 
3036.000000	98.402762 
3035.000000	98.391598 
3034.000000	98.378333 
3033.000000	98.364287 
3032.000000	98.351312 
3031.000000	98.339243 
3030.000000	98.326015 
3029.000000	98.310445 
3028.000000	98.293657 
3027.000000	98.277103 
3026.000000	98.260112 
3025.000000	98.240651 
3024.000000	98.218213 
3023.000000	98.194889 
3022.000000	98.173269 
3021.000000	98.153949 
3020.000000	98.135307 
3019.000000	98.115334 
3018.000000	98.093246 
3017.000000	98.069520 
3016.000000	98.044792 
3015.000000	98.019071 
3014.000000	97.992019 
3013.000000	97.963613 
3012.000000	97.934124 
3011.000000	97.903603 
3010.000000	97.872002 
3009.000000	97.839867 
3008.000000	97.808324 
3007.000000	97.778032 
3006.000000	97.748669 
3005.000000	97.719800 
3004.000000	97.691555 
3003.000000	97.663724 
3002.000000	97.634936 
3001.000000	97.604147 
3000.000000	97.573029 
2999.000000	97.545515 
2998.000000	97.524350 
2997.000000	97.508971 
2996.000000	97.496676 
2995.000000	97.483876 
2994.000000	97.465005 
2993.000000	97.432748 
2992.000000	97.383736 
2991.000000	97.325198 
2990.000000	97.273159 
2989.000000	97.241398 
2988.000000	97.232556 
2987.000000	97.239829 
2986.000000	97.254624 
2985.000000	97.271117 
2984.000000	97.285559 
2983.000000	97.295558 
2982.000000	97.301121 
2981.000000	97.304077 
2980.000000	97.305287 
2979.000000	97.303819 
2978.000000	97.299416 
2977.000000	97.293863 
2976.000000	97.288730 
2975.000000	97.283455 
2974.000000	97.277547 
2973.000000	97.273648 
2972.000000	97.276276 
2971.000000	97.287528 
2970.000000	97.305408 
2969.000000	97.326414 
2968.000000	97.348533 
2967.000000	97.371661 
2966.000000	97.396335 
2965.000000	97.422677 
2964.000000	97.449787 
2963.000000	97.475602 
2962.000000	97.497776 
2961.000000	97.515262 
2960.000000	97.529083 
2959.000000	97.541720 
2958.000000	97.555970 
2957.000000	97.573870 
2956.000000	97.595539 
2955.000000	97.618640 
2954.000000	97.639710 
2953.000000	97.656934 
2952.000000	97.671592 
2951.000000	97.686504 
2950.000000	97.702954 
2949.000000	97.719253 
2948.000000	97.732253 
2947.000000	97.740071 
2946.000000	97.743704 
2945.000000	97.746190 
2944.000000	97.750020 
2943.000000	97.755589 
2942.000000	97.762058 
2941.000000	97.768811 
2940.000000	97.775609 
2939.000000	97.781858 
2938.000000	97.786473 
2937.000000	97.788881 
2936.000000	97.789906 
2935.000000	97.791354 
2934.000000	97.794612 
2933.000000	97.799577 
2932.000000	97.804626 
2931.000000	97.807536 
2930.000000	97.806756 
2929.000000	97.802272 
2928.000000	97.795581 
2927.000000	97.788774 
2926.000000	97.783291 
2925.000000	97.779017 
2924.000000	97.774570 
2923.000000	97.768902 
2922.000000	97.762856 
2921.000000	97.758740 
2920.000000	97.757938 
2919.000000	97.759204 
2918.000000	97.759618 
2917.000000	97.756921 
2916.000000	97.750560 
2915.000000	97.740994 
2914.000000	97.729101 
2913.000000	97.716605 
2912.000000	97.706145 
2911.000000	97.699829 
2910.000000	97.697555 
2909.000000	97.697146 
2908.000000	97.696442 
2907.000000	97.694547 
2906.000000	97.690539 
2905.000000	97.681618 
2904.000000	97.664887 
2903.000000	97.642740 
2902.000000	97.625598 
2901.000000	97.625474 
2900.000000	97.646882 
2899.000000	97.682193 
2898.000000	97.717373 
2897.000000	97.742260 
2896.000000	97.755546 
2895.000000	97.761795 
2894.000000	97.766407 
2893.000000	97.772842 
2892.000000	97.782071 
2891.000000	97.792764 
2890.000000	97.802388 
2889.000000	97.809111 
2888.000000	97.812986 
2887.000000	97.815608 
2886.000000	97.819236 
2885.000000	97.826161 
2884.000000	97.838000 
2883.000000	97.854811 
2882.000000	97.875068 
2881.000000	97.896875 
2880.000000	97.919194 
2879.000000	97.941920 
2878.000000	97.965001 
2877.000000	97.987601 
2876.000000	98.008005 
2875.000000	98.024659 
2874.000000	98.037755 
2873.000000	98.049551 
2872.000000	98.062337 
2871.000000	98.075989 
2870.000000	98.088438 
2869.000000	98.098831 
2868.000000	98.109426 
2867.000000	98.123701 
2866.000000	98.143064 
2865.000000	98.166028 
2864.000000	98.190197 
2863.000000	98.214309 
2862.000000	98.238379 
2861.000000	98.262637 
2860.000000	98.286867 
2859.000000	98.310611 
2858.000000	98.333505 
2857.000000	98.355194 
2856.000000	98.374944 
2855.000000	98.391737 
2854.000000	98.405479 
2853.000000	98.417761 
2852.000000	98.430387 
2851.000000	98.443407 
2850.000000	98.455396 
2849.000000	98.465423 
2848.000000	98.474025 
2847.000000	98.482530 
2846.000000	98.492340 
2845.000000	98.504708 
2844.000000	98.519891 
2843.000000	98.536141 
2842.000000	98.550497 
2841.000000	98.561136 
2840.000000	98.568404 
2839.000000	98.573622 
2838.000000	98.578012 
2837.000000	98.582979 
2836.000000	98.589815 
2835.000000	98.598052 
2834.000000	98.605325 
2833.000000	98.610041 
2832.000000	98.613372 
2831.000000	98.617429 
2830.000000	98.622285 
2829.000000	98.626442 
2828.000000	98.629676 
2827.000000	98.633524 
2826.000000	98.638800 
2825.000000	98.644347 
2824.000000	98.648936 
2823.000000	98.653078 
2822.000000	98.657921 
2821.000000	98.663167 
2820.000000	98.667271 
2819.000000	98.669487 
2818.000000	98.670824 
2817.000000	98.672808 
2816.000000	98.675844 
2815.000000	98.679063 
2814.000000	98.681574 
2813.000000	98.683579 
2812.000000	98.686152 
2811.000000	98.690029 
2810.000000	98.694766 
2809.000000	98.699169 
2808.000000	98.702388 
2807.000000	98.704422 
2806.000000	98.705662 
2805.000000	98.706318 
2804.000000	98.706473 
2803.000000	98.706586 
2802.000000	98.707505 
2801.000000	98.709712 
2800.000000	98.712671 
2799.000000	98.715299 
2798.000000	98.717118 
2797.000000	98.718623 
2796.000000	98.720419 
2795.000000	98.722499 
2794.000000	98.724658 
2793.000000	98.727082 
2792.000000	98.729885 
2791.000000	98.732390 
2790.000000	98.733595 
2789.000000	98.733367 
2788.000000	98.732640 
2787.000000	98.732456 
2786.000000	98.733268 
2785.000000	98.735166 
2784.000000	98.738138 
2783.000000	98.741771 
2782.000000	98.745124 
2781.000000	98.747395 
2780.000000	98.748611 
2779.000000	98.749488 
2778.000000	98.750748 
2777.000000	98.752588 
2776.000000	98.754730 
2775.000000	98.756776 
2774.000000	98.758537 
2773.000000	98.760143 
2772.000000	98.761836 
2771.000000	98.763665 
2770.000000	98.765419 
2769.000000	98.766901 
2768.000000	98.768173 
2767.000000	98.769458 
2766.000000	98.770870 
2765.000000	98.772341 
2764.000000	98.773777 
2763.000000	98.775177 
2762.000000	98.776611 
2761.000000	98.778130 
2760.000000	98.779717 
2759.000000	98.781308 
2758.000000	98.782846 
2757.000000	98.784332 
2756.000000	98.785800 
2755.000000	98.787279 
2754.000000	98.788766 
2753.000000	98.790246 
2752.000000	98.791715 
2751.000000	98.793180 
2750.000000	98.794641 
2749.000000	98.796086 
2748.000000	98.797502 
2747.000000	98.798891 
2746.000000	98.800273 
2745.000000	98.801662 
2744.000000	98.803059 
2743.000000	98.804449 
2742.000000	98.805824 
2741.000000	98.807177 
2740.000000	98.808496 
2739.000000	98.809770 
2738.000000	98.811018 
2737.000000	98.812301 
2736.000000	98.813661 
2735.000000	98.815074 
2734.000000	98.816443 
2733.000000	98.817699 
2732.000000	98.818858 
2731.000000	98.820003 
2730.000000	98.821189 
2729.000000	98.822419 
2728.000000	98.823700 
2727.000000	98.825037 
2726.000000	98.826392 
2725.000000	98.827682 
2724.000000	98.828857 
2723.000000	98.829944 
2722.000000	98.831011 
2721.000000	98.832089 
2720.000000	98.833149 
2719.000000	98.834128 
2718.000000	98.834989 
2717.000000	98.835790 
2716.000000	98.836648 
2715.000000	98.837589 
2714.000000	98.838503 
2713.000000	98.839281 
2712.000000	98.839964 
2711.000000	98.840708 
2710.000000	98.841600 
2709.000000	98.842589 
2708.000000	98.843610 
2707.000000	98.844678 
2706.000000	98.845782 
2705.000000	98.846759 
2704.000000	98.847438 
2703.000000	98.847923 
2702.000000	98.848567 
2701.000000	98.849589 
2700.000000	98.850821 
2699.000000	98.851889 
2698.000000	98.852591 
2697.000000	98.853022 
2696.000000	98.853412 
2695.000000	98.853958 
2694.000000	98.854743 
2693.000000	98.855630 
2692.000000	98.856228 
2691.000000	98.856202 
2690.000000	98.855755 
2689.000000	98.855579 
2688.000000	98.856105 
2687.000000	98.857016 
2686.000000	98.857698 
2685.000000	98.858122 
2684.000000	98.858886 
2683.000000	98.860306 
2682.000000	98.861782 
2681.000000	98.862345 
2680.000000	98.861644 
2679.000000	98.860268 
2678.000000	98.859275 
2677.000000	98.859356 
2676.000000	98.860417 
2675.000000	98.861783 
2674.000000	98.862843 
2673.000000	98.863551 
2672.000000	98.864229 
2671.000000	98.864984 
2670.000000	98.865564 
2669.000000	98.865790 
2668.000000	98.865759 
2667.000000	98.865511 
2666.000000	98.864822 
2665.000000	98.863572 
2664.000000	98.862056 
2663.000000	98.860653 
2662.000000	98.859396 
2661.000000	98.858163 
2660.000000	98.857157 
2659.000000	98.856803 
2658.000000	98.857139 
2657.000000	98.857595 
2656.000000	98.857567 
2655.000000	98.857062 
2654.000000	98.856602 
2653.000000	98.856580 
2652.000000	98.856898 
2651.000000	98.857232 
2650.000000	98.857422 
2649.000000	98.857429 
2648.000000	98.857058 
2647.000000	98.856070 
2646.000000	98.854662 
2645.000000	98.853606 
2644.000000	98.853612 
2643.000000	98.854674 
2642.000000	98.856070 
2641.000000	98.856952 
2640.000000	98.856964 
2639.000000	98.856363 
2638.000000	98.855770 
2637.000000	98.855683 
2636.000000	98.856089 
2635.000000	98.856623 
2634.000000	98.857106 
2633.000000	98.857724 
2632.000000	98.858594 
2631.000000	98.859422 
2630.000000	98.859811 
2629.000000	98.859743 
2628.000000	98.859536 
2627.000000	98.859498 
2626.000000	98.859738 
2625.000000	98.860223 
2624.000000	98.860850 
2623.000000	98.861483 
2622.000000	98.862048 
2621.000000	98.862581 
2620.000000	98.863128 
2619.000000	98.863632 
2618.000000	98.864024 
2617.000000	98.864359 
2616.000000	98.864762 
2615.000000	98.865278 
2614.000000	98.865859 
2613.000000	98.866451 
2612.000000	98.867028 
2611.000000	98.867559 
2610.000000	98.868032 
2609.000000	98.868494 
2608.000000	98.869014 
2607.000000	98.869596 
2606.000000	98.870196 
2605.000000	98.870803 
2604.000000	98.871439 
2603.000000	98.872087 
2602.000000	98.872723 
2601.000000	98.873341 
2600.000000	98.873951 
2599.000000	98.874562 
2598.000000	98.875179 
2597.000000	98.875806 
2596.000000	98.876443 
2595.000000	98.877088 
2594.000000	98.877736 
2593.000000	98.878382 
2592.000000	98.879028 
2591.000000	98.879676 
2590.000000	98.880328 
2589.000000	98.880984 
2588.000000	98.881649 
2587.000000	98.882325 
2586.000000	98.883006 
2585.000000	98.883686 
2584.000000	98.884356 
2583.000000	98.885014 
2582.000000	98.885663 
2581.000000	98.886311 
2580.000000	98.886962 
2579.000000	98.887624 
2578.000000	98.888299 
2577.000000	98.888983 
2576.000000	98.889663 
2575.000000	98.890331 
2574.000000	98.890984 
2573.000000	98.891623 
2572.000000	98.892250 
2571.000000	98.892853 
2570.000000	98.893411 
2569.000000	98.893956 
2568.000000	98.894569 
2567.000000	98.895283 
2566.000000	98.896012 
2565.000000	98.896638 
2564.000000	98.897148 
2563.000000	98.897631 
2562.000000	98.898169 
2561.000000	98.898778 
2560.000000	98.899450 
2559.000000	98.900164 
2558.000000	98.900857 
2557.000000	98.901459 
2556.000000	98.901985 
2555.000000	98.902474 
2554.000000	98.902896 
2553.000000	98.903227 
2552.000000	98.903566 
2551.000000	98.904023 
2550.000000	98.904539 
2549.000000	98.904943 
2548.000000	98.905179 
2547.000000	98.905340 
2546.000000	98.905516 
2545.000000	98.905711 
2544.000000	98.905925 
2543.000000	98.906206 
2542.000000	98.906597 
2541.000000	98.907083 
2540.000000	98.907587 
2539.000000	98.907994 
2538.000000	98.908167 
2537.000000	98.908047 
2536.000000	98.907764 
2535.000000	98.907570 
2534.000000	98.907591 
2533.000000	98.907763 
2532.000000	98.907946 
2531.000000	98.908038 
2530.000000	98.907989 
2529.000000	98.907811 
2528.000000	98.907633 
2527.000000	98.907613 
2526.000000	98.907724 
2525.000000	98.907717 
2524.000000	98.907403 
2523.000000	98.906921 
2522.000000	98.906657 
2521.000000	98.906826 
2520.000000	98.907293 
2519.000000	98.907732 
2518.000000	98.907889 
2517.000000	98.907727 
2516.000000	98.907417 
2515.000000	98.907260 
2514.000000	98.907528 
2513.000000	98.908299 
2512.000000	98.909299 
2511.000000	98.909957 
2510.000000	98.909830 
2509.000000	98.909094 
2508.000000	98.908472 
2507.000000	98.908355 
2506.000000	98.908258 
2505.000000	98.907554 
2504.000000	98.906518 
2503.000000	98.906008 
2502.000000	98.906193 
2501.000000	98.906351 
2500.000000	98.906078 
2499.000000	98.905990 
2498.000000	98.906824 
2497.000000	98.908495 
2496.000000	98.910305 
2495.000000	98.911612 
2494.000000	98.912122 
2493.000000	98.912033 
2492.000000	98.912117 
2491.000000	98.913134 
2490.000000	98.914896 
2489.000000	98.916376 
2488.000000	98.917017 
2487.000000	98.917430 
2486.000000	98.918475 
2485.000000	98.920043 
2484.000000	98.921102 
2483.000000	98.920678 
2482.000000	98.918575 
2481.000000	98.915635 
2480.000000	98.913462 
2479.000000	98.913362 
2478.000000	98.915395 
2477.000000	98.918513 
2476.000000	98.921622 
2475.000000	98.924170 
2474.000000	98.925808 
2473.000000	98.926241 
2472.000000	98.925583 
2471.000000	98.924264 
2470.000000	98.922422 
2469.000000	98.919992 
2468.000000	98.917485 
2467.000000	98.915859 
2466.000000	98.915275 
2465.000000	98.914793 
2464.000000	98.913657 
2463.000000	98.912300 
2462.000000	98.911673 
2461.000000	98.912034 
2460.000000	98.912783 
2459.000000	98.913154 
2458.000000	98.912853 
2457.000000	98.912308 
2456.000000	98.912368 
2455.000000	98.913390 
2454.000000	98.914593 
2453.000000	98.914784 
2452.000000	98.913785 
2451.000000	98.912610 
2450.000000	98.912152 
2449.000000	98.912393 
2448.000000	98.913102 
2447.000000	98.914495 
2446.000000	98.916676 
2445.000000	98.918923 
2444.000000	98.920207 
2443.000000	98.920215 
2442.000000	98.919362 
2441.000000	98.918130 
2440.000000	98.916820 
2439.000000	98.915795 
2438.000000	98.915392 
2437.000000	98.915483 
2436.000000	98.915453 
2435.000000	98.914834 
2434.000000	98.913847 
2433.000000	98.913238 
2432.000000	98.913579 
2431.000000	98.914788 
2430.000000	98.916223 
2429.000000	98.917211 
2428.000000	98.917540 
2427.000000	98.917439 
2426.000000	98.917238 
2425.000000	98.917159 
2424.000000	98.917347 
2423.000000	98.917902 
2422.000000	98.918788 
2421.000000	98.919811 
2420.000000	98.920716 
2419.000000	98.921272 
2418.000000	98.921318 
2417.000000	98.920880 
2416.000000	98.920280 
2415.000000	98.919969 
2414.000000	98.920191 
2413.000000	98.920868 
2412.000000	98.921770 
2411.000000	98.922676 
2410.000000	98.923424 
2409.000000	98.923965 
2408.000000	98.924358 
2407.000000	98.924492 
2406.000000	98.923992 
2405.000000	98.922623 
2404.000000	98.920731 
2403.000000	98.919053 
2402.000000	98.918075 
2401.000000	98.917805 
2400.000000	98.918088 
2399.000000	98.918886 
2398.000000	98.920091 
2397.000000	98.921283 
2396.000000	98.921909 
2395.000000	98.921725 
2394.000000	98.920943 
2393.000000	98.920028 
2392.000000	98.919367 
2391.000000	98.919020 
2390.000000	98.918789 
2389.000000	98.918450 
2388.000000	98.917959 
2387.000000	98.917470 
2386.000000	98.917223 
2385.000000	98.917356 
2384.000000	98.917722 
2383.000000	98.917881 
2382.000000	98.917423 
2381.000000	98.916299 
2380.000000	98.914834 
2379.000000	98.913394 
2378.000000	98.912112 
2377.000000	98.910964 
2376.000000	98.909949 
2375.000000	98.909102 
2374.000000	98.908412 
2373.000000	98.907791 
2372.000000	98.907144 
2371.000000	98.906403 
2370.000000	98.905564 
2369.000000	98.904685 
2368.000000	98.903823 
2367.000000	98.902980 
2366.000000	98.902129 
2365.000000	98.901259 
2364.000000	98.900371 
2363.000000	98.899467 
2362.000000	98.898548 
2361.000000	98.897620 
2360.000000	98.896695 
2359.000000	98.895780 
2358.000000	98.894878 
2357.000000	98.893981 
2356.000000	98.893078 
2355.000000	98.892165 
2354.000000	98.891242 
2353.000000	98.890314 
2352.000000	98.889396 
2351.000000	98.888502 
2350.000000	98.887638 
2349.000000	98.886806 
2348.000000	98.885999 
2347.000000	98.885214 
2346.000000	98.884449 
2345.000000	98.883707 
2344.000000	98.882989 
2343.000000	98.882291 
2342.000000	98.881601 
2341.000000	98.880916 
2340.000000	98.880243 
2339.000000	98.879596 
2338.000000	98.878981 
2337.000000	98.878395 
2336.000000	98.877829 
2335.000000	98.877274 
2334.000000	98.876722 
2333.000000	98.876178 
2332.000000	98.875672 
2331.000000	98.875241 
2330.000000	98.874886 
2329.000000	98.874497 
2328.000000	98.873940 
2327.000000	98.873112 
2326.000000	98.872050 
2325.000000	98.870899 
2324.000000	98.869875 
2323.000000	98.869161 
2322.000000	98.868699 
2321.000000	98.868283 
2320.000000	98.867981 
2319.000000	98.868000 
2318.000000	98.868411 
2317.000000	98.868770 
2316.000000	98.868774 
2315.000000	98.868224 
2314.000000	98.867368 
2313.000000	98.866348 
2312.000000	98.865557 
2311.000000	98.864913 
2310.000000	98.864209 
2309.000000	98.863287 
2308.000000	98.862893 
2307.000000	98.863697 
2306.000000	98.865606 
2305.000000	98.867474 
2304.000000	98.868409 
2303.000000	98.868028 
2302.000000	98.866707 
2301.000000	98.865017 
2300.000000	98.863801 
2299.000000	98.863008 
2298.000000	98.861845 
2297.000000	98.859516 
2296.000000	98.856650 
2295.000000	98.854371 
2294.000000	98.853113 
2293.000000	98.852348 
2292.000000	98.851662 
2291.000000	98.850746 
2290.000000	98.848983 
2289.000000	98.846133 
2288.000000	98.843261 
2287.000000	98.841998 
2286.000000	98.842791 
2285.000000	98.844709 
2284.000000	98.846566 
2283.000000	98.847629 
2282.000000	98.847598 
2281.000000	98.847198 
2280.000000	98.848066 
2279.000000	98.850883 
2278.000000	98.853982 
2277.000000	98.855088 
2276.000000	98.854219 
2275.000000	98.853387 
2274.000000	98.853775 
2273.000000	98.854571 
2272.000000	98.854836 
2271.000000	98.854986 
2270.000000	98.855929 
2269.000000	98.857657 
2268.000000	98.859328 
2267.000000	98.860170 
2266.000000	98.860058 
2265.000000	98.859601 
2264.000000	98.859770 
2263.000000	98.860925 
2262.000000	98.862183 
2261.000000	98.862265 
2260.000000	98.860884 
2259.000000	98.858926 
2258.000000	98.857437 
2257.000000	98.856798 
2256.000000	98.856920 
2255.000000	98.857636 
2254.000000	98.858796 
2253.000000	98.860276 
2252.000000	98.861968 
2251.000000	98.863507 
2250.000000	98.864233 
2249.000000	98.863787 
2248.000000	98.862551 
2247.000000	98.861303 
2246.000000	98.860514 
2245.000000	98.860195 
2244.000000	98.860245 
2243.000000	98.860549 
2242.000000	98.860846 
2241.000000	98.860857 
2240.000000	98.860636 
2239.000000	98.860605 
2238.000000	98.860980 
2237.000000	98.861387 
2236.000000	98.861346 
2235.000000	98.860934 
2234.000000	98.860676 
2233.000000	98.860906 
2232.000000	98.861521 
2231.000000	98.862245 
2230.000000	98.862806 
2229.000000	98.862969 
2228.000000	98.862639 
2227.000000	98.861910 
2226.000000	98.860887 
2225.000000	98.859576 
2224.000000	98.858240 
2223.000000	98.857543 
2222.000000	98.857848 
2221.000000	98.858498 
2220.000000	98.858362 
2219.000000	98.857256 
2218.000000	98.856307 
2217.000000	98.856685 
2216.000000	98.858302 
2215.000000	98.859935 
2214.000000	98.860393 
2213.000000	98.859340 
2212.000000	98.857116 
2211.000000	98.854359 
2210.000000	98.852017 
2209.000000	98.851377 
2208.000000	98.853351 
2207.000000	98.857400 
2206.000000	98.861462 
2205.000000	98.863754 
2204.000000	98.864399 
2203.000000	98.864803 
2202.000000	98.865730 
2201.000000	98.866573 
2200.000000	98.866278 
2199.000000	98.864142 
2198.000000	98.860160 
2197.000000	98.855446 
2196.000000	98.852254 
2195.000000	98.852443 
2194.000000	98.855478 
2193.000000	98.858463 
2192.000000	98.858395 
2191.000000	98.854095 
2190.000000	98.846550 
2189.000000	98.838489 
2188.000000	98.832849 
2187.000000	98.830679 
2186.000000	98.830967 
2185.000000	98.832786 
2184.000000	98.836509 
2183.000000	98.841856 
2182.000000	98.846353 
2181.000000	98.847822 
2180.000000	98.847228 
2179.000000	98.846785 
2178.000000	98.846531 
2177.000000	98.845579 
2176.000000	98.845611 
2175.000000	98.849443 
2174.000000	98.856177 
2173.000000	98.861284 
2172.000000	98.862312 
2171.000000	98.861292 
2170.000000	98.860727 
2169.000000	98.860190 
2168.000000	98.858310 
2167.000000	98.855509 
2166.000000	98.852896 
2165.000000	98.850219 
2164.000000	98.846601 
2163.000000	98.842206 
2162.000000	98.838525 
2161.000000	98.838486 
2160.000000	98.846111 
2159.000000	98.863137 
2158.000000	98.884714 
2157.000000	98.901501 
2156.000000	98.908486 
2155.000000	98.907751 
2154.000000	98.903720 
2153.000000	98.899021 
2152.000000	98.895039 
2151.000000	98.893116 
2150.000000	98.893134 
2149.000000	98.893238 
2148.000000	98.892955 
2147.000000	98.894853 
2146.000000	98.901219 
2145.000000	98.910675 
2144.000000	98.919843 
2143.000000	98.927015 
2142.000000	98.931977 
2141.000000	98.933567 
2140.000000	98.930212 
2139.000000	98.922906 
2138.000000	98.915655 
2137.000000	98.911946 
2136.000000	98.911673 
2135.000000	98.912266 
2134.000000	98.912101 
2133.000000	98.912023 
2132.000000	98.913609 
2131.000000	98.916673 
2130.000000	98.918959 
2129.000000	98.918129 
2128.000000	98.913657 
2127.000000	98.906934 
2126.000000	98.900304 
2125.000000	98.895854 
2124.000000	98.894192 
2123.000000	98.894064 
2122.000000	98.893772 
2121.000000	98.893146 
2120.000000	98.893209 
2119.000000	98.893772 
2118.000000	98.892824 
2117.000000	98.889148 
2116.000000	98.884448 
2115.000000	98.881504 
2114.000000	98.881296 
2113.000000	98.883060 
2112.000000	98.885962 
2111.000000	98.889226 
2110.000000	98.891116 
2109.000000	98.890034 
2108.000000	98.886596 
2107.000000	98.883116 
2106.000000	98.880982 
2105.000000	98.879701 
2104.000000	98.878477 
2103.000000	98.877360 
2102.000000	98.876623 
2101.000000	98.876080 
2100.000000	98.875429 
2099.000000	98.874718 
2098.000000	98.874307 
2097.000000	98.874587 
2096.000000	98.875648 
2095.000000	98.876982 
2094.000000	98.877679 
2093.000000	98.877346 
2092.000000	98.876404 
2091.000000	98.875492 
2090.000000	98.874881 
2089.000000	98.874444 
2088.000000	98.873992 
2087.000000	98.873453 
2086.000000	98.872880 
2085.000000	98.872415 
2084.000000	98.872198 
2083.000000	98.872251 
2082.000000	98.872419 
2081.000000	98.872479 
2080.000000	98.872343 
2079.000000	98.872079 
2078.000000	98.871794 
2077.000000	98.871556 
2076.000000	98.871427 
2075.000000	98.871446 
2074.000000	98.871535 
2073.000000	98.871527 
2072.000000	98.871380 
2071.000000	98.871312 
2070.000000	98.871622 
2069.000000	98.872371 
2068.000000	98.873282 
2067.000000	98.873961 
2066.000000	98.874180 
2065.000000	98.874104 
2064.000000	98.874289 
2063.000000	98.875150 
2062.000000	98.876356 
2061.000000	98.877013 
2060.000000	98.876606 
2059.000000	98.875542 
2058.000000	98.874815 
2057.000000	98.875303 
2056.000000	98.877308 
2055.000000	98.880196 
2054.000000	98.882421 
2053.000000	98.882554 
2052.000000	98.880339 
2051.000000	98.876571 
2050.000000	98.872289 
2049.000000	98.868672 
2048.000000	98.867445 
2047.000000	98.869951 
2046.000000	98.875413 
2045.000000	98.880981 
2044.000000	98.884225 
2043.000000	98.884634 
2042.000000	98.882810 
2041.000000	98.879907 
2040.000000	98.877869 
2039.000000	98.878490 
2038.000000	98.881844 
2037.000000	98.886657 
2036.000000	98.892153 
2035.000000	98.898077 
2034.000000	98.903291 
2033.000000	98.906749 
2032.000000	98.909693 
2031.000000	98.913785 
2030.000000	98.917055 
2029.000000	98.915584 
2028.000000	98.909450 
2027.000000	98.903441 
2026.000000	98.901085 
2025.000000	98.901049 
2024.000000	98.900636 
2023.000000	98.899477 
2022.000000	98.898335 
2021.000000	98.897090 
2020.000000	98.895732 
2019.000000	98.895205 
2018.000000	98.895878 
2017.000000	98.897054 
2016.000000	98.898918 
2015.000000	98.902724 
2014.000000	98.908321 
2013.000000	98.913687 
2012.000000	98.917063 
2011.000000	98.917467 
2010.000000	98.913893 
2009.000000	98.907041 
2008.000000	98.900959 
2007.000000	98.898881 
2006.000000	98.898471 
2005.000000	98.895464 
2004.000000	98.890775 
2003.000000	98.888976 
2002.000000	98.890562 
2001.000000	98.891241 
2000.000000	98.888977 
1999.000000	98.886297 
1998.000000	98.884641 
1997.000000	98.881807 
1996.000000	98.876485 
1995.000000	98.870954 
1994.000000	98.867232 
1993.000000	98.864041 
1992.000000	98.860094 
1991.000000	98.857472 
1990.000000	98.858608 
1989.000000	98.862185 
1988.000000	98.864182 
1987.000000	98.862153 
1986.000000	98.857299 
1985.000000	98.853153 
1984.000000	98.852624 
1983.000000	98.855452 
1982.000000	98.858090 
1981.000000	98.857392 
1980.000000	98.854329 
1979.000000	98.852570 
1978.000000	98.853798 
1977.000000	98.856586 
1976.000000	98.859741 
1975.000000	98.863991 
1974.000000	98.869331 
1973.000000	98.873400 
1972.000000	98.874038 
1971.000000	98.871438 
1970.000000	98.866827 
1969.000000	98.860895 
1968.000000	98.854565 
1967.000000	98.849722 
1966.000000	98.847598 
1965.000000	98.847454 
1964.000000	98.847688 
1963.000000	98.847624 
1962.000000	98.847746 
1961.000000	98.848561 
1960.000000	98.849722 
1959.000000	98.850121 
1958.000000	98.848917 
1957.000000	98.846601 
1956.000000	98.844878 
1955.000000	98.844911 
1954.000000	98.846109 
1953.000000	98.846821 
1952.000000	98.846245 
1951.000000	98.845014 
1950.000000	98.844093 
1949.000000	98.843716 
1948.000000	98.843552 
1947.000000	98.843317 
1946.000000	98.842939 
1945.000000	98.842433 
1944.000000	98.841848 
1943.000000	98.841216 
1942.000000	98.840473 
1941.000000	98.839555 
1940.000000	98.838546 
1939.000000	98.837582 
1938.000000	98.836704 
1937.000000	98.835846 
1936.000000	98.834949 
1935.000000	98.834001 
1934.000000	98.833017 
1933.000000	98.832004 
1932.000000	98.830977 
1931.000000	98.829958 
1930.000000	98.828976 
1929.000000	98.828051 
1928.000000	98.827192 
1927.000000	98.826389 
1926.000000	98.825617 
1925.000000	98.824846 
1924.000000	98.824056 
1923.000000	98.823245 
1922.000000	98.822419 
1921.000000	98.821577 
1920.000000	98.820717 
1919.000000	98.819866 
1918.000000	98.819006 
1917.000000	98.818108 
1916.000000	98.817220 
1915.000000	98.816453 
1914.000000	98.815764 
1913.000000	98.814885 
1912.000000	98.813707 
1911.000000	98.812618 
1910.000000	98.811854 
1909.000000	98.811017 
1908.000000	98.809715 
1907.000000	98.808102 
1906.000000	98.806498 
1905.000000	98.804960 
1904.000000	98.803577 
1903.000000	98.802610 
1902.000000	98.801828 
1901.000000	98.800633 
1900.000000	98.799092 
1899.000000	98.798006 
1898.000000	98.797706 
1897.000000	98.797483 
1896.000000	98.796668 
1895.000000	98.795565 
1894.000000	98.794599 
1893.000000	98.793645 
1892.000000	98.792713 
1891.000000	98.792229 
1890.000000	98.792315 
1889.000000	98.792576 
1888.000000	98.792925 
1887.000000	98.793470 
1886.000000	98.793535 
1885.000000	98.792060 
1884.000000	98.789260 
1883.000000	98.786828 
1882.000000	98.785897 
1881.000000	98.786265 
1880.000000	98.787557 
1879.000000	98.789494 
1878.000000	98.791051 
1877.000000	98.791123 
1876.000000	98.790326 
1875.000000	98.790586 
1874.000000	98.792284 
1873.000000	98.793534 
1872.000000	98.793115 
1871.000000	98.792044 
1870.000000	98.791372 
1869.000000	98.790655 
1868.000000	98.790373 
1867.000000	98.792196 
1866.000000	98.795565 
1865.000000	98.798210 
1864.000000	98.799735 
1863.000000	98.801955 
1862.000000	98.805327 
1861.000000	98.807492 
1860.000000	98.806956 
1859.000000	98.805726 
1858.000000	98.806254 
1857.000000	98.808024 
1856.000000	98.809144 
1855.000000	98.809194 
1854.000000	98.808961 
1853.000000	98.809133 
1852.000000	98.810319 
1851.000000	98.812946 
1850.000000	98.816627 
1849.000000	98.820666 
1848.000000	98.824965 
1847.000000	98.829674 
1846.000000	98.833724 
1845.000000	98.835256 
1844.000000	98.834517 
1843.000000	98.834255 
1842.000000	98.835407 
1841.000000	98.836428 
1840.000000	98.836040 
1839.000000	98.834480 
1838.000000	98.832755 
1837.000000	98.831456 
1836.000000	98.830975 
1835.000000	98.831804 
1834.000000	98.833814 
1833.000000	98.836028 
1832.000000	98.837057 
1831.000000	98.836103 
1830.000000	98.833913 
1829.000000	98.832188 
1828.000000	98.831722 
1827.000000	98.832356 
1826.000000	98.833597 
1825.000000	98.834669 
1824.000000	98.835107 
1823.000000	98.835212 
1822.000000	98.835376 
1821.000000	98.835556 
1820.000000	98.835709 
1819.000000	98.836182 
1818.000000	98.837039 
1817.000000	98.837648 
1816.000000	98.837687 
1815.000000	98.837585 
1814.000000	98.837705 
1813.000000	98.837904 
1812.000000	98.838009 
1811.000000	98.838146 
1810.000000	98.838362 
1809.000000	98.838514 
1808.000000	98.838608 
1807.000000	98.838731 
1806.000000	98.838880 
1805.000000	98.839035 
1804.000000	98.839212 
1803.000000	98.839421 
1802.000000	98.839670 
1801.000000	98.839953 
1800.000000	98.840260 
1799.000000	98.840592 
1798.000000	98.840957 
1797.000000	98.841359 
1796.000000	98.841800 
1795.000000	98.842282 
1794.000000	98.842804 
1793.000000	98.843353 
1792.000000	98.843915 
1791.000000	98.844495 
1790.000000	98.845104 
1789.000000	98.845741 
1788.000000	98.846378 
1787.000000	98.847000 
1786.000000	98.847708 
1785.000000	98.848551 
1784.000000	98.849379 
1783.000000	98.850065 
1782.000000	98.850633 
1781.000000	98.851190 
1780.000000	98.851902 
1779.000000	98.852916 
1778.000000	98.854063 
1777.000000	98.854857 
1776.000000	98.854964 
1775.000000	98.854472 
1774.000000	98.853891 
1773.000000	98.853886 
1772.000000	98.854542 
1771.000000	98.855873 
1770.000000	98.858361 
1769.000000	98.861802 
1768.000000	98.864589 
1767.000000	98.865508 
1766.000000	98.865221 
1765.000000	98.864906 
1764.000000	98.864522 
1763.000000	98.863444 
1762.000000	98.862471 
1761.000000	98.863145 
1760.000000	98.865356 
1759.000000	98.868119 
1758.000000	98.870907 
1757.000000	98.873677 
1756.000000	98.875952 
1755.000000	98.877396 
1754.000000	98.879646 
1753.000000	98.884643 
1752.000000	98.890817 
1751.000000	98.893492 
1750.000000	98.891726 
1749.000000	98.889213 
1748.000000	98.887419 
1747.000000	98.884611 
1746.000000	98.881294 
1745.000000	98.880186 
1744.000000	98.880810 
1743.000000	98.880201 
1742.000000	98.878220 
1741.000000	98.876834 
1740.000000	98.876140 
1739.000000	98.875210 
1738.000000	98.874529 
1737.000000	98.874318 
1736.000000	98.874099 
1735.000000	98.873643 
1734.000000	98.872417 
1733.000000	98.871198 
1732.000000	98.870778 
1731.000000	98.870178 
1730.000000	98.868883 
1729.000000	98.867920 
1728.000000	98.867469 
1727.000000	98.866212 
1726.000000	98.863657 
1725.000000	98.860698 
1724.000000	98.858050 
1723.000000	98.856124 
1722.000000	98.855149 
1721.000000	98.854421 
1720.000000	98.852948 
1719.000000	98.850825 
1718.000000	98.848814 
1717.000000	98.845105 
1716.000000	98.839517 
1715.000000	98.835601 
1714.000000	98.833830 
1713.000000	98.831671 
1712.000000	98.828339 
1711.000000	98.824874 
1710.000000	98.821821 
1709.000000	98.818481 
1708.000000	98.814285 
1707.000000	98.809818 
1706.000000	98.805537 
1705.000000	98.800853 
1704.000000	98.795753 
1703.000000	98.791456 
1702.000000	98.788710 
1701.000000	98.786559 
1700.000000	98.782734 
1699.000000	98.778422 
1698.000000	98.774990 
1697.000000	98.771124 
1696.000000	98.766047 
1695.000000	98.760879 
1694.000000	98.756459 
1693.000000	98.752022 
1692.000000	98.747081 
1691.000000	98.742293 
1690.000000	98.738346 
1689.000000	98.734716 
1688.000000	98.730278 
1687.000000	98.724821 
1686.000000	98.718953 
1685.000000	98.712686 
1684.000000	98.706423 
1683.000000	98.702467 
1682.000000	98.699095 
1681.000000	98.695111 
1680.000000	98.690358 
1679.000000	98.684901 
1678.000000	98.678916 
1677.000000	98.673912 
1676.000000	98.671733 
1675.000000	98.670836 
1674.000000	98.668736 
1673.000000	98.665260 
1672.000000	98.659922 
1671.000000	98.651596 
1670.000000	98.640138 
1669.000000	98.629806 
1668.000000	98.624977 
1667.000000	98.622798 
1666.000000	98.619115 
1665.000000	98.612363 
1664.000000	98.603446 
1663.000000	98.594362 
1662.000000	98.585717 
1661.000000	98.578470 
1660.000000	98.574108 
1659.000000	98.570111 
1658.000000	98.562742 
1657.000000	98.551524 
1656.000000	98.539507 
1655.000000	98.527729 
1654.000000	98.515848 
1653.000000	98.504673 
1652.000000	98.501235 
1651.000000	98.504355 
1650.000000	98.510631 
1649.000000	98.512629 
1648.000000	98.509482 
1647.000000	98.503321 
1646.000000	98.496724 
1645.000000	98.489366 
1644.000000	98.483398 
1643.000000	98.481436 
1642.000000	98.481871 
1641.000000	98.482274 
1640.000000	98.482540 
1639.000000	98.482662 
1638.000000	98.481847 
1637.000000	98.480851 
1636.000000	98.482883 
1635.000000	98.484795 
1634.000000	98.481919 
1633.000000	98.478160 
1632.000000	98.479502 
1631.000000	98.486306 
1630.000000	98.493497 
1629.000000	98.496573 
1628.000000	98.497606 
1627.000000	98.499826 
1626.000000	98.502506 
1625.000000	98.506202 
1624.000000	98.515041 
1623.000000	98.529226 
1622.000000	98.541779 
1621.000000	98.549698 
1620.000000	98.556045 
1619.000000	98.562114 
1618.000000	98.566524 
1617.000000	98.571057 
1616.000000	98.581587 
1615.000000	98.594683 
1614.000000	98.602631 
1613.000000	98.608003 
1612.000000	98.618373 
1611.000000	98.633612 
1610.000000	98.644373 
1609.000000	98.647617 
1608.000000	98.650569 
1607.000000	98.656461 
1606.000000	98.661107 
1605.000000	98.664225 
1604.000000	98.670193 
1603.000000	98.678737 
1602.000000	98.685685 
1601.000000	98.690726 
1600.000000	98.696579 
1599.000000	98.702395 
1598.000000	98.705638 
1597.000000	98.707628 
1596.000000	98.711759 
1595.000000	98.718078 
1594.000000	98.723763 
1593.000000	98.728262 
1592.000000	98.733277 
1591.000000	98.738879 
1590.000000	98.743661 
1589.000000	98.747745 
1588.000000	98.752319 
1587.000000	98.757327 
1586.000000	98.761908 
1585.000000	98.766138 
1584.000000	98.770600 
1583.000000	98.775193 
1582.000000	98.779547 
1581.000000	98.783719 
1580.000000	98.787878 
1579.000000	98.791991 
1578.000000	98.796025 
1577.000000	98.800063 
1576.000000	98.804143 
1575.000000	98.808188 
1574.000000	98.812144 
1573.000000	98.816024 
1572.000000	98.819849 
1571.000000	98.823628 
1570.000000	98.827362 
1569.000000	98.831048 
1568.000000	98.834682 
1567.000000	98.838257 
1566.000000	98.841762 
1565.000000	98.845194 
1564.000000	98.848554 
1563.000000	98.851845 
1562.000000	98.855073 
1561.000000	98.858246 
1560.000000	98.861369 
1559.000000	98.864418 
1558.000000	98.867362 
1557.000000	98.870212 
1556.000000	98.872997 
1555.000000	98.875732 
1554.000000	98.878415 
1553.000000	98.881044 
1552.000000	98.883619 
1551.000000	98.886148 
1550.000000	98.888649 
1549.000000	98.891140 
1548.000000	98.893619 
1547.000000	98.896058 
1546.000000	98.898381 
1545.000000	98.900489 
1544.000000	98.902444 
1543.000000	98.904559 
1542.000000	98.907056 
1541.000000	98.909450 
1540.000000	98.911356 
1539.000000	98.913148 
1538.000000	98.914584 
1537.000000	98.915627 
1536.000000	98.916420 
1535.000000	98.917197 
1534.000000	98.917992 
1533.000000	98.918476 
1532.000000	98.918835 
1531.000000	98.919972 
1530.000000	98.921852 
1529.000000	98.922861 
1528.000000	98.922161 
1527.000000	98.921160 
1526.000000	98.921565 
1525.000000	98.922512 
1524.000000	98.922325 
1523.000000	98.921277 
1522.000000	98.920588 
1521.000000	98.919915 
1520.000000	98.919052 
1519.000000	98.919142 
1518.000000	98.920732 
1517.000000	98.922486 
1516.000000	98.923218 
1515.000000	98.923419 
1514.000000	98.924544 
1513.000000	98.925983 
1512.000000	98.925170 
1511.000000	98.922663 
1510.000000	98.921665 
1509.000000	98.922620 
1508.000000	98.922144 
1507.000000	98.920828 
1506.000000	98.920412 
1505.000000	98.916143 
1504.000000	98.909753 
1503.000000	98.904615 
1502.000000	98.900837 
1501.000000	98.897373 
1500.000000	98.892608 
1499.000000	98.887357 
1498.000000	98.885801 
1497.000000	98.888373 
1496.000000	98.889852 
1495.000000	98.889570 
1494.000000	98.891370 
1493.000000	98.895406 
1492.000000	98.898054 
1491.000000	98.896581 
1490.000000	98.891738 
1489.000000	98.884798 
1488.000000	98.876589 
1487.000000	98.870565 
1486.000000	98.867620 
1485.000000	98.865434 
1484.000000	98.863337 
1483.000000	98.861980 
1482.000000	98.861624 
1481.000000	98.860884 
1480.000000	98.858925 
1479.000000	98.857394 
1478.000000	98.857590 
1477.000000	98.857752 
1476.000000	98.856120 
1475.000000	98.855068 
1474.000000	98.855693 
1473.000000	98.854324 
1472.000000	98.848018 
1471.000000	98.841050 
1470.000000	98.837512 
1469.000000	98.835657 
1468.000000	98.832430 
1467.000000	98.828925 
1466.000000	98.827930 
1465.000000	98.828219 
1464.000000	98.826207 
1463.000000	98.821599 
1462.000000	98.817251 
1461.000000	98.813205 
1460.000000	98.807121 
1459.000000	98.798176 
1458.000000	98.790756 
1457.000000	98.787656 
1456.000000	98.781252 
1455.000000	98.768643 
1454.000000	98.756283 
1453.000000	98.745920 
1452.000000	98.735592 
1451.000000	98.726102 
1450.000000	98.721862 
1449.000000	98.723247 
1448.000000	98.723556 
1447.000000	98.718862 
1446.000000	98.712467 
1445.000000	98.707855 
1444.000000	98.703754 
1443.000000	98.698008 
1442.000000	98.692687 
1441.000000	98.690310 
1440.000000	98.687783 
1439.000000	98.680763 
1438.000000	98.673119 
1437.000000	98.671185 
1436.000000	98.672364 
1435.000000	98.671677 
1434.000000	98.670440 
1433.000000	98.668672 
1432.000000	98.663976 
1431.000000	98.655056 
1430.000000	98.645524 
1429.000000	98.639113 
1428.000000	98.633613 
1427.000000	98.625992 
1426.000000	98.617117 
1425.000000	98.610845 
1424.000000	98.606577 
1423.000000	98.598794 
1422.000000	98.586747 
1421.000000	98.574077 
1420.000000	98.560806 
1419.000000	98.543654 
1418.000000	98.527511 
1417.000000	98.515596 
1416.000000	98.501237 
1415.000000	98.479941 
1414.000000	98.454922 
1413.000000	98.431932 
1412.000000	98.412234 
1411.000000	98.394330 
1410.000000	98.380017 
1409.000000	98.371311 
1408.000000	98.366140 
1407.000000	98.362689 
1406.000000	98.362972 
1405.000000	98.370856 
1404.000000	98.385219 
1403.000000	98.400690 
1402.000000	98.415478 
1401.000000	98.430971 
1400.000000	98.446815 
1399.000000	98.458292 
1398.000000	98.459333 
1397.000000	98.445211 
1396.000000	98.416007 
1395.000000	98.383729 
1394.000000	98.370049 
1393.000000	98.386616 
1392.000000	98.423106 
1391.000000	98.459860 
1390.000000	98.484754 
1389.000000	98.496454 
1388.000000	98.498266 
1387.000000	98.493973 
1386.000000	98.487832 
1385.000000	98.483805 
1384.000000	98.483142 
1383.000000	98.484574 
1382.000000	98.487331 
1381.000000	98.492170 
1380.000000	98.500253 
1379.000000	98.511382 
1378.000000	98.524128 
1377.000000	98.537706 
1376.000000	98.552404 
1375.000000	98.568205 
1374.000000	98.584442 
1373.000000	98.600719 
1372.000000	98.616456 
1371.000000	98.630857 
1370.000000	98.643649 
1369.000000	98.656924 
1368.000000	98.672483 
1367.000000	98.688529 
1366.000000	98.701930 
1365.000000	98.711936 
1364.000000	98.720490 
1363.000000	98.730183 
1362.000000	98.741894 
1361.000000	98.754613 
1360.000000	98.767227 
1359.000000	98.779254 
1358.000000	98.790535 
1357.000000	98.801767 
1356.000000	98.813581 
1355.000000	98.825065 
1354.000000	98.834623 
1353.000000	98.842033 
1352.000000	98.848919 
1351.000000	98.856826 
1350.000000	98.864397 
1349.000000	98.871412 
1348.000000	98.878264 
1347.000000	98.883815 
1346.000000	98.887234 
1345.000000	98.890673 
1344.000000	98.896561 
1343.000000	98.903240 
1342.000000	98.906317 
1341.000000	98.904581 
1340.000000	98.901682 
1339.000000	98.901152 
1338.000000	98.903065 
1337.000000	98.906283 
1336.000000	98.909983 
1335.000000	98.913076 
1334.000000	98.915103 
1333.000000	98.917594 
1332.000000	98.922054 
1331.000000	98.926705 
1330.000000	98.928022 
1329.000000	98.925850 
1328.000000	98.923336 
1327.000000	98.921867 
1326.000000	98.919592 
1325.000000	98.916571 
1324.000000	98.915157 
1323.000000	98.915739 
1322.000000	98.916104 
1321.000000	98.914985 
1320.000000	98.913226 
1319.000000	98.911796 
1318.000000	98.911217 
1317.000000	98.912336 
1316.000000	98.915534 
1315.000000	98.919411 
1314.000000	98.922187 
1313.000000	98.923800 
1312.000000	98.925215 
1311.000000	98.926571 
1310.000000	98.927596 
1309.000000	98.928703 
1308.000000	98.929958 
1307.000000	98.930109 
1306.000000	98.927860 
1305.000000	98.924660 
1304.000000	98.922958 
1303.000000	98.923190 
1302.000000	98.924062 
1301.000000	98.924751 
1300.000000	98.924894 
1299.000000	98.923853 
1298.000000	98.922002 
1297.000000	98.921488 
1296.000000	98.923798 
1295.000000	98.927046 
1294.000000	98.928143 
1293.000000	98.926933 
1292.000000	98.926100 
1291.000000	98.927346 
1290.000000	98.929388 
1289.000000	98.929957 
1288.000000	98.928439 
1287.000000	98.926105 
1286.000000	98.924520 
1285.000000	98.924020 
1284.000000	98.923761 
1283.000000	98.923442 
1282.000000	98.923880 
1281.000000	98.925215 
1280.000000	98.926062 
1279.000000	98.925110 
1278.000000	98.923295 
1277.000000	98.922886 
1276.000000	98.924467 
1275.000000	98.926037 
1274.000000	98.925620 
1273.000000	98.923451 
1272.000000	98.920942 
1271.000000	98.918553 
1270.000000	98.915440 
1269.000000	98.910567 
1268.000000	98.903600 
1267.000000	98.895362 
1266.000000	98.887737 
1265.000000	98.881896 
1264.000000	98.876720 
1263.000000	98.870336 
1262.000000	98.862982 
1261.000000	98.856760 
1260.000000	98.852569 
1259.000000	98.848836 
1258.000000	98.844178 
1257.000000	98.839308 
1256.000000	98.835506 
1255.000000	98.832680 
1254.000000	98.829645 
1253.000000	98.825179 
1252.000000	98.818823 
1251.000000	98.812212 
1250.000000	98.809802 
1249.000000	98.816164 
1248.000000	98.831557 
1247.000000	98.850945 
1246.000000	98.867193 
1245.000000	98.873687 
1244.000000	98.866249 
1243.000000	98.847969 
1242.000000	98.832233 
1241.000000	98.834047 
1240.000000	98.854872 
1239.000000	98.879680 
1238.000000	98.891993 
1237.000000	98.888671 
1236.000000	98.877510 
1235.000000	98.865140 
1234.000000	98.852045 
1233.000000	98.837216 
1232.000000	98.822216 
1231.000000	98.810089 
1230.000000	98.802919 
1229.000000	98.800278 
1228.000000	98.798569 
1227.000000	98.793155 
1226.000000	98.783045 
1225.000000	98.772251 
1224.000000	98.764725 
1223.000000	98.759483 
1222.000000	98.752757 
1221.000000	98.743200 
1220.000000	98.732256 
1219.000000	98.720598 
1218.000000	98.707104 
1217.000000	98.690708 
1216.000000	98.670868 
1215.000000	98.646711 
1214.000000	98.617883 
1213.000000	98.585917 
1212.000000	98.552838 
1211.000000	98.518754 
1210.000000	98.482045 
1209.000000	98.441480 
1208.000000	98.397146 
1207.000000	98.350119 
1206.000000	98.302251 
1205.000000	98.255250 
1204.000000	98.208825 
1203.000000	98.160579 
1202.000000	98.108931 
1201.000000	98.055201 
1200.000000	98.001553 
1199.000000	97.948006 
1198.000000	97.893496 
1197.000000	97.838950 
1196.000000	97.786698 
1195.000000	97.736824 
1194.000000	97.686117 
1193.000000	97.631347 
1192.000000	97.572172 
1191.000000	97.510319 
1190.000000	97.447273 
1189.000000	97.383597 
1188.000000	97.319373 
1187.000000	97.254110 
1186.000000	97.186844 
1185.000000	97.117470 
1184.000000	97.047808 
1183.000000	96.980218 
1182.000000	96.914812 
1181.000000	96.848887 
1180.000000	96.779611 
1179.000000	96.706754 
1178.000000	96.632409 
1177.000000	96.558234 
1176.000000	96.483179 
1175.000000	96.403925 
1174.000000	96.317641 
1173.000000	96.224603 
1172.000000	96.127915 
1171.000000	96.030791 
1170.000000	95.934604 
1169.000000	95.839575 
1168.000000	95.746552 
1167.000000	95.657940 
1166.000000	95.578279 
1165.000000	95.514724 
1164.000000	95.475296 
1163.000000	95.464348 
1162.000000	95.479273 
1161.000000	95.511870 
1160.000000	95.551502 
1159.000000	95.586289 
1158.000000	95.604726 
1157.000000	95.599722 
1156.000000	95.570848 
1155.000000	95.521971 
1154.000000	95.458126 
1153.000000	95.384980 
1152.000000	95.308223 
1151.000000	95.230681 
1150.000000	95.151381 
1149.000000	95.069687 
1148.000000	94.988749 
1147.000000	94.912182 
1146.000000	94.838767 
1145.000000	94.763574 
1144.000000	94.683444 
1143.000000	94.598559 
1142.000000	94.510046 
1141.000000	94.419438 
1140.000000	94.329650 
1139.000000	94.242852 
1138.000000	94.157363 
1137.000000	94.069363 
1136.000000	93.977226 
1135.000000	93.881970 
1134.000000	93.784962 
1133.000000	93.688034 
1132.000000	93.593940 
1131.000000	93.502860 
1130.000000	93.410096 
1129.000000	93.311288 
1128.000000	93.208063 
1127.000000	93.104168 
1126.000000	92.998368 
1125.000000	92.886889 
1124.000000	92.771088 
1123.000000	92.656008 
1122.000000	92.542218 
1121.000000	92.426122 
1120.000000	92.308334 
1119.000000	92.194406 
1118.000000	92.086360 
1117.000000	91.980359 
1116.000000	91.873815 
1115.000000	91.768238 
1114.000000	91.664019 
1113.000000	91.558992 
1112.000000	91.453455 
1111.000000	91.350256 
1110.000000	91.249437 
1109.000000	91.149009 
1108.000000	91.049750 
1107.000000	90.953440 
1106.000000	90.856930 
1105.000000	90.755424 
1104.000000	90.651523 
1103.000000	90.553019 
1102.000000	90.461341 
1101.000000	90.370602 
1100.000000	90.277304 
1099.000000	90.185224 
1098.000000	90.095957 
1097.000000	90.005719 
1096.000000	89.912385 
1095.000000	89.817573 
1094.000000	89.719379 
1093.000000	89.611250 
1092.000000	89.491183 
1091.000000	89.365230 
1090.000000	89.239573 
1089.000000	89.115693 
1088.000000	88.994900 
1087.000000	88.879747 
1086.000000	88.768538 
1085.000000	88.655749 
1084.000000	88.539930 
1083.000000	88.424417 
1082.000000	88.309595 
1081.000000	88.192453 
1080.000000	88.074422 
1079.000000	87.960913 
1078.000000	87.852525 
1077.000000	87.746065 
1076.000000	87.644263 
1075.000000	87.553251 
1074.000000	87.469544 
1073.000000	87.380964 
1072.000000	87.280077 
1071.000000	87.162667 
1070.000000	87.013383 
1069.000000	86.813084 
1068.000000	86.569196 
1067.000000	86.325151 
1066.000000	86.125856 
1065.000000	85.978777 
1064.000000	85.857203 
1063.000000	85.729303 
1062.000000	85.573484 
1061.000000	85.378815 
1060.000000	85.148819 
1059.000000	84.904365 
1058.000000	84.671476 
1057.000000	84.462850 
1056.000000	84.273082 
1055.000000	84.087284 
1054.000000	83.890942 
1053.000000	83.678014 
1052.000000	83.455034 
1051.000000	83.233087 
1050.000000	83.013220 
1049.000000	82.786735 
1048.000000	82.550763 
1047.000000	82.313251 
1046.000000	82.081189 
1045.000000	81.854715 
1044.000000	81.634066 
1043.000000	81.421168 
1042.000000	81.211893 
1041.000000	80.997232 
1040.000000	80.776137 
1039.000000	80.559364 
1038.000000	80.358405 
1037.000000	80.177847 
1036.000000	80.018151 
1035.000000	79.876218 
1034.000000	79.742948 
1033.000000	79.608901 
1032.000000	79.470883 
1031.000000	79.325796 
1030.000000	79.166186 
1029.000000	78.996505 
1028.000000	78.846655 
1027.000000	78.748393 
1026.000000	78.698219 
1025.000000	78.660995 
1024.000000	78.610130 
1023.000000	78.545845 
1022.000000	78.475365 
1021.000000	78.398394 
1020.000000	78.316374 
1019.000000	78.236200 
1018.000000	78.158232 
1017.000000	78.075899 
1016.000000	77.991031 
1015.000000	77.914047 
1014.000000	77.845948 
1013.000000	77.776274 
1012.000000	77.702031 
1011.000000	77.632351 
1010.000000	77.571208 
1009.000000	77.512032 
1008.000000	77.453212 
1007.000000	77.402982 
1006.000000	77.365098 
1005.000000	77.334934 
1004.000000	77.312905 
1003.000000	77.306171 
1002.000000	77.313663 
1001.000000	77.324729 
1000.000000	77.335956 
999.000000	 77.354559 
998.000000	 77.382553 
997.000000	 77.412778 
996.000000	 77.443257 
995.000000	 77.480287 
994.000000	 77.524465 
993.000000	 77.568628 
992.000000	 77.612441 
991.000000	 77.664525 
990.000000	 77.727464 
989.000000	 77.794503 
988.000000	 77.862720 
987.000000	 77.935610 
986.000000	 78.012004 
985.000000	 78.087416 
984.000000	 78.166962 
983.000000	 78.261596 
982.000000	 78.371450 
981.000000	 78.487735 
980.000000	 78.610636 
979.000000	 78.749117 
978.000000	 78.902542 
977.000000	 79.059693 
976.000000	 79.217721 
975.000000	 79.385462 
974.000000	 79.566034 
973.000000	 79.752443 
972.000000	 79.942580 
971.000000	 80.142573 
970.000000	 80.352700 
969.000000	 80.565225 
968.000000	 80.778664 
967.000000	 80.999545 
966.000000	 81.227759 
965.000000	 81.454476 
964.000000	 81.676739 
963.000000	 81.900212 
962.000000	 82.125573 
961.000000	 82.345767 
960.000000	 82.558731 
959.000000	 82.769877 
958.000000	 82.980450 
957.000000	 83.186041 
956.000000	 83.387583 
955.000000	 83.590737 
954.000000	 83.792976 
953.000000	 83.984128 
952.000000	 84.161251 
951.000000	 84.330881 
950.000000	 84.495761 
949.000000	 84.651557 
948.000000	 84.797831 
947.000000	 84.940014 
946.000000	 85.078779 
945.000000	 85.208471 
944.000000	 85.327392 
943.000000	 85.439314 
942.000000	 85.544762 
941.000000	 85.641243 
940.000000	 85.731561 
939.000000	 85.821012 
938.000000	 85.907405 
937.000000	 85.985590 
936.000000	 86.060592 
935.000000	 86.143564 
934.000000	 86.235471 
933.000000	 86.327782 
932.000000	 86.418272 
931.000000	 86.511958 
930.000000	 86.606748 
929.000000	 86.693174 
928.000000	 86.769789 
927.000000	 86.844673 
926.000000	 86.919888 
925.000000	 86.988187 
924.000000	 87.047042 
923.000000	 87.102011 
922.000000	 87.153526 
921.000000	 87.194122 
920.000000	 87.222500 
919.000000	 87.247836 
918.000000	 87.276366 
917.000000	 87.305248 
916.000000	 87.332760 
915.000000	 87.362868 
914.000000	 87.397218 
913.000000	 87.435268 
912.000000	 87.485704 
911.000000	 87.564718 
910.000000	 87.678126 
909.000000	 87.815928 
908.000000	 87.967828 
907.000000	 88.133185 
906.000000	 88.312624 
905.000000	 88.502096 
904.000000	 88.700192 
903.000000	 88.911672 
902.000000	 89.139299 
901.000000	 89.378881 
900.000000	 89.623364 
899.000000	 89.865293 
898.000000	 90.096477 
897.000000	 90.314450 
896.000000	 90.527072 
895.000000	 90.742421 
894.000000	 90.957144 
893.000000	 91.164039 
892.000000	 91.366506 
891.000000	 91.573000 
890.000000	 91.780054 
889.000000	 91.974345 
888.000000	 92.150860 
887.000000	 92.316547 
886.000000	 92.476503 
885.000000	 92.628704 
884.000000	 92.772522 
883.000000	 92.910421 
882.000000	 93.041202 
881.000000	 93.164421 
880.000000	 93.292018 
879.000000	 93.440974 
878.000000	 93.610545 
877.000000	 93.779701 
876.000000	 93.931411 
875.000000	 94.068291 
874.000000	 94.202309 
873.000000	 94.341028 
872.000000	 94.487333 
871.000000	 94.641345 
870.000000	 94.797998 
869.000000	 94.951303 
868.000000	 95.103580 
867.000000	 95.262664 
866.000000	 95.428806 
865.000000	 95.592698 
864.000000	 95.747720 
863.000000	 95.895939 
862.000000	 96.041028 
861.000000	 96.183672 
860.000000	 96.325845 
859.000000	 96.471317 
858.000000	 96.618490 
857.000000	 96.758796 
856.000000	 96.884939 
855.000000	 96.996451 
854.000000	 97.096504 
853.000000	 97.187863 
852.000000	 97.272339 
851.000000	 97.349794 
850.000000	 97.417798 
849.000000	 97.476341 
848.000000	 97.531145 
847.000000	 97.586946 
846.000000	 97.639297 
845.000000	 97.679219 
844.000000	 97.704114 
843.000000	 97.717543 
842.000000	 97.720642 
841.000000	 97.712060 
840.000000	 97.695259 
839.000000	 97.676776 
838.000000	 97.656380 
837.000000	 97.626839 
836.000000	 97.584839 
835.000000	 97.535404 
834.000000	 97.485139 
833.000000	 97.438456 
832.000000	 97.400950 
831.000000	 97.378003 
830.000000	 97.368138 
829.000000	 97.365733 
828.000000	 97.371854 
827.000000	 97.393591 
826.000000	 97.431241 
825.000000	 97.476552 
824.000000	 97.525516 
823.000000	 97.580462 
822.000000	 97.636806 
821.000000	 97.681661 
820.000000	 97.709989 
819.000000	 97.730728 
818.000000	 97.753347 
817.000000	 97.777026 
816.000000	 97.795108 
815.000000	 97.800618 
814.000000	 97.783192 
813.000000	 97.728601 
812.000000	 97.627424 
811.000000	 97.480044 
810.000000	 97.289726 
809.000000	 97.055634 
808.000000	 96.776035 
807.000000	 96.452742 
806.000000	 96.088338 
805.000000	 95.685798 
804.000000	 95.257628 
803.000000	 94.830530 
802.000000	 94.434536 
801.000000	 94.090679 
800.000000	 93.812049 
799.000000	 93.608135 
798.000000	 93.481579 
797.000000	 93.426748 
796.000000	 93.435307 
795.000000	 93.496861 
794.000000	 93.593326 
793.000000	 93.702464 
792.000000	 93.810157 
791.000000	 93.912323 
790.000000	 94.004467 
789.000000	 94.077306 
788.000000	 94.122487 
787.000000	 94.134093 
786.000000	 94.104714 
785.000000	 94.029690 
784.000000	 93.916582 
783.000000	 93.782014 
782.000000	 93.638402 
781.000000	 93.492797 
780.000000	 93.359381 
779.000000	 93.261505 
778.000000	 93.217300 
777.000000	 93.231689 
776.000000	 93.302881 
775.000000	 93.424537 
774.000000	 93.579117 
773.000000	 93.741716 
772.000000	 93.895882 
771.000000	 94.038269 
770.000000	 94.167405 
769.000000	 94.278123 
768.000000	 94.368979 
767.000000	 94.445351 
766.000000	 94.512037 
765.000000	 94.570145 
764.000000	 94.622400 
763.000000	 94.673326 
762.000000	 94.722778 
761.000000	 94.767202 
760.000000	 94.807977 
759.000000	 94.850438 
758.000000	 94.895154 
757.000000	 94.939642 
756.000000	 94.988297 
755.000000	 95.049651 
754.000000	 95.122930 
753.000000	 95.197826 
752.000000	 95.268304 
751.000000	 95.336619 
750.000000	 95.403870 
749.000000	 95.468416 
748.000000	 95.535147 
747.000000	 95.613893 
746.000000	 95.704701 
745.000000	 95.795478 
744.000000	 95.878913 
743.000000	 95.962722 
742.000000	 96.059242 
741.000000	 96.173188 
740.000000	 96.302169 
739.000000	 96.439865 
738.000000	 96.575359 
737.000000	 96.697735 
736.000000	 96.804802 
735.000000	 96.901313 
734.000000	 96.988292 
733.000000	 97.061634 
732.000000	 97.120743 
731.000000	 97.169939 
730.000000	 97.211328 
729.000000	 97.245311 
728.000000	 97.276575 
727.000000	 97.309838 
726.000000	 97.341175 
725.000000	 97.363621 
724.000000	 97.381826 
723.000000	 97.411033 
722.000000	 97.460472 
721.000000	 97.526879 
720.000000	 97.604148 
719.000000	 97.688444 
718.000000	 97.772601 
717.000000	 97.846938 
716.000000	 97.908831 
715.000000	 97.962672 
714.000000	 98.009023 
713.000000	 98.043507 
712.000000	 98.067641 
711.000000	 98.090532 
710.000000	 98.117016 
709.000000	 98.142863 
708.000000	 98.162733 
707.000000	 98.172850 
706.000000	 98.165833 
705.000000	 98.133188 
704.000000	 98.075039 
703.000000	 97.998135 
702.000000	 97.900979 
701.000000	 97.771266 
700.000000	 97.602539 
699.000000	 97.402596 
698.000000	 97.186203 
697.000000	 96.972563 
696.000000	 96.791546 
695.000000	 96.677161 
694.000000	 96.643719 
693.000000	 96.677483 
692.000000	 96.755581 
691.000000	 96.861416 
690.000000	 96.981801 
689.000000	 97.103661 
688.000000	 97.221304 
687.000000	 97.336879 
686.000000	 97.445474 
685.000000	 97.533589 
684.000000	 97.599581 
683.000000	 97.659373 
682.000000	 97.725124 
681.000000	 97.791563 
680.000000	 97.851110 
679.000000	 97.908328 
678.000000	 97.968945 
677.000000	 98.028771 
676.000000	 98.078853 
675.000000	 98.115822 
674.000000	 98.142677 
673.000000	 98.163597 
672.000000	 98.180019 
671.000000	 98.190650 
670.000000	 98.196905 
669.000000	 98.217008 
668.000000	 98.296457 
667.000000	 98.436398 
666.000000	 98.560277 
665.000000	 98.643064 
664.000000	 98.711705 
663.000000	 98.785588 
662.000000	 98.857598 
661.000000	 98.911513 
660.000000	 98.947147 
659.000000	 98.975946 
658.000000	 99.000625 
657.000000	 99.015281 
656.000000	 99.015797 
655.000000	 99.001055 
654.000000	 98.970143 
653.000000	 98.925157 
652.000000	 98.876405 
651.000000	 98.843908 
650.000000	 98.848224 

