4000.000000	99.660497 
3999.000000	99.659460 
3998.000000	99.659146 
3997.000000	99.659612 
3996.000000	99.660533 
3995.000000	99.661415 
3994.000000	99.661837 
3993.000000	99.661667 
3992.000000	99.661078 
3991.000000	99.660395 
3990.000000	99.660036 
3989.000000	99.660395 
3988.000000	99.661502 
3987.000000	99.662772 
3986.000000	99.663356 
3985.000000	99.662808 
3984.000000	99.661421 
3983.000000	99.660004 
3982.000000	99.659186 
3981.000000	99.658921 
3980.000000	99.658675 
3979.000000	99.658040 
3978.000000	99.657039 
3977.000000	99.655945 
3976.000000	99.654886 
3975.000000	99.653790 
3974.000000	99.652675 
3973.000000	99.651929 
3972.000000	99.652070 
3971.000000	99.653191 
3970.000000	99.654885 
3969.000000	99.656752 
3968.000000	99.658703 
3967.000000	99.660700 
3966.000000	99.662391 
3965.000000	99.663152 
3964.000000	99.662623 
3963.000000	99.661134 
3962.000000	99.659537 
3961.000000	99.658594 
3960.000000	99.658456 
3959.000000	99.658547 
3958.000000	99.658124 
3957.000000	99.657056 
3956.000000	99.655887 
3955.000000	99.655253 
3954.000000	99.655376 
3953.000000	99.655992 
3952.000000	99.656684 
3951.000000	99.657274 
3950.000000	99.658156 
3949.000000	99.659872 
3948.000000	99.662217 
3947.000000	99.664187 
3946.000000	99.664782 
3945.000000	99.663579 
3944.000000	99.660777 
3943.000000	99.657279 
3942.000000	99.654296 
3941.000000	99.652508 
3940.000000	99.651698 
3939.000000	99.651152 
3938.000000	99.650549 
3937.000000	99.650499 
3936.000000	99.651890 
3935.000000	99.654748 
3934.000000	99.657927 
3933.000000	99.659960 
3932.000000	99.660140 
3931.000000	99.658734 
3930.000000	99.656547 
3929.000000	99.654285 
3928.000000	99.652349 
3927.000000	99.650990 
3926.000000	99.650132 
3925.000000	99.649565 
3924.000000	99.649652 
3923.000000	99.650885 
3922.000000	99.653004 
3921.000000	99.655069 
3920.000000	99.656523 
3919.000000	99.657615 
3918.000000	99.658403 
3917.000000	99.658363 
3916.000000	99.657255 
3915.000000	99.655707 
3914.000000	99.654384 
3913.000000	99.653313 
3912.000000	99.652346 
3911.000000	99.651577 
3910.000000	99.651183 
3909.000000	99.651335 
3908.000000	99.652196 
3907.000000	99.653746 
3906.000000	99.655700 
3905.000000	99.657454 
3904.000000	99.658600 
3903.000000	99.659038 
3902.000000	99.658774 
3901.000000	99.657893 
3900.000000	99.656586 
3899.000000	99.655384 
3898.000000	99.654788 
3897.000000	99.654717 
3896.000000	99.654727 
3895.000000	99.654523 
3894.000000	99.654125 
3893.000000	99.653722 
3892.000000	99.653405 
3891.000000	99.653138 
3890.000000	99.652932 
3889.000000	99.652812 
3888.000000	99.652708 
3887.000000	99.652535 
3886.000000	99.652300 
3885.000000	99.652052 
3884.000000	99.651809 
3883.000000	99.651557 
3882.000000	99.651295 
3881.000000	99.651021 
3880.000000	99.650740 
3879.000000	99.650456 
3878.000000	99.650174 
3877.000000	99.649896 
3876.000000	99.649621 
3875.000000	99.649353 
3874.000000	99.649099 
3873.000000	99.648870 
3872.000000	99.648665 
3871.000000	99.648472 
3870.000000	99.648274 
3869.000000	99.648062 
3868.000000	99.647837 
3867.000000	99.647597 
3866.000000	99.647339 
3865.000000	99.647069 
3864.000000	99.646799 
3863.000000	99.646542 
3862.000000	99.646300 
3861.000000	99.646076 
3860.000000	99.645875 
3859.000000	99.645705 
3858.000000	99.645565 
3857.000000	99.645454 
3856.000000	99.645366 
3855.000000	99.645298 
3854.000000	99.645248 
3853.000000	99.645217 
3852.000000	99.645204 
3851.000000	99.645209 
3850.000000	99.645229 
3849.000000	99.645257 
3848.000000	99.645294 
3847.000000	99.645351 
3846.000000	99.645431 
3845.000000	99.645529 
3844.000000	99.645636 
3843.000000	99.645741 
3842.000000	99.645846 
3841.000000	99.645959 
3840.000000	99.646080 
3839.000000	99.646200 
3838.000000	99.646306 
3837.000000	99.646391 
3836.000000	99.646453 
3835.000000	99.646493 
3834.000000	99.646510 
3833.000000	99.646502 
3832.000000	99.646467 
3831.000000	99.646403 
3830.000000	99.646307 
3829.000000	99.646182 
3828.000000	99.646031 
3827.000000	99.645862 
3826.000000	99.645683 
3825.000000	99.645500 
3824.000000	99.645315 
3823.000000	99.645125 
3822.000000	99.644919 
3821.000000	99.644690 
3820.000000	99.644443 
3819.000000	99.644182 
3818.000000	99.643900 
3817.000000	99.643569 
3816.000000	99.643177 
3815.000000	99.642736 
3814.000000	99.642282 
3813.000000	99.641832 
3812.000000	99.641386 
3811.000000	99.640941 
3810.000000	99.640512 
3809.000000	99.640115 
3808.000000	99.639734 
3807.000000	99.639324 
3806.000000	99.638878 
3805.000000	99.638453 
3804.000000	99.638086 
3803.000000	99.637694 
3802.000000	99.637139 
3801.000000	99.636399 
3800.000000	99.635685 
3799.000000	99.635196 
3798.000000	99.634898 
3797.000000	99.634557 
3796.000000	99.634029 
3795.000000	99.633391 
3794.000000	99.632762 
3793.000000	99.632055 
3792.000000	99.631120 
3791.000000	99.630106 
3790.000000	99.629359 
3789.000000	99.628988 
3788.000000	99.628815 
3787.000000	99.628739 
3786.000000	99.628807 
3785.000000	99.629011 
3784.000000	99.629247 
3783.000000	99.629697 
3782.000000	99.630553 
3781.000000	99.631558 
3780.000000	99.632298 
3779.000000	99.632663 
3778.000000	99.632875 
3777.000000	99.633274 
3776.000000	99.633840 
3775.000000	99.634010 
3774.000000	99.633738 
3773.000000	99.634024 
3772.000000	99.635650 
3771.000000	99.637862 
3770.000000	99.639484 
3769.000000	99.640548 
3768.000000	99.641572 
3767.000000	99.642442 
3766.000000	99.642387 
3765.000000	99.641093 
3764.000000	99.639802 
3763.000000	99.640049 
3762.000000	99.641362 
3761.000000	99.641920 
3760.000000	99.641764 
3759.000000	99.642966 
3758.000000	99.645747 
3757.000000	99.648297 
3756.000000	99.650157 
3755.000000	99.652058 
3754.000000	99.654115 
3753.000000	99.655754 
3752.000000	99.657857 
3751.000000	99.661866 
3750.000000	99.665061 
3749.000000	99.664286 
3748.000000	99.661775 
3747.000000	99.661820 
3746.000000	99.663775 
3745.000000	99.662100 
3744.000000	99.654920 
3743.000000	99.648545 
3742.000000	99.648483 
3741.000000	99.652413 
3740.000000	99.655297 
3739.000000	99.656615 
3738.000000	99.658437 
3737.000000	99.660065 
3736.000000	99.660114 
3735.000000	99.659685 
3734.000000	99.660163 
3733.000000	99.659201 
3732.000000	99.654187 
3731.000000	99.647225 
3730.000000	99.642427 
3729.000000	99.640899 
3728.000000	99.639296 
3727.000000	99.634049 
3726.000000	99.626524 
3725.000000	99.621286 
3724.000000	99.619685 
3723.000000	99.618933 
3722.000000	99.616811 
3721.000000	99.613160 
3720.000000	99.608594 
3719.000000	99.604536 
3718.000000	99.601633 
3717.000000	99.599929 
3716.000000	99.600344 
3715.000000	99.602893 
3714.000000	99.605363 
3713.000000	99.605110 
3712.000000	99.602820 
3711.000000	99.600112 
3710.000000	99.595759 
3709.000000	99.588499 
3708.000000	99.578728 
3707.000000	99.567986 
3706.000000	99.558362 
3705.000000	99.550994 
3704.000000	99.544969 
3703.000000	99.538124 
3702.000000	99.529288 
3701.000000	99.518349 
3700.000000	99.505832 
3699.000000	99.493544 
3698.000000	99.482766 
3697.000000	99.473386 
3696.000000	99.466300 
3695.000000	99.462710 
3694.000000	99.460481 
3693.000000	99.455433 
3692.000000	99.447183 
3691.000000	99.440341 
3690.000000	99.438483 
3689.000000	99.437967 
3688.000000	99.432123 
3687.000000	99.421783 
3686.000000	99.413885 
3685.000000	99.411549 
3684.000000	99.412824 
3683.000000	99.415365 
3682.000000	99.417825 
3681.000000	99.417442 
3680.000000	99.411329 
3679.000000	99.401875 
3678.000000	99.396093 
3677.000000	99.395607 
3676.000000	99.394863 
3675.000000	99.391137 
3674.000000	99.388685 
3673.000000	99.392143 
3672.000000	99.398789 
3671.000000	99.400179 
3670.000000	99.394522 
3669.000000	99.387805 
3668.000000	99.384038 
3667.000000	99.383053 
3666.000000	99.383955 
3665.000000	99.386102 
3664.000000	99.388317 
3663.000000	99.388858 
3662.000000	99.386622 
3661.000000	99.383166 
3660.000000	99.382550 
3659.000000	99.387691 
3658.000000	99.397492 
3657.000000	99.407573 
3656.000000	99.415037 
3655.000000	99.422118 
3654.000000	99.432633 
3653.000000	99.445923 
3652.000000	99.456785 
3651.000000	99.461931 
3650.000000	99.465255 
3649.000000	99.471128 
3648.000000	99.476941 
3647.000000	99.479502 
3646.000000	99.480238 
3645.000000	99.481646 
3644.000000	99.484155 
3643.000000	99.487069 
3642.000000	99.489759 
3641.000000	99.492756 
3640.000000	99.496763 
3639.000000	99.501618 
3638.000000	99.507168 
3637.000000	99.513714 
3636.000000	99.520862 
3635.000000	99.526351 
3634.000000	99.528911 
3633.000000	99.531567 
3632.000000	99.538609 
3631.000000	99.549631 
3630.000000	99.558625 
3629.000000	99.561555 
3628.000000	99.560470 
3627.000000	99.560426 
3626.000000	99.563452 
3625.000000	99.566824 
3624.000000	99.567680 
3623.000000	99.566023 
3622.000000	99.563483 
3621.000000	99.560818 
3620.000000	99.559060 
3619.000000	99.559965 
3618.000000	99.563320 
3617.000000	99.567427 
3616.000000	99.571934 
3615.000000	99.576986 
3614.000000	99.582522 
3613.000000	99.588652 
3612.000000	99.595288 
3611.000000	99.601562 
3610.000000	99.605811 
3609.000000	99.606588 
3608.000000	99.604344 
3607.000000	99.600804 
3606.000000	99.596709 
3605.000000	99.591776 
3604.000000	99.586068 
3603.000000	99.580780 
3602.000000	99.577744 
3601.000000	99.577642 
3600.000000	99.580295 
3599.000000	99.585238 
3598.000000	99.590822 
3597.000000	99.594835 
3596.000000	99.596553 
3595.000000	99.597086 
3594.000000	99.598547 
3593.000000	99.602201 
3592.000000	99.606923 
3591.000000	99.610360 
3590.000000	99.610369 
3589.000000	99.606521 
3588.000000	99.600926 
3587.000000	99.596296 
3586.000000	99.593153 
3585.000000	99.591002 
3584.000000	99.589782 
3583.000000	99.589777 
3582.000000	99.590764 
3581.000000	99.591964 
3580.000000	99.592785 
3579.000000	99.593575 
3578.000000	99.595339 
3577.000000	99.598732 
3576.000000	99.603515 
3575.000000	99.608447 
3574.000000	99.611918 
3573.000000	99.613260 
3572.000000	99.613064 
3571.000000	99.612601 
3570.000000	99.612793 
3569.000000	99.613361 
3568.000000	99.613569 
3567.000000	99.613374 
3566.000000	99.613001 
3565.000000	99.612780 
3564.000000	99.613198 
3563.000000	99.613880 
3562.000000	99.613410 
3561.000000	99.610740 
3560.000000	99.606494 
3559.000000	99.602857 
3558.000000	99.601471 
3557.000000	99.601899 
3556.000000	99.602580 
3555.000000	99.602944 
3554.000000	99.603776 
3553.000000	99.605758 
3552.000000	99.608241 
3551.000000	99.610010 
3550.000000	99.610824 
3549.000000	99.611410 
3548.000000	99.612250 
3547.000000	99.613048 
3546.000000	99.612944 
3545.000000	99.611368 
3544.000000	99.608769 
3543.000000	99.606423 
3542.000000	99.605289 
3541.000000	99.605211 
3540.000000	99.605228 
3539.000000	99.604710 
3538.000000	99.603976 
3537.000000	99.603821 
3536.000000	99.604592 
3535.000000	99.605876 
3534.000000	99.607205 
3533.000000	99.608521 
3532.000000	99.609857 
3531.000000	99.610925 
3530.000000	99.611381 
3529.000000	99.611436 
3528.000000	99.611789 
3527.000000	99.612852 
3526.000000	99.614111 
3525.000000	99.614526 
3524.000000	99.613592 
3523.000000	99.611868 
3522.000000	99.610471 
3521.000000	99.610076 
3520.000000	99.610499 
3519.000000	99.611128 
3518.000000	99.611542 
3517.000000	99.611797 
3516.000000	99.612207 
3515.000000	99.612964 
3514.000000	99.614056 
3513.000000	99.615363 
3512.000000	99.616724 
3511.000000	99.617996 
3510.000000	99.619093 
3509.000000	99.619907 
3508.000000	99.620307 
3507.000000	99.620335 
3506.000000	99.620308 
3505.000000	99.620653 
3504.000000	99.621536 
3503.000000	99.622693 
3502.000000	99.623622 
3501.000000	99.624049 
3500.000000	99.624090 
3499.000000	99.624048 
3498.000000	99.624179 
3497.000000	99.624607 
3496.000000	99.625334 
3495.000000	99.626205 
3494.000000	99.626906 
3493.000000	99.627198 
3492.000000	99.627105 
3491.000000	99.626896 
3490.000000	99.626875 
3489.000000	99.627132 
3488.000000	99.627558 
3487.000000	99.627984 
3486.000000	99.628313 
3485.000000	99.628541 
3484.000000	99.628718 
3483.000000	99.628909 
3482.000000	99.629162 
3481.000000	99.629469 
3480.000000	99.629767 
3479.000000	99.630024 
3478.000000	99.630304 
3477.000000	99.630687 
3476.000000	99.631173 
3475.000000	99.631664 
3474.000000	99.632059 
3473.000000	99.632359 
3472.000000	99.632651 
3471.000000	99.632997 
3470.000000	99.633371 
3469.000000	99.633708 
3468.000000	99.633958 
3467.000000	99.634066 
3466.000000	99.633945 
3465.000000	99.633587 
3464.000000	99.633201 
3463.000000	99.633097 
3462.000000	99.633375 
3461.000000	99.633783 
3460.000000	99.634022 
3459.000000	99.634157 
3458.000000	99.634483 
3457.000000	99.635122 
3456.000000	99.635872 
3455.000000	99.636456 
3454.000000	99.636825 
3453.000000	99.637134 
3452.000000	99.637507 
3451.000000	99.637916 
3450.000000	99.638270 
3449.000000	99.638562 
3448.000000	99.638874 
3447.000000	99.639226 
3446.000000	99.639474 
3445.000000	99.639453 
3444.000000	99.639195 
3443.000000	99.638989 
3442.000000	99.639149 
3441.000000	99.639721 
3440.000000	99.640463 
3439.000000	99.641031 
3438.000000	99.641283 
3437.000000	99.641340 
3436.000000	99.641419 
3435.000000	99.641626 
3434.000000	99.641916 
3433.000000	99.642195 
3432.000000	99.642436 
3431.000000	99.642658 
3430.000000	99.642850 
3429.000000	99.642948 
3428.000000	99.642914 
3427.000000	99.642801 
3426.000000	99.642710 
3425.000000	99.642713 
3424.000000	99.642826 
3423.000000	99.643039 
3422.000000	99.643335 
3421.000000	99.643675 
3420.000000	99.643987 
3419.000000	99.644204 
3418.000000	99.644329 
3417.000000	99.644439 
3416.000000	99.644618 
3415.000000	99.644877 
3414.000000	99.645153 
3413.000000	99.645378 
3412.000000	99.645545 
3411.000000	99.645696 
3410.000000	99.645860 
3409.000000	99.646032 
3408.000000	99.646189 
3407.000000	99.646323 
3406.000000	99.646445 
3405.000000	99.646580 
3404.000000	99.646760 
3403.000000	99.646986 
3402.000000	99.647207 
3401.000000	99.647354 
3400.000000	99.647427 
3399.000000	99.647507 
3398.000000	99.647671 
3397.000000	99.647902 
3396.000000	99.648117 
3395.000000	99.648281 
3394.000000	99.648448 
3393.000000	99.648692 
3392.000000	99.648994 
3391.000000	99.649246 
3390.000000	99.649345 
3389.000000	99.649283 
3388.000000	99.649142 
3387.000000	99.649050 
3386.000000	99.649112 
3385.000000	99.649385 
3384.000000	99.649861 
3383.000000	99.650471 
3382.000000	99.651097 
3381.000000	99.651613 
3380.000000	99.651929 
3379.000000	99.652021 
3378.000000	99.651930 
3377.000000	99.651729 
3376.000000	99.651469 
3375.000000	99.651204 
3374.000000	99.651065 
3373.000000	99.651253 
3372.000000	99.651874 
3371.000000	99.652772 
3370.000000	99.653572 
3369.000000	99.653974 
3368.000000	99.653938 
3367.000000	99.653573 
3366.000000	99.652968 
3365.000000	99.652224 
3364.000000	99.651635 
3363.000000	99.651582 
3362.000000	99.652147 
3361.000000	99.652902 
3360.000000	99.653289 
3359.000000	99.653237 
3358.000000	99.653212 
3357.000000	99.653640 
3356.000000	99.654408 
3355.000000	99.655019 
3354.000000	99.655193 
3353.000000	99.655177 
3352.000000	99.655415 
3351.000000	99.656045 
3350.000000	99.656835 
3349.000000	99.657547 
3348.000000	99.658173 
3347.000000	99.658827 
3346.000000	99.659517 
3345.000000	99.660106 
3344.000000	99.660466 
3343.000000	99.660556 
3342.000000	99.660398 
3341.000000	99.660022 
3340.000000	99.659403 
3339.000000	99.658468 
3338.000000	99.657252 
3337.000000	99.656075 
3336.000000	99.655449 
3335.000000	99.655705 
3334.000000	99.656710 
3333.000000	99.657956 
3332.000000	99.658929 
3331.000000	99.659413 
3330.000000	99.659460 
3329.000000	99.659233 
3328.000000	99.658873 
3327.000000	99.658465 
3326.000000	99.658047 
3325.000000	99.657606 
3324.000000	99.657095 
3323.000000	99.656521 
3322.000000	99.656075 
3321.000000	99.656138 
3320.000000	99.657000 
3319.000000	99.658535 
3318.000000	99.660184 
3317.000000	99.661348 
3316.000000	99.661855 
3315.000000	99.661982 
3314.000000	99.662037 
3313.000000	99.662003 
3312.000000	99.661614 
3311.000000	99.660810 
3310.000000	99.659995 
3309.000000	99.659740 
3308.000000	99.660179 
3307.000000	99.660774 
3306.000000	99.660775 
3305.000000	99.659932 
3304.000000	99.658676 
3303.000000	99.657724 
3302.000000	99.657454 
3301.000000	99.657718 
3300.000000	99.658108 
3299.000000	99.658298 
3298.000000	99.658236 
3297.000000	99.658097 
3296.000000	99.658128 
3295.000000	99.658472 
3294.000000	99.659082 
3293.000000	99.659754 
3292.000000	99.660234 
3291.000000	99.660353 
3290.000000	99.660127 
3289.000000	99.659764 
3288.000000	99.659545 
3287.000000	99.659604 
3286.000000	99.659822 
3285.000000	99.659952 
3284.000000	99.659858 
3283.000000	99.659606 
3282.000000	99.659362 
3281.000000	99.659240 
3280.000000	99.659270 
3279.000000	99.659452 
3278.000000	99.659770 
3277.000000	99.660125 
3276.000000	99.660322 
3275.000000	99.660193 
3274.000000	99.659752 
3273.000000	99.659187 
3272.000000	99.658696 
3271.000000	99.658345 
3270.000000	99.658120 
3269.000000	99.658049 
3268.000000	99.658190 
3267.000000	99.658493 
3266.000000	99.658732 
3265.000000	99.658708 
3264.000000	99.658447 
3263.000000	99.658154 
3262.000000	99.657953 
3261.000000	99.657758 
3260.000000	99.657445 
3259.000000	99.657075 
3258.000000	99.656863 
3257.000000	99.656932 
3256.000000	99.657203 
3255.000000	99.657468 
3254.000000	99.657567 
3253.000000	99.657489 
3252.000000	99.657324 
3251.000000	99.657176 
3250.000000	99.657099 
3249.000000	99.657107 
3248.000000	99.657213 
3247.000000	99.657406 
3246.000000	99.657580 
3245.000000	99.657582 
3244.000000	99.657364 
3243.000000	99.657064 
3242.000000	99.656864 
3241.000000	99.656786 
3240.000000	99.656705 
3239.000000	99.656531 
3238.000000	99.656320 
3237.000000	99.656192 
3236.000000	99.656198 
3235.000000	99.656279 
3234.000000	99.656310 
3233.000000	99.656182 
3232.000000	99.655869 
3231.000000	99.655431 
3230.000000	99.654959 
3229.000000	99.654485 
3228.000000	99.653983 
3227.000000	99.653494 
3226.000000	99.653192 
3225.000000	99.653254 
3224.000000	99.653668 
3223.000000	99.654211 
3222.000000	99.654576 
3221.000000	99.654574 
3220.000000	99.654198 
3219.000000	99.653611 
3218.000000	99.653061 
3217.000000	99.652716 
3216.000000	99.652563 
3215.000000	99.652457 
3214.000000	99.652284 
3213.000000	99.652063 
3212.000000	99.651917 
3211.000000	99.651937 
3210.000000	99.652070 
3209.000000	99.652086 
3208.000000	99.651714 
3207.000000	99.650878 
3206.000000	99.649863 
3205.000000	99.649152 
3204.000000	99.649003 
3203.000000	99.649226 
3202.000000	99.649376 
3201.000000	99.649212 
3200.000000	99.648834 
3199.000000	99.648392 
3198.000000	99.647817 
3197.000000	99.646960 
3196.000000	99.645929 
3195.000000	99.645130 
3194.000000	99.644914 
3193.000000	99.645291 
3192.000000	99.646013 
3191.000000	99.646832 
3190.000000	99.647618 
3189.000000	99.648306 
3188.000000	99.648804 
3187.000000	99.648963 
3186.000000	99.648638 
3185.000000	99.647888 
3184.000000	99.647114 
3183.000000	99.646855 
3182.000000	99.647300 
3181.000000	99.648047 
3180.000000	99.648463 
3179.000000	99.648280 
3178.000000	99.647727 
3177.000000	99.647193 
3176.000000	99.646917 
3175.000000	99.646969 
3174.000000	99.647226 
3173.000000	99.647290 
3172.000000	99.646760 
3171.000000	99.645743 
3170.000000	99.644921 
3169.000000	99.644844 
3168.000000	99.645292 
3167.000000	99.645559 
3166.000000	99.645277 
3165.000000	99.644749 
3164.000000	99.644478 
3163.000000	99.644627 
3162.000000	99.645003 
3161.000000	99.645362 
3160.000000	99.645659 
3159.000000	99.646076 
3158.000000	99.646845 
3157.000000	99.647934 
3156.000000	99.648862 
3155.000000	99.649015 
3154.000000	99.648210 
3153.000000	99.646871 
3152.000000	99.645557 
3151.000000	99.644371 
3150.000000	99.643025 
3149.000000	99.641422 
3148.000000	99.640023 
3147.000000	99.639498 
3146.000000	99.640040 
3145.000000	99.641211 
3144.000000	99.642478 
3143.000000	99.643753 
3142.000000	99.645215 
3141.000000	99.646702 
3140.000000	99.647616 
3139.000000	99.647561 
3138.000000	99.646881 
3137.000000	99.646374 
3136.000000	99.646531 
3135.000000	99.647183 
3134.000000	99.647813 
3133.000000	99.647989 
3132.000000	99.647556 
3131.000000	99.646639 
3130.000000	99.645607 
3129.000000	99.644932 
3128.000000	99.644860 
3127.000000	99.645260 
3126.000000	99.645816 
3125.000000	99.646299 
3124.000000	99.646662 
3123.000000	99.646913 
3122.000000	99.646995 
3121.000000	99.646837 
3120.000000	99.646462 
3119.000000	99.646007 
3118.000000	99.645650 
3117.000000	99.645494 
3116.000000	99.645507 
3115.000000	99.645561 
3114.000000	99.645548 
3113.000000	99.645461 
3112.000000	99.645362 
3111.000000	99.645303 
3110.000000	99.645266 
3109.000000	99.645189 
3108.000000	99.645026 
3107.000000	99.644794 
3106.000000	99.644540 
3105.000000	99.644291 
3104.000000	99.644041 
3103.000000	99.643781 
3102.000000	99.643508 
3101.000000	99.643222 
3100.000000	99.642931 
3099.000000	99.642650 
3098.000000	99.642382 
3097.000000	99.642076 
3096.000000	99.641645 
3095.000000	99.641091 
3094.000000	99.640577 
3093.000000	99.640314 
3092.000000	99.640346 
3091.000000	99.640365 
3090.000000	99.639829 
3089.000000	99.638419 
3088.000000	99.636583 
3087.000000	99.635441 
3086.000000	99.635915 
3085.000000	99.637865 
3084.000000	99.640041 
3083.000000	99.641080 
3082.000000	99.640535 
3081.000000	99.639202 
3080.000000	99.638483 
3079.000000	99.639106 
3078.000000	99.640252 
3077.000000	99.640162 
3076.000000	99.637958 
3075.000000	99.634775 
3074.000000	99.632759 
3073.000000	99.632678 
3072.000000	99.632959 
3071.000000	99.631464 
3070.000000	99.628060 
3069.000000	99.624848 
3068.000000	99.623610 
3067.000000	99.623737 
3066.000000	99.623455 
3065.000000	99.622659 
3064.000000	99.623181 
3063.000000	99.625843 
3062.000000	99.628572 
3061.000000	99.628731 
3060.000000	99.626610 
3059.000000	99.625056 
3058.000000	99.625439 
3057.000000	99.625500 
3056.000000	99.622207 
3055.000000	99.615763 
3054.000000	99.609569 
3053.000000	99.606463 
3052.000000	99.606214 
3051.000000	99.606704 
3050.000000	99.606339 
3049.000000	99.604822 
3048.000000	99.602507 
3047.000000	99.599906 
3046.000000	99.597435 
3045.000000	99.594926 
3044.000000	99.591724 
3043.000000	99.587811 
3042.000000	99.584185 
3041.000000	99.581320 
3040.000000	99.577678 
3039.000000	99.571120 
3038.000000	99.561596 
3037.000000	99.551193 
3036.000000	99.541312 
3035.000000	99.531155 
3034.000000	99.519789 
3033.000000	99.508187 
3032.000000	99.497796 
3031.000000	99.488027 
3030.000000	99.476581 
3029.000000	99.462220 
3028.000000	99.446187 
3027.000000	99.430686 
3026.000000	99.416562 
3025.000000	99.402835 
3024.000000	99.387938 
3023.000000	99.371056 
3022.000000	99.352642 
3021.000000	99.334059 
3020.000000	99.316558 
3019.000000	99.300270 
3018.000000	99.284095 
3017.000000	99.266584 
3016.000000	99.246924 
3015.000000	99.225390 
3014.000000	99.203153 
3013.000000	99.181408 
3012.000000	99.160161 
3011.000000	99.137988 
3010.000000	99.113576 
3009.000000	99.087383 
3008.000000	99.061126 
3007.000000	99.035767 
3006.000000	99.010980 
3005.000000	98.986778 
3004.000000	98.964339 
3003.000000	98.944212 
3002.000000	98.924642 
3001.000000	98.903168 
3000.000000	98.879788 
2999.000000	98.857221 
2998.000000	98.837947 
2997.000000	98.822281 
2996.000000	98.809340 
2995.000000	98.797741 
2994.000000	98.783800 
2993.000000	98.760995 
2992.000000	98.724907 
2991.000000	98.679861 
2990.000000	98.638550 
2989.000000	98.612864 
2988.000000	98.605445 
2987.000000	98.610293 
2986.000000	98.619630 
2985.000000	98.628990 
2984.000000	98.636938 
2983.000000	98.643200 
2982.000000	98.648211 
2981.000000	98.652626 
2980.000000	98.655921 
2979.000000	98.656332 
2978.000000	98.653078 
2977.000000	98.647585 
2976.000000	98.641530 
2975.000000	98.634748 
2974.000000	98.626738 
2973.000000	98.619778 
2972.000000	98.618554 
2971.000000	98.626008 
2970.000000	98.640430 
2969.000000	98.657133 
2968.000000	98.672484 
2967.000000	98.686235 
2966.000000	98.700673 
2965.000000	98.718121 
2964.000000	98.738791 
2963.000000	98.760330 
2962.000000	98.779416 
2961.000000	98.794159 
2960.000000	98.805194 
2959.000000	98.814755 
2958.000000	98.825052 
2957.000000	98.837373 
2956.000000	98.851839 
2955.000000	98.867273 
2954.000000	98.881528 
2953.000000	98.892764 
2952.000000	98.900916 
2951.000000	98.907868 
2950.000000	98.915929 
2949.000000	98.925877 
2948.000000	98.936319 
2947.000000	98.944836 
2946.000000	98.949966 
2945.000000	98.952309 
2944.000000	98.953750 
2943.000000	98.955827 
2942.000000	98.958851 
2941.000000	98.962069 
2940.000000	98.964443 
2939.000000	98.965548 
2938.000000	98.965909 
2937.000000	98.966587 
2936.000000	98.968453 
2935.000000	98.971852 
2934.000000	98.976746 
2933.000000	98.982632 
2932.000000	98.988003 
2931.000000	98.990343 
2930.000000	98.987583 
2929.000000	98.980042 
2928.000000	98.970753 
2927.000000	98.963380 
2926.000000	98.959522 
2925.000000	98.957830 
2924.000000	98.955677 
2923.000000	98.951762 
2922.000000	98.947230 
2921.000000	98.944205 
2920.000000	98.943211 
2919.000000	98.942332 
2918.000000	98.939083 
2917.000000	98.932827 
2916.000000	98.924956 
2915.000000	98.917007 
2914.000000	98.909299 
2913.000000	98.901660 
2912.000000	98.894685 
2911.000000	98.889505 
2910.000000	98.886328 
2909.000000	98.883944 
2908.000000	98.881065 
2907.000000	98.877444 
2906.000000	98.872902 
2905.000000	98.865602 
2904.000000	98.853164 
2903.000000	98.836957 
2902.000000	98.824571 
2901.000000	98.825092 
2900.000000	98.841887 
2899.000000	98.868778 
2898.000000	98.894416 
2897.000000	98.910674 
2896.000000	98.917007 
2895.000000	98.918095 
2894.000000	98.919080 
2893.000000	98.922475 
2892.000000	98.927943 
2891.000000	98.933719 
2890.000000	98.938403 
2889.000000	98.941826 
2888.000000	98.944550 
2887.000000	98.947025 
2886.000000	98.949740 
2885.000000	98.953956 
2884.000000	98.961485 
2883.000000	98.973318 
2882.000000	98.988621 
2881.000000	99.005236 
2880.000000	99.021142 
2879.000000	99.035791 
2878.000000	99.050218 
2877.000000	99.065679 
2876.000000	99.081898 
2875.000000	99.096989 
2874.000000	99.109466 
2873.000000	99.119815 
2872.000000	99.129354 
2871.000000	99.138038 
2870.000000	99.144697 
2869.000000	99.149505 
2868.000000	99.154880 
2867.000000	99.163269 
2866.000000	99.174916 
2865.000000	99.188606 
2864.000000	99.203891 
2863.000000	99.221528 
2862.000000	99.241870 
2861.000000	99.263698 
2860.000000	99.284944 
2859.000000	99.304055 
2858.000000	99.320533 
2857.000000	99.334648 
2856.000000	99.346949 
2855.000000	99.357925 
2854.000000	99.368214 
2853.000000	99.378600 
2852.000000	99.389229 
2851.000000	99.399148 
2850.000000	99.407141 
2849.000000	99.412888 
2848.000000	99.417110 
2847.000000	99.421084 
2846.000000	99.426412 
2845.000000	99.434515 
2844.000000	99.445207 
2843.000000	99.456064 
2842.000000	99.464402 
2841.000000	99.469846 
2840.000000	99.473967 
2839.000000	99.477569 
2838.000000	99.479950 
2837.000000	99.481146 
2836.000000	99.483049 
2835.000000	99.487186 
2834.000000	99.492797 
2833.000000	99.498373 
2832.000000	99.503901 
2831.000000	99.510023 
2830.000000	99.515837 
2829.000000	99.519423 
2828.000000	99.520434 
2827.000000	99.520646 
2826.000000	99.521861 
2825.000000	99.524482 
2824.000000	99.528322 
2823.000000	99.533346 
2822.000000	99.538956 
2821.000000	99.543515 
2820.000000	99.545536 
2819.000000	99.545043 
2818.000000	99.543386 
2817.000000	99.541998 
2816.000000	99.541543 
2815.000000	99.541863 
2814.000000	99.542426 
2813.000000	99.542899 
2812.000000	99.543435 
2811.000000	99.544371 
2810.000000	99.545785 
2809.000000	99.547539 
2808.000000	99.549582 
2807.000000	99.551870 
2806.000000	99.554046 
2805.000000	99.555565 
2804.000000	99.556187 
2803.000000	99.556205 
2802.000000	99.556203 
2801.000000	99.556631 
2800.000000	99.557478 
2799.000000	99.558251 
2798.000000	99.558528 
2797.000000	99.558625 
2796.000000	99.559398 
2795.000000	99.561217 
2794.000000	99.563513 
2793.000000	99.565556 
2792.000000	99.567205 
2791.000000	99.568559 
2790.000000	99.569320 
2789.000000	99.569101 
2788.000000	99.568122 
2787.000000	99.567061 
2786.000000	99.566337 
2785.000000	99.565986 
2784.000000	99.566060 
2783.000000	99.566591 
2782.000000	99.567197 
2781.000000	99.567309 
2780.000000	99.566988 
2779.000000	99.567112 
2778.000000	99.568437 
2777.000000	99.570804 
2776.000000	99.573263 
2775.000000	99.574905 
2774.000000	99.575537 
2773.000000	99.575638 
2772.000000	99.575896 
2771.000000	99.576653 
2770.000000	99.577681 
2769.000000	99.578479 
2768.000000	99.578805 
2767.000000	99.578857 
2766.000000	99.578895 
2765.000000	99.578826 
2764.000000	99.578339 
2763.000000	99.577444 
2762.000000	99.576699 
2761.000000	99.576761 
2760.000000	99.577766 
2759.000000	99.579242 
2758.000000	99.580573 
2757.000000	99.581549 
2756.000000	99.582355 
2755.000000	99.583173 
2754.000000	99.583979 
2753.000000	99.584700 
2752.000000	99.585401 
2751.000000	99.586176 
2750.000000	99.586950 
2749.000000	99.587534 
2748.000000	99.587886 
2747.000000	99.588188 
2746.000000	99.588648 
2745.000000	99.589304 
2744.000000	99.590063 
2743.000000	99.590847 
2742.000000	99.591604 
2741.000000	99.592229 
2740.000000	99.592614 
2739.000000	99.592793 
2738.000000	99.592986 
2737.000000	99.593419 
2736.000000	99.594122 
2735.000000	99.594935 
2734.000000	99.595651 
2733.000000	99.596204 
2732.000000	99.596663 
2731.000000	99.597132 
2730.000000	99.597666 
2729.000000	99.598272 
2728.000000	99.598910 
2727.000000	99.599507 
2726.000000	99.600005 
2725.000000	99.600414 
2724.000000	99.600808 
2723.000000	99.601244 
2722.000000	99.601712 
2721.000000	99.602155 
2720.000000	99.602544 
2719.000000	99.602895 
2718.000000	99.603245 
2717.000000	99.603609 
2716.000000	99.603975 
2715.000000	99.604305 
2714.000000	99.604563 
2713.000000	99.604743 
2712.000000	99.604876 
2711.000000	99.605025 
2710.000000	99.605235 
2709.000000	99.605513 
2708.000000	99.605830 
2707.000000	99.606134 
2706.000000	99.606383 
2705.000000	99.606546 
2704.000000	99.606619 
2703.000000	99.606633 
2702.000000	99.606653 
2701.000000	99.606734 
2700.000000	99.606880 
2699.000000	99.607032 
2698.000000	99.607118 
2697.000000	99.607112 
2696.000000	99.607048 
2695.000000	99.606983 
2694.000000	99.606932 
2693.000000	99.606841 
2692.000000	99.606626 
2691.000000	99.606251 
2690.000000	99.605814 
2689.000000	99.605489 
2688.000000	99.605357 
2687.000000	99.605336 
2686.000000	99.605260 
2685.000000	99.605084 
2684.000000	99.604897 
2683.000000	99.604772 
2682.000000	99.604672 
2681.000000	99.604508 
2680.000000	99.604242 
2679.000000	99.603891 
2678.000000	99.603490 
2677.000000	99.603084 
2676.000000	99.602728 
2675.000000	99.602458 
2674.000000	99.602248 
2673.000000	99.602027 
2672.000000	99.601749 
2671.000000	99.601428 
2670.000000	99.601099 
2669.000000	99.600790 
2668.000000	99.600505 
2667.000000	99.600229 
2666.000000	99.599929 
2665.000000	99.599598 
2664.000000	99.599265 
2663.000000	99.598955 
2662.000000	99.598641 
2661.000000	99.598278 
2660.000000	99.597887 
2659.000000	99.597555 
2658.000000	99.597323 
2657.000000	99.597125 
2656.000000	99.596879 
2655.000000	99.596596 
2654.000000	99.596352 
2653.000000	99.596196 
2652.000000	99.596127 
2651.000000	99.596126 
2650.000000	99.596159 
2649.000000	99.596147 
2648.000000	99.596025 
2647.000000	99.595804 
2646.000000	99.595586 
2645.000000	99.595473 
2644.000000	99.595466 
2643.000000	99.595482 
2642.000000	99.595425 
2641.000000	99.595257 
2640.000000	99.594994 
2639.000000	99.594700 
2638.000000	99.594469 
2637.000000	99.594371 
2636.000000	99.594406 
2635.000000	99.594520 
2634.000000	99.594668 
2633.000000	99.594841 
2632.000000	99.595005 
2631.000000	99.595094 
2630.000000	99.595083 
2629.000000	99.595025 
2628.000000	99.595003 
2627.000000	99.595042 
2626.000000	99.595107 
2625.000000	99.595157 
2624.000000	99.595190 
2623.000000	99.595229 
2622.000000	99.595291 
2621.000000	99.595377 
2620.000000	99.595473 
2619.000000	99.595567 
2618.000000	99.595659 
2617.000000	99.595751 
2616.000000	99.595836 
2615.000000	99.595908 
2614.000000	99.595973 
2613.000000	99.596050 
2612.000000	99.596153 
2611.000000	99.596276 
2610.000000	99.596406 
2609.000000	99.596536 
2608.000000	99.596664 
2607.000000	99.596788 
2606.000000	99.596909 
2605.000000	99.597039 
2604.000000	99.597189 
2603.000000	99.597357 
2602.000000	99.597531 
2601.000000	99.597709 
2600.000000	99.597899 
2599.000000	99.598103 
2598.000000	99.598323 
2597.000000	99.598554 
2596.000000	99.598793 
2595.000000	99.599034 
2594.000000	99.599272 
2593.000000	99.599505 
2592.000000	99.599737 
2591.000000	99.599971 
2590.000000	99.600216 
2589.000000	99.600478 
2588.000000	99.600765 
2587.000000	99.601076 
2586.000000	99.601403 
2585.000000	99.601736 
2584.000000	99.602069 
2583.000000	99.602403 
2582.000000	99.602741 
2581.000000	99.603087 
2580.000000	99.603441 
2579.000000	99.603805 
2578.000000	99.604178 
2577.000000	99.604559 
2576.000000	99.604951 
2575.000000	99.605351 
2574.000000	99.605761 
2573.000000	99.606178 
2572.000000	99.606603 
2571.000000	99.607033 
2570.000000	99.607464 
2569.000000	99.607898 
2568.000000	99.608340 
2567.000000	99.608792 
2566.000000	99.609248 
2565.000000	99.609691 
2564.000000	99.610105 
2563.000000	99.610481 
2562.000000	99.610835 
2561.000000	99.611196 
2560.000000	99.611592 
2559.000000	99.612029 
2558.000000	99.612436 
2557.000000	99.612720 
2556.000000	99.612889 
2555.000000	99.613061 
2554.000000	99.613290 
2553.000000	99.613533 
2552.000000	99.613813 
2551.000000	99.614246 
2550.000000	99.614795 
2549.000000	99.615194 
2548.000000	99.615297 
2547.000000	99.615283 
2546.000000	99.615367 
2545.000000	99.615462 
2544.000000	99.615371 
2543.000000	99.615190 
2542.000000	99.615284 
2541.000000	99.615906 
2540.000000	99.616901 
2539.000000	99.617759 
2538.000000	99.617984 
2537.000000	99.617580 
2536.000000	99.617147 
2535.000000	99.617240 
2534.000000	99.617662 
2533.000000	99.617717 
2532.000000	99.617070 
2531.000000	99.615992 
2530.000000	99.614859 
2529.000000	99.613820 
2528.000000	99.613004 
2527.000000	99.612602 
2526.000000	99.612531 
2525.000000	99.612306 
2524.000000	99.611519 
2523.000000	99.610325 
2522.000000	99.609343 
2521.000000	99.609066 
2520.000000	99.609463 
2519.000000	99.610047 
2518.000000	99.610236 
2517.000000	99.609876 
2516.000000	99.609405 
2515.000000	99.609443 
2514.000000	99.610236 
2513.000000	99.611520 
2512.000000	99.612726 
2511.000000	99.613238 
2510.000000	99.612692 
2509.000000	99.611264 
2508.000000	99.609673 
2507.000000	99.608565 
2506.000000	99.607985 
2505.000000	99.607636 
2504.000000	99.607415 
2503.000000	99.607365 
2502.000000	99.607273 
2501.000000	99.606847 
2500.000000	99.606326 
2499.000000	99.606394 
2498.000000	99.607358 
2497.000000	99.608764 
2496.000000	99.609853 
2495.000000	99.610211 
2494.000000	99.609903 
2493.000000	99.609305 
2492.000000	99.608955 
2491.000000	99.609238 
2490.000000	99.610094 
2489.000000	99.611033 
2488.000000	99.611582 
2487.000000	99.611702 
2486.000000	99.611683 
2485.000000	99.611719 
2484.000000	99.611697 
2483.000000	99.611384 
2482.000000	99.610723 
2481.000000	99.609993 
2480.000000	99.609652 
2479.000000	99.609963 
2478.000000	99.610771 
2477.000000	99.611589 
2476.000000	99.612000 
2475.000000	99.611904 
2474.000000	99.611428 
2473.000000	99.610789 
2472.000000	99.610222 
2471.000000	99.609868 
2470.000000	99.609648 
2469.000000	99.609371 
2468.000000	99.609007 
2467.000000	99.608707 
2466.000000	99.608535 
2465.000000	99.608345 
2464.000000	99.608022 
2463.000000	99.607674 
2462.000000	99.607496 
2461.000000	99.607521 
2460.000000	99.607586 
2459.000000	99.607483 
2458.000000	99.607107 
2457.000000	99.606532 
2456.000000	99.605985 
2455.000000	99.605627 
2454.000000	99.605300 
2453.000000	99.604624 
2452.000000	99.603502 
2451.000000	99.602418 
2450.000000	99.601997 
2449.000000	99.602427 
2448.000000	99.603401 
2447.000000	99.604401 
2446.000000	99.605056 
2445.000000	99.605224 
2444.000000	99.604989 
2443.000000	99.604582 
2442.000000	99.604146 
2441.000000	99.603636 
2440.000000	99.603053 
2439.000000	99.602650 
2438.000000	99.602691 
2437.000000	99.603045 
2436.000000	99.603222 
2435.000000	99.602867 
2434.000000	99.602048 
2433.000000	99.601126 
2432.000000	99.600512 
2431.000000	99.600446 
2430.000000	99.600870 
2429.000000	99.601424 
2428.000000	99.601674 
2427.000000	99.601395 
2426.000000	99.600675 
2425.000000	99.599882 
2424.000000	99.599504 
2423.000000	99.599768 
2422.000000	99.600382 
2421.000000	99.600830 
2420.000000	99.600998 
2419.000000	99.601268 
2418.000000	99.601910 
2417.000000	99.602719 
2416.000000	99.603408 
2415.000000	99.604002 
2414.000000	99.604628 
2413.000000	99.605197 
2412.000000	99.605578 
2411.000000	99.605829 
2410.000000	99.605952 
2409.000000	99.605634 
2408.000000	99.604572 
2407.000000	99.602879 
2406.000000	99.601009 
2405.000000	99.599412 
2404.000000	99.598366 
2403.000000	99.597868 
2402.000000	99.597618 
2401.000000	99.597313 
2400.000000	99.597056 
2399.000000	99.597299 
2398.000000	99.598248 
2397.000000	99.599523 
2396.000000	99.600485 
2395.000000	99.600798 
2394.000000	99.600562 
2393.000000	99.600067 
2392.000000	99.599585 
2391.000000	99.599258 
2390.000000	99.599031 
2389.000000	99.598704 
2388.000000	99.598168 
2387.000000	99.597605 
2386.000000	99.597354 
2385.000000	99.597560 
2384.000000	99.597968 
2383.000000	99.598064 
2382.000000	99.597543 
2381.000000	99.596513 
2380.000000	99.595344 
2379.000000	99.594355 
2378.000000	99.593591 
2377.000000	99.592916 
2376.000000	99.592184 
2375.000000	99.591355 
2374.000000	99.590491 
2373.000000	99.589695 
2372.000000	99.589023 
2371.000000	99.588411 
2370.000000	99.587701 
2369.000000	99.586784 
2368.000000	99.585715 
2367.000000	99.584665 
2366.000000	99.583774 
2365.000000	99.583060 
2364.000000	99.582437 
2363.000000	99.581735 
2362.000000	99.580760 
2361.000000	99.579437 
2360.000000	99.577927 
2359.000000	99.576534 
2358.000000	99.575381 
2357.000000	99.574360 
2356.000000	99.573341 
2355.000000	99.572367 
2354.000000	99.571453 
2353.000000	99.570461 
2352.000000	99.569295 
2351.000000	99.568051 
2350.000000	99.566876 
2349.000000	99.565799 
2348.000000	99.564765 
2347.000000	99.563670 
2346.000000	99.562427 
2345.000000	99.561234 
2344.000000	99.560483 
2343.000000	99.560293 
2342.000000	99.560068 
2341.000000	99.559031 
2340.000000	99.557007 
2339.000000	99.554632 
2338.000000	99.552767 
2337.000000	99.551583 
2336.000000	99.550670 
2335.000000	99.549522 
2334.000000	99.548109 
2333.000000	99.546777 
2332.000000	99.546241 
2331.000000	99.546789 
2330.000000	99.548099 
2329.000000	99.549169 
2328.000000	99.549407 
2327.000000	99.548788 
2326.000000	99.547667 
2325.000000	99.546456 
2324.000000	99.545436 
2323.000000	99.544651 
2322.000000	99.543860 
2321.000000	99.542964 
2320.000000	99.542470 
2319.000000	99.542928 
2318.000000	99.544356 
2317.000000	99.545901 
2316.000000	99.546752 
2315.000000	99.546325 
2314.000000	99.544577 
2313.000000	99.541723 
2312.000000	99.538722 
2311.000000	99.536619 
2310.000000	99.536002 
2309.000000	99.536573 
2308.000000	99.537917 
2307.000000	99.539821 
2306.000000	99.542198 
2305.000000	99.544437 
2304.000000	99.545626 
2303.000000	99.545046 
2302.000000	99.542909 
2301.000000	99.540196 
2300.000000	99.538053 
2299.000000	99.536656 
2298.000000	99.535425 
2297.000000	99.533901 
2296.000000	99.532419 
2295.000000	99.531308 
2294.000000	99.530283 
2293.000000	99.528861 
2292.000000	99.527175 
2291.000000	99.525568 
2290.000000	99.523789 
2289.000000	99.521478 
2288.000000	99.519237 
2287.000000	99.518251 
2286.000000	99.518667 
2285.000000	99.519335 
2284.000000	99.519269 
2283.000000	99.518715 
2282.000000	99.518459 
2281.000000	99.518974 
2280.000000	99.520293 
2279.000000	99.521793 
2278.000000	99.521991 
2277.000000	99.519772 
2276.000000	99.516215 
2275.000000	99.513958 
2274.000000	99.514147 
2273.000000	99.515248 
2272.000000	99.515484 
2271.000000	99.515394 
2270.000000	99.516811 
2269.000000	99.520103 
2268.000000	99.523627 
2267.000000	99.525540 
2266.000000	99.525314 
2265.000000	99.523617 
2264.000000	99.521644 
2263.000000	99.520236 
2262.000000	99.519229 
2261.000000	99.517814 
2260.000000	99.515512 
2259.000000	99.512703 
2258.000000	99.510124 
2257.000000	99.508184 
2256.000000	99.506983 
2255.000000	99.506441 
2254.000000	99.506218 
2253.000000	99.505856 
2252.000000	99.505214 
2251.000000	99.504562 
2250.000000	99.504167 
2249.000000	99.503972 
2248.000000	99.503752 
2247.000000	99.503354 
2246.000000	99.502793 
2245.000000	99.502185 
2244.000000	99.501637 
2243.000000	99.501176 
2242.000000	99.500718 
2241.000000	99.500157 
2240.000000	99.499565 
2239.000000	99.499234 
2238.000000	99.499275 
2237.000000	99.499255 
2236.000000	99.498606 
2235.000000	99.497374 
2234.000000	99.496325 
2233.000000	99.496158 
2232.000000	99.496824 
2231.000000	99.497522 
2230.000000	99.497341 
2229.000000	99.496032 
2228.000000	99.494311 
2227.000000	99.493138 
2226.000000	99.492536 
2225.000000	99.491604 
2224.000000	99.490090 
2223.000000	99.489278 
2222.000000	99.490439 
2221.000000	99.492771 
2220.000000	99.493783 
2219.000000	99.492200 
2218.000000	99.489650 
2217.000000	99.489005 
2216.000000	99.491207 
2215.000000	99.494406 
2214.000000	99.496020 
2213.000000	99.495130 
2212.000000	99.492502 
2211.000000	99.489194 
2210.000000	99.485931 
2209.000000	99.483656 
2208.000000	99.483615 
2207.000000	99.486304 
2206.000000	99.490782 
2205.000000	99.495614 
2204.000000	99.500139 
2203.000000	99.504100 
2202.000000	99.506629 
2201.000000	99.506703 
2200.000000	99.504248 
2199.000000	99.500070 
2198.000000	99.494782 
2197.000000	99.488649 
2196.000000	99.482644 
2195.000000	99.478340 
2194.000000	99.476221 
2193.000000	99.474817 
2192.000000	99.472004 
2191.000000	99.467042 
2190.000000	99.461294 
2189.000000	99.457081 
2188.000000	99.455663 
2187.000000	99.456362 
2186.000000	99.457804 
2185.000000	99.459564 
2184.000000	99.461709 
2183.000000	99.463051 
2182.000000	99.461734 
2181.000000	99.458181 
2180.000000	99.455476 
2179.000000	99.455319 
2178.000000	99.455527 
2177.000000	99.453613 
2176.000000	99.451235 
2175.000000	99.452152 
2174.000000	99.456544 
2173.000000	99.460334 
2172.000000	99.460413 
2171.000000	99.457702 
2170.000000	99.454558 
2169.000000	99.451791 
2168.000000	99.449390 
2167.000000	99.448078 
2166.000000	99.448332 
2165.000000	99.448931 
2164.000000	99.447958 
2163.000000	99.444976 
2162.000000	99.441801 
2161.000000	99.441735 
2160.000000	99.447688 
2159.000000	99.459463 
2158.000000	99.472250 
2157.000000	99.480080 
2156.000000	99.481434 
2155.000000	99.479315 
2154.000000	99.476953 
2153.000000	99.475136 
2152.000000	99.473595 
2151.000000	99.472652 
2150.000000	99.472459 
2149.000000	99.472465 
2148.000000	99.473014 
2147.000000	99.476194 
2146.000000	99.483647 
2145.000000	99.494241 
2144.000000	99.504962 
2143.000000	99.513514 
2142.000000	99.518862 
2141.000000	99.520207 
2140.000000	99.517284 
2139.000000	99.511722 
2138.000000	99.506789 
2137.000000	99.504930 
2136.000000	99.505876 
2135.000000	99.507420 
2134.000000	99.507806 
2133.000000	99.507311 
2132.000000	99.507680 
2131.000000	99.510074 
2130.000000	99.513494 
2129.000000	99.515223 
2128.000000	99.513081 
2127.000000	99.507370 
2126.000000	99.500911 
2125.000000	99.497002 
2124.000000	99.496830 
2123.000000	99.498946 
2122.000000	99.501060 
2121.000000	99.502125 
2120.000000	99.502351 
2119.000000	99.501703 
2118.000000	99.499537 
2117.000000	99.495946 
2116.000000	99.492378 
2115.000000	99.490209 
2114.000000	99.489533 
2113.000000	99.489892 
2112.000000	99.491286 
2111.000000	99.493459 
2110.000000	99.494868 
2109.000000	99.493772 
2108.000000	99.490210 
2107.000000	99.485962 
2106.000000	99.482637 
2105.000000	99.480482 
2104.000000	99.479016 
2103.000000	99.477968 
2102.000000	99.477357 
2101.000000	99.477169 
2100.000000	99.477181 
2099.000000	99.477028 
2098.000000	99.476616 
2097.000000	99.476504 
2096.000000	99.477459 
2095.000000	99.479351 
2094.000000	99.480801 
2093.000000	99.480567 
2092.000000	99.478806 
2091.000000	99.476596 
2090.000000	99.474685 
2089.000000	99.473007 
2088.000000	99.471255 
2087.000000	99.469385 
2086.000000	99.467594 
2085.000000	99.466206 
2084.000000	99.465560 
2083.000000	99.465718 
2082.000000	99.466254 
2081.000000	99.466456 
2080.000000	99.465935 
2079.000000	99.464827 
2078.000000	99.463508 
2077.000000	99.462299 
2076.000000	99.461325 
2075.000000	99.460487 
2074.000000	99.459543 
2073.000000	99.458332 
2072.000000	99.456948 
2071.000000	99.455653 
2070.000000	99.454622 
2069.000000	99.453822 
2068.000000	99.453089 
2067.000000	99.452273 
2066.000000	99.451322 
2065.000000	99.450299 
2064.000000	99.449315 
2063.000000	99.448407 
2062.000000	99.447506 
2061.000000	99.446512 
2060.000000	99.445402 
2059.000000	99.444236 
2058.000000	99.443104 
2057.000000	99.442073 
2056.000000	99.441160 
2055.000000	99.440318 
2054.000000	99.439427 
2053.000000	99.438368 
2052.000000	99.437101 
2051.000000	99.435664 
2050.000000	99.434145 
2049.000000	99.432708 
2048.000000	99.431582 
2047.000000	99.430910 
2046.000000	99.430589 
2045.000000	99.430287 
2044.000000	99.429751 
2043.000000	99.428934 
2042.000000	99.427882 
2041.000000	99.426677 
2040.000000	99.425475 
2039.000000	99.424479 
2038.000000	99.423814 
2037.000000	99.423457 
2036.000000	99.423281 
2035.000000	99.423077 
2034.000000	99.422611 
2033.000000	99.421841 
2032.000000	99.421062 
2031.000000	99.420557 
2030.000000	99.420097 
2029.000000	99.419198 
2028.000000	99.417910 
2027.000000	99.416868 
2026.000000	99.416340 
2025.000000	99.415669 
2024.000000	99.414127 
2023.000000	99.411918 
2022.000000	99.409909 
2021.000000	99.408538 
2020.000000	99.407501 
2019.000000	99.406312 
2018.000000	99.404829 
2017.000000	99.403334 
2016.000000	99.402376 
2015.000000	99.402430 
2014.000000	99.403525 
2013.000000	99.405212 
2012.000000	99.406735 
2011.000000	99.407089 
2010.000000	99.405437 
2009.000000	99.402176 
2008.000000	99.399220 
2007.000000	99.397874 
2006.000000	99.397125 
2005.000000	99.395323 
2004.000000	99.392933 
2003.000000	99.391773 
2002.000000	99.391858 
2001.000000	99.391241 
2000.000000	99.389259 
1999.000000	99.387606 
1998.000000	99.387349 
1997.000000	99.387147 
1996.000000	99.385572 
1995.000000	99.383327 
1994.000000	99.381615 
1993.000000	99.379790 
1992.000000	99.376603 
1991.000000	99.372953 
1990.000000	99.371095 
1989.000000	99.371536 
1988.000000	99.372422 
1987.000000	99.371892 
1986.000000	99.370216 
1985.000000	99.369301 
1984.000000	99.370599 
1983.000000	99.373610 
1982.000000	99.376194 
1981.000000	99.376679 
1980.000000	99.375527 
1979.000000	99.374516 
1978.000000	99.374598 
1977.000000	99.375469 
1976.000000	99.377017 
1975.000000	99.379715 
1974.000000	99.383184 
1973.000000	99.385718 
1972.000000	99.386069 
1971.000000	99.384641 
1970.000000	99.382473 
1969.000000	99.379960 
1968.000000	99.377317 
1967.000000	99.375462 
1966.000000	99.375347 
1965.000000	99.376847 
1964.000000	99.378918 
1963.000000	99.380673 
1962.000000	99.381988 
1961.000000	99.383092 
1960.000000	99.384058 
1959.000000	99.384713 
1958.000000	99.384921 
1957.000000	99.384949 
1956.000000	99.385416 
1955.000000	99.386687 
1954.000000	99.388427 
1953.000000	99.389875 
1952.000000	99.390635 
1951.000000	99.390950 
1950.000000	99.391319 
1949.000000	99.392047 
1948.000000	99.393153 
1947.000000	99.394511 
1946.000000	99.395920 
1945.000000	99.397185 
1944.000000	99.398226 
1943.000000	99.399080 
1942.000000	99.399760 
1941.000000	99.400232 
1940.000000	99.400563 
1939.000000	99.400987 
1938.000000	99.401731 
1937.000000	99.402786 
1936.000000	99.403972 
1935.000000	99.405136 
1934.000000	99.406209 
1933.000000	99.407115 
1932.000000	99.407800 
1931.000000	99.408310 
1930.000000	99.408732 
1929.000000	99.409136 
1928.000000	99.409629 
1927.000000	99.410323 
1926.000000	99.411167 
1925.000000	99.411948 
1924.000000	99.412640 
1923.000000	99.413606 
1922.000000	99.415127 
1921.000000	99.416930 
1920.000000	99.418413 
1919.000000	99.419215 
1918.000000	99.419340 
1917.000000	99.419075 
1916.000000	99.418958 
1915.000000	99.419462 
1914.000000	99.420490 
1913.000000	99.421399 
1912.000000	99.421783 
1911.000000	99.421979 
1910.000000	99.422361 
1909.000000	99.422689 
1908.000000	99.422643 
1907.000000	99.422316 
1906.000000	99.421830 
1905.000000	99.421119 
1904.000000	99.420386 
1903.000000	99.420159 
1902.000000	99.420467 
1901.000000	99.420812 
1900.000000	99.421105 
1899.000000	99.421865 
1898.000000	99.423271 
1897.000000	99.424649 
1896.000000	99.425271 
1895.000000	99.425172 
1894.000000	99.424804 
1893.000000	99.424496 
1892.000000	99.424443 
1891.000000	99.424729 
1890.000000	99.425216 
1889.000000	99.425733 
1888.000000	99.426406 
1887.000000	99.427334 
1886.000000	99.428134 
1885.000000	99.428275 
1884.000000	99.427764 
1883.000000	99.427230 
1882.000000	99.427156 
1881.000000	99.427530 
1880.000000	99.428294 
1879.000000	99.429497 
1878.000000	99.430902 
1877.000000	99.432045 
1876.000000	99.432886 
1875.000000	99.433828 
1874.000000	99.434805 
1873.000000	99.435169 
1872.000000	99.434903 
1871.000000	99.434968 
1870.000000	99.435803 
1869.000000	99.436527 
1868.000000	99.436766 
1867.000000	99.437525 
1866.000000	99.439099 
1865.000000	99.440543 
1864.000000	99.441414 
1863.000000	99.442529 
1862.000000	99.444361 
1861.000000	99.445763 
1860.000000	99.445523 
1859.000000	99.444244 
1858.000000	99.443466 
1857.000000	99.443838 
1856.000000	99.445155 
1855.000000	99.446962 
1854.000000	99.448450 
1853.000000	99.448986 
1852.000000	99.449236 
1851.000000	99.450614 
1850.000000	99.453337 
1849.000000	99.456270 
1848.000000	99.458664 
1847.000000	99.461108 
1846.000000	99.464105 
1845.000000	99.466869 
1844.000000	99.468687 
1843.000000	99.470071 
1842.000000	99.470995 
1841.000000	99.470667 
1840.000000	99.468769 
1839.000000	99.465969 
1838.000000	99.463435 
1837.000000	99.461909 
1836.000000	99.461686 
1835.000000	99.462862 
1834.000000	99.464971 
1833.000000	99.467020 
1832.000000	99.467998 
1831.000000	99.467559 
1830.000000	99.466396 
1829.000000	99.465584 
1828.000000	99.465444 
1827.000000	99.465970 
1826.000000	99.467099 
1825.000000	99.468232 
1824.000000	99.468789 
1823.000000	99.469024 
1822.000000	99.469389 
1821.000000	99.469706 
1820.000000	99.469709 
1819.000000	99.469933 
1818.000000	99.470909 
1817.000000	99.471974 
1816.000000	99.472193 
1815.000000	99.471789 
1814.000000	99.471609 
1813.000000	99.471856 
1812.000000	99.472089 
1811.000000	99.472230 
1810.000000	99.472507 
1809.000000	99.472684 
1808.000000	99.472575 
1807.000000	99.472484 
1806.000000	99.472591 
1805.000000	99.472686 
1804.000000	99.472729 
1803.000000	99.473056 
1802.000000	99.473819 
1801.000000	99.474663 
1800.000000	99.475193 
1799.000000	99.475495 
1798.000000	99.475771 
1797.000000	99.475978 
1796.000000	99.476205 
1795.000000	99.476905 
1794.000000	99.478335 
1793.000000	99.479820 
1792.000000	99.480425 
1791.000000	99.480398 
1790.000000	99.480435 
1789.000000	99.480451 
1788.000000	99.480259 
1787.000000	99.480223 
1786.000000	99.480696 
1785.000000	99.481330 
1784.000000	99.481623 
1783.000000	99.481631 
1782.000000	99.481694 
1781.000000	99.481969 
1780.000000	99.482445 
1779.000000	99.483061 
1778.000000	99.483597 
1777.000000	99.483730 
1776.000000	99.483380 
1775.000000	99.482825 
1774.000000	99.482568 
1773.000000	99.482995 
1772.000000	99.483933 
1771.000000	99.485247 
1770.000000	99.487228 
1769.000000	99.489840 
1768.000000	99.492176 
1767.000000	99.493358 
1766.000000	99.493415 
1765.000000	99.492824 
1764.000000	99.491863 
1763.000000	99.490810 
1762.000000	99.490507 
1761.000000	99.491557 
1760.000000	99.493421 
1759.000000	99.495304 
1758.000000	99.497023 
1757.000000	99.498677 
1756.000000	99.500062 
1755.000000	99.501040 
1754.000000	99.502222 
1753.000000	99.504247 
1752.000000	99.506569 
1751.000000	99.507853 
1750.000000	99.508022 
1749.000000	99.508131 
1748.000000	99.508403 
1747.000000	99.508386 
1746.000000	99.508416 
1745.000000	99.509273 
1744.000000	99.510713 
1743.000000	99.511815 
1742.000000	99.512458 
1741.000000	99.513224 
1740.000000	99.514298 
1739.000000	99.515414 
1738.000000	99.516440 
1737.000000	99.517420 
1736.000000	99.518446 
1735.000000	99.519561 
1734.000000	99.520711 
1733.000000	99.521869 
1732.000000	99.522987 
1731.000000	99.524059 
1730.000000	99.525127 
1729.000000	99.526203 
1728.000000	99.527258 
1727.000000	99.528276 
1726.000000	99.529279 
1725.000000	99.530287 
1724.000000	99.531303 
1723.000000	99.532329 
1722.000000	99.533367 
1721.000000	99.534415 
1720.000000	99.535467 
1719.000000	99.536520 
1718.000000	99.537573 
1717.000000	99.538627 
1716.000000	99.539689 
1715.000000	99.540773 
1714.000000	99.541889 
1713.000000	99.543034 
1712.000000	99.544205 
1711.000000	99.545397 
1710.000000	99.546612 
1709.000000	99.547854 
1708.000000	99.549127 
1707.000000	99.550432 
1706.000000	99.551767 
1705.000000	99.553129 
1704.000000	99.554518 
1703.000000	99.555942 
1702.000000	99.557402 
1701.000000	99.558889 
1700.000000	99.560386 
1699.000000	99.561891 
1698.000000	99.563412 
1697.000000	99.564948 
1696.000000	99.566499 
1695.000000	99.568064 
1694.000000	99.569641 
1693.000000	99.571228 
1692.000000	99.572827 
1691.000000	99.574443 
1690.000000	99.576077 
1689.000000	99.577725 
1688.000000	99.579379 
1687.000000	99.581035 
1686.000000	99.582697 
1685.000000	99.584369 
1684.000000	99.586059 
1683.000000	99.587772 
1682.000000	99.589503 
1681.000000	99.591252 
1680.000000	99.593017 
1679.000000	99.594798 
1678.000000	99.596585 
1677.000000	99.598401 
1676.000000	99.600299 
1675.000000	99.602233 
1674.000000	99.604082 
1673.000000	99.605820 
1672.000000	99.607461 
1671.000000	99.608979 
1670.000000	99.610375 
1669.000000	99.611830 
1668.000000	99.613520 
1667.000000	99.615311 
1666.000000	99.617002 
1665.000000	99.618520 
1664.000000	99.619906 
1663.000000	99.621243 
1662.000000	99.622575 
1661.000000	99.623964 
1660.000000	99.625493 
1659.000000	99.627021 
1658.000000	99.628355 
1657.000000	99.629523 
1656.000000	99.630777 
1655.000000	99.632113 
1654.000000	99.633238 
1653.000000	99.634040 
1652.000000	99.635034 
1651.000000	99.636202 
1650.000000	99.637447 
1649.000000	99.638645 
1648.000000	99.639782 
1647.000000	99.640849 
1646.000000	99.641875 
1645.000000	99.642863 
1644.000000	99.643849 
1643.000000	99.644870 
1642.000000	99.645885 
1641.000000	99.646846 
1640.000000	99.647755 
1639.000000	99.648617 
1638.000000	99.649417 
1637.000000	99.650144 
1636.000000	99.650810 
1635.000000	99.651433 
1634.000000	99.652040 
1633.000000	99.652645 
1632.000000	99.653240 
1631.000000	99.653823 
1630.000000	99.654390 
1629.000000	99.654934 
1628.000000	99.655459 
1627.000000	99.655965 
1626.000000	99.656454 
1625.000000	99.656926 
1624.000000	99.657385 
1623.000000	99.657833 
1622.000000	99.658262 
1621.000000	99.658671 
1620.000000	99.659056 
1619.000000	99.659414 
1618.000000	99.659740 
1617.000000	99.660032 
1616.000000	99.660301 
1615.000000	99.660543 
1614.000000	99.660729 
1613.000000	99.660854 
1612.000000	99.660980 
1611.000000	99.661174 
1610.000000	99.661355 
1609.000000	99.661401 
1608.000000	99.661372 
1607.000000	99.661369 
1606.000000	99.661336 
1605.000000	99.661277 
1604.000000	99.661339 
1603.000000	99.661487 
1602.000000	99.661527 
1601.000000	99.661469 
1600.000000	99.661490 
1599.000000	99.661516 
1598.000000	99.661414 
1597.000000	99.661280 
1596.000000	99.661260 
1595.000000	99.661335 
1594.000000	99.661375 
1593.000000	99.661335 
1592.000000	99.661274 
1591.000000	99.661206 
1590.000000	99.661080 
1589.000000	99.660902 
1588.000000	99.660734 
1587.000000	99.660575 
1586.000000	99.660349 
1585.000000	99.660032 
1584.000000	99.659672 
1583.000000	99.659289 
1582.000000	99.658849 
1581.000000	99.658352 
1580.000000	99.657824 
1579.000000	99.657249 
1578.000000	99.656584 
1577.000000	99.655838 
1576.000000	99.655086 
1575.000000	99.654330 
1574.000000	99.653502 
1573.000000	99.652600 
1572.000000	99.651676 
1571.000000	99.650765 
1570.000000	99.649859 
1569.000000	99.648960 
1568.000000	99.648063 
1567.000000	99.647097 
1566.000000	99.646018 
1565.000000	99.644846 
1564.000000	99.643635 
1563.000000	99.642387 
1562.000000	99.641091 
1561.000000	99.639819 
1560.000000	99.638682 
1559.000000	99.637478 
1558.000000	99.635932 
1557.000000	99.634098 
1556.000000	99.632285 
1555.000000	99.630537 
1554.000000	99.628718 
1553.000000	99.626828 
1552.000000	99.625031 
1551.000000	99.623467 
1550.000000	99.622118 
1549.000000	99.620840 
1548.000000	99.619484 
1547.000000	99.617964 
1546.000000	99.616144 
1545.000000	99.613842 
1544.000000	99.611289 
1543.000000	99.609215 
1542.000000	99.608025 
1541.000000	99.606912 
1540.000000	99.605165 
1539.000000	99.603086 
1538.000000	99.600111 
1537.000000	99.596156 
1536.000000	99.591860 
1535.000000	99.587935 
1534.000000	99.584573 
1533.000000	99.581395 
1532.000000	99.578321 
1531.000000	99.575849 
1530.000000	99.573892 
1529.000000	99.571244 
1528.000000	99.567176 
1527.000000	99.562512 
1526.000000	99.558546 
1525.000000	99.555096 
1524.000000	99.551428 
1523.000000	99.547743 
1522.000000	99.544230 
1521.000000	99.539871 
1520.000000	99.534375 
1519.000000	99.528998 
1518.000000	99.524959 
1517.000000	99.521988 
1516.000000	99.519214 
1515.000000	99.516396 
1514.000000	99.513964 
1513.000000	99.511341 
1512.000000	99.506763 
1511.000000	99.500525 
1510.000000	99.495053 
1509.000000	99.491251 
1508.000000	99.487253 
1507.000000	99.483112 
1506.000000	99.480022 
1505.000000	99.474522 
1504.000000	99.466920 
1503.000000	99.459864 
1502.000000	99.454022 
1501.000000	99.448567 
1500.000000	99.442060 
1499.000000	99.435099 
1498.000000	99.430839 
1497.000000	99.429837 
1496.000000	99.428603 
1495.000000	99.425919 
1494.000000	99.423575 
1493.000000	99.421827 
1492.000000	99.419070 
1491.000000	99.414234 
1490.000000	99.408254 
1489.000000	99.401862 
1488.000000	99.394878 
1487.000000	99.388884 
1486.000000	99.384557 
1485.000000	99.380858 
1484.000000	99.377475 
1483.000000	99.374651 
1482.000000	99.372273 
1481.000000	99.369412 
1480.000000	99.365786 
1479.000000	99.362695 
1478.000000	99.360973 
1477.000000	99.359374 
1476.000000	99.356762 
1475.000000	99.354795 
1474.000000	99.354507 
1473.000000	99.353712 
1472.000000	99.350188 
1471.000000	99.345956 
1470.000000	99.343161 
1469.000000	99.340765 
1468.000000	99.337031 
1467.000000	99.332966 
1466.000000	99.331027 
1465.000000	99.330845 
1464.000000	99.329648 
1463.000000	99.326379 
1462.000000	99.322568 
1461.000000	99.318612 
1460.000000	99.313593 
1459.000000	99.307894 
1458.000000	99.305669 
1457.000000	99.308969 
1456.000000	99.309700 
1455.000000	99.302567 
1454.000000	99.293044 
1453.000000	99.285157 
1452.000000	99.278420 
1451.000000	99.272738 
1450.000000	99.271230 
1449.000000	99.275133 
1448.000000	99.279677 
1447.000000	99.280195 
1446.000000	99.277718 
1445.000000	99.275274 
1444.000000	99.273635 
1443.000000	99.272452 
1442.000000	99.273112 
1441.000000	99.276539 
1440.000000	99.279904 
1439.000000	99.280441 
1438.000000	99.281878 
1437.000000	99.289102 
1436.000000	99.298140 
1435.000000	99.302472 
1434.000000	99.303160 
1433.000000	99.302598 
1432.000000	99.300758 
1431.000000	99.297194 
1430.000000	99.294599 
1429.000000	99.295114 
1428.000000	99.295333 
1427.000000	99.291562 
1426.000000	99.285328 
1425.000000	99.281652 
1424.000000	99.281088 
1423.000000	99.278643 
1422.000000	99.273054 
1421.000000	99.267889 
1420.000000	99.263911 
1419.000000	99.257078 
1418.000000	99.248332 
1417.000000	99.239903 
1416.000000	99.229012 
1415.000000	99.213984 
1414.000000	99.197260 
1413.000000	99.182570 
1412.000000	99.170714 
1411.000000	99.160536 
1410.000000	99.152835 
1409.000000	99.148484 
1408.000000	99.145905 
1407.000000	99.144276 
1406.000000	99.145723 
1405.000000	99.153152 
1404.000000	99.165174 
1403.000000	99.177312 
1402.000000	99.188368 
1401.000000	99.199877 
1400.000000	99.211738 
1399.000000	99.220255 
1398.000000	99.221021 
1397.000000	99.211185 
1396.000000	99.191427 
1395.000000	99.170561 
1394.000000	99.163757 
1393.000000	99.178670 
1392.000000	99.207345 
1391.000000	99.235567 
1390.000000	99.254990 
1389.000000	99.265110 
1388.000000	99.268418 
1387.000000	99.267178 
1386.000000	99.263847 
1385.000000	99.261244 
1384.000000	99.260927 
1383.000000	99.262793 
1382.000000	99.266651 
1381.000000	99.272748 
1380.000000	99.281127 
1379.000000	99.290935 
1378.000000	99.301121 
1377.000000	99.311787 
1376.000000	99.323733 
1375.000000	99.336848 
1374.000000	99.350076 
1373.000000	99.362775 
1372.000000	99.374643 
1371.000000	99.385440 
1370.000000	99.395301 
1369.000000	99.405869 
1368.000000	99.418330 
1367.000000	99.431140 
1366.000000	99.441913 
1365.000000	99.450189 
1364.000000	99.457501 
1363.000000	99.465844 
1362.000000	99.475994 
1361.000000	99.487144 
1360.000000	99.497978 
1359.000000	99.507642 
1358.000000	99.516157 
1357.000000	99.524733 
1356.000000	99.534311 
1355.000000	99.544042 
1354.000000	99.552451 
1353.000000	99.559552 
1352.000000	99.566852 
1351.000000	99.575203 
1350.000000	99.582821 
1349.000000	99.588829 
1348.000000	99.593194 
1347.000000	99.595237 
1346.000000	99.595115 
1345.000000	99.595534 
1344.000000	99.599176 
1343.000000	99.605086 
1342.000000	99.609756 
1341.000000	99.611671 
1340.000000	99.612631 
1339.000000	99.614408 
1338.000000	99.616794 
1337.000000	99.619319 
1336.000000	99.622031 
1335.000000	99.624850 
1334.000000	99.627923 
1333.000000	99.631997 
1332.000000	99.636816 
1331.000000	99.639908 
1330.000000	99.639125 
1329.000000	99.636001 
1328.000000	99.633924 
1327.000000	99.633557 
1326.000000	99.632800 
1325.000000	99.631629 
1324.000000	99.632155 
1323.000000	99.634726 
1322.000000	99.637350 
1321.000000	99.638695 
1320.000000	99.639160 
1319.000000	99.639463 
1318.000000	99.640311 
1317.000000	99.642679 
1316.000000	99.646588 
1315.000000	99.650134 
1314.000000	99.651559 
1313.000000	99.651607 
1312.000000	99.652377 
1311.000000	99.654542 
1310.000000	99.657264 
1309.000000	99.659932 
1308.000000	99.662262 
1307.000000	99.663498 
1306.000000	99.662914 
1305.000000	99.661623 
1304.000000	99.661316 
1303.000000	99.662016 
1302.000000	99.662393 
1301.000000	99.661718 
1300.000000	99.660106 
1299.000000	99.657765 
1298.000000	99.655355 
1297.000000	99.654133 
1296.000000	99.654352 
1295.000000	99.654053 
1294.000000	99.651281 
1293.000000	99.646885 
1292.000000	99.643596 
1291.000000	99.642601 
1290.000000	99.642259 
1289.000000	99.640201 
1288.000000	99.635739 
1287.000000	99.630147 
1286.000000	99.625251 
1285.000000	99.621839 
1284.000000	99.619342 
1283.000000	99.617197 
1282.000000	99.615740 
1281.000000	99.614848 
1280.000000	99.612737 
1279.000000	99.607404 
1278.000000	99.599391 
1277.000000	99.591565 
1276.000000	99.585817 
1275.000000	99.581126 
1274.000000	99.575529 
1273.000000	99.568559 
1272.000000	99.560880 
1271.000000	99.552733 
1270.000000	99.543806 
1269.000000	99.533976 
1268.000000	99.523387 
1267.000000	99.512360 
1266.000000	99.501687 
1265.000000	99.491899 
1264.000000	99.482190 
1263.000000	99.471356 
1262.000000	99.459925 
1261.000000	99.449920 
1260.000000	99.442161 
1259.000000	99.435017 
1258.000000	99.426761 
1257.000000	99.417767 
1256.000000	99.409624 
1255.000000	99.403079 
1254.000000	99.397529 
1253.000000	99.391820 
1252.000000	99.385388 
1251.000000	99.379315 
1250.000000	99.376216 
1249.000000	99.378003 
1248.000000	99.383605 
1247.000000	99.389581 
1246.000000	99.392856 
1245.000000	99.391690 
1244.000000	99.385102 
1243.000000	99.374272 
1242.000000	99.364444 
1241.000000	99.361832 
1240.000000	99.367174 
1239.000000	99.374201 
1238.000000	99.375923 
1237.000000	99.371029 
1236.000000	99.362694 
1235.000000	99.353587 
1234.000000	99.344126 
1233.000000	99.334536 
1232.000000	99.326039 
1231.000000	99.319835 
1230.000000	99.316177 
1229.000000	99.314206 
1228.000000	99.311965 
1227.000000	99.307484 
1226.000000	99.300983 
1225.000000	99.295223 
1224.000000	99.292531 
1223.000000	99.292243 
1222.000000	99.292093 
1221.000000	99.291135 
1220.000000	99.289904 
1219.000000	99.288639 
1218.000000	99.287023 
1217.000000	99.285106 
1216.000000	99.282967 
1215.000000	99.279891 
1214.000000	99.275168 
1213.000000	99.269216 
1212.000000	99.262734 
1211.000000	99.255414 
1210.000000	99.246557 
1209.000000	99.236330 
1208.000000	99.225494 
1207.000000	99.214656 
1206.000000	99.204546 
1205.000000	99.195817 
1204.000000	99.187531 
1203.000000	99.177065 
1202.000000	99.163002 
1201.000000	99.147314 
1200.000000	99.133296 
1199.000000	99.122129 
1198.000000	99.113004 
1197.000000	99.105562 
1196.000000	99.100180 
1195.000000	99.096173 
1194.000000	99.091523 
1193.000000	99.084753 
1192.000000	99.075860 
1191.000000	99.065507 
1190.000000	99.054336 
1189.000000	99.043022 
1188.000000	99.031972 
1187.000000	99.020746 
1186.000000	99.008381 
1185.000000	98.994442 
1184.000000	98.979630 
1183.000000	98.965482 
1182.000000	98.953317 
1181.000000	98.943021 
1180.000000	98.933045 
1179.000000	98.922320 
1178.000000	98.911947 
1177.000000	98.903733 
1176.000000	98.896941 
1175.000000	98.888028 
1174.000000	98.874220 
1173.000000	98.856124 
1172.000000	98.836124 
1171.000000	98.815660 
1170.000000	98.795020 
1169.000000	98.774376 
1168.000000	98.753839 
1167.000000	98.733645 
1166.000000	98.715481 
1165.000000	98.702482 
1164.000000	98.696566 
1163.000000	98.696522 
1162.000000	98.699670 
1161.000000	98.704478 
1160.000000	98.710384 
1159.000000	98.716189 
1158.000000	98.720325 
1157.000000	98.721742 
1156.000000	98.719001 
1155.000000	98.709887 
1154.000000	98.694077 
1153.000000	98.675160 
1152.000000	98.657573 
1151.000000	98.641811 
1150.000000	98.624864 
1149.000000	98.605193 
1148.000000	98.585067 
1147.000000	98.567715 
1146.000000	98.553716 
1145.000000	98.540520 
1144.000000	98.524324 
1143.000000	98.502454 
1142.000000	98.475455 
1141.000000	98.447114 
1140.000000	98.421258 
1139.000000	98.398419 
1138.000000	98.376347 
1137.000000	98.353101 
1136.000000	98.328420 
1135.000000	98.303063 
1134.000000	98.278729 
1133.000000	98.257867 
1132.000000	98.240994 
1131.000000	98.224263 
1130.000000	98.202430 
1129.000000	98.174928 
1128.000000	98.146643 
1127.000000	98.121809 
1126.000000	98.099187 
1125.000000	98.074688 
1124.000000	98.046574 
1123.000000	98.016119 
1122.000000	97.984851 
1121.000000	97.953523 
1120.000000	97.923092 
1119.000000	97.894376 
1118.000000	97.866439 
1117.000000	97.836748 
1116.000000	97.803289 
1115.000000	97.765907 
1114.000000	97.725814 
1113.000000	97.684539 
1112.000000	97.643278 
1111.000000	97.602669 
1110.000000	97.563215 
1109.000000	97.526255 
1108.000000	97.492838 
1107.000000	97.461293 
1106.000000	97.427856 
1105.000000	97.391068 
1104.000000	97.354354 
1103.000000	97.322477 
1102.000000	97.296213 
1101.000000	97.272632 
1100.000000	97.249091 
1099.000000	97.226438 
1098.000000	97.205784 
1097.000000	97.185852 
1096.000000	97.163844 
1095.000000	97.137779 
1094.000000	97.106938 
1093.000000	97.070947 
1092.000000	97.029875 
1091.000000	96.985303 
1090.000000	96.940365 
1089.000000	96.898109 
1088.000000	96.859725 
1087.000000	96.824328 
1086.000000	96.790359 
1085.000000	96.757041 
1084.000000	96.724219 
1083.000000	96.691259 
1082.000000	96.657598 
1081.000000	96.624819 
1080.000000	96.596383 
1079.000000	96.573993 
1078.000000	96.555833 
1077.000000	96.540291 
1076.000000	96.529660 
1075.000000	96.527386 
1074.000000	96.532955 
1073.000000	96.542355 
1072.000000	96.551631 
1071.000000	96.555412 
1070.000000	96.543403 
1069.000000	96.506240 
1068.000000	96.449084 
1067.000000	96.395375 
1066.000000	96.369958 
1065.000000	96.378239 
1064.000000	96.404310 
1063.000000	96.426229 
1062.000000	96.430233 
1061.000000	96.412749 
1060.000000	96.377587 
1059.000000	96.335769 
1058.000000	96.302712 
1057.000000	96.288559 
1056.000000	96.290598 
1055.000000	96.297189 
1054.000000	96.299137 
1053.000000	96.296132 
1052.000000	96.293225 
1051.000000	96.294124 
1050.000000	96.298510 
1049.000000	96.303424 
1048.000000	96.305925 
1047.000000	96.305893 
1046.000000	96.307234 
1045.000000	96.315139 
1044.000000	96.331428 
1043.000000	96.353159 
1042.000000	96.375580 
1041.000000	96.395238 
1040.000000	96.410775 
1039.000000	96.423783 
1038.000000	96.439936 
1037.000000	96.465860 
1036.000000	96.502360 
1035.000000	96.542919 
1034.000000	96.581043 
1033.000000	96.615870 
1032.000000	96.646812 
1031.000000	96.666718 
1030.000000	96.668153 
1029.000000	96.657216 
1028.000000	96.654376 
1027.000000	96.676562 
1026.000000	96.721170 
1025.000000	96.770301 
1024.000000	96.808352 
1023.000000	96.832271 
1022.000000	96.847869 
1021.000000	96.861800 
1020.000000	96.877479 
1019.000000	96.895175 
1018.000000	96.913333 
1017.000000	96.930461 
1016.000000	96.946779 
1015.000000	96.964024 
1014.000000	96.983642 
1013.000000	97.005498 
1012.000000	97.028329 
1011.000000	97.051038 
1010.000000	97.073471 
1009.000000	97.096134 
1008.000000	97.119284 
1007.000000	97.142705 
1006.000000	97.166669 
1005.000000	97.192499 
1004.000000	97.221288 
1003.000000	97.252279 
1002.000000	97.283360 
1001.000000	97.313125 
1000.000000	97.341726 
999.000000	 97.369764 
998.000000	 97.397165 
997.000000	 97.423426 
996.000000	 97.448348 
995.000000	 97.472188 
994.000000	 97.495470 
993.000000	 97.518921 
992.000000	 97.543369 
991.000000	 97.569655 
990.000000	 97.598688 
989.000000	 97.630939 
988.000000	 97.664822 
987.000000	 97.696269 
986.000000	 97.721994 
985.000000	 97.743051 
984.000000	 97.763873 
983.000000	 97.787608 
982.000000	 97.814181 
981.000000	 97.842731 
980.000000	 97.872811 
979.000000	 97.903225 
978.000000	 97.932364 
977.000000	 97.960381 
976.000000	 97.988868 
975.000000	 98.017850 
974.000000	 98.045421 
973.000000	 98.071210 
972.000000	 98.097944 
971.000000	 98.128312 
970.000000	 98.161905 
969.000000	 98.196303 
968.000000	 98.229628 
967.000000	 98.260973 
966.000000	 98.289814 
965.000000	 98.316167 
964.000000	 98.340562 
963.000000	 98.363426 
962.000000	 98.385301 
961.000000	 98.407446 
960.000000	 98.430738 
959.000000	 98.453972 
958.000000	 98.475041 
957.000000	 98.494098 
956.000000	 98.513801 
955.000000	 98.535891 
954.000000	 98.558915 
953.000000	 98.579793 
952.000000	 98.596423 
951.000000	 98.608779 
950.000000	 98.619083 
949.000000	 98.631078 
948.000000	 98.647505 
947.000000	 98.667913 
946.000000	 98.689770 
945.000000	 98.711019 
944.000000	 98.730180 
943.000000	 98.745428 
942.000000	 98.756376 
941.000000	 98.766049 
940.000000	 98.778250 
939.000000	 98.792878 
938.000000	 98.806606 
937.000000	 98.818258 
936.000000	 98.830325 
935.000000	 98.844748 
934.000000	 98.860565 
933.000000	 98.876859 
932.000000	 98.894623 
931.000000	 98.913736 
930.000000	 98.930858 
929.000000	 98.942782 
928.000000	 98.950154 
927.000000	 98.956124 
926.000000	 98.962850 
925.000000	 98.970995 
924.000000	 98.980960 
923.000000	 98.992051 
922.000000	 99.001127 
921.000000	 99.004683 
920.000000	 99.002680 
919.000000	 98.999121 
918.000000	 98.998729 
917.000000	 99.003283 
916.000000	 99.010829 
915.000000	 99.017513 
914.000000	 99.020245 
913.000000	 99.018702 
912.000000	 99.015642 
911.000000	 99.015293 
910.000000	 99.020632 
909.000000	 99.031395 
908.000000	 99.044294 
907.000000	 99.055416 
906.000000	 99.062641 
905.000000	 99.065694 
904.000000	 99.064785 
903.000000	 99.061152 
902.000000	 99.059092 
901.000000	 99.064447 
900.000000	 99.078718 
899.000000	 99.096169 
898.000000	 99.109140 
897.000000	 99.116042 
896.000000	 99.121029 
895.000000	 99.126971 
894.000000	 99.132941 
893.000000	 99.139266 
892.000000	 99.150435 
891.000000	 99.169817 
890.000000	 99.193781 
889.000000	 99.214155 
888.000000	 99.225549 
887.000000	 99.228136 
886.000000	 99.224898 
885.000000	 99.218482 
884.000000	 99.209856 
883.000000	 99.197888 
882.000000	 99.180862 
881.000000	 99.160743 
880.000000	 99.145390 
879.000000	 99.143421 
878.000000	 99.155920 
877.000000	 99.174816 
876.000000	 99.190294 
875.000000	 99.198961 
874.000000	 99.204696 
873.000000	 99.213891 
872.000000	 99.230738 
871.000000	 99.254791 
870.000000	 99.281241 
869.000000	 99.304833 
868.000000	 99.324862 
867.000000	 99.345423 
866.000000	 99.369676 
865.000000	 99.395005 
864.000000	 99.415788 
863.000000	 99.430502 
862.000000	 99.443704 
861.000000	 99.460359 
860.000000	 99.480697 
859.000000	 99.502196 
858.000000	 99.523861 
857.000000	 99.545319 
856.000000	 99.563446 
855.000000	 99.574629 
854.000000	 99.580570 
853.000000	 99.587190 
852.000000	 99.596256 
851.000000	 99.602691 
850.000000	 99.603042 
849.000000	 99.602492 
848.000000	 99.609021 
847.000000	 99.622940 
846.000000	 99.636922 
845.000000	 99.645107 
844.000000	 99.647357 
843.000000	 99.645247 
842.000000	 99.639454 
841.000000	 99.632825 
840.000000	 99.631665 
839.000000	 99.640377 
838.000000	 99.655985 
837.000000	 99.669998 
836.000000	 99.675287 
835.000000	 99.670724 
834.000000	 99.661036 
833.000000	 99.653533 
832.000000	 99.653502 
831.000000	 99.660527 
830.000000	 99.668868 
829.000000	 99.672244 
828.000000	 99.668436 
827.000000	 99.659646 
826.000000	 99.650019 
825.000000	 99.643719 
824.000000	 99.643775 
823.000000	 99.649920 
822.000000	 99.656755 
821.000000	 99.656193 
820.000000	 99.643837 
819.000000	 99.623461 
818.000000	 99.604747 
817.000000	 99.595511 
816.000000	 99.595270 
815.000000	 99.595776 
814.000000	 99.587420 
813.000000	 99.565346 
812.000000	 99.530696 
811.000000	 99.487590 
810.000000	 99.439037 
809.000000	 99.384611 
808.000000	 99.321486 
807.000000	 99.247696 
806.000000	 99.163997 
805.000000	 99.072982 
804.000000	 98.978362 
803.000000	 98.886142 
802.000000	 98.804706 
801.000000	 98.741092 
800.000000	 98.696891 
799.000000	 98.668560 
798.000000	 98.651960 
797.000000	 98.646610 
796.000000	 98.655609 
795.000000	 98.681489 
794.000000	 98.721848 
793.000000	 98.768766 
792.000000	 98.812838 
791.000000	 98.848282 
790.000000	 98.873977 
789.000000	 98.889552 
788.000000	 98.892126 
787.000000	 98.878864 
786.000000	 98.851757 
785.000000	 98.817352 
784.000000	 98.781897 
783.000000	 98.748740 
782.000000	 98.719630 
781.000000	 98.695136 
780.000000	 98.673654 
779.000000	 98.653893 
778.000000	 98.640206 
777.000000	 98.642568 
776.000000	 98.668681 
775.000000	 98.716834 
774.000000	 98.776879 
773.000000	 98.836692 
772.000000	 98.887491 
771.000000	 98.926395 
770.000000	 98.956767 
769.000000	 98.983960 
768.000000	 99.008828 
767.000000	 99.028108 
766.000000	 99.042756 
765.000000	 99.061173 
764.000000	 99.089906 
763.000000	 99.124775 
762.000000	 99.156295 
761.000000	 99.181278 
760.000000	 99.203210 
759.000000	 99.223180 
758.000000	 99.237774 
757.000000	 99.246525 
756.000000	 99.254830 
755.000000	 99.267038 
754.000000	 99.281448 
753.000000	 99.294974 
752.000000	 99.308856 
751.000000	 99.326298 
750.000000	 99.346488 
749.000000	 99.364428 
748.000000	 99.376586 
747.000000	 99.384563 
746.000000	 99.392385 
745.000000	 99.401212 
744.000000	 99.408528 
743.000000	 99.413472 
742.000000	 99.421112 
741.000000	 99.438160 
740.000000	 99.464101 
739.000000	 99.489930 
738.000000	 99.507369 
737.000000	 99.516235 
736.000000	 99.520993 
735.000000	 99.523966 
734.000000	 99.525287 
733.000000	 99.526359 
732.000000	 99.528354 
731.000000	 99.528995 
730.000000	 99.525883 
729.000000	 99.522281 
728.000000	 99.524357 
727.000000	 99.533053 
726.000000	 99.543894 
725.000000	 99.554023 
724.000000	 99.563688 
723.000000	 99.570900 
722.000000	 99.571376 
721.000000	 99.566166 
720.000000	 99.563766 
719.000000	 99.570520 
718.000000	 99.582422 
717.000000	 99.590187 
716.000000	 99.589583 
715.000000	 99.584148 
714.000000	 99.580290 
713.000000	 99.582022 
712.000000	 99.589047 
711.000000	 99.598457 
710.000000	 99.609078 
709.000000	 99.623770 
708.000000	 99.644341 
707.000000	 99.664170 
706.000000	 99.671451 
705.000000	 99.661269 
704.000000	 99.639949 
703.000000	 99.615399 
702.000000	 99.587107 
701.000000	 99.550160 
700.000000	 99.506616 
699.000000	 99.466350 
698.000000	 99.436961 
697.000000	 99.417771 
696.000000	 99.404511 
695.000000	 99.396503 
694.000000	 99.396449 
693.000000	 99.405321 
692.000000	 99.420503 
691.000000	 99.439150 
690.000000	 99.462471 
689.000000	 99.494574 
688.000000	 99.535999 
687.000000	 99.578931 
686.000000	 99.610492 
685.000000	 99.623459 
684.000000	 99.623673 
683.000000	 99.624743 
682.000000	 99.634844 
681.000000	 99.649420 
680.000000	 99.657586 
679.000000	 99.654055 
678.000000	 99.642419 
677.000000	 99.628843 
676.000000	 99.614681 
675.000000	 99.597550 
674.000000	 99.579420 
673.000000	 99.567859 
672.000000	 99.565761 
671.000000	 99.566437 
670.000000	 99.563818 
669.000000	 99.561410 
668.000000	 99.567488 
667.000000	 99.579410 
666.000000	 99.586381 
665.000000	 99.590981 
664.000000	 99.600218 
663.000000	 99.613438 
662.000000	 99.625241 
661.000000	 99.637699 
660.000000	 99.659847 
659.000000	 99.690690 
658.000000	 99.715557 
657.000000	 99.725182 
656.000000	 99.721820 
655.000000	 99.703669 
654.000000	 99.660457 
653.000000	 99.588999 
652.000000	 99.503042 
651.000000	 99.429095 
650.000000	 99.389807 

