4000.000000	98.610652 
3999.000000	98.609398 
3998.000000	98.609031 
3997.000000	98.609497 
3996.000000	98.610431 
3995.000000	98.611383 
3994.000000	98.612000 
3993.000000	98.612121 
3992.000000	98.611784 
3991.000000	98.611182 
3990.000000	98.610671 
3989.000000	98.610650 
3988.000000	98.611240 
3987.000000	98.612084 
3986.000000	98.612609 
3985.000000	98.612469 
3984.000000	98.611745 
3983.000000	98.610823 
3982.000000	98.610065 
3981.000000	98.609536 
3980.000000	98.609068 
3979.000000	98.608493 
3978.000000	98.607728 
3977.000000	98.606717 
3976.000000	98.605454 
3975.000000	98.604141 
3974.000000	98.603175 
3973.000000	98.602878 
3972.000000	98.603227 
3971.000000	98.603890 
3970.000000	98.604583 
3969.000000	98.605345 
3968.000000	98.606320 
3967.000000	98.607411 
3966.000000	98.608229 
3965.000000	98.608367 
3964.000000	98.607733 
3963.000000	98.606701 
3962.000000	98.605888 
3961.000000	98.605734 
3960.000000	98.606246 
3959.000000	98.606944 
3958.000000	98.607183 
3957.000000	98.606699 
3956.000000	98.605740 
3955.000000	98.604804 
3954.000000	98.604219 
3953.000000	98.603916 
3952.000000	98.603578 
3951.000000	98.603032 
3950.000000	98.602632 
3949.000000	98.602952 
3948.000000	98.603974 
3947.000000	98.604972 
3946.000000	98.605162 
3945.000000	98.604233 
3944.000000	98.602372 
3943.000000	98.600242 
3942.000000	98.598645 
3941.000000	98.597973 
3940.000000	98.598056 
3939.000000	98.598426 
3938.000000	98.598762 
3937.000000	98.599243 
3936.000000	98.600285 
3935.000000	98.601969 
3934.000000	98.603801 
3933.000000	98.605048 
3932.000000	98.605215 
3931.000000	98.604224 
3930.000000	98.602402 
3929.000000	98.600213 
3928.000000	98.598040 
3927.000000	98.596313 
3926.000000	98.595378 
3925.000000	98.595415 
3924.000000	98.596634 
3923.000000	98.598924 
3922.000000	98.601607 
3921.000000	98.603802 
3920.000000	98.605174 
3919.000000	98.606054 
3918.000000	98.606570 
3917.000000	98.606343 
3916.000000	98.605202 
3915.000000	98.603697 
3914.000000	98.602489 
3913.000000	98.601721 
3912.000000	98.601298 
3911.000000	98.601183 
3910.000000	98.601293 
3909.000000	98.601555 
3908.000000	98.602025 
3907.000000	98.602809 
3906.000000	98.603983 
3905.000000	98.605367 
3904.000000	98.606635 
3903.000000	98.607305 
3902.000000	98.607032 
3901.000000	98.606014 
3900.000000	98.604772 
3899.000000	98.603872 
3898.000000	98.603557 
3897.000000	98.603571 
3896.000000	98.603496 
3895.000000	98.603124 
3894.000000	98.602509 
3893.000000	98.601892 
3892.000000	98.601455 
3891.000000	98.601163 
3890.000000	98.600955 
3889.000000	98.600867 
3888.000000	98.600839 
3887.000000	98.600643 
3886.000000	98.600187 
3885.000000	98.599658 
3884.000000	98.599278 
3883.000000	98.599023 
3882.000000	98.598722 
3881.000000	98.598329 
3880.000000	98.597935 
3879.000000	98.597592 
3878.000000	98.597275 
3877.000000	98.596906 
3876.000000	98.596378 
3875.000000	98.595660 
3874.000000	98.594898 
3873.000000	98.594349 
3872.000000	98.594127 
3871.000000	98.594064 
3870.000000	98.593859 
3869.000000	98.593451 
3868.000000	98.593049 
3867.000000	98.592754 
3866.000000	98.592318 
3865.000000	98.591615 
3864.000000	98.591093 
3863.000000	98.591126 
3862.000000	98.591449 
3861.000000	98.591585 
3860.000000	98.591351 
3859.000000	98.590712 
3858.000000	98.589729 
3857.000000	98.588546 
3856.000000	98.587469 
3855.000000	98.586419 
3854.000000	98.585650 
3853.000000	98.585729 
3852.000000	98.586363 
3851.000000	98.587061 
3850.000000	98.587671 
3849.000000	98.588022 
3848.000000	98.588250 
3847.000000	98.588607 
3846.000000	98.588992 
3845.000000	98.589229 
3844.000000	98.589294 
3843.000000	98.589092 
3842.000000	98.588714 
3841.000000	98.588574 
3840.000000	98.588919 
3839.000000	98.589646 
3838.000000	98.590430 
3837.000000	98.590897 
3836.000000	98.590959 
3835.000000	98.590728 
3834.000000	98.590434 
3833.000000	98.590268 
3832.000000	98.590279 
3831.000000	98.590442 
3830.000000	98.590651 
3829.000000	98.590754 
3828.000000	98.590690 
3827.000000	98.590485 
3826.000000	98.590242 
3825.000000	98.590173 
3824.000000	98.590360 
3823.000000	98.590480 
3822.000000	98.590225 
3821.000000	98.589778 
3820.000000	98.589568 
3819.000000	98.589729 
3818.000000	98.590010 
3817.000000	98.589917 
3816.000000	98.589216 
3815.000000	98.588197 
3814.000000	98.587390 
3813.000000	98.586895 
3812.000000	98.586448 
3811.000000	98.585985 
3810.000000	98.585776 
3809.000000	98.586012 
3808.000000	98.586460 
3807.000000	98.586618 
3806.000000	98.586397 
3805.000000	98.586181 
3804.000000	98.586098 
3803.000000	98.585656 
3802.000000	98.584457 
3801.000000	98.582994 
3800.000000	98.582220 
3799.000000	98.582432 
3798.000000	98.583077 
3797.000000	98.583417 
3796.000000	98.583285 
3795.000000	98.582908 
3794.000000	98.582321 
3793.000000	98.581177 
3792.000000	98.579317 
3791.000000	98.577348 
3790.000000	98.576019 
3789.000000	98.575352 
3788.000000	98.574831 
3787.000000	98.574311 
3786.000000	98.574181 
3785.000000	98.574748 
3784.000000	98.575756 
3783.000000	98.576953 
3782.000000	98.578167 
3781.000000	98.579029 
3780.000000	98.579451 
3779.000000	98.579719 
3778.000000	98.579947 
3777.000000	98.580201 
3776.000000	98.580540 
3775.000000	98.580537 
3774.000000	98.580199 
3773.000000	98.580604 
3772.000000	98.582571 
3771.000000	98.585066 
3770.000000	98.586765 
3769.000000	98.587919 
3768.000000	98.589056 
3767.000000	98.589994 
3766.000000	98.590024 
3765.000000	98.588869 
3764.000000	98.588041 
3763.000000	98.589431 
3762.000000	98.592101 
3761.000000	98.593020 
3760.000000	98.592125 
3759.000000	98.592928 
3758.000000	98.595962 
3757.000000	98.598268 
3756.000000	98.599448 
3755.000000	98.601075 
3754.000000	98.603167 
3753.000000	98.604034 
3752.000000	98.605030 
3751.000000	98.610139 
3750.000000	98.615741 
3749.000000	98.615496 
3748.000000	98.612249 
3747.000000	98.613054 
3746.000000	98.616976 
3745.000000	98.615006 
3744.000000	98.603832 
3743.000000	98.593014 
3742.000000	98.591829 
3741.000000	98.597488 
3740.000000	98.602052 
3739.000000	98.604056 
3738.000000	98.605637 
3737.000000	98.605954 
3736.000000	98.605609 
3735.000000	98.607959 
3734.000000	98.612543 
3733.000000	98.612290 
3732.000000	98.603115 
3731.000000	98.590429 
3730.000000	98.581789 
3729.000000	98.578898 
3728.000000	98.576654 
3727.000000	98.569879 
3726.000000	98.560115 
3725.000000	98.552769 
3724.000000	98.549208 
3723.000000	98.546141 
3722.000000	98.541532 
3721.000000	98.535246 
3720.000000	98.526843 
3719.000000	98.516722 
3718.000000	98.505349 
3717.000000	98.493676 
3716.000000	98.484372 
3715.000000	98.478573 
3714.000000	98.473172 
3713.000000	98.462898 
3712.000000	98.447052 
3711.000000	98.428761 
3710.000000	98.408989 
3709.000000	98.387356 
3708.000000	98.363494 
3707.000000	98.337256 
3706.000000	98.309351 
3705.000000	98.280593 
3704.000000	98.250825 
3703.000000	98.219340 
3702.000000	98.186832 
3701.000000	98.154442 
3700.000000	98.122793 
3699.000000	98.093891 
3698.000000	98.070138 
3697.000000	98.052613 
3696.000000	98.042430 
3695.000000	98.039787 
3694.000000	98.040650 
3693.000000	98.038719 
3692.000000	98.032333 
3691.000000	98.026644 
3690.000000	98.027307 
3689.000000	98.031593 
3688.000000	98.030669 
3687.000000	98.022819 
3686.000000	98.014815 
3685.000000	98.010575 
3684.000000	98.008017 
3683.000000	98.003863 
3682.000000	97.996125 
3681.000000	97.982833 
3680.000000	97.962767 
3679.000000	97.938568 
3678.000000	97.914873 
3677.000000	97.889604 
3676.000000	97.857417 
3675.000000	97.820819 
3674.000000	97.786672 
3673.000000	97.758200 
3672.000000	97.731264 
3671.000000	97.697342 
3670.000000	97.656859 
3669.000000	97.617747 
3668.000000	97.583074 
3667.000000	97.551305 
3666.000000	97.521630 
3665.000000	97.493703 
3664.000000	97.465516 
3663.000000	97.433502 
3662.000000	97.394851 
3661.000000	97.350762 
3660.000000	97.306319 
3659.000000	97.265425 
3658.000000	97.226898 
3657.000000	97.186473 
3656.000000	97.143221 
3655.000000	97.102273 
3654.000000	97.069203 
3653.000000	97.042714 
3652.000000	97.014845 
3651.000000	96.979299 
3650.000000	96.940057 
3649.000000	96.903963 
3648.000000	96.869065 
3647.000000	96.831156 
3646.000000	96.791738 
3645.000000	96.754413 
3644.000000	96.720311 
3643.000000	96.688231 
3642.000000	96.655595 
3641.000000	96.621018 
3640.000000	96.585002 
3639.000000	96.549092 
3638.000000	96.515111 
3637.000000	96.483868 
3636.000000	96.454277 
3635.000000	96.423427 
3634.000000	96.390288 
3633.000000	96.358732 
3632.000000	96.333356 
3631.000000	96.312623 
3630.000000	96.288638 
3629.000000	96.257730 
3628.000000	96.223177 
3627.000000	96.190053 
3626.000000	96.161236 
3625.000000	96.134723 
3624.000000	96.107268 
3623.000000	96.079095 
3622.000000	96.054349 
3621.000000	96.038195 
3620.000000	96.036370 
3619.000000	96.052320 
3618.000000	96.081669 
3617.000000	96.116156 
3616.000000	96.152055 
3615.000000	96.188676 
3614.000000	96.225196 
3613.000000	96.260616 
3612.000000	96.294140 
3611.000000	96.325297 
3610.000000	96.353194 
3609.000000	96.376045 
3608.000000	96.393058 
3607.000000	96.405079 
3606.000000	96.413111 
3605.000000	96.418267 
3604.000000	96.422026 
3603.000000	96.426197 
3602.000000	96.433076 
3601.000000	96.444003 
3600.000000	96.459695 
3599.000000	96.480112 
3598.000000	96.502306 
3597.000000	96.521455 
3596.000000	96.535101 
3595.000000	96.544791 
3594.000000	96.554797 
3593.000000	96.568214 
3592.000000	96.583906 
3591.000000	96.598488 
3590.000000	96.608593 
3589.000000	96.613190 
3588.000000	96.615051 
3587.000000	96.617432 
3586.000000	96.619499 
3585.000000	96.619852 
3584.000000	96.619582 
3583.000000	96.620623 
3582.000000	96.623022 
3581.000000	96.624997 
3580.000000	96.625048 
3579.000000	96.623831 
3578.000000	96.623661 
3577.000000	96.626356 
3576.000000	96.631905 
3575.000000	96.638245 
3574.000000	96.642316 
3573.000000	96.642582 
3572.000000	96.640324 
3571.000000	96.638957 
3570.000000	96.641273 
3569.000000	96.646161 
3568.000000	96.649432 
3567.000000	96.648256 
3566.000000	96.642918 
3565.000000	96.636186 
3564.000000	96.631268 
3563.000000	96.628581 
3562.000000	96.625897 
3561.000000	96.621653 
3560.000000	96.616755 
3559.000000	96.613505 
3558.000000	96.612813 
3557.000000	96.613235 
3556.000000	96.612925 
3555.000000	96.611964 
3554.000000	96.611969 
3553.000000	96.613968 
3552.000000	96.616885 
3551.000000	96.618768 
3550.000000	96.619277 
3549.000000	96.619878 
3548.000000	96.621748 
3547.000000	96.624513 
3546.000000	96.626266 
3545.000000	96.625331 
3544.000000	96.622204 
3543.000000	96.619406 
3542.000000	96.619145 
3541.000000	96.621320 
3540.000000	96.623746 
3539.000000	96.624536 
3538.000000	96.623942 
3537.000000	96.623776 
3536.000000	96.625165 
3535.000000	96.627329 
3534.000000	96.628922 
3533.000000	96.629631 
3532.000000	96.630110 
3531.000000	96.630843 
3530.000000	96.631748 
3529.000000	96.632806 
3528.000000	96.634338 
3527.000000	96.636501 
3526.000000	96.638767 
3525.000000	96.640240 
3524.000000	96.640495 
3523.000000	96.639942 
3522.000000	96.639319 
3521.000000	96.639162 
3520.000000	96.639671 
3519.000000	96.640801 
3518.000000	96.642193 
3517.000000	96.643168 
3516.000000	96.643147 
3515.000000	96.642179 
3514.000000	96.641293 
3513.000000	96.641894 
3512.000000	96.644543 
3511.000000	96.648377 
3510.000000	96.651860 
3509.000000	96.653796 
3508.000000	96.653764 
3507.000000	96.652202 
3506.000000	96.650269 
3505.000000	96.649464 
3504.000000	96.650637 
3503.000000	96.653055 
3502.000000	96.654767 
3501.000000	96.654440 
3500.000000	96.652435 
3499.000000	96.650096 
3498.000000	96.648637 
3497.000000	96.648669 
3496.000000	96.650130 
3495.000000	96.652081 
3494.000000	96.652998 
3493.000000	96.651885 
3492.000000	96.649040 
3491.000000	96.645647 
3490.000000	96.642829 
3489.000000	96.641022 
3488.000000	96.639964 
3487.000000	96.638968 
3486.000000	96.637192 
3485.000000	96.634076 
3484.000000	96.629866 
3483.000000	96.625638 
3482.000000	96.622502 
3481.000000	96.620487 
3480.000000	96.618467 
3479.000000	96.615530 
3478.000000	96.612216 
3477.000000	96.609936 
3476.000000	96.609095 
3475.000000	96.608213 
3474.000000	96.605386 
3473.000000	96.600442 
3472.000000	96.595156 
3471.000000	96.591329 
3470.000000	96.589204 
3469.000000	96.587802 
3468.000000	96.585893 
3467.000000	96.582444 
3466.000000	96.576926 
3465.000000	96.569986 
3464.000000	96.563536 
3463.000000	96.559227 
3462.000000	96.556693 
3461.000000	96.553839 
3460.000000	96.549144 
3459.000000	96.543175 
3458.000000	96.537591 
3457.000000	96.533241 
3456.000000	96.529591 
3455.000000	96.525793 
3454.000000	96.521760 
3453.000000	96.517855 
3452.000000	96.514097 
3451.000000	96.509977 
3450.000000	96.505066 
3449.000000	96.499611 
3448.000000	96.494472 
3447.000000	96.490328 
3446.000000	96.486895 
3445.000000	96.483122 
3444.000000	96.478274 
3443.000000	96.472788 
3442.000000	96.467962 
3441.000000	96.464698 
3440.000000	96.462521 
3439.000000	96.459818 
3438.000000	96.455208 
3437.000000	96.448780 
3436.000000	96.441995 
3435.000000	96.436455 
3434.000000	96.432807 
3433.000000	96.430477 
3432.000000	96.428402 
3431.000000	96.425820 
3430.000000	96.422493 
3429.000000	96.418513 
3428.000000	96.414105 
3427.000000	96.409588 
3426.000000	96.405215 
3425.000000	96.400971 
3424.000000	96.396681 
3423.000000	96.392535 
3422.000000	96.389372 
3421.000000	96.387955 
3420.000000	96.387716 
3419.000000	96.386743 
3418.000000	96.383667 
3417.000000	96.379238 
3416.000000	96.375533 
3415.000000	96.373762 
3414.000000	96.373230 
3413.000000	96.372370 
3412.000000	96.370386 
3411.000000	96.367741 
3410.000000	96.365518 
3409.000000	96.364462 
3408.000000	96.364315 
3407.000000	96.363914 
3406.000000	96.362264 
3405.000000	96.359764 
3404.000000	96.357945 
3403.000000	96.357743 
3402.000000	96.358373 
3401.000000	96.358175 
3400.000000	96.356429 
3399.000000	96.353934 
3398.000000	96.352001 
3397.000000	96.351348 
3396.000000	96.352003 
3395.000000	96.353828 
3394.000000	96.356710 
3393.000000	96.360186 
3392.000000	96.363180 
3391.000000	96.364614 
3390.000000	96.364418 
3389.000000	96.363638 
3388.000000	96.363396 
3387.000000	96.364053 
3386.000000	96.365478 
3385.000000	96.367802 
3384.000000	96.371370 
3383.000000	96.375998 
3382.000000	96.380777 
3381.000000	96.384707 
3380.000000	96.387417 
3379.000000	96.389168 
3378.000000	96.390401 
3377.000000	96.391258 
3376.000000	96.391429 
3375.000000	96.390689 
3374.000000	96.389704 
3373.000000	96.389977 
3372.000000	96.392434 
3371.000000	96.396261 
3370.000000	96.399637 
3369.000000	96.401647 
3368.000000	96.402842 
3367.000000	96.403914 
3366.000000	96.404714 
3365.000000	96.405084 
3364.000000	96.405994 
3363.000000	96.408852 
3362.000000	96.413818 
3361.000000	96.419479 
3360.000000	96.424278 
3359.000000	96.427882 
3358.000000	96.430945 
3357.000000	96.433990 
3356.000000	96.436929 
3355.000000	96.439507 
3354.000000	96.441831 
3353.000000	96.444389 
3352.000000	96.447638 
3351.000000	96.451589 
3350.000000	96.455722 
3349.000000	96.459371 
3348.000000	96.462290 
3347.000000	96.464901 
3346.000000	96.467884 
3345.000000	96.471488 
3344.000000	96.475280 
3343.000000	96.478546 
3342.000000	96.480936 
3341.000000	96.482680 
3340.000000	96.484303 
3339.000000	96.486216 
3338.000000	96.488599 
3337.000000	96.491537 
3336.000000	96.495078 
3335.000000	96.499125 
3334.000000	96.503383 
3333.000000	96.507460 
3332.000000	96.511027 
3331.000000	96.513893 
3330.000000	96.516049 
3329.000000	96.517787 
3328.000000	96.519719 
3327.000000	96.522455 
3326.000000	96.526129 
3325.000000	96.530239 
3324.000000	96.534070 
3323.000000	96.537364 
3322.000000	96.540495 
3321.000000	96.543993 
3320.000000	96.548014 
3319.000000	96.552277 
3318.000000	96.556378 
3317.000000	96.560086 
3316.000000	96.563422 
3315.000000	96.566622 
3314.000000	96.570028 
3313.000000	96.573837 
3312.000000	96.577851 
3311.000000	96.581607 
3310.000000	96.584876 
3309.000000	96.587919 
3308.000000	96.591139 
3307.000000	96.594531 
3306.000000	96.597697 
3305.000000	96.600408 
3304.000000	96.602933 
3303.000000	96.605785 
3302.000000	96.609210 
3301.000000	96.613034 
3300.000000	96.616890 
3299.000000	96.620532 
3298.000000	96.623953 
3297.000000	96.627268 
3296.000000	96.630578 
3295.000000	96.633947 
3294.000000	96.637445 
3293.000000	96.641121 
3292.000000	96.644875 
3291.000000	96.648444 
3290.000000	96.651635 
3289.000000	96.654549 
3288.000000	96.657515 
3287.000000	96.660768 
3286.000000	96.664261 
3285.000000	96.667803 
3284.000000	96.671294 
3283.000000	96.674783 
3282.000000	96.678358 
3281.000000	96.682056 
3280.000000	96.685851 
3279.000000	96.689743 
3278.000000	96.693820 
3277.000000	96.698130 
3276.000000	96.702442 
3275.000000	96.706232 
3274.000000	96.709111 
3273.000000	96.711228 
3272.000000	96.713192 
3271.000000	96.715564 
3270.000000	96.718563 
3269.000000	96.722218 
3268.000000	96.726533 
3267.000000	96.731356 
3266.000000	96.736258 
3265.000000	96.740773 
3264.000000	96.744727 
3263.000000	96.748246 
3262.000000	96.751494 
3261.000000	96.754538 
3260.000000	96.757414 
3259.000000	96.760247 
3258.000000	96.763303 
3257.000000	96.766900 
3256.000000	96.771130 
3255.000000	96.775640 
3254.000000	96.779841 
3253.000000	96.783479 
3252.000000	96.786898 
3251.000000	96.790616 
3250.000000	96.794765 
3249.000000	96.799100 
3248.000000	96.803415 
3247.000000	96.807727 
3246.000000	96.812027 
3245.000000	96.816153 
3244.000000	96.820034 
3243.000000	96.823912 
3242.000000	96.828171 
3241.000000	96.832989 
3240.000000	96.838173 
3239.000000	96.843323 
3238.000000	96.848136 
3237.000000	96.852635 
3236.000000	96.857121 
3235.000000	96.861870 
3234.000000	96.866793 
3233.000000	96.871473 
3232.000000	96.875641 
3231.000000	96.879505 
3230.000000	96.883554 
3229.000000	96.888007 
3228.000000	96.892624 
3227.000000	96.897101 
3226.000000	96.901487 
3225.000000	96.906086 
3224.000000	96.911035 
3223.000000	96.916139 
3222.000000	96.921068 
3221.000000	96.925647 
3220.000000	96.929957 
3219.000000	96.934281 
3218.000000	96.938918 
3217.000000	96.943963 
3216.000000	96.949245 
3215.000000	96.954480 
3214.000000	96.959533 
3213.000000	96.964485 
3212.000000	96.969466 
3211.000000	96.974510 
3210.000000	96.979572 
3209.000000	96.984597 
3208.000000	96.989514 
3207.000000	96.994254 
3206.000000	96.998861 
3205.000000	97.003557 
3204.000000	97.008586 
3203.000000	97.013967 
3202.000000	97.019493 
3201.000000	97.024951 
3200.000000	97.030292 
3199.000000	97.035527 
3198.000000	97.040598 
3197.000000	97.045433 
3196.000000	97.050102 
3195.000000	97.054840 
3194.000000	97.059864 
3193.000000	97.065212 
3192.000000	97.070753 
3191.000000	97.076306 
3190.000000	97.081809 
3189.000000	97.087356 
3188.000000	97.093029 
3187.000000	97.098693 
3186.000000	97.104035 
3185.000000	97.108939 
3184.000000	97.113751 
3183.000000	97.119040 
3182.000000	97.125011 
3181.000000	97.131278 
3180.000000	97.137235 
3179.000000	97.142655 
3178.000000	97.147772 
3177.000000	97.152936 
3176.000000	97.158267 
3175.000000	97.163655 
3174.000000	97.168872 
3173.000000	97.173680 
3172.000000	97.178044 
3171.000000	97.182313 
3170.000000	97.187009 
3169.000000	97.192327 
3168.000000	97.197975 
3167.000000	97.203543 
3166.000000	97.208925 
3165.000000	97.214318 
3164.000000	97.219887 
3163.000000	97.225593 
3162.000000	97.231256 
3161.000000	97.236708 
3160.000000	97.241956 
3159.000000	97.247264 
3158.000000	97.252956 
3157.000000	97.258996 
3156.000000	97.264825 
3155.000000	97.269850 
3154.000000	97.274085 
3153.000000	97.278192 
3152.000000	97.282787 
3151.000000	97.287797 
3150.000000	97.292581 
3149.000000	97.296657 
3148.000000	97.300270 
3147.000000	97.304263 
3146.000000	97.309338 
3145.000000	97.315504 
3144.000000	97.322202 
3143.000000	97.328957 
3142.000000	97.335743 
3141.000000	97.342607 
3140.000000	97.349131 
3139.000000	97.354664 
3138.000000	97.359095 
3137.000000	97.363049 
3136.000000	97.367348 
3135.000000	97.372315 
3134.000000	97.377709 
3133.000000	97.383053 
3132.000000	97.387916 
3131.000000	97.392079 
3130.000000	97.395746 
3129.000000	97.399565 
3128.000000	97.404191 
3127.000000	97.409761 
3126.000000	97.415833 
3125.000000	97.421752 
3124.000000	97.427113 
3123.000000	97.431928 
3122.000000	97.436461 
3121.000000	97.440927 
3120.000000	97.445327 
3119.000000	97.449565 
3118.000000	97.453692 
3117.000000	97.457935 
3116.000000	97.462446 
3115.000000	97.467151 
3114.000000	97.471894 
3113.000000	97.476655 
3112.000000	97.481525 
3111.000000	97.486510 
3110.000000	97.491467 
3109.000000	97.496178 
3108.000000	97.500451 
3107.000000	97.504221 
3106.000000	97.507687 
3105.000000	97.511265 
3104.000000	97.515224 
3103.000000	97.519460 
3102.000000	97.523714 
3101.000000	97.527990 
3100.000000	97.532541 
3099.000000	97.537393 
3098.000000	97.542134 
3097.000000	97.546333 
3096.000000	97.550051 
3095.000000	97.553822 
3094.000000	97.558124 
3093.000000	97.562948 
3092.000000	97.567796 
3091.000000	97.572056 
3090.000000	97.575443 
3089.000000	97.578225 
3088.000000	97.581101 
3087.000000	97.584683 
3086.000000	97.589077 
3085.000000	97.593897 
3084.000000	97.598582 
3083.000000	97.602737 
3082.000000	97.606272 
3081.000000	97.609493 
3080.000000	97.613021 
3079.000000	97.617321 
3078.000000	97.622119 
3077.000000	97.626453 
3076.000000	97.629540 
3075.000000	97.631509 
3074.000000	97.633263 
3073.000000	97.635567 
3072.000000	97.638463 
3071.000000	97.641603 
3070.000000	97.644847 
3069.000000	97.648268 
3068.000000	97.651608 
3067.000000	97.654220 
3066.000000	97.655938 
3065.000000	97.657785 
3064.000000	97.661162 
3063.000000	97.666118 
3062.000000	97.670943 
3061.000000	97.674015 
3060.000000	97.675758 
3059.000000	97.678184 
3058.000000	97.682366 
3057.000000	97.686928 
3056.000000	97.689489 
3055.000000	97.689261 
3054.000000	97.687790 
3053.000000	97.687246 
3052.000000	97.688440 
3051.000000	97.690726 
3050.000000	97.693289 
3049.000000	97.695999 
3048.000000	97.699104 
3047.000000	97.702623 
3046.000000	97.706317 
3045.000000	97.709962 
3044.000000	97.713505 
3043.000000	97.717028 
3042.000000	97.720454 
3041.000000	97.723175 
3040.000000	97.724217 
3039.000000	97.723393 
3038.000000	97.722070 
3037.000000	97.722011 
3036.000000	97.723286 
3035.000000	97.724225 
3034.000000	97.723844 
3033.000000	97.723306 
3032.000000	97.724044 
3031.000000	97.725230 
3030.000000	97.724502 
3029.000000	97.721084 
3028.000000	97.716933 
3027.000000	97.714603 
3026.000000	97.714681 
3025.000000	97.715713 
3024.000000	97.715981 
3023.000000	97.714905 
3022.000000	97.713119 
3021.000000	97.711670 
3020.000000	97.710937 
3019.000000	97.710181 
3018.000000	97.708321 
3017.000000	97.705121 
3016.000000	97.701230 
3015.000000	97.697194 
3014.000000	97.693010 
3013.000000	97.688612 
3012.000000	97.684078 
3011.000000	97.679203 
3010.000000	97.673638 
3009.000000	97.667744 
3008.000000	97.662583 
3007.000000	97.658700 
3006.000000	97.655532 
3005.000000	97.652440 
3004.000000	97.649610 
3003.000000	97.647214 
3002.000000	97.644342 
3001.000000	97.639821 
3000.000000	97.634062 
2999.000000	97.629171 
2998.000000	97.626948 
2997.000000	97.627335 
2996.000000	97.628817 
2995.000000	97.629665 
2994.000000	97.628394 
2993.000000	97.623711 
2992.000000	97.615194 
2991.000000	97.604358 
2990.000000	97.594443 
2989.000000	97.588424 
2988.000000	97.587098 
2987.000000	97.589108 
2986.000000	97.592473 
2985.000000	97.595940 
2984.000000	97.599262 
2983.000000	97.602910 
2982.000000	97.607582 
2981.000000	97.613324 
2980.000000	97.618904 
2979.000000	97.622642 
2978.000000	97.624166 
2977.000000	97.624681 
2976.000000	97.625183 
2975.000000	97.625217 
2974.000000	97.624308 
2973.000000	97.623908 
2972.000000	97.626574 
2971.000000	97.633170 
2970.000000	97.641833 
2969.000000	97.649818 
2968.000000	97.655756 
2967.000000	97.660161 
2966.000000	97.664669 
2965.000000	97.671111 
2964.000000	97.680298 
2963.000000	97.691025 
2962.000000	97.700684 
2961.000000	97.707466 
2960.000000	97.711716 
2959.000000	97.715144 
2958.000000	97.719347 
2957.000000	97.725312 
2956.000000	97.733335 
2955.000000	97.742472 
2954.000000	97.750539 
2953.000000	97.755703 
2952.000000	97.758206 
2951.000000	97.760120 
2950.000000	97.763372 
2949.000000	97.768256 
2948.000000	97.773714 
2947.000000	97.778509 
2946.000000	97.782124 
2945.000000	97.784891 
2944.000000	97.787408 
2943.000000	97.789766 
2942.000000	97.791461 
2941.000000	97.792206 
2940.000000	97.792587 
2939.000000	97.793607 
2938.000000	97.795664 
2937.000000	97.798373 
2936.000000	97.801385 
2935.000000	97.805024 
2934.000000	97.809878 
2933.000000	97.815810 
2932.000000	97.821441 
2931.000000	97.824765 
2930.000000	97.824594 
2929.000000	97.821654 
2928.000000	97.818376 
2927.000000	97.817211 
2926.000000	97.818970 
2925.000000	97.822627 
2924.000000	97.826440 
2923.000000	97.829256 
2922.000000	97.831062 
2921.000000	97.832555 
2920.000000	97.834138 
2919.000000	97.835260 
2918.000000	97.834980 
2917.000000	97.833323 
2916.000000	97.831784 
2915.000000	97.832051 
2914.000000	97.834302 
2913.000000	97.837142 
2912.000000	97.839193 
2911.000000	97.840470 
2910.000000	97.842054 
2909.000000	97.844776 
2908.000000	97.848511 
2907.000000	97.852395 
2906.000000	97.855335 
2905.000000	97.856392 
2904.000000	97.855307 
2903.000000	97.853110 
2902.000000	97.852033 
2901.000000	97.853957 
2900.000000	97.859368 
2899.000000	97.866857 
2898.000000	97.874192 
2897.000000	97.879744 
2896.000000	97.883139 
2895.000000	97.885041 
2894.000000	97.886583 
2893.000000	97.888677 
2892.000000	97.891486 
2891.000000	97.894464 
2890.000000	97.896994 
2889.000000	97.898932 
2888.000000	97.900521 
2887.000000	97.902029 
2886.000000	97.903742 
2885.000000	97.906159 
2884.000000	97.909782 
2883.000000	97.914636 
2882.000000	97.920204 
2881.000000	97.925918 
2880.000000	97.931619 
2879.000000	97.937665 
2878.000000	97.944624 
2877.000000	97.952618 
2876.000000	97.960834 
2875.000000	97.968014 
2874.000000	97.973730 
2873.000000	97.978834 
2872.000000	97.984180 
2871.000000	97.989152 
2870.000000	97.992185 
2869.000000	97.992789 
2868.000000	97.992526 
2867.000000	97.993764 
2866.000000	97.997766 
2865.000000	98.004150 
2864.000000	98.011617 
2863.000000	98.018920 
2862.000000	98.025492 
2861.000000	98.031573 
2860.000000	98.037761 
2859.000000	98.044336 
2858.000000	98.050969 
2857.000000	98.056970 
2856.000000	98.061646 
2855.000000	98.064661 
2854.000000	98.066484 
2853.000000	98.068315 
2852.000000	98.071022 
2851.000000	98.074152 
2850.000000	98.076494 
2849.000000	98.077603 
2848.000000	98.078377 
2847.000000	98.080261 
2846.000000	98.084299 
2845.000000	98.090771 
2844.000000	98.098905 
2843.000000	98.106844 
2842.000000	98.112755 
2841.000000	98.116343 
2840.000000	98.118750 
2839.000000	98.120874 
2838.000000	98.122455 
2837.000000	98.123193 
2836.000000	98.123797 
2835.000000	98.125175 
2834.000000	98.127235 
2833.000000	98.129384 
2832.000000	98.131662 
2831.000000	98.134366 
2830.000000	98.136896 
2829.000000	98.138153 
2828.000000	98.138202 
2827.000000	98.138553 
2826.000000	98.140430 
2825.000000	98.143471 
2824.000000	98.146600 
2823.000000	98.149497 
2822.000000	98.152602 
2821.000000	98.155976 
2820.000000	98.158842 
2819.000000	98.160396 
2818.000000	98.160679 
2817.000000	98.160551 
2816.000000	98.160951 
2815.000000	98.162255 
2814.000000	98.164292 
2813.000000	98.166747 
2812.000000	98.169396 
2811.000000	98.172009 
2810.000000	98.174241 
2809.000000	98.175833 
2808.000000	98.176929 
2807.000000	98.178042 
2806.000000	98.179603 
2805.000000	98.181504 
2804.000000	98.183132 
2803.000000	98.183980 
2802.000000	98.184245 
2801.000000	98.184681 
2800.000000	98.185817 
2799.000000	98.187491 
2798.000000	98.189235 
2797.000000	98.190854 
2796.000000	98.192474 
2795.000000	98.194172 
2794.000000	98.195818 
2793.000000	98.197290 
2792.000000	98.198656 
2791.000000	98.200038 
2790.000000	98.201400 
2789.000000	98.202599 
2788.000000	98.203580 
2787.000000	98.204413 
2786.000000	98.205209 
2785.000000	98.206126 
2784.000000	98.207354 
2783.000000	98.208923 
2782.000000	98.210553 
2781.000000	98.211891 
2780.000000	98.212941 
2779.000000	98.214092 
2778.000000	98.215665 
2777.000000	98.217573 
2776.000000	98.219442 
2775.000000	98.220977 
2774.000000	98.222146 
2773.000000	98.223115 
2772.000000	98.224139 
2771.000000	98.225415 
2770.000000	98.226926 
2769.000000	98.228426 
2768.000000	98.229645 
2767.000000	98.230524 
2766.000000	98.231184 
2765.000000	98.231729 
2764.000000	98.232175 
2763.000000	98.232601 
2762.000000	98.233270 
2761.000000	98.234454 
2760.000000	98.236122 
2759.000000	98.237845 
2758.000000	98.239135 
2757.000000	98.239944 
2756.000000	98.240705 
2755.000000	98.241853 
2754.000000	98.243378 
2753.000000	98.244937 
2752.000000	98.246311 
2751.000000	98.247618 
2750.000000	98.249007 
2749.000000	98.250366 
2748.000000	98.251467 
2747.000000	98.252298 
2746.000000	98.253095 
2745.000000	98.254064 
2744.000000	98.255191 
2743.000000	98.256380 
2742.000000	98.257576 
2741.000000	98.258697 
2740.000000	98.259588 
2739.000000	98.260191 
2738.000000	98.260717 
2737.000000	98.261479 
2736.000000	98.262520 
2735.000000	98.263558 
2734.000000	98.264322 
2733.000000	98.264859 
2732.000000	98.265438 
2731.000000	98.266234 
2730.000000	98.267191 
2729.000000	98.268184 
2728.000000	98.269166 
2727.000000	98.270136 
2726.000000	98.271042 
2725.000000	98.271823 
2724.000000	98.272533 
2723.000000	98.273346 
2722.000000	98.274412 
2721.000000	98.275663 
2720.000000	98.276788 
2719.000000	98.277476 
2718.000000	98.277748 
2717.000000	98.278029 
2716.000000	98.278708 
2715.000000	98.279646 
2714.000000	98.280236 
2713.000000	98.280075 
2712.000000	98.279495 
2711.000000	98.279284 
2710.000000	98.279814 
2709.000000	98.280734 
2708.000000	98.281540 
2707.000000	98.282250 
2706.000000	98.283219 
2705.000000	98.284409 
2704.000000	98.285311 
2703.000000	98.285749 
2702.000000	98.286347 
2701.000000	98.287782 
2700.000000	98.289736 
2699.000000	98.291105 
2698.000000	98.291344 
2697.000000	98.291141 
2696.000000	98.291530 
2695.000000	98.292695 
2694.000000	98.293989 
2693.000000	98.294767 
2692.000000	98.294726 
2691.000000	98.293765 
2690.000000	98.292181 
2689.000000	98.290834 
2688.000000	98.290443 
2687.000000	98.290750 
2686.000000	98.291007 
2685.000000	98.291267 
2684.000000	98.292415 
2683.000000	98.294699 
2682.000000	98.296962 
2681.000000	98.297791 
2680.000000	98.296886 
2679.000000	98.294953 
2678.000000	98.292825 
2677.000000	98.291217 
2676.000000	98.290845 
2675.000000	98.291972 
2674.000000	98.293844 
2673.000000	98.295151 
2672.000000	98.295170 
2671.000000	98.294255 
2670.000000	98.293349 
2669.000000	98.293191 
2668.000000	98.293744 
2667.000000	98.294074 
2666.000000	98.292937 
2665.000000	98.289798 
2664.000000	98.285207 
2663.000000	98.279978 
2662.000000	98.274312 
2661.000000	98.268184 
2660.000000	98.262366 
2659.000000	98.258285 
2658.000000	98.256623 
2657.000000	98.256509 
2656.000000	98.256301 
2655.000000	98.254942 
2654.000000	98.252445 
2653.000000	98.249501 
2652.000000	98.247083 
2651.000000	98.246075 
2650.000000	98.246557 
2649.000000	98.247255 
2648.000000	98.246339 
2647.000000	98.243336 
2646.000000	98.239988 
2645.000000	98.238673 
2644.000000	98.240100 
2643.000000	98.242875 
2642.000000	98.245060 
2641.000000	98.245800 
2640.000000	98.245372 
2639.000000	98.244378 
2638.000000	98.243397 
2637.000000	98.242972 
2636.000000	98.243354 
2635.000000	98.244326 
2634.000000	98.245524 
2633.000000	98.246794 
2632.000000	98.247995 
2631.000000	98.248746 
2630.000000	98.248748 
2629.000000	98.248234 
2628.000000	98.247809 
2627.000000	98.247907 
2626.000000	98.248543 
2625.000000	98.249409 
2624.000000	98.250061 
2623.000000	98.250284 
2622.000000	98.250446 
2621.000000	98.251236 
2620.000000	98.252827 
2619.000000	98.254546 
2618.000000	98.255584 
2617.000000	98.255771 
2616.000000	98.255451 
2615.000000	98.254964 
2614.000000	98.254590 
2613.000000	98.254690 
2612.000000	98.255471 
2611.000000	98.256735 
2610.000000	98.258110 
2609.000000	98.259385 
2608.000000	98.260459 
2607.000000	98.261178 
2606.000000	98.261559 
2605.000000	98.262002 
2604.000000	98.262953 
2603.000000	98.264401 
2602.000000	98.265971 
2601.000000	98.267316 
2600.000000	98.268385 
2599.000000	98.269296 
2598.000000	98.270188 
2597.000000	98.271170 
2596.000000	98.272289 
2595.000000	98.273503 
2594.000000	98.274709 
2593.000000	98.275831 
2592.000000	98.276882 
2591.000000	98.277912 
2590.000000	98.278971 
2589.000000	98.280123 
2588.000000	98.281451 
2587.000000	98.282967 
2586.000000	98.284540 
2585.000000	98.285978 
2584.000000	98.287176 
2583.000000	98.288162 
2582.000000	98.289021 
2581.000000	98.289831 
2580.000000	98.290651 
2579.000000	98.291543 
2578.000000	98.292598 
2577.000000	98.293892 
2576.000000	98.295344 
2575.000000	98.296698 
2574.000000	98.297791 
2573.000000	98.298749 
2572.000000	98.299794 
2571.000000	98.300898 
2570.000000	98.301866 
2569.000000	98.302775 
2568.000000	98.303966 
2567.000000	98.305553 
2566.000000	98.307183 
2565.000000	98.308424 
2564.000000	98.309255 
2563.000000	98.309958 
2562.000000	98.310731 
2561.000000	98.311616 
2560.000000	98.312689 
2559.000000	98.313964 
2558.000000	98.315248 
2557.000000	98.316429 
2556.000000	98.317770 
2555.000000	98.319428 
2554.000000	98.320886 
2553.000000	98.321527 
2552.000000	98.321609 
2551.000000	98.321956 
2550.000000	98.322792 
2549.000000	98.323592 
2548.000000	98.324021 
2547.000000	98.324316 
2546.000000	98.324730 
2545.000000	98.325145 
2544.000000	98.325403 
2543.000000	98.325621 
2542.000000	98.326053 
2541.000000	98.326855 
2540.000000	98.327968 
2539.000000	98.328996 
2538.000000	98.329324 
2537.000000	98.328710 
2536.000000	98.327731 
2535.000000	98.327313 
2534.000000	98.327836 
2533.000000	98.329042 
2532.000000	98.330544 
2531.000000	98.331971 
2530.000000	98.332773 
2529.000000	98.332512 
2528.000000	98.331445 
2527.000000	98.330386 
2526.000000	98.329789 
2525.000000	98.329403 
2524.000000	98.328941 
2523.000000	98.328575 
2522.000000	98.328585 
2521.000000	98.328936 
2520.000000	98.329529 
2519.000000	98.330440 
2518.000000	98.331596 
2517.000000	98.332612 
2516.000000	98.333303 
2515.000000	98.334148 
2514.000000	98.335925 
2513.000000	98.338812 
2512.000000	98.341855 
2511.000000	98.343498 
2510.000000	98.342871 
2509.000000	98.340636 
2508.000000	98.338553 
2507.000000	98.337763 
2506.000000	98.337815 
2505.000000	98.337679 
2504.000000	98.337244 
2503.000000	98.337195 
2502.000000	98.337679 
2501.000000	98.337993 
2500.000000	98.337755 
2499.000000	98.337658 
2498.000000	98.338686 
2497.000000	98.340980 
2496.000000	98.343673 
2495.000000	98.345534 
2494.000000	98.345889 
2493.000000	98.345309 
2492.000000	98.345414 
2491.000000	98.347465 
2490.000000	98.351028 
2489.000000	98.354348 
2488.000000	98.356163 
2487.000000	98.356748 
2486.000000	98.357197 
2485.000000	98.358129 
2484.000000	98.359146 
2483.000000	98.359239 
2482.000000	98.357687 
2481.000000	98.354984 
2480.000000	98.352919 
2479.000000	98.353168 
2478.000000	98.355772 
2477.000000	98.359219 
2476.000000	98.361900 
2475.000000	98.363116 
2474.000000	98.362838 
2473.000000	98.361349 
2472.000000	98.359258 
2471.000000	98.357230 
2470.000000	98.355457 
2469.000000	98.353833 
2468.000000	98.352600 
2467.000000	98.352091 
2466.000000	98.351807 
2465.000000	98.350674 
2464.000000	98.348592 
2463.000000	98.346950 
2462.000000	98.347082 
2461.000000	98.348674 
2460.000000	98.350068 
2459.000000	98.349886 
2458.000000	98.348102 
2457.000000	98.345863 
2456.000000	98.344548 
2455.000000	98.344707 
2454.000000	98.345641 
2453.000000	98.346160 
2452.000000	98.345867 
2451.000000	98.345458 
2450.000000	98.345736 
2449.000000	98.346850 
2448.000000	98.348549 
2447.000000	98.350648 
2446.000000	98.352915 
2445.000000	98.354816 
2444.000000	98.355850 
2443.000000	98.356063 
2442.000000	98.356002 
2441.000000	98.356193 
2440.000000	98.356714 
2439.000000	98.357175 
2438.000000	98.357061 
2437.000000	98.356172 
2436.000000	98.354808 
2435.000000	98.353544 
2434.000000	98.352902 
2433.000000	98.353307 
2432.000000	98.354976 
2431.000000	98.357569 
2430.000000	98.360109 
2429.000000	98.361620 
2428.000000	98.361919 
2427.000000	98.361683 
2426.000000	98.361801 
2425.000000	98.362717 
2424.000000	98.364260 
2423.000000	98.365893 
2422.000000	98.367208 
2421.000000	98.368315 
2420.000000	98.369649 
2419.000000	98.371292 
2418.000000	98.372669 
2417.000000	98.373173 
2416.000000	98.372936 
2415.000000	98.372780 
2414.000000	98.373418 
2413.000000	98.374946 
2412.000000	98.376968 
2411.000000	98.378926 
2410.000000	98.380346 
2409.000000	98.381062 
2408.000000	98.381238 
2407.000000	98.381079 
2406.000000	98.380635 
2405.000000	98.379973 
2404.000000	98.379409 
2403.000000	98.379277 
2402.000000	98.379542 
2401.000000	98.379873 
2400.000000	98.380084 
2399.000000	98.380352 
2398.000000	98.380967 
2397.000000	98.381988 
2396.000000	98.383079 
2395.000000	98.383679 
2394.000000	98.383521 
2393.000000	98.383050 
2392.000000	98.383075 
2391.000000	98.383843 
2390.000000	98.384677 
2389.000000	98.384722 
2388.000000	98.383883 
2387.000000	98.382902 
2386.000000	98.382743 
2385.000000	98.383954 
2384.000000	98.386246 
2383.000000	98.388389 
2382.000000	98.389015 
2381.000000	98.387815 
2380.000000	98.385870 
2379.000000	98.384499 
2378.000000	98.383918 
2377.000000	98.383397 
2376.000000	98.382354 
2375.000000	98.380895 
2374.000000	98.379504 
2373.000000	98.378610 
2372.000000	98.378262 
2371.000000	98.377891 
2370.000000	98.376734 
2369.000000	98.374878 
2368.000000	98.373224 
2367.000000	98.372329 
2366.000000	98.371849 
2365.000000	98.371157 
2364.000000	98.369893 
2363.000000	98.367806 
2362.000000	98.364699 
2361.000000	98.360845 
2360.000000	98.357327 
2359.000000	98.355099 
2358.000000	98.353912 
2357.000000	98.352935 
2356.000000	98.351773 
2355.000000	98.350541 
2354.000000	98.348974 
2353.000000	98.346780 
2352.000000	98.344407 
2351.000000	98.342331 
2350.000000	98.340323 
2349.000000	98.337721 
2348.000000	98.334423 
2347.000000	98.330916 
2346.000000	98.327581 
2345.000000	98.324954 
2344.000000	98.323553 
2343.000000	98.323299 
2342.000000	98.322635 
2341.000000	98.319926 
2340.000000	98.315487 
2339.000000	98.311189 
2338.000000	98.308420 
2337.000000	98.306577 
2336.000000	98.304250 
2335.000000	98.300732 
2334.000000	98.296931 
2333.000000	98.294504 
2332.000000	98.294893 
2331.000000	98.297502 
2330.000000	98.299906 
2329.000000	98.298890 
2328.000000	98.292626 
2327.000000	98.280961 
2326.000000	98.265604 
2325.000000	98.250580 
2324.000000	98.240781 
2323.000000	98.239006 
2322.000000	98.243673 
2321.000000	98.250154 
2320.000000	98.255123 
2319.000000	98.258250 
2318.000000	98.260539 
2317.000000	98.262087 
2316.000000	98.262756 
2315.000000	98.262417 
2314.000000	98.261276 
2313.000000	98.259302 
2312.000000	98.256896 
2311.000000	98.254491 
2310.000000	98.252593 
2309.000000	98.251677 
2308.000000	98.252584 
2307.000000	98.255519 
2306.000000	98.259482 
2305.000000	98.262819 
2304.000000	98.264712 
2303.000000	98.264999 
2302.000000	98.263619 
2301.000000	98.260751 
2300.000000	98.257787 
2299.000000	98.256246 
2298.000000	98.256298 
2297.000000	98.256781 
2296.000000	98.256866 
2295.000000	98.256002 
2294.000000	98.252910 
2293.000000	98.246335 
2292.000000	98.237304 
2291.000000	98.228934 
2290.000000	98.223294 
2289.000000	98.219800 
2288.000000	98.216948 
2287.000000	98.214384 
2286.000000	98.212671 
2285.000000	98.212544 
2284.000000	98.214965 
2283.000000	98.220650 
2282.000000	98.228775 
2281.000000	98.237340 
2280.000000	98.245078 
2279.000000	98.251763 
2278.000000	98.256537 
2277.000000	98.258255 
2276.000000	98.258250 
2275.000000	98.260144 
2274.000000	98.265589 
2273.000000	98.272051 
2272.000000	98.276230 
2271.000000	98.278214 
2270.000000	98.280806 
2269.000000	98.285730 
2268.000000	98.291809 
2267.000000	98.296466 
2266.000000	98.298290 
2265.000000	98.298420 
2264.000000	98.299510 
2263.000000	98.302764 
2262.000000	98.306216 
2261.000000	98.306772 
2260.000000	98.303613 
2259.000000	98.298862 
2258.000000	98.295291 
2257.000000	98.294291 
2256.000000	98.295845 
2255.000000	98.299148 
2254.000000	98.303102 
2253.000000	98.307030 
2252.000000	98.311002 
2251.000000	98.314962 
2250.000000	98.318041 
2249.000000	98.319464 
2248.000000	98.319693 
2247.000000	98.319784 
2246.000000	98.320241 
2245.000000	98.321026 
2244.000000	98.322234 
2243.000000	98.324039 
2242.000000	98.326263 
2241.000000	98.328497 
2240.000000	98.330603 
2239.000000	98.332775 
2238.000000	98.334963 
2237.000000	98.336569 
2236.000000	98.337078 
2235.000000	98.336804 
2234.000000	98.336832 
2233.000000	98.338110 
2232.000000	98.340807 
2231.000000	98.344313 
2230.000000	98.347543 
2229.000000	98.349568 
2228.000000	98.350112 
2227.000000	98.349511 
2226.000000	98.348199 
2225.000000	98.346654 
2224.000000	98.346020 
2223.000000	98.347535 
2222.000000	98.350819 
2221.000000	98.353620 
2220.000000	98.354055 
2219.000000	98.352854 
2218.000000	98.352642 
2217.000000	98.355144 
2216.000000	98.359780 
2215.000000	98.364818 
2214.000000	98.369142 
2213.000000	98.372617 
2212.000000	98.375142 
2211.000000	98.376179 
2210.000000	98.375643 
2209.000000	98.374878 
2208.000000	98.375868 
2207.000000	98.379211 
2206.000000	98.383558 
2205.000000	98.387480 
2204.000000	98.391184 
2203.000000	98.395567 
2202.000000	98.400297 
2201.000000	98.404006 
2200.000000	98.405475 
2199.000000	98.404106 
2198.000000	98.399923 
2197.000000	98.394222 
2196.000000	98.390073 
2195.000000	98.390087 
2194.000000	98.393428 
2193.000000	98.396342 
2192.000000	98.395558 
2191.000000	98.390348 
2190.000000	98.382226 
2189.000000	98.374145 
2188.000000	98.369213 
2187.000000	98.368897 
2186.000000	98.373147 
2185.000000	98.382570 
2184.000000	98.398117 
2183.000000	98.416858 
2182.000000	98.430928 
2181.000000	98.434402 
2180.000000	98.429738 
2179.000000	98.424163 
2178.000000	98.421425 
2177.000000	98.420991 
2176.000000	98.423437 
2175.000000	98.431050 
2174.000000	98.442641 
2173.000000	98.452380 
2172.000000	98.455491 
2171.000000	98.452095 
2170.000000	98.444854 
2169.000000	98.436105 
2168.000000	98.428021 
2167.000000	98.422350 
2166.000000	98.418382 
2165.000000	98.413244 
2164.000000	98.405790 
2163.000000	98.399608 
2162.000000	98.402526 
2161.000000	98.423969 
2160.000000	98.469702 
2159.000000	98.533494 
2158.000000	98.594313 
2157.000000	98.630893 
2156.000000	98.638749 
2155.000000	98.628370 
2154.000000	98.611816 
2153.000000	98.594971 
2152.000000	98.580409 
2151.000000	98.570326 
2150.000000	98.564424 
2149.000000	98.559524 
2148.000000	98.553996 
2147.000000	98.550188 
2146.000000	98.551094 
2145.000000	98.556925 
2144.000000	98.565828 
2143.000000	98.575289 
2142.000000	98.581535 
2141.000000	98.580299 
2140.000000	98.570437 
2139.000000	98.555905 
2138.000000	98.543320 
2137.000000	98.537820 
2136.000000	98.540420 
2135.000000	98.547443 
2134.000000	98.552643 
2133.000000	98.552112 
2132.000000	98.547499 
2131.000000	98.542903 
2130.000000	98.538951 
2129.000000	98.531923 
2128.000000	98.518733 
2127.000000	98.500752 
2126.000000	98.482381 
2125.000000	98.467420 
2124.000000	98.457316 
2123.000000	98.451548 
2122.000000	98.448589 
2121.000000	98.446664 
2120.000000	98.443904 
2119.000000	98.438097 
2118.000000	98.427669 
2117.000000	98.414062 
2116.000000	98.401896 
2115.000000	98.395464 
2114.000000	98.395676 
2113.000000	98.400485 
2112.000000	98.407781 
2111.000000	98.415525 
2110.000000	98.419875 
2109.000000	98.417275 
2108.000000	98.408734 
2107.000000	98.399421 
2106.000000	98.393523 
2105.000000	98.391124 
2104.000000	98.389982 
2103.000000	98.388345 
2102.000000	98.385759 
2101.000000	98.382954 
2100.000000	98.381627 
2099.000000	98.383391 
2098.000000	98.388766 
2097.000000	98.397563 
2096.000000	98.409113 
2095.000000	98.420686 
2094.000000	98.427320 
2093.000000	98.425687 
2092.000000	98.417472 
2091.000000	98.407736 
2090.000000	98.400218 
2089.000000	98.395256 
2088.000000	98.391486 
2087.000000	98.387696 
2086.000000	98.383508 
2085.000000	98.380113 
2084.000000	98.380079 
2083.000000	98.384810 
2082.000000	98.392245 
2081.000000	98.398276 
2080.000000	98.400752 
2079.000000	98.400774 
2078.000000	98.400413 
2077.000000	98.400807 
2076.000000	98.402244 
2075.000000	98.404395 
2074.000000	98.406167 
2073.000000	98.406594 
2072.000000	98.406324 
2071.000000	98.407409 
2070.000000	98.411300 
2069.000000	98.417540 
2068.000000	98.424287 
2067.000000	98.429492 
2066.000000	98.431874 
2065.000000	98.432080 
2064.000000	98.432859 
2063.000000	98.436609 
2062.000000	98.442637 
2061.000000	98.447875 
2060.000000	98.450145 
2059.000000	98.449719 
2058.000000	98.448389 
2057.000000	98.448636 
2056.000000	98.452810 
2055.000000	98.460511 
2054.000000	98.466692 
2053.000000	98.465222 
2052.000000	98.455243 
2051.000000	98.442637 
2050.000000	98.434909 
2049.000000	98.435850 
2048.000000	98.445410 
2047.000000	98.461415 
2046.000000	98.479940 
2045.000000	98.496146 
2044.000000	98.506874 
2043.000000	98.511800 
2042.000000	98.512088 
2041.000000	98.509992 
2040.000000	98.509549 
2039.000000	98.514659 
2038.000000	98.525883 
2037.000000	98.540810 
2036.000000	98.557121 
2035.000000	98.572973 
2034.000000	98.585373 
2033.000000	98.592339 
2032.000000	98.596238 
2031.000000	98.600446 
2030.000000	98.603478 
2029.000000	98.601922 
2028.000000	98.598273 
2027.000000	98.599124 
2026.000000	98.604992 
2025.000000	98.608397 
2024.000000	98.603910 
2023.000000	98.594684 
2022.000000	98.587381 
2021.000000	98.585019 
2020.000000	98.586515 
2019.000000	98.589260 
2018.000000	98.590313 
2017.000000	98.588645 
2016.000000	98.587734 
2015.000000	98.592641 
2014.000000	98.603949 
2013.000000	98.616942 
2012.000000	98.625833 
2011.000000	98.626615 
2010.000000	98.618569 
2009.000000	98.607407 
2008.000000	98.603124 
2007.000000	98.608225 
2006.000000	98.612107 
2005.000000	98.604450 
2004.000000	98.589646 
2003.000000	98.579344 
2002.000000	98.574717 
2001.000000	98.566915 
2000.000000	98.553268 
1999.000000	98.541392 
1998.000000	98.536029 
1997.000000	98.532537 
1996.000000	98.526566 
1995.000000	98.521294 
1994.000000	98.520040 
1993.000000	98.518928 
1992.000000	98.513210 
1991.000000	98.506270 
1990.000000	98.505506 
1989.000000	98.512286 
1988.000000	98.520548 
1987.000000	98.523374 
1986.000000	98.518689 
1985.000000	98.510060 
1984.000000	98.503169 
1983.000000	98.499994 
1982.000000	98.497093 
1981.000000	98.492613 
1980.000000	98.493363 
1979.000000	98.509167 
1978.000000	98.540022 
1977.000000	98.573838 
1976.000000	98.599455 
1975.000000	98.616123 
1974.000000	98.627180 
1973.000000	98.632484 
1972.000000	98.630617 
1971.000000	98.622728 
1970.000000	98.610657 
1969.000000	98.595330 
1968.000000	98.579715 
1967.000000	98.569523 
1966.000000	98.567747 
1965.000000	98.571438 
1964.000000	98.575917 
1963.000000	98.579450 
1962.000000	98.582787 
1961.000000	98.586696 
1960.000000	98.590458 
1959.000000	98.590994 
1958.000000	98.584383 
1957.000000	98.571188 
1956.000000	98.559172 
1955.000000	98.556367 
1954.000000	98.561373 
1953.000000	98.564318 
1952.000000	98.558304 
1951.000000	98.546178 
1950.000000	98.535268 
1949.000000	98.529436 
1948.000000	98.528125 
1947.000000	98.529426 
1946.000000	98.531285 
1945.000000	98.531921 
1944.000000	98.531068 
1943.000000	98.529505 
1942.000000	98.526555 
1941.000000	98.520354 
1940.000000	98.511291 
1939.000000	98.502637 
1938.000000	98.497206 
1937.000000	98.494989 
1936.000000	98.494275 
1935.000000	98.493640 
1934.000000	98.492213 
1933.000000	98.489184 
1932.000000	98.484559 
1931.000000	98.479503 
1930.000000	98.475006 
1929.000000	98.471195 
1928.000000	98.467986 
1927.000000	98.465433 
1926.000000	98.463282 
1925.000000	98.460795 
1924.000000	98.457477 
1923.000000	98.453738 
1922.000000	98.450214 
1921.000000	98.446920 
1920.000000	98.443523 
1919.000000	98.439773 
1918.000000	98.435500 
1917.000000	98.430802 
1916.000000	98.426443 
1915.000000	98.423233 
1914.000000	98.420848 
1913.000000	98.417962 
1912.000000	98.414088 
1911.000000	98.410539 
1910.000000	98.408371 
1909.000000	98.406527 
1908.000000	98.403185 
1907.000000	98.397734 
1906.000000	98.390699 
1905.000000	98.383106 
1904.000000	98.376585 
1903.000000	98.372461 
1902.000000	98.369694 
1901.000000	98.365775 
1900.000000	98.360376 
1899.000000	98.356156 
1898.000000	98.355205 
1897.000000	98.356176 
1896.000000	98.355935 
1895.000000	98.352808 
1894.000000	98.346954 
1893.000000	98.339608 
1892.000000	98.332864 
1891.000000	98.328611 
1890.000000	98.327199 
1889.000000	98.327816 
1888.000000	98.329956 
1887.000000	98.332492 
1886.000000	98.332234 
1885.000000	98.326506 
1884.000000	98.317293 
1883.000000	98.309946 
1882.000000	98.307061 
1881.000000	98.307038 
1880.000000	98.307866 
1879.000000	98.309047 
1878.000000	98.310108 
1877.000000	98.310345 
1876.000000	98.310655 
1875.000000	98.312624 
1874.000000	98.314879 
1873.000000	98.313803 
1872.000000	98.309134 
1871.000000	98.305055 
1870.000000	98.304284 
1869.000000	98.304715 
1868.000000	98.304876 
1867.000000	98.306999 
1866.000000	98.311537 
1865.000000	98.316076 
1864.000000	98.319865 
1863.000000	98.324819 
1862.000000	98.330910 
1861.000000	98.334294 
1860.000000	98.332768 
1859.000000	98.329602 
1858.000000	98.329071 
1857.000000	98.331793 
1856.000000	98.336597 
1855.000000	98.342942 
1854.000000	98.349520 
1853.000000	98.353965 
1852.000000	98.355899 
1851.000000	98.357749 
1850.000000	98.361835 
1849.000000	98.368498 
1848.000000	98.376981 
1847.000000	98.386418 
1846.000000	98.394951 
1845.000000	98.399947 
1844.000000	98.401208 
1843.000000	98.401545 
1842.000000	98.401718 
1841.000000	98.400160 
1840.000000	98.396405 
1839.000000	98.392260 
1838.000000	98.390123 
1837.000000	98.390599 
1836.000000	98.392898 
1835.000000	98.396099 
1834.000000	98.399165 
1833.000000	98.401130 
1832.000000	98.401258 
1831.000000	98.399426 
1830.000000	98.396908 
1829.000000	98.395575 
1828.000000	98.395926 
1827.000000	98.397487 
1826.000000	98.399296 
1825.000000	98.399753 
1824.000000	98.398427 
1823.000000	98.397098 
1822.000000	98.397315 
1821.000000	98.398707 
1820.000000	98.400661 
1819.000000	98.404216 
1818.000000	98.409674 
1817.000000	98.413751 
1816.000000	98.413296 
1815.000000	98.409632 
1814.000000	98.406402 
1813.000000	98.405034 
1812.000000	98.404558 
1811.000000	98.404789 
1810.000000	98.405583 
1809.000000	98.404797 
1808.000000	98.401650 
1807.000000	98.398493 
1806.000000	98.397012 
1805.000000	98.396148 
1804.000000	98.395061 
1803.000000	98.394972 
1802.000000	98.396578 
1801.000000	98.398090 
1800.000000	98.398103 
1799.000000	98.398134 
1798.000000	98.399265 
1797.000000	98.400204 
1796.000000	98.400516 
1795.000000	98.401963 
1794.000000	98.405417 
1793.000000	98.408445 
1792.000000	98.408594 
1791.000000	98.407939 
1790.000000	98.408577 
1789.000000	98.409064 
1788.000000	98.408329 
1787.000000	98.408146 
1786.000000	98.410304 
1785.000000	98.413386 
1784.000000	98.414986 
1783.000000	98.415220 
1782.000000	98.415969 
1781.000000	98.418596 
1780.000000	98.423049 
1779.000000	98.428447 
1778.000000	98.433270 
1777.000000	98.435947 
1776.000000	98.436041 
1775.000000	98.434515 
1774.000000	98.433354 
1773.000000	98.434437 
1772.000000	98.437519 
1771.000000	98.441705 
1770.000000	98.447337 
1769.000000	98.454078 
1768.000000	98.459541 
1767.000000	98.462037 
1766.000000	98.462478 
1765.000000	98.462097 
1764.000000	98.460611 
1763.000000	98.457937 
1762.000000	98.456716 
1761.000000	98.459635 
1760.000000	98.465310 
1759.000000	98.471114 
1758.000000	98.476066 
1757.000000	98.480372 
1756.000000	98.483586 
1755.000000	98.485402 
1754.000000	98.488211 
1753.000000	98.494822 
1752.000000	98.503647 
1751.000000	98.509184 
1750.000000	98.509898 
1749.000000	98.509021 
1748.000000	98.507285 
1747.000000	98.502757 
1746.000000	98.497064 
1745.000000	98.494574 
1744.000000	98.495067 
1743.000000	98.494184 
1742.000000	98.490466 
1741.000000	98.486159 
1740.000000	98.483024 
1739.000000	98.481329 
1738.000000	98.480732 
1737.000000	98.479791 
1736.000000	98.477502 
1735.000000	98.474644 
1734.000000	98.472243 
1733.000000	98.471062 
1732.000000	98.469581 
1731.000000	98.466273 
1730.000000	98.462435 
1729.000000	98.460711 
1728.000000	98.460815 
1727.000000	98.459417 
1726.000000	98.454828 
1725.000000	98.448574 
1724.000000	98.442880 
1723.000000	98.439255 
1722.000000	98.437551 
1721.000000	98.435639 
1720.000000	98.431844 
1719.000000	98.427249 
1718.000000	98.423925 
1717.000000	98.417946 
1716.000000	98.407770 
1715.000000	98.400267 
1714.000000	98.397102 
1713.000000	98.393215 
1712.000000	98.386957 
1711.000000	98.380803 
1710.000000	98.375834 
1709.000000	98.369791 
1708.000000	98.360918 
1707.000000	98.351200 
1706.000000	98.342243 
1705.000000	98.331684 
1704.000000	98.319082 
1703.000000	98.308984 
1702.000000	98.304184 
1701.000000	98.300022 
1700.000000	98.288711 
1699.000000	98.277916 
1698.000000	98.273057 
1697.000000	98.267285 
1696.000000	98.256074 
1695.000000	98.243569 
1694.000000	98.233054 
1693.000000	98.222346 
1692.000000	98.211017 
1691.000000	98.201015 
1690.000000	98.192959 
1689.000000	98.184917 
1688.000000	98.175112 
1687.000000	98.163955 
1686.000000	98.152078 
1685.000000	98.138081 
1684.000000	98.123209 
1683.000000	98.113881 
1682.000000	98.107884 
1681.000000	98.102227 
1680.000000	98.095758 
1679.000000	98.087820 
1678.000000	98.078058 
1677.000000	98.067588 
1676.000000	98.057923 
1675.000000	98.048479 
1674.000000	98.039033 
1673.000000	98.029841 
1672.000000	98.019051 
1671.000000	98.004235 
1670.000000	97.984836 
1669.000000	97.966797 
1668.000000	97.956656 
1667.000000	97.951517 
1666.000000	97.945383 
1665.000000	97.934543 
1664.000000	97.918739 
1663.000000	97.901150 
1662.000000	97.885543 
1661.000000	97.874526 
1660.000000	97.868271 
1659.000000	97.862808 
1658.000000	97.853918 
1657.000000	97.841302 
1656.000000	97.828186 
1655.000000	97.814422 
1654.000000	97.795382 
1653.000000	97.770762 
1652.000000	97.756272 
1651.000000	97.752282 
1650.000000	97.752367 
1649.000000	97.749601 
1648.000000	97.741387 
1647.000000	97.728557 
1646.000000	97.717085 
1645.000000	97.709577 
1644.000000	97.705516 
1643.000000	97.704527 
1642.000000	97.704488 
1641.000000	97.703561 
1640.000000	97.702704 
1639.000000	97.703379 
1638.000000	97.705051 
1637.000000	97.706118 
1636.000000	97.706837 
1635.000000	97.706431 
1634.000000	97.704777 
1633.000000	97.705153 
1632.000000	97.711752 
1631.000000	97.724302 
1630.000000	97.737359 
1629.000000	97.745832 
1628.000000	97.751159 
1627.000000	97.757045 
1626.000000	97.764255 
1625.000000	97.774084 
1624.000000	97.790003 
1623.000000	97.811429 
1622.000000	97.831425 
1621.000000	97.847073 
1620.000000	97.861565 
1619.000000	97.876845 
1618.000000	97.891673 
1617.000000	97.906723 
1616.000000	97.926565 
1615.000000	97.947717 
1614.000000	97.963520 
1613.000000	97.977630 
1612.000000	97.997751 
1611.000000	98.023224 
1610.000000	98.044334 
1609.000000	98.057920 
1608.000000	98.071182 
1607.000000	98.087271 
1606.000000	98.101672 
1605.000000	98.113566 
1604.000000	98.126955 
1603.000000	98.141879 
1602.000000	98.155144 
1601.000000	98.167455 
1600.000000	98.181482 
1599.000000	98.194754 
1598.000000	98.203138 
1597.000000	98.208897 
1596.000000	98.218453 
1595.000000	98.233060 
1594.000000	98.247433 
1593.000000	98.258639 
1592.000000	98.268805 
1591.000000	98.278560 
1590.000000	98.285499 
1589.000000	98.290611 
1588.000000	98.298489 
1587.000000	98.309607 
1586.000000	98.319331 
1585.000000	98.326171 
1584.000000	98.333788 
1583.000000	98.343336 
1582.000000	98.351820 
1581.000000	98.358844 
1580.000000	98.366472 
1579.000000	98.373161 
1578.000000	98.375274 
1577.000000	98.374604 
1576.000000	98.378244 
1575.000000	98.385782 
1574.000000	98.390286 
1573.000000	98.391589 
1572.000000	98.393196 
1571.000000	98.396989 
1570.000000	98.402323 
1569.000000	98.410278 
1568.000000	98.420848 
1567.000000	98.428850 
1566.000000	98.431905 
1565.000000	98.432989 
1564.000000	98.435140 
1563.000000	98.436789 
1562.000000	98.436217 
1561.000000	98.437989 
1560.000000	98.448209 
1559.000000	98.457856 
1558.000000	98.456073 
1557.000000	98.450439 
1556.000000	98.448969 
1555.000000	98.450444 
1554.000000	98.452188 
1553.000000	98.454623 
1552.000000	98.458537 
1551.000000	98.463295 
1550.000000	98.467631 
1549.000000	98.470998 
1548.000000	98.473698 
1547.000000	98.475792 
1546.000000	98.476684 
1545.000000	98.475874 
1544.000000	98.474662 
1543.000000	98.475353 
1542.000000	98.478224 
1541.000000	98.479918 
1540.000000	98.479615 
1539.000000	98.480197 
1538.000000	98.480020 
1537.000000	98.477596 
1536.000000	98.473746 
1535.000000	98.469904 
1534.000000	98.466943 
1533.000000	98.465213 
1532.000000	98.465042 
1531.000000	98.466477 
1530.000000	98.467851 
1529.000000	98.466248 
1528.000000	98.461364 
1527.000000	98.456384 
1526.000000	98.454115 
1525.000000	98.453273 
1524.000000	98.451514 
1523.000000	98.448979 
1522.000000	98.446754 
1521.000000	98.444478 
1520.000000	98.442129 
1519.000000	98.440295 
1518.000000	98.439187 
1517.000000	98.437954 
1516.000000	98.436376 
1515.000000	98.435353 
1514.000000	98.435534 
1513.000000	98.435589 
1512.000000	98.432923 
1511.000000	98.428350 
1510.000000	98.425158 
1509.000000	98.423702 
1508.000000	98.420290 
1507.000000	98.414953 
1506.000000	98.411016 
1505.000000	98.405705 
1504.000000	98.399078 
1503.000000	98.393371 
1502.000000	98.388666 
1501.000000	98.383713 
1500.000000	98.376913 
1499.000000	98.369175 
1498.000000	98.364167 
1497.000000	98.362375 
1496.000000	98.360098 
1495.000000	98.356914 
1494.000000	98.355036 
1493.000000	98.353922 
1492.000000	98.350812 
1491.000000	98.344153 
1490.000000	98.335281 
1489.000000	98.325903 
1488.000000	98.316741 
1487.000000	98.309619 
1486.000000	98.304647 
1485.000000	98.300361 
1484.000000	98.296505 
1483.000000	98.293095 
1482.000000	98.289530 
1481.000000	98.284642 
1480.000000	98.278523 
1479.000000	98.272912 
1478.000000	98.268620 
1477.000000	98.264119 
1476.000000	98.258432 
1475.000000	98.253736 
1474.000000	98.250334 
1473.000000	98.244369 
1472.000000	98.233638 
1471.000000	98.222795 
1470.000000	98.215496 
1469.000000	98.209887 
1468.000000	98.203131 
1467.000000	98.196002 
1466.000000	98.190885 
1465.000000	98.187242 
1464.000000	98.182673 
1463.000000	98.176595 
1462.000000	98.170149 
1461.000000	98.162648 
1460.000000	98.152710 
1459.000000	98.140813 
1458.000000	98.131799 
1457.000000	98.129050 
1456.000000	98.125894 
1455.000000	98.116972 
1454.000000	98.106218 
1453.000000	98.096132 
1452.000000	98.085585 
1451.000000	98.074552 
1450.000000	98.065744 
1449.000000	98.059349 
1448.000000	98.051280 
1447.000000	98.040307 
1446.000000	98.029717 
1445.000000	98.021719 
1444.000000	98.014771 
1443.000000	98.007003 
1442.000000	97.999837 
1441.000000	97.995474 
1440.000000	97.992301 
1439.000000	97.986812 
1438.000000	97.979961 
1437.000000	97.974793 
1436.000000	97.971184 
1435.000000	97.968503 
1434.000000	97.967943 
1433.000000	97.968136 
1432.000000	97.966407 
1431.000000	97.961814 
1430.000000	97.957874 
1429.000000	97.957697 
1428.000000	97.958734 
1427.000000	97.957933 
1426.000000	97.956447 
1425.000000	97.958657 
1424.000000	97.964205 
1423.000000	97.967523 
1422.000000	97.968215 
1421.000000	97.971062 
1420.000000	97.976538 
1419.000000	97.978892 
1418.000000	97.979504 
1417.000000	97.981693 
1416.000000	97.981732 
1415.000000	97.976938 
1414.000000	97.970175 
1413.000000	97.966303 
1412.000000	97.966175 
1411.000000	97.967776 
1410.000000	97.971847 
1409.000000	97.979336 
1408.000000	97.987672 
1407.000000	97.995213 
1406.000000	98.004498 
1405.000000	98.019625 
1404.000000	98.038930 
1403.000000	98.056838 
1402.000000	98.072792 
1401.000000	98.089707 
1400.000000	98.107649 
1399.000000	98.122535 
1398.000000	98.132077 
1397.000000	98.136929 
1396.000000	98.137818 
1395.000000	98.137211 
1394.000000	98.142206 
1393.000000	98.159247 
1392.000000	98.184780 
1391.000000	98.210129 
1390.000000	98.230445 
1389.000000	98.245700 
1388.000000	98.256514 
1387.000000	98.262750 
1386.000000	98.265985 
1385.000000	98.269698 
1384.000000	98.275720 
1383.000000	98.283235 
1382.000000	98.291526 
1381.000000	98.300930 
1380.000000	98.311608 
1379.000000	98.322223 
1378.000000	98.331256 
1377.000000	98.339286 
1376.000000	98.348235 
1375.000000	98.358761 
1374.000000	98.369968 
1373.000000	98.381070 
1372.000000	98.391176 
1371.000000	98.399257 
1370.000000	98.405136 
1369.000000	98.411399 
1368.000000	98.420388 
1367.000000	98.430574 
1366.000000	98.438802 
1365.000000	98.444256 
1364.000000	98.448894 
1363.000000	98.455260 
1362.000000	98.463963 
1361.000000	98.473506 
1360.000000	98.482322 
1359.000000	98.490003 
1358.000000	98.497217 
1357.000000	98.505471 
1356.000000	98.515284 
1355.000000	98.524840 
1354.000000	98.531794 
1353.000000	98.535826 
1352.000000	98.539000 
1351.000000	98.543663 
1350.000000	98.549241 
1349.000000	98.554492 
1348.000000	98.558460 
1347.000000	98.560414 
1346.000000	98.561040 
1345.000000	98.563172 
1344.000000	98.568790 
1343.000000	98.576002 
1342.000000	98.580891 
1341.000000	98.582066 
1340.000000	98.581559 
1339.000000	98.581477 
1338.000000	98.582411 
1337.000000	98.584998 
1336.000000	98.589893 
1335.000000	98.596442 
1334.000000	98.603273 
1333.000000	98.609793 
1332.000000	98.615466 
1331.000000	98.618422 
1330.000000	98.617204 
1329.000000	98.613745 
1328.000000	98.611585 
1327.000000	98.611259 
1326.000000	98.610223 
1325.000000	98.608077 
1324.000000	98.606953 
1323.000000	98.607424 
1322.000000	98.607666 
1321.000000	98.606729 
1320.000000	98.605818 
1319.000000	98.606192 
1318.000000	98.607826 
1317.000000	98.610041 
1316.000000	98.611984 
1315.000000	98.612645 
1314.000000	98.611905 
1313.000000	98.611113 
1312.000000	98.611422 
1311.000000	98.612309 
1310.000000	98.612972 
1309.000000	98.614052 
1308.000000	98.616382 
1307.000000	98.619026 
1306.000000	98.619922 
1305.000000	98.618925 
1304.000000	98.617406 
1303.000000	98.615908 
1302.000000	98.613877 
1301.000000	98.611381 
1300.000000	98.609382 
1299.000000	98.608602 
1298.000000	98.609355 
1297.000000	98.611903 
1296.000000	98.615757 
1295.000000	98.618860 
1294.000000	98.619196 
1293.000000	98.617097 
1292.000000	98.614843 
1291.000000	98.614040 
1290.000000	98.614142 
1289.000000	98.613472 
1288.000000	98.610940 
1287.000000	98.606677 
1286.000000	98.601682 
1285.000000	98.597158 
1284.000000	98.594144 
1283.000000	98.593548 
1282.000000	98.595669 
1281.000000	98.599146 
1280.000000	98.601332 
1279.000000	98.600617 
1278.000000	98.598459 
1277.000000	98.597738 
1276.000000	98.599311 
1275.000000	98.601422 
1274.000000	98.602652 
1273.000000	98.603678 
1272.000000	98.605544 
1271.000000	98.607856 
1270.000000	98.609711 
1269.000000	98.611133 
1268.000000	98.612495 
1267.000000	98.613639 
1266.000000	98.614523 
1265.000000	98.615249 
1264.000000	98.615121 
1263.000000	98.613564 
1262.000000	98.612274 
1261.000000	98.614081 
1260.000000	98.618822 
1259.000000	98.622423 
1258.000000	98.621918 
1257.000000	98.618901 
1256.000000	98.616596 
1255.000000	98.615800 
1254.000000	98.615561 
1253.000000	98.615704 
1252.000000	98.616419 
1251.000000	98.616668 
1250.000000	98.615416 
1249.000000	98.613655 
1248.000000	98.613265 
1247.000000	98.614540 
1246.000000	98.616547 
1245.000000	98.618542 
1244.000000	98.619535 
1243.000000	98.617976 
1242.000000	98.613928 
1241.000000	98.610384 
1240.000000	98.610202 
1239.000000	98.612277 
1238.000000	98.612711 
1237.000000	98.609369 
1236.000000	98.603398 
1235.000000	98.596489 
1234.000000	98.588609 
1233.000000	98.578918 
1232.000000	98.567498 
1231.000000	98.555397 
1230.000000	98.543374 
1229.000000	98.530456 
1228.000000	98.513449 
1227.000000	98.488578 
1226.000000	98.454625 
1225.000000	98.414210 
1224.000000	98.371047 
1223.000000	98.325991 
1222.000000	98.276610 
1221.000000	98.220512 
1220.000000	98.157785 
1219.000000	98.089647 
1218.000000	98.015925 
1217.000000	97.935106 
1216.000000	97.846680 
1215.000000	97.752321 
1214.000000	97.654472 
1213.000000	97.554521 
1212.000000	97.452495 
1211.000000	97.347626 
1210.000000	97.238583 
1209.000000	97.124210 
1208.000000	97.005074 
1207.000000	96.883757 
1206.000000	96.762836 
1205.000000	96.642944 
1204.000000	96.522878 
1203.000000	96.400668 
1202.000000	96.274716 
1201.000000	96.145193 
1200.000000	96.014394 
1199.000000	95.884436 
1198.000000	95.755022 
1197.000000	95.625052 
1196.000000	95.495461 
1195.000000	95.367561 
1194.000000	95.239000 
1193.000000	95.105157 
1192.000000	94.964846 
1191.000000	94.821145 
1190.000000	94.676169 
1189.000000	94.528896 
1188.000000	94.378912 
1187.000000	94.227925 
1186.000000	94.075995 
1185.000000	93.920426 
1184.000000	93.760405 
1183.000000	93.598771 
1182.000000	93.436993 
1181.000000	93.272377 
1180.000000	93.102603 
1179.000000	92.929050 
1178.000000	92.753021 
1177.000000	92.572276 
1176.000000	92.383833 
1175.000000	92.186968 
1174.000000	91.981553 
1173.000000	91.767393 
1172.000000	91.547256 
1171.000000	91.326512 
1170.000000	91.107564 
1169.000000	90.888803 
1168.000000	90.671485 
1167.000000	90.463877 
1166.000000	90.277578 
1165.000000	90.125030 
1164.000000	90.021556 
1163.000000	89.981696 
1162.000000	90.007825 
1161.000000	90.084735 
1160.000000	90.186045 
1159.000000	90.282239 
1158.000000	90.345221 
1157.000000	90.354771 
1156.000000	90.305491 
1155.000000	90.205707 
1154.000000	90.069220 
1153.000000	89.909727 
1152.000000	89.740230 
1151.000000	89.570294 
1150.000000	89.401920 
1149.000000	89.232990 
1148.000000	89.065070 
1147.000000	88.902144 
1146.000000	88.742342 
1145.000000	88.578725 
1144.000000	88.409123 
1143.000000	88.237824 
1142.000000	88.067047 
1141.000000	87.894730 
1140.000000	87.721599 
1139.000000	87.551613 
1138.000000	87.383621 
1137.000000	87.210957 
1136.000000	87.031288 
1135.000000	86.849039 
1134.000000	86.666814 
1133.000000	86.482694 
1132.000000	86.296872 
1131.000000	86.111883 
1130.000000	85.925312 
1129.000000	85.731924 
1128.000000	85.533789 
1127.000000	85.337963 
1126.000000	85.143268 
1125.000000	84.940848 
1124.000000	84.729329 
1123.000000	84.517264 
1122.000000	84.308407 
1121.000000	84.097365 
1120.000000	83.883192 
1119.000000	83.673928 
1118.000000	83.473035 
1117.000000	83.274338 
1116.000000	83.075127 
1115.000000	82.881592 
1114.000000	82.696763 
1113.000000	82.515852 
1112.000000	82.337564 
1111.000000	82.166253 
1110.000000	81.999384 
1109.000000	81.827265 
1108.000000	81.647925 
1107.000000	81.468402 
1106.000000	81.289026 
1105.000000	81.102404 
1104.000000	80.910729 
1103.000000	80.726701 
1102.000000	80.552977 
1101.000000	80.377852 
1100.000000	80.194958 
1099.000000	80.012431 
1098.000000	79.835299 
1097.000000	79.657746 
1096.000000	79.477475 
1095.000000	79.301373 
1094.000000	79.131769 
1093.000000	78.963141 
1092.000000	78.796526 
1091.000000	78.640418 
1090.000000	78.493884 
1089.000000	78.346634 
1088.000000	78.199330 
1087.000000	78.064772 
1086.000000	77.944899 
1085.000000	77.826103 
1084.000000	77.701782 
1083.000000	77.579941 
1082.000000	77.463936 
1081.000000	77.345502 
1080.000000	77.221791 
1079.000000	77.099581 
1078.000000	76.977846 
1077.000000	76.845694 
1076.000000	76.701248 
1075.000000	76.551756 
1074.000000	76.391628 
1073.000000	76.202399 
1072.000000	75.977987 
1071.000000	75.727580 
1070.000000	75.450169 
1069.000000	75.130561 
1068.000000	74.767175 
1067.000000	74.381025 
1066.000000	73.989449 
1065.000000	73.592040 
1064.000000	73.189818 
1063.000000	72.793779 
1062.000000	72.405350 
1061.000000	72.011988 
1060.000000	71.611402 
1059.000000	71.217833 
1058.000000	70.836140 
1057.000000	70.452229 
1056.000000	70.057041 
1055.000000	69.656248 
1054.000000	69.248649 
1053.000000	68.820479 
1052.000000	68.371311 
1051.000000	67.919841 
1050.000000	67.472248 
1049.000000	67.012603 
1048.000000	66.535582 
1047.000000	66.057981 
1046.000000	65.588621 
1045.000000	65.117024 
1044.000000	64.638907 
1043.000000	64.164014 
1042.000000	63.692373 
1041.000000	63.211211 
1040.000000	62.722928 
1039.000000	62.248351 
1038.000000	61.795157 
1037.000000	61.351433 
1036.000000	60.916546 
1035.000000	60.507633 
1034.000000	60.128579 
1033.000000	59.763882 
1032.000000	59.410329 
1031.000000	59.083472 
1030.000000	58.786141 
1029.000000	58.503164 
1028.000000	58.234382 
1027.000000	57.999011 
1026.000000	57.798188 
1025.000000	57.606664 
1024.000000	57.410605 
1023.000000	57.220695 
1022.000000	57.039938 
1021.000000	56.852652 
1020.000000	56.654582 
1019.000000	56.460938 
1018.000000	56.275044 
1017.000000	56.080955 
1016.000000	55.875396 
1015.000000	55.674853 
1014.000000	55.483373 
1013.000000	55.286082 
1012.000000	55.081907 
1011.000000	54.889339 
1010.000000	54.712352 
1009.000000	54.534485 
1008.000000	54.354417 
1007.000000	54.193444 
1006.000000	54.059874 
1005.000000	53.939861 
1004.000000	53.830597 
1003.000000	53.747845 
1002.000000	53.692705 
1001.000000	53.645739 
1000.000000	53.602259 
999.000000	 53.579326 
998.000000	 53.579972 
997.000000	 53.585030 
996.000000	 53.588390 
995.000000	 53.606118 
994.000000	 53.642687 
993.000000	 53.682432 
992.000000	 53.722200 
991.000000	 53.778345 
990.000000	 53.853575 
989.000000	 53.930903 
988.000000	 54.007919 
987.000000	 54.103008 
986.000000	 54.220329 
985.000000	 54.343146 
984.000000	 54.469320 
983.000000	 54.618766 
982.000000	 54.797796 
981.000000	 54.990273 
980.000000	 55.191851 
979.000000	 55.419132 
978.000000	 55.676788 
977.000000	 55.949191 
976.000000	 56.232406 
975.000000	 56.541468 
974.000000	 56.878161 
973.000000	 57.224218 
972.000000	 57.574153 
971.000000	 57.943019 
970.000000	 58.334529 
969.000000	 58.733039 
968.000000	 59.133560 
967.000000	 59.548345 
966.000000	 59.977416 
965.000000	 60.403750 
964.000000	 60.823908 
963.000000	 61.252577 
962.000000	 61.690771 
961.000000	 62.120121 
960.000000	 62.534872 
959.000000	 62.949565 
958.000000	 63.369040 
957.000000	 63.780309 
956.000000	 64.179972 
955.000000	 64.580045 
954.000000	 64.980120 
953.000000	 65.362265 
952.000000	 65.720133 
951.000000	 66.065948 
950.000000	 66.403569 
949.000000	 66.721857 
948.000000	 67.019696 
947.000000	 67.310117 
946.000000	 67.594145 
945.000000	 67.856981 
944.000000	 68.095248 
943.000000	 68.322116 
942.000000	 68.541450 
941.000000	 68.743304 
940.000000	 68.929409 
939.000000	 69.116225 
938.000000	 69.307841 
937.000000	 69.492431 
936.000000	 69.670344 
935.000000	 69.858612 
934.000000	 70.062527 
933.000000	 70.269403 
932.000000	 70.475004 
931.000000	 70.688613 
930.000000	 70.907312 
929.000000	 71.113458 
928.000000	 71.303510 
927.000000	 71.492151 
926.000000	 71.682451 
925.000000	 71.859479 
924.000000	 72.019261 
923.000000	 72.175763 
922.000000	 72.331967 
921.000000	 72.471581 
920.000000	 72.587690 
919.000000	 72.693582 
918.000000	 72.797536 
917.000000	 72.892971 
916.000000	 72.981739 
915.000000	 73.081667 
914.000000	 73.202844 
913.000000	 73.341491 
912.000000	 73.504605 
911.000000	 73.714310 
910.000000	 73.979193 
909.000000	 74.286085 
908.000000	 74.627123 
907.000000	 75.009242 
906.000000	 75.429971 
905.000000	 75.870801 
904.000000	 76.323387 
903.000000	 76.798280 
902.000000	 77.300214 
901.000000	 77.816988 
900.000000	 78.337633 
899.000000	 78.859387 
898.000000	 79.373115 
897.000000	 79.865584 
896.000000	 80.339414 
895.000000	 80.808610 
894.000000	 81.272235 
893.000000	 81.715121 
892.000000	 82.135747 
891.000000	 82.548614 
890.000000	 82.955745 
889.000000	 83.340243 
888.000000	 83.693058 
887.000000	 84.023576 
886.000000	 84.339592 
885.000000	 84.639214 
884.000000	 84.927386 
883.000000	 85.217490 
882.000000	 85.510327 
881.000000	 85.793573 
880.000000	 86.067998 
879.000000	 86.351749 
878.000000	 86.652148 
877.000000	 86.956167 
876.000000	 87.256105 
875.000000	 87.562204 
874.000000	 87.883203 
873.000000	 88.216188 
872.000000	 88.561415 
871.000000	 88.925234 
870.000000	 89.302562 
869.000000	 89.677213 
868.000000	 90.044578 
867.000000	 90.414603 
866.000000	 90.788547 
865.000000	 91.152243 
864.000000	 91.497299 
863.000000	 91.831152 
862.000000	 92.161151 
861.000000	 92.484869 
860.000000	 92.800795 
859.000000	 93.112677 
858.000000	 93.418013 
857.000000	 93.706352 
856.000000	 93.973692 
855.000000	 94.226096 
854.000000	 94.466331 
853.000000	 94.689574 
852.000000	 94.894572 
851.000000	 95.086203 
850.000000	 95.265073 
849.000000	 95.427279 
848.000000	 95.575418 
847.000000	 95.715989 
846.000000	 95.844597 
845.000000	 95.947972 
844.000000	 96.022472 
843.000000	 96.076518 
842.000000	 96.113387 
841.000000	 96.126677 
840.000000	 96.115288 
839.000000	 96.087581 
838.000000	 96.046918 
837.000000	 95.987506 
836.000000	 95.909275 
835.000000	 95.823913 
834.000000	 95.742263 
833.000000	 95.668825 
832.000000	 95.611995 
831.000000	 95.584506 
830.000000	 95.588118 
829.000000	 95.612341 
828.000000	 95.653509 
827.000000	 95.719478 
826.000000	 95.810552 
825.000000	 95.913905 
824.000000	 96.023001 
823.000000	 96.142148 
822.000000	 96.265100 
821.000000	 96.370975 
820.000000	 96.448580 
819.000000	 96.505826 
818.000000	 96.549966 
817.000000	 96.574573 
816.000000	 96.569743 
815.000000	 96.528981 
814.000000	 96.439351 
813.000000	 96.277530 
812.000000	 96.022580 
811.000000	 95.663369 
810.000000	 95.190686 
809.000000	 94.595232 
808.000000	 93.879312 
807.000000	 93.058653 
806.000000	 92.147359 
805.000000	 91.156505 
804.000000	 90.116747 
803.000000	 89.086128 
802.000000	 88.123343 
801.000000	 87.267245 
800.000000	 86.549558 
799.000000	 86.003187 
798.000000	 85.642435 
797.000000	 85.453651 
796.000000	 85.415397 
795.000000	 85.507105 
794.000000	 85.691519 
793.000000	 85.914966 
792.000000	 86.137057 
791.000000	 86.341762 
790.000000	 86.514827 
789.000000	 86.632655 
788.000000	 86.679393 
787.000000	 86.652957 
786.000000	 86.546781 
785.000000	 86.346758 
784.000000	 86.055896 
783.000000	 85.704617 
782.000000	 85.329476 
781.000000	 84.959685 
780.000000	 84.630540 
779.000000	 84.387060 
778.000000	 84.261632 
777.000000	 84.263106 
776.000000	 84.390395 
775.000000	 84.633569 
774.000000	 84.957543 
773.000000	 85.311353 
772.000000	 85.663003 
771.000000	 86.006525 
770.000000	 86.333759 
769.000000	 86.623573 
768.000000	 86.863480 
767.000000	 87.059275 
766.000000	 87.218080 
765.000000	 87.342509 
764.000000	 87.445453 
763.000000	 87.548915 
762.000000	 87.662310 
761.000000	 87.780693 
760.000000	 87.906431 
759.000000	 88.050280 
758.000000	 88.208732 
757.000000	 88.364912 
756.000000	 88.516064 
755.000000	 88.676038 
754.000000	 88.847045 
753.000000	 89.014695 
752.000000	 89.175827 
751.000000	 89.344460 
750.000000	 89.522538 
749.000000	 89.690797 
748.000000	 89.839636 
747.000000	 89.986629 
746.000000	 90.152137 
745.000000	 90.337423 
744.000000	 90.537594 
743.000000	 90.757130 
742.000000	 91.001346 
741.000000	 91.267621 
740.000000	 91.552121 
739.000000	 91.850345 
738.000000	 92.147402 
737.000000	 92.424491 
736.000000	 92.678136 
735.000000	 92.916206 
734.000000	 93.134987 
733.000000	 93.320265 
732.000000	 93.471498 
731.000000	 93.603804 
730.000000	 93.723508 
729.000000	 93.822332 
728.000000	 93.899340 
727.000000	 93.968745 
726.000000	 94.042182 
725.000000	 94.121955 
724.000000	 94.214160 
723.000000	 94.328146 
722.000000	 94.460008 
721.000000	 94.596652 
720.000000	 94.738956 
719.000000	 94.899474 
718.000000	 95.074048 
717.000000	 95.239577 
716.000000	 95.383783 
715.000000	 95.514865 
714.000000	 95.638724 
713.000000	 95.749466 
712.000000	 95.847564 
711.000000	 95.944374 
710.000000	 96.040929 
709.000000	 96.122621 
708.000000	 96.180825 
707.000000	 96.218959 
706.000000	 96.232226 
705.000000	 96.203485 
704.000000	 96.124925 
703.000000	 95.999681 
702.000000	 95.814129 
701.000000	 95.533406 
700.000000	 95.136457 
699.000000	 94.637903 
698.000000	 94.074486 
697.000000	 93.499708 
696.000000	 92.998826 
695.000000	 92.670132 
694.000000	 92.564132 
693.000000	 92.655625 
692.000000	 92.881726 
691.000000	 93.186947 
690.000000	 93.527667 
689.000000	 93.864821 
688.000000	 94.176203 
687.000000	 94.461196 
686.000000	 94.718526 
685.000000	 94.937404 
684.000000	 95.120745 
683.000000	 95.292718 
682.000000	 95.470189 
681.000000	 95.645995 
680.000000	 95.810388 
679.000000	 95.968379 
678.000000	 96.123928 
677.000000	 96.268490 
676.000000	 96.398443 
675.000000	 96.525808 
674.000000	 96.660996 
673.000000	 96.800008 
672.000000	 96.936180 
671.000000	 97.072110 
670.000000	 97.216974 
669.000000	 97.380888 
668.000000	 97.562038 
667.000000	 97.734338 
666.000000	 97.875211 
665.000000	 97.988107 
664.000000	 98.095156 
663.000000	 98.219513 
662.000000	 98.359062 
661.000000	 98.487830 
660.000000	 98.591111 
659.000000	 98.673277 
658.000000	 98.732088 
657.000000	 98.755791 
656.000000	 98.747101 
655.000000	 98.722206 
654.000000	 98.682945 
653.000000	 98.618548 
652.000000	 98.542398 
651.000000	 98.496954 
650.000000	 98.506304 

