4000.000000	98.216787 
3999.000000	98.216722 
3998.000000	98.216598 
3997.000000	98.216454 
3996.000000	98.216393 
3995.000000	98.216447 
3994.000000	98.216574 
3993.000000	98.216672 
3992.000000	98.216661 
3991.000000	98.216542 
3990.000000	98.216397 
3989.000000	98.216342 
3988.000000	98.216432 
3987.000000	98.216591 
3986.000000	98.216688 
3985.000000	98.216674 
3984.000000	98.216615 
3983.000000	98.216613 
3982.000000	98.216701 
3981.000000	98.216811 
3980.000000	98.216822 
3979.000000	98.216658 
3978.000000	98.216353 
3977.000000	98.216020 
3976.000000	98.215737 
3975.000000	98.215502 
3974.000000	98.215288 
3973.000000	98.215119 
3972.000000	98.215058 
3971.000000	98.215122 
3970.000000	98.215267 
3969.000000	98.215454 
3968.000000	98.215671 
3967.000000	98.215879 
3966.000000	98.215992 
3965.000000	98.215914 
3964.000000	98.215625 
3963.000000	98.215241 
3962.000000	98.214960 
3961.000000	98.214923 
3960.000000	98.215113 
3959.000000	98.215297 
3958.000000	98.215164 
3957.000000	98.214605 
3956.000000	98.213842 
3955.000000	98.213278 
3954.000000	98.213181 
3953.000000	98.213490 
3952.000000	98.213868 
3951.000000	98.213977 
3950.000000	98.213855 
3949.000000	98.213908 
3948.000000	98.214352 
3947.000000	98.214870 
3946.000000	98.214931 
3945.000000	98.214285 
3944.000000	98.213086 
3943.000000	98.211838 
3942.000000	98.211062 
3941.000000	98.210877 
3940.000000	98.210940 
3939.000000	98.210766 
3938.000000	98.210199 
3937.000000	98.209701 
3936.000000	98.210003 
3935.000000	98.211361 
3934.000000	98.213239 
3933.000000	98.214680 
3932.000000	98.215008 
3931.000000	98.214079 
3930.000000	98.212205 
3929.000000	98.209941 
3928.000000	98.207818 
3927.000000	98.206277 
3926.000000	98.205478 
3925.000000	98.205332 
3924.000000	98.206068 
3923.000000	98.207886 
3922.000000	98.210310 
3921.000000	98.212401 
3920.000000	98.213733 
3919.000000	98.214747 
3918.000000	98.215720 
3917.000000	98.216190 
3916.000000	98.215793 
3915.000000	98.214964 
3914.000000	98.214343 
3913.000000	98.213959 
3912.000000	98.213558 
3911.000000	98.213092 
3910.000000	98.212592 
3909.000000	98.212107 
3908.000000	98.211839 
3907.000000	98.211950 
3906.000000	98.212501 
3905.000000	98.213292 
3904.000000	98.214147 
3903.000000	98.214902 
3902.000000	98.215221 
3901.000000	98.214891 
3900.000000	98.214005 
3899.000000	98.213023 
3898.000000	98.212420 
3897.000000	98.212177 
3896.000000	98.211975 
3895.000000	98.211606 
3894.000000	98.211067 
3893.000000	98.210504 
3892.000000	98.210034 
3891.000000	98.209580 
3890.000000	98.209088 
3889.000000	98.208709 
3888.000000	98.208565 
3887.000000	98.208419 
3886.000000	98.207968 
3885.000000	98.207297 
3884.000000	98.206805 
3883.000000	98.206588 
3882.000000	98.206330 
3881.000000	98.205848 
3880.000000	98.205314 
3879.000000	98.204927 
3878.000000	98.204726 
3877.000000	98.204561 
3876.000000	98.204035 
3875.000000	98.202784 
3874.000000	98.201012 
3873.000000	98.199628 
3872.000000	98.199356 
3871.000000	98.199828 
3870.000000	98.199910 
3869.000000	98.199291 
3868.000000	98.198790 
3867.000000	98.198763 
3866.000000	98.198183 
3865.000000	98.196301 
3864.000000	98.194570 
3863.000000	98.194592 
3862.000000	98.195793 
3861.000000	98.196800 
3860.000000	98.197098 
3859.000000	98.196382 
3858.000000	98.194370 
3857.000000	98.191301 
3856.000000	98.188542 
3855.000000	98.186132 
3854.000000	98.183343 
3853.000000	98.181429 
3852.000000	98.181831 
3851.000000	98.184379 
3850.000000	98.187783 
3849.000000	98.190555 
3848.000000	98.192624 
3847.000000	98.194727 
3846.000000	98.196616 
3845.000000	98.197667 
3844.000000	98.197923 
3843.000000	98.197311 
3842.000000	98.195888 
3841.000000	98.194564 
3840.000000	98.194032 
3839.000000	98.194220 
3838.000000	98.194787 
3837.000000	98.195264 
3836.000000	98.195648 
3835.000000	98.196024 
3834.000000	98.196559 
3833.000000	98.197342 
3832.000000	98.198124 
3831.000000	98.198682 
3830.000000	98.198932 
3829.000000	98.198781 
3828.000000	98.198350 
3827.000000	98.197797 
3826.000000	98.197297 
3825.000000	98.197339 
3824.000000	98.198175 
3823.000000	98.198997 
3822.000000	98.198918 
3821.000000	98.198201 
3820.000000	98.197744 
3819.000000	98.197824 
3818.000000	98.198062 
3817.000000	98.197977 
3816.000000	98.197557 
3815.000000	98.197208 
3814.000000	98.197161 
3813.000000	98.197234 
3812.000000	98.197256 
3811.000000	98.197235 
3810.000000	98.197197 
3809.000000	98.197133 
3808.000000	98.197040 
3807.000000	98.196920 
3806.000000	98.196779 
3805.000000	98.196630 
3804.000000	98.196488 
3803.000000	98.196357 
3802.000000	98.196229 
3801.000000	98.196110 
3800.000000	98.196032 
3799.000000	98.196014 
3798.000000	98.196036 
3797.000000	98.196066 
3796.000000	98.196102 
3795.000000	98.196153 
3794.000000	98.196202 
3793.000000	98.196220 
3792.000000	98.196195 
3791.000000	98.196169 
3790.000000	98.196197 
3789.000000	98.196302 
3788.000000	98.196468 
3787.000000	98.196697 
3786.000000	98.196993 
3785.000000	98.197335 
3784.000000	98.197685 
3783.000000	98.198032 
3782.000000	98.198383 
3781.000000	98.198714 
3780.000000	98.199009 
3779.000000	98.199286 
3778.000000	98.199586 
3777.000000	98.199970 
3776.000000	98.200472 
3775.000000	98.200945 
3774.000000	98.201214 
3773.000000	98.201522 
3772.000000	98.202412 
3771.000000	98.203672 
3770.000000	98.204442 
3769.000000	98.204609 
3768.000000	98.204726 
3767.000000	98.205109 
3766.000000	98.205566 
3765.000000	98.205753 
3764.000000	98.206345 
3763.000000	98.208465 
3762.000000	98.211195 
3761.000000	98.211780 
3760.000000	98.209825 
3759.000000	98.208797 
3758.000000	98.209947 
3757.000000	98.210320 
3756.000000	98.208919 
3755.000000	98.207380 
3754.000000	98.206717 
3753.000000	98.206382 
3752.000000	98.208221 
3751.000000	98.216091 
3750.000000	98.224718 
3749.000000	98.224538 
3748.000000	98.217395 
3747.000000	98.213839 
3746.000000	98.218194 
3745.000000	98.221679 
3744.000000	98.216139 
3743.000000	98.208125 
3742.000000	98.206837 
3741.000000	98.209794 
3740.000000	98.210646 
3739.000000	98.211295 
3738.000000	98.215718 
3737.000000	98.219403 
3736.000000	98.218166 
3735.000000	98.216298 
3734.000000	98.218576 
3733.000000	98.220069 
3732.000000	98.214264 
3731.000000	98.204338 
3730.000000	98.197585 
3729.000000	98.196251 
3728.000000	98.195652 
3727.000000	98.190321 
3726.000000	98.181138 
3725.000000	98.173314 
3724.000000	98.168494 
3723.000000	98.163776 
3722.000000	98.157765 
3721.000000	98.151354 
3720.000000	98.144512 
3719.000000	98.137943 
3718.000000	98.132329 
3717.000000	98.127469 
3716.000000	98.124499 
3715.000000	98.123367 
3714.000000	98.120239 
3713.000000	98.109738 
3712.000000	98.092182 
3711.000000	98.073226 
3710.000000	98.054970 
3709.000000	98.035726 
3708.000000	98.014195 
3707.000000	97.990751 
3706.000000	97.967269 
3705.000000	97.944691 
3704.000000	97.921073 
3703.000000	97.893076 
3702.000000	97.860436 
3701.000000	97.826211 
3700.000000	97.793230 
3699.000000	97.763318 
3698.000000	97.737220 
3697.000000	97.714747 
3696.000000	97.697957 
3695.000000	97.690058 
3694.000000	97.689084 
3693.000000	97.687779 
3692.000000	97.681286 
3691.000000	97.672201 
3690.000000	97.666171 
3689.000000	97.663312 
3688.000000	97.658226 
3687.000000	97.650167 
3686.000000	97.644700 
3685.000000	97.644042 
3684.000000	97.645093 
3683.000000	97.644290 
3682.000000	97.639255 
3681.000000	97.626606 
3680.000000	97.603819 
3679.000000	97.574444 
3678.000000	97.547601 
3677.000000	97.526463 
3676.000000	97.505823 
3675.000000	97.483981 
3674.000000	97.463099 
3673.000000	97.444266 
3672.000000	97.425079 
3671.000000	97.400156 
3670.000000	97.370400 
3669.000000	97.342043 
3668.000000	97.316273 
3667.000000	97.290756 
3666.000000	97.266281 
3665.000000	97.244927 
3664.000000	97.225489 
3663.000000	97.203789 
3662.000000	97.176210 
3661.000000	97.143574 
3660.000000	97.111594 
3659.000000	97.085524 
3658.000000	97.065162 
3657.000000	97.045013 
3656.000000	97.020528 
3655.000000	96.994030 
3654.000000	96.970821 
3653.000000	96.951594 
3652.000000	96.931077 
3651.000000	96.904644 
3650.000000	96.876756 
3649.000000	96.854619 
3648.000000	96.835718 
3647.000000	96.813731 
3646.000000	96.788803 
3645.000000	96.764799 
3644.000000	96.743777 
3643.000000	96.725437 
3642.000000	96.707371 
3641.000000	96.687399 
3640.000000	96.664904 
3639.000000	96.640364 
3638.000000	96.615382 
3637.000000	96.591771 
3636.000000	96.569919 
3635.000000	96.547173 
3634.000000	96.520905 
3633.000000	96.493867 
3632.000000	96.472443 
3631.000000	96.459390 
3630.000000	96.449624 
3629.000000	96.437502 
3628.000000	96.420910 
3627.000000	96.400305 
3626.000000	96.377510 
3625.000000	96.353021 
3624.000000	96.326980 
3623.000000	96.301414 
3622.000000	96.280374 
3621.000000	96.267827 
3620.000000	96.268205 
3619.000000	96.284500 
3618.000000	96.312250 
3617.000000	96.342907 
3616.000000	96.373938 
3615.000000	96.407233 
3614.000000	96.443572 
3613.000000	96.481212 
3612.000000	96.516895 
3611.000000	96.547934 
3610.000000	96.573231 
3609.000000	96.592671 
3608.000000	96.607175 
3607.000000	96.617886 
3606.000000	96.624656 
3605.000000	96.627768 
3604.000000	96.629174 
3603.000000	96.631230 
3602.000000	96.636102 
3601.000000	96.644750 
3600.000000	96.658033 
3599.000000	96.676651 
3598.000000	96.698230 
3597.000000	96.718158 
3596.000000	96.734660 
3595.000000	96.749699 
3594.000000	96.766074 
3593.000000	96.784289 
3592.000000	96.801553 
3591.000000	96.815426 
3590.000000	96.825267 
3589.000000	96.831962 
3588.000000	96.837762 
3587.000000	96.844051 
3586.000000	96.848289 
3585.000000	96.848602 
3584.000000	96.847153 
3583.000000	96.847336 
3582.000000	96.850240 
3581.000000	96.854552 
3580.000000	96.858733 
3579.000000	96.862747 
3578.000000	96.867692 
3577.000000	96.874462 
3576.000000	96.883038 
3575.000000	96.892123 
3574.000000	96.898947 
3573.000000	96.901439 
3572.000000	96.899995 
3571.000000	96.897530 
3570.000000	96.897230 
3569.000000	96.899205 
3568.000000	96.900978 
3567.000000	96.901368 
3566.000000	96.900426 
3565.000000	96.898510 
3564.000000	96.896893 
3563.000000	96.896077 
3562.000000	96.894587 
3561.000000	96.891080 
3560.000000	96.886304 
3559.000000	96.882871 
3558.000000	96.882315 
3557.000000	96.883321 
3556.000000	96.883564 
3555.000000	96.882980 
3554.000000	96.883808 
3553.000000	96.887629 
3552.000000	96.892924 
3551.000000	96.896431 
3550.000000	96.896885 
3549.000000	96.895994 
3548.000000	96.895970 
3547.000000	96.897546 
3546.000000	96.899554 
3545.000000	96.900405 
3544.000000	96.900094 
3543.000000	96.900375 
3542.000000	96.902785 
3541.000000	96.906925 
3540.000000	96.910641 
3539.000000	96.912195 
3538.000000	96.911901 
3537.000000	96.911586 
3536.000000	96.912665 
3535.000000	96.914863 
3534.000000	96.917243 
3533.000000	96.919410 
3532.000000	96.921370 
3531.000000	96.922889 
3530.000000	96.923752 
3529.000000	96.924570 
3528.000000	96.926460 
3527.000000	96.929865 
3526.000000	96.933940 
3525.000000	96.937293 
3524.000000	96.939219 
3523.000000	96.940075 
3522.000000	96.940607 
3521.000000	96.941329 
3520.000000	96.942436 
3519.000000	96.943908 
3518.000000	96.945524 
3517.000000	96.946952 
3516.000000	96.948118 
3515.000000	96.949320 
3514.000000	96.951109 
3513.000000	96.953886 
3512.000000	96.957499 
3511.000000	96.961364 
3510.000000	96.965067 
3509.000000	96.968419 
3508.000000	96.971024 
3507.000000	96.972460 
3506.000000	96.972966 
3505.000000	96.973667 
3504.000000	96.975617 
3503.000000	96.978437 
3502.000000	96.980390 
3501.000000	96.980278 
3500.000000	96.978698 
3499.000000	96.977209 
3498.000000	96.976927 
3497.000000	96.978173 
3496.000000	96.980854 
3495.000000	96.984298 
3494.000000	96.986976 
3493.000000	96.987291 
3492.000000	96.984912 
3491.000000	96.981230 
3490.000000	96.978534 
3489.000000	96.978381 
3488.000000	96.980595 
3487.000000	96.983553 
3486.000000	96.985399 
3485.000000	96.985250 
3484.000000	96.983540 
3483.000000	96.981446 
3482.000000	96.979973 
3481.000000	96.979355 
3480.000000	96.979153 
3479.000000	96.978956 
3478.000000	96.978860 
3477.000000	96.979197 
3476.000000	96.979849 
3475.000000	96.980064 
3474.000000	96.979115 
3473.000000	96.977069 
3472.000000	96.974700 
3471.000000	96.972613 
3470.000000	96.970880 
3469.000000	96.969444 
3468.000000	96.968148 
3467.000000	96.966323 
3466.000000	96.963041 
3465.000000	96.958246 
3464.000000	96.953310 
3463.000000	96.949824 
3462.000000	96.947883 
3461.000000	96.946062 
3460.000000	96.943153 
3459.000000	96.939497 
3458.000000	96.936337 
3457.000000	96.934322 
3456.000000	96.932972 
3455.000000	96.931497 
3454.000000	96.929881 
3453.000000	96.928590 
3452.000000	96.927587 
3451.000000	96.926008 
3450.000000	96.923041 
3449.000000	96.918997 
3448.000000	96.915106 
3447.000000	96.912104 
3446.000000	96.909340 
3445.000000	96.905738 
3444.000000	96.901286 
3443.000000	96.897100 
3442.000000	96.894225 
3441.000000	96.892744 
3440.000000	96.891919 
3439.000000	96.890661 
3438.000000	96.888027 
3437.000000	96.883867 
3436.000000	96.879129 
3435.000000	96.875140 
3434.000000	96.872485 
3433.000000	96.870580 
3432.000000	96.868657 
3431.000000	96.866629 
3430.000000	96.864688 
3429.000000	96.862624 
3428.000000	96.859947 
3427.000000	96.856520 
3426.000000	96.852533 
3425.000000	96.848132 
3424.000000	96.843552 
3423.000000	96.839476 
3422.000000	96.836714 
3421.000000	96.835289 
3420.000000	96.834085 
3419.000000	96.831702 
3418.000000	96.827791 
3417.000000	96.823337 
3416.000000	96.819660 
3415.000000	96.817387 
3414.000000	96.816238 
3413.000000	96.815541 
3412.000000	96.814749 
3411.000000	96.813627 
3410.000000	96.812359 
3409.000000	96.811398 
3408.000000	96.810835 
3407.000000	96.809913 
3406.000000	96.807660 
3405.000000	96.804373 
3404.000000	96.801885 
3403.000000	96.801744 
3402.000000	96.803504 
3401.000000	96.805258 
3400.000000	96.805897 
3399.000000	96.806113 
3398.000000	96.807060 
3397.000000	96.808732 
3396.000000	96.810118 
3395.000000	96.810753 
3394.000000	96.811483 
3393.000000	96.813430 
3392.000000	96.816429 
3391.000000	96.818952 
3390.000000	96.819637 
3389.000000	96.818592 
3388.000000	96.817075 
3387.000000	96.816349 
3386.000000	96.817109 
3385.000000	96.819664 
3384.000000	96.823988 
3383.000000	96.829398 
3382.000000	96.834701 
3381.000000	96.838925 
3380.000000	96.841830 
3379.000000	96.843636 
3378.000000	96.844580 
3377.000000	96.844844 
3376.000000	96.844610 
3375.000000	96.844180 
3374.000000	96.844193 
3373.000000	96.845624 
3372.000000	96.848985 
3371.000000	96.853438 
3370.000000	96.857206 
3369.000000	96.859270 
3368.000000	96.860194 
3367.000000	96.861016 
3366.000000	96.861878 
3365.000000	96.862331 
3364.000000	96.862674 
3363.000000	96.864060 
3362.000000	96.867143 
3361.000000	96.871358 
3360.000000	96.875672 
3359.000000	96.879614 
3358.000000	96.883276 
3357.000000	96.886636 
3356.000000	96.889407 
3355.000000	96.891490 
3354.000000	96.893227 
3353.000000	96.895126 
3352.000000	96.897478 
3351.000000	96.900225 
3350.000000	96.903108 
3349.000000	96.905921 
3348.000000	96.908692 
3347.000000	96.911647 
3346.000000	96.914907 
3345.000000	96.918221 
3344.000000	96.921140 
3343.000000	96.923430 
3342.000000	96.925274 
3341.000000	96.927005 
3340.000000	96.928709 
3339.000000	96.930179 
3338.000000	96.931323 
3337.000000	96.932509 
3336.000000	96.934341 
3335.000000	96.937076 
3334.000000	96.940374 
3333.000000	96.943606 
3332.000000	96.946331 
3331.000000	96.948439 
3330.000000	96.950020 
3329.000000	96.951370 
3328.000000	96.953036 
3327.000000	96.955547 
3326.000000	96.958900 
3325.000000	96.962440 
3324.000000	96.965445 
3323.000000	96.967796 
3322.000000	96.969990 
3321.000000	96.972607 
3320.000000	96.975836 
3319.000000	96.979411 
3318.000000	96.982830 
3317.000000	96.985685 
3316.000000	96.987961 
3315.000000	96.990122 
3314.000000	96.992790 
3313.000000	96.996206 
3312.000000	96.999994 
3311.000000	97.003511 
3310.000000	97.006453 
3309.000000	97.009002 
3308.000000	97.011443 
3307.000000	97.013766 
3306.000000	97.015729 
3305.000000	97.017249 
3304.000000	97.018613 
3303.000000	97.020306 
3302.000000	97.022651 
3301.000000	97.025594 
3300.000000	97.028794 
3299.000000	97.031904 
3298.000000	97.034815 
3297.000000	97.037607 
3296.000000	97.040365 
3295.000000	97.043140 
3294.000000	97.046058 
3293.000000	97.049276 
3292.000000	97.052722 
3291.000000	97.056006 
3290.000000	97.058796 
3289.000000	97.061192 
3288.000000	97.063647 
3287.000000	97.066472 
3286.000000	97.069534 
3285.000000	97.072488 
3284.000000	97.075170 
3283.000000	97.077705 
3282.000000	97.080309 
3281.000000	97.083066 
3280.000000	97.085905 
3279.000000	97.088724 
3278.000000	97.091492 
3277.000000	97.094215 
3276.000000	97.096851 
3275.000000	97.099332 
3274.000000	97.101689 
3273.000000	97.104086 
3272.000000	97.106670 
3271.000000	97.109433 
3270.000000	97.112284 
3269.000000	97.115236 
3268.000000	97.118389 
3267.000000	97.121721 
3266.000000	97.125014 
3265.000000	97.128057 
3264.000000	97.130833 
3263.000000	97.133456 
3262.000000	97.135992 
3261.000000	97.138443 
3260.000000	97.140860 
3259.000000	97.143384 
3258.000000	97.146173 
3257.000000	97.149318 
3256.000000	97.152772 
3255.000000	97.156247 
3254.000000	97.159310 
3253.000000	97.161732 
3252.000000	97.163795 
3251.000000	97.166105 
3250.000000	97.168992 
3249.000000	97.172202 
3248.000000	97.175236 
3247.000000	97.177884 
3246.000000	97.180313 
3245.000000	97.182753 
3244.000000	97.185300 
3243.000000	97.187980 
3242.000000	97.190812 
3241.000000	97.193763 
3240.000000	97.196750 
3239.000000	97.199758 
3238.000000	97.202923 
3237.000000	97.206444 
3236.000000	97.210403 
3235.000000	97.214646 
3234.000000	97.218809 
3233.000000	97.222514 
3232.000000	97.225635 
3231.000000	97.228368 
3230.000000	97.231037 
3229.000000	97.233831 
3228.000000	97.236743 
3227.000000	97.239724 
3226.000000	97.242831 
3225.000000	97.246185 
3224.000000	97.249851 
3223.000000	97.253741 
3222.000000	97.257583 
3221.000000	97.261051 
3220.000000	97.263999 
3219.000000	97.266583 
3218.000000	97.269159 
3217.000000	97.272005 
3216.000000	97.275170 
3215.000000	97.278578 
3214.000000	97.282167 
3213.000000	97.285892 
3212.000000	97.289685 
3211.000000	97.293452 
3210.000000	97.297108 
3209.000000	97.300569 
3208.000000	97.303762 
3207.000000	97.306726 
3206.000000	97.309673 
3205.000000	97.312867 
3204.000000	97.316398 
3203.000000	97.320123 
3202.000000	97.323827 
3201.000000	97.327413 
3200.000000	97.330910 
3199.000000	97.334334 
3198.000000	97.337622 
3197.000000	97.340712 
3196.000000	97.343644 
3195.000000	97.346563 
3194.000000	97.349631 
3193.000000	97.352926 
3192.000000	97.356408 
3191.000000	97.359983 
3190.000000	97.363603 
3189.000000	97.367277 
3188.000000	97.370983 
3187.000000	97.374588 
3186.000000	97.377916 
3185.000000	97.380928 
3184.000000	97.383842 
3183.000000	97.386975 
3182.000000	97.390429 
3181.000000	97.393993 
3180.000000	97.397368 
3179.000000	97.400495 
3178.000000	97.403604 
3177.000000	97.406937 
3176.000000	97.410491 
3175.000000	97.414068 
3174.000000	97.417488 
3173.000000	97.420670 
3172.000000	97.423627 
3171.000000	97.426468 
3170.000000	97.429372 
3169.000000	97.432417 
3168.000000	97.435475 
3167.000000	97.438375 
3166.000000	97.441169 
3165.000000	97.444145 
3164.000000	97.447514 
3163.000000	97.451134 
3162.000000	97.454563 
3161.000000	97.457448 
3160.000000	97.459927 
3159.000000	97.462616 
3158.000000	97.466056 
3157.000000	97.470172 
3156.000000	97.474326 
3155.000000	97.477942 
3154.000000	97.481011 
3153.000000	97.483894 
3152.000000	97.486755 
3151.000000	97.489327 
3150.000000	97.491236 
3149.000000	97.492486 
3148.000000	97.493649 
3147.000000	97.495567 
3146.000000	97.498740 
3145.000000	97.502983 
3144.000000	97.507649 
3143.000000	97.512260 
3142.000000	97.516811 
3141.000000	97.521381 
3140.000000	97.525706 
3139.000000	97.529332 
3138.000000	97.532120 
3137.000000	97.534350 
3136.000000	97.536465 
3135.000000	97.538857 
3134.000000	97.541774 
3133.000000	97.545078 
3132.000000	97.548123 
3131.000000	97.550221 
3130.000000	97.551363 
3129.000000	97.552362 
3128.000000	97.554158 
3127.000000	97.557027 
3126.000000	97.560589 
3125.000000	97.564290 
3124.000000	97.567793 
3123.000000	97.570962 
3122.000000	97.573702 
3121.000000	97.575948 
3120.000000	97.577793 
3119.000000	97.579547 
3118.000000	97.581647 
3117.000000	97.584421 
3116.000000	97.587842 
3115.000000	97.591456 
3114.000000	97.594690 
3113.000000	97.597334 
3112.000000	97.599688 
3111.000000	97.602239 
3110.000000	97.605156 
3109.000000	97.608090 
3108.000000	97.610496 
3107.000000	97.612120 
3106.000000	97.613262 
3105.000000	97.614548 
3104.000000	97.616350 
3103.000000	97.618497 
3102.000000	97.620552 
3101.000000	97.622436 
3100.000000	97.624612 
3099.000000	97.627486 
3098.000000	97.630753 
3097.000000	97.633561 
3096.000000	97.635371 
3095.000000	97.636522 
3094.000000	97.637916 
3093.000000	97.640182 
3092.000000	97.643207 
3091.000000	97.646256 
3090.000000	97.648543 
3089.000000	97.649846 
3088.000000	97.650821 
3087.000000	97.652572 
3086.000000	97.655664 
3085.000000	97.659586 
3084.000000	97.663245 
3083.000000	97.665949 
3082.000000	97.667756 
3081.000000	97.669185 
3080.000000	97.670866 
3079.000000	97.673179 
3078.000000	97.675711 
3077.000000	97.677081 
3076.000000	97.676006 
3075.000000	97.672903 
3074.000000	97.670060 
3073.000000	97.669538 
3072.000000	97.671179 
3071.000000	97.673274 
3070.000000	97.674890 
3069.000000	97.676620 
3068.000000	97.678754 
3067.000000	97.679990 
3066.000000	97.679149 
3065.000000	97.677606 
3064.000000	97.678360 
3063.000000	97.682170 
3062.000000	97.685962 
3061.000000	97.686231 
3060.000000	97.683355 
3059.000000	97.681223 
3058.000000	97.682508 
3057.000000	97.685500 
3056.000000	97.686413 
3055.000000	97.683959 
3054.000000	97.680567 
3053.000000	97.679239 
3052.000000	97.680405 
3051.000000	97.682245 
3050.000000	97.683148 
3049.000000	97.682976 
3048.000000	97.682243 
3047.000000	97.681084 
3046.000000	97.679323 
3045.000000	97.676991 
3044.000000	97.674423 
3043.000000	97.672040 
3042.000000	97.669969 
3041.000000	97.667644 
3040.000000	97.663922 
3039.000000	97.658279 
3038.000000	97.651803 
3037.000000	97.646176 
3036.000000	97.641426 
3035.000000	97.635602 
3034.000000	97.627288 
3033.000000	97.617443 
3032.000000	97.607932 
3031.000000	97.599017 
3030.000000	97.589166 
3029.000000	97.577173 
3028.000000	97.563584 
3027.000000	97.549870 
3026.000000	97.536861 
3025.000000	97.524325 
3024.000000	97.511504 
3023.000000	97.497714 
3022.000000	97.482771 
3021.000000	97.467256 
3020.000000	97.452154 
3019.000000	97.437971 
3018.000000	97.424232 
3017.000000	97.409892 
3016.000000	97.394026 
3015.000000	97.376192 
3014.000000	97.356556 
3013.000000	97.335802 
3012.000000	97.314572 
3011.000000	97.292955 
3010.000000	97.270907 
3009.000000	97.249051 
3008.000000	97.228348 
3007.000000	97.208840 
3006.000000	97.189517 
3005.000000	97.169827 
3004.000000	97.150385 
3003.000000	97.131450 
3002.000000	97.111585 
3001.000000	97.089252 
3000.000000	97.065571 
2999.000000	97.044110 
2998.000000	97.027640 
2997.000000	97.016169 
2996.000000	97.007997 
2995.000000	97.000692 
2994.000000	96.989898 
2993.000000	96.969399 
2992.000000	96.935927 
2991.000000	96.894810 
2990.000000	96.858603 
2989.000000	96.838017 
2988.000000	96.834449 
2987.000000	96.841181 
2986.000000	96.850204 
2985.000000	96.857293 
2984.000000	96.862008 
2983.000000	96.865698 
2982.000000	96.870053 
2981.000000	96.875730 
2980.000000	96.881230 
2979.000000	96.883949 
2978.000000	96.882912 
2977.000000	96.879631 
2976.000000	96.875784 
2975.000000	96.871221 
2974.000000	96.865475 
2973.000000	96.860481 
2972.000000	96.860220 
2971.000000	96.867361 
2970.000000	96.881007 
2969.000000	96.897746 
2968.000000	96.914308 
2967.000000	96.929425 
2966.000000	96.944036 
2965.000000	96.960111 
2964.000000	96.978645 
2963.000000	96.998237 
2962.000000	97.015865 
2961.000000	97.029506 
2960.000000	97.039979 
2959.000000	97.050240 
2958.000000	97.063044 
2957.000000	97.079179 
2956.000000	97.097256 
2955.000000	97.114686 
2954.000000	97.129210 
2953.000000	97.140285 
2952.000000	97.149353 
2951.000000	97.158581 
2950.000000	97.168999 
2949.000000	97.179721 
2948.000000	97.188895 
2947.000000	97.195289 
2946.000000	97.199231 
2945.000000	97.202313 
2944.000000	97.206135 
2943.000000	97.211220 
2942.000000	97.216822 
2941.000000	97.221586 
2940.000000	97.224692 
2939.000000	97.226727 
2938.000000	97.229199 
2937.000000	97.233056 
2936.000000	97.237975 
2935.000000	97.243284 
2934.000000	97.249043 
2933.000000	97.255445 
2932.000000	97.261256 
2931.000000	97.263853 
2930.000000	97.261477 
2929.000000	97.255168 
2928.000000	97.248058 
2927.000000	97.242753 
2926.000000	97.239618 
2925.000000	97.237268 
2924.000000	97.234254 
2923.000000	97.230339 
2922.000000	97.226495 
2921.000000	97.223618 
2920.000000	97.221144 
2919.000000	97.217252 
2918.000000	97.210802 
2917.000000	97.202772 
2916.000000	97.195240 
2915.000000	97.189135 
2914.000000	97.183638 
2913.000000	97.177856 
2912.000000	97.172353 
2911.000000	97.168572 
2910.000000	97.167208 
2909.000000	97.167647 
2908.000000	97.168836 
2907.000000	97.169759 
2906.000000	97.168761 
2905.000000	97.163201 
2904.000000	97.151420 
2903.000000	97.136126 
2902.000000	97.125185 
2901.000000	97.126627 
2900.000000	97.142886 
2899.000000	97.168138 
2898.000000	97.192370 
2897.000000	97.208443 
2896.000000	97.215754 
2895.000000	97.218342 
2894.000000	97.220854 
2893.000000	97.225767 
2892.000000	97.232918 
2891.000000	97.240529 
2890.000000	97.246829 
2889.000000	97.251276 
2888.000000	97.254558 
2887.000000	97.257645 
2886.000000	97.261208 
2885.000000	97.265926 
2884.000000	97.272901 
2883.000000	97.283213 
2882.000000	97.296955 
2881.000000	97.312902 
2880.000000	97.329334 
2879.000000	97.345338 
2878.000000	97.361103 
2877.000000	97.376825 
2876.000000	97.391602 
2875.000000	97.404093 
2874.000000	97.414374 
2873.000000	97.424326 
2872.000000	97.435455 
2871.000000	97.446731 
2870.000000	97.455609 
2869.000000	97.461295 
2868.000000	97.466232 
2867.000000	97.474020 
2866.000000	97.486295 
2865.000000	97.501971 
2864.000000	97.519000 
2863.000000	97.536300 
2862.000000	97.554011 
2861.000000	97.572448 
2860.000000	97.591316 
2859.000000	97.609944 
2858.000000	97.627787 
2857.000000	97.644238 
2856.000000	97.658090 
2855.000000	97.668047 
2854.000000	97.674457 
2853.000000	97.679813 
2852.000000	97.686459 
2851.000000	97.694284 
2850.000000	97.701592 
2849.000000	97.707652 
2848.000000	97.713369 
2847.000000	97.719791 
2846.000000	97.727201 
2845.000000	97.735748 
2844.000000	97.745745 
2843.000000	97.756859 
2842.000000	97.767760 
2841.000000	97.776977 
2840.000000	97.783598 
2839.000000	97.787304 
2838.000000	97.788714 
2837.000000	97.789839 
2836.000000	97.792908 
2835.000000	97.798177 
2834.000000	97.803988 
2833.000000	97.809430 
2832.000000	97.815546 
2831.000000	97.822950 
2830.000000	97.829604 
2829.000000	97.832719 
2828.000000	97.832278 
2827.000000	97.831083 
2826.000000	97.831474 
2825.000000	97.833422 
2824.000000	97.836132 
2823.000000	97.839881 
2822.000000	97.845320 
2821.000000	97.851752 
2820.000000	97.857210 
2819.000000	97.860206 
2818.000000	97.860960 
2817.000000	97.860955 
2816.000000	97.861605 
2815.000000	97.863309 
2814.000000	97.865606 
2813.000000	97.867929 
2812.000000	97.870023 
2811.000000	97.871812 
2810.000000	97.873375 
2809.000000	97.875196 
2808.000000	97.877919 
2807.000000	97.881418 
2806.000000	97.884488 
2805.000000	97.885937 
2804.000000	97.885850 
2803.000000	97.885398 
2802.000000	97.885597 
2801.000000	97.886673 
2800.000000	97.888459 
2799.000000	97.890817 
2798.000000	97.893518 
2797.000000	97.896101 
2796.000000	97.898119 
2795.000000	97.899461 
2794.000000	97.900442 
2793.000000	97.901586 
2792.000000	97.903162 
2791.000000	97.904844 
2790.000000	97.906002 
2789.000000	97.906434 
2788.000000	97.906621 
2787.000000	97.907205 
2786.000000	97.908404 
2785.000000	97.910041 
2784.000000	97.911854 
2783.000000	97.913606 
2782.000000	97.915087 
2781.000000	97.916245 
2780.000000	97.917270 
2779.000000	97.918425 
2778.000000	97.919770 
2777.000000	97.921168 
2776.000000	97.922495 
2775.000000	97.923737 
2774.000000	97.924943 
2773.000000	97.926153 
2772.000000	97.927375 
2771.000000	97.928595 
2770.000000	97.929800 
2769.000000	97.930988 
2768.000000	97.932162 
2767.000000	97.933328 
2766.000000	97.934487 
2765.000000	97.935642 
2764.000000	97.936795 
2763.000000	97.937951 
2762.000000	97.939117 
2761.000000	97.940294 
2760.000000	97.941480 
2759.000000	97.942669 
2758.000000	97.943857 
2757.000000	97.945043 
2756.000000	97.946229 
2755.000000	97.947420 
2754.000000	97.948620 
2753.000000	97.949818 
2752.000000	97.951008 
2751.000000	97.952197 
2750.000000	97.953390 
2749.000000	97.954567 
2748.000000	97.955687 
2747.000000	97.956736 
2746.000000	97.957767 
2745.000000	97.958857 
2744.000000	97.960039 
2743.000000	97.961286 
2742.000000	97.962532 
2741.000000	97.963709 
2740.000000	97.964753 
2739.000000	97.965665 
2738.000000	97.966571 
2737.000000	97.967651 
2736.000000	97.968982 
2735.000000	97.970439 
2734.000000	97.971774 
2733.000000	97.972817 
2732.000000	97.973563 
2731.000000	97.974145 
2730.000000	97.974756 
2729.000000	97.975579 
2728.000000	97.976726 
2727.000000	97.978171 
2726.000000	97.979737 
2725.000000	97.981204 
2724.000000	97.982458 
2723.000000	97.983562 
2722.000000	97.984681 
2721.000000	97.985875 
2720.000000	97.986970 
2719.000000	97.987707 
2718.000000	97.988069 
2717.000000	97.988395 
2716.000000	97.989055 
2715.000000	97.990017 
2714.000000	97.990806 
2713.000000	97.990984 
2712.000000	97.990623 
2711.000000	97.990239 
2710.000000	97.990273 
2709.000000	97.990761 
2708.000000	97.991520 
2707.000000	97.992461 
2706.000000	97.993563 
2705.000000	97.994570 
2704.000000	97.995064 
2703.000000	97.995016 
2702.000000	97.995045 
2701.000000	97.995797 
2700.000000	97.997123 
2699.000000	97.998168 
2698.000000	97.998338 
2697.000000	97.997902 
2696.000000	97.997589 
2695.000000	97.997839 
2694.000000	97.998604 
2693.000000	97.999562 
2692.000000	98.000287 
2691.000000	98.000458 
2690.000000	98.000187 
2689.000000	97.999975 
2688.000000	98.000056 
2687.000000	98.000049 
2686.000000	97.999633 
2685.000000	97.999291 
2684.000000	97.999856 
2683.000000	98.001354 
2682.000000	98.002777 
2681.000000	98.003122 
2680.000000	98.002234 
2679.000000	98.000671 
2678.000000	97.999198 
2677.000000	97.998433 
2676.000000	97.998498 
2675.000000	97.998753 
2674.000000	97.998225 
2673.000000	97.996579 
2672.000000	97.994499 
2671.000000	97.992999 
2670.000000	97.992560 
2669.000000	97.993021 
2668.000000	97.993880 
2667.000000	97.994408 
2666.000000	97.993832 
2665.000000	97.991863 
2664.000000	97.989061 
2663.000000	97.986470 
2662.000000	97.984761 
2661.000000	97.983829 
2660.000000	97.983099 
2659.000000	97.982044 
2658.000000	97.980536 
2657.000000	97.978907 
2656.000000	97.977661 
2655.000000	97.976967 
2654.000000	97.976459 
2653.000000	97.975686 
2652.000000	97.974697 
2651.000000	97.973952 
2650.000000	97.973641 
2649.000000	97.973319 
2648.000000	97.972390 
2647.000000	97.970922 
2646.000000	97.969796 
2645.000000	97.969888 
2644.000000	97.971168 
2643.000000	97.972603 
2642.000000	97.973038 
2641.000000	97.972186 
2640.000000	97.970667 
2639.000000	97.969313 
2638.000000	97.968538 
2637.000000	97.968293 
2636.000000	97.968351 
2635.000000	97.968530 
2634.000000	97.968756 
2633.000000	97.969021 
2632.000000	97.969265 
2631.000000	97.969312 
2630.000000	97.969052 
2629.000000	97.968603 
2628.000000	97.968168 
2627.000000	97.967799 
2626.000000	97.967445 
2625.000000	97.967179 
2624.000000	97.967150 
2623.000000	97.967343 
2622.000000	97.967586 
2621.000000	97.967806 
2620.000000	97.968125 
2619.000000	97.968639 
2618.000000	97.969255 
2617.000000	97.969802 
2616.000000	97.970180 
2615.000000	97.970422 
2614.000000	97.970698 
2613.000000	97.971187 
2612.000000	97.971902 
2611.000000	97.972693 
2610.000000	97.973412 
2609.000000	97.974033 
2608.000000	97.974584 
2607.000000	97.975078 
2606.000000	97.975560 
2605.000000	97.976113 
2604.000000	97.976772 
2603.000000	97.977481 
2602.000000	97.978181 
2601.000000	97.978870 
2600.000000	97.979573 
2599.000000	97.980299 
2598.000000	97.981047 
2597.000000	97.981810 
2596.000000	97.982585 
2595.000000	97.983368 
2594.000000	97.984156 
2593.000000	97.984949 
2592.000000	97.985749 
2591.000000	97.986557 
2590.000000	97.987376 
2589.000000	97.988208 
2588.000000	97.989058 
2587.000000	97.989922 
2586.000000	97.990792 
2585.000000	97.991657 
2584.000000	97.992511 
2583.000000	97.993354 
2582.000000	97.994189 
2581.000000	97.995020 
2580.000000	97.995850 
2579.000000	97.996682 
2578.000000	97.997519 
2577.000000	97.998364 
2576.000000	97.999217 
2575.000000	98.000068 
2574.000000	98.000908 
2573.000000	98.001730 
2572.000000	98.002530 
2571.000000	98.003308 
2570.000000	98.004066 
2569.000000	98.004807 
2568.000000	98.005541 
2567.000000	98.006268 
2566.000000	98.006982 
2565.000000	98.007668 
2564.000000	98.008321 
2563.000000	98.008944 
2562.000000	98.009542 
2561.000000	98.010122 
2560.000000	98.010683 
2559.000000	98.011221 
2558.000000	98.011727 
2557.000000	98.012194 
2556.000000	98.012624 
2555.000000	98.013029 
2554.000000	98.013418 
2553.000000	98.013799 
2552.000000	98.014171 
2551.000000	98.014528 
2550.000000	98.014860 
2549.000000	98.015157 
2548.000000	98.015419 
2547.000000	98.015652 
2546.000000	98.015860 
2545.000000	98.016040 
2544.000000	98.016192 
2543.000000	98.016317 
2542.000000	98.016418 
2541.000000	98.016497 
2540.000000	98.016556 
2539.000000	98.016605 
2538.000000	98.016636 
2537.000000	98.016622 
2536.000000	98.016556 
2535.000000	98.016461 
2534.000000	98.016352 
2533.000000	98.016219 
2532.000000	98.016060 
2531.000000	98.015888 
2530.000000	98.015713 
2529.000000	98.015537 
2528.000000	98.015394 
2527.000000	98.015326 
2526.000000	98.015287 
2525.000000	98.015142 
2524.000000	98.014807 
2523.000000	98.014360 
2522.000000	98.014001 
2521.000000	98.013910 
2520.000000	98.014122 
2519.000000	98.014469 
2518.000000	98.014627 
2517.000000	98.014400 
2516.000000	98.013986 
2515.000000	98.013892 
2514.000000	98.014497 
2513.000000	98.015708 
2512.000000	98.016958 
2511.000000	98.017543 
2510.000000	98.017021 
2509.000000	98.015587 
2508.000000	98.014173 
2507.000000	98.013653 
2506.000000	98.013923 
2505.000000	98.014084 
2504.000000	98.013647 
2503.000000	98.013046 
2502.000000	98.012733 
2501.000000	98.012487 
2500.000000	98.012038 
2499.000000	98.011848 
2498.000000	98.012678 
2497.000000	98.014654 
2496.000000	98.017094 
2495.000000	98.019015 
2494.000000	98.019755 
2493.000000	98.019454 
2492.000000	98.019146 
2491.000000	98.019952 
2490.000000	98.021929 
2489.000000	98.024029 
2488.000000	98.025375 
2487.000000	98.026152 
2486.000000	98.026978 
2485.000000	98.027883 
2484.000000	98.028292 
2483.000000	98.027785 
2482.000000	98.026576 
2481.000000	98.025543 
2480.000000	98.025868 
2479.000000	98.028248 
2478.000000	98.032136 
2477.000000	98.035982 
2476.000000	98.038538 
2475.000000	98.039664 
2474.000000	98.039862 
2473.000000	98.039483 
2472.000000	98.038502 
2471.000000	98.036774 
2470.000000	98.034361 
2469.000000	98.031855 
2468.000000	98.030297 
2467.000000	98.030137 
2466.000000	98.030362 
2465.000000	98.029403 
2464.000000	98.027032 
2463.000000	98.024777 
2462.000000	98.024225 
2461.000000	98.025447 
2460.000000	98.027134 
2459.000000	98.027807 
2458.000000	98.026925 
2457.000000	98.025292 
2456.000000	98.024475 
2455.000000	98.025278 
2454.000000	98.026701 
2453.000000	98.026944 
2452.000000	98.025603 
2451.000000	98.024164 
2450.000000	98.024129 
2449.000000	98.025464 
2448.000000	98.027210 
2447.000000	98.028825 
2446.000000	98.030368 
2445.000000	98.031825 
2444.000000	98.032971 
2443.000000	98.033736 
2442.000000	98.034245 
2441.000000	98.034600 
2440.000000	98.034860 
2439.000000	98.035089 
2438.000000	98.035220 
2437.000000	98.035056 
2436.000000	98.034539 
2435.000000	98.033844 
2434.000000	98.033168 
2433.000000	98.032679 
2432.000000	98.032682 
2431.000000	98.033472 
2430.000000	98.034893 
2429.000000	98.036260 
2428.000000	98.036959 
2427.000000	98.037069 
2426.000000	98.037226 
2425.000000	98.037982 
2424.000000	98.039383 
2423.000000	98.041028 
2422.000000	98.042443 
2421.000000	98.043477 
2420.000000	98.044299 
2419.000000	98.044872 
2418.000000	98.044721 
2417.000000	98.043612 
2416.000000	98.042254 
2415.000000	98.041725 
2414.000000	98.042251 
2413.000000	98.043187 
2412.000000	98.044210 
2411.000000	98.045751 
2410.000000	98.048004 
2409.000000	98.050209 
2408.000000	98.051336 
2407.000000	98.051027 
2406.000000	98.049620 
2405.000000	98.047646 
2404.000000	98.045700 
2403.000000	98.044330 
2402.000000	98.043587 
2401.000000	98.042943 
2400.000000	98.042070 
2399.000000	98.041486 
2398.000000	98.042017 
2397.000000	98.043614 
2396.000000	98.045072 
2395.000000	98.045172 
2394.000000	98.044000 
2393.000000	98.042967 
2392.000000	98.043347 
2391.000000	98.044835 
2390.000000	98.045800 
2389.000000	98.044919 
2388.000000	98.042288 
2387.000000	98.039111 
2386.000000	98.036627 
2385.000000	98.035309 
2384.000000	98.034686 
2383.000000	98.033661 
2382.000000	98.031268 
2381.000000	98.027425 
2380.000000	98.022993 
2379.000000	98.018957 
2378.000000	98.015681 
2377.000000	98.013009 
2376.000000	98.010789 
2375.000000	98.009001 
2374.000000	98.007628 
2373.000000	98.006623 
2372.000000	98.005851 
2371.000000	98.004909 
2370.000000	98.003357 
2369.000000	98.001355 
2368.000000	97.999609 
2367.000000	97.998419 
2366.000000	97.997179 
2365.000000	97.995114 
2364.000000	97.992147 
2363.000000	97.988708 
2362.000000	97.985079 
2361.000000	97.981594 
2360.000000	97.978955 
2359.000000	97.977722 
2358.000000	97.977623 
2357.000000	97.977526 
2356.000000	97.976669 
2355.000000	97.975143 
2354.000000	97.973217 
2353.000000	97.971039 
2352.000000	97.968919 
2351.000000	97.967382 
2350.000000	97.966251 
2349.000000	97.964752 
2348.000000	97.962528 
2347.000000	97.959840 
2346.000000	97.957355 
2345.000000	97.955568 
2344.000000	97.954825 
2343.000000	97.954948 
2342.000000	97.954989 
2341.000000	97.954234 
2340.000000	97.952664 
2339.000000	97.951102 
2338.000000	97.950215 
2337.000000	97.949846 
2336.000000	97.949222 
2335.000000	97.947909 
2334.000000	97.946261 
2333.000000	97.945232 
2332.000000	97.945617 
2331.000000	97.947504 
2330.000000	97.949747 
2329.000000	97.950510 
2328.000000	97.948601 
2327.000000	97.943675 
2326.000000	97.936922 
2325.000000	97.930477 
2324.000000	97.926808 
2323.000000	97.926867 
2322.000000	97.929523 
2321.000000	97.933027 
2320.000000	97.936558 
2319.000000	97.940309 
2318.000000	97.943714 
2317.000000	97.945764 
2316.000000	97.946038 
2315.000000	97.945164 
2314.000000	97.943948 
2313.000000	97.942904 
2312.000000	97.942627 
2311.000000	97.943424 
2310.000000	97.944833 
2309.000000	97.945783 
2308.000000	97.946170 
2307.000000	97.946949 
2306.000000	97.949088 
2305.000000	97.952254 
2304.000000	97.955247 
2303.000000	97.956836 
2302.000000	97.956469 
2301.000000	97.954443 
2300.000000	97.951722 
2299.000000	97.949045 
2298.000000	97.946643 
2297.000000	97.944779 
2296.000000	97.944240 
2295.000000	97.945050 
2294.000000	97.945703 
2293.000000	97.944421 
2292.000000	97.941562 
2291.000000	97.939123 
2290.000000	97.938184 
2289.000000	97.937745 
2288.000000	97.936537 
2287.000000	97.934734 
2286.000000	97.933695 
2285.000000	97.934787 
2284.000000	97.938464 
2283.000000	97.943601 
2282.000000	97.947830 
2281.000000	97.949750 
2280.000000	97.950537 
2279.000000	97.952049 
2278.000000	97.953919 
2277.000000	97.954568 
2276.000000	97.954580 
2275.000000	97.956536 
2274.000000	97.961025 
2273.000000	97.965218 
2272.000000	97.966576 
2271.000000	97.966128 
2270.000000	97.966779 
2269.000000	97.969592 
2268.000000	97.973033 
2267.000000	97.975158 
2266.000000	97.975481 
2265.000000	97.975146 
2264.000000	97.975838 
2263.000000	97.978108 
2262.000000	97.980621 
2261.000000	97.981506 
2260.000000	97.980348 
2259.000000	97.978260 
2258.000000	97.976294 
2257.000000	97.974672 
2256.000000	97.973644 
2255.000000	97.973960 
2254.000000	97.975986 
2253.000000	97.979134 
2252.000000	97.982486 
2251.000000	97.985510 
2250.000000	97.987922 
2249.000000	97.989512 
2248.000000	97.990428 
2247.000000	97.991075 
2246.000000	97.991670 
2245.000000	97.992134 
2244.000000	97.992485 
2243.000000	97.992951 
2242.000000	97.993677 
2241.000000	97.994647 
2240.000000	97.995925 
2239.000000	97.997611 
2238.000000	97.999370 
2237.000000	98.000420 
2236.000000	98.000450 
2235.000000	98.000306 
2234.000000	98.001230 
2233.000000	98.003495 
2232.000000	98.006293 
2231.000000	98.008719 
2230.000000	98.010437 
2229.000000	98.011470 
2228.000000	98.011873 
2227.000000	98.011692 
2226.000000	98.010995 
2225.000000	98.010109 
2224.000000	98.010037 
2223.000000	98.012039 
2222.000000	98.016205 
2221.000000	98.020668 
2220.000000	98.023071 
2219.000000	98.022976 
2218.000000	98.022204 
2217.000000	98.022860 
2216.000000	98.025404 
2215.000000	98.028866 
2214.000000	98.032156 
2213.000000	98.034681 
2212.000000	98.035971 
2211.000000	98.035553 
2210.000000	98.033702 
2209.000000	98.032091 
2208.000000	98.032819 
2207.000000	98.036304 
2206.000000	98.040635 
2205.000000	98.043729 
2204.000000	98.045753 
2203.000000	98.048415 
2202.000000	98.052192 
2201.000000	98.055734 
2200.000000	98.057775 
2199.000000	98.058105 
2198.000000	98.056549 
2197.000000	98.052698 
2196.000000	98.047631 
2195.000000	98.044217 
2194.000000	98.044212 
2193.000000	98.045686 
2192.000000	98.044413 
2191.000000	98.037960 
2190.000000	98.028249 
2189.000000	98.020180 
2188.000000	98.017327 
2187.000000	98.019203 
2186.000000	98.023210 
2185.000000	98.028812 
2184.000000	98.037752 
2183.000000	98.049374 
2182.000000	98.058581 
2181.000000	98.061108 
2180.000000	98.058742 
2179.000000	98.056135 
2178.000000	98.054419 
2177.000000	98.052060 
2176.000000	98.050577 
2175.000000	98.054126 
2174.000000	98.062816 
2173.000000	98.070969 
2172.000000	98.073819 
2171.000000	98.072373 
2170.000000	98.069987 
2169.000000	98.067523 
2168.000000	98.064071 
2167.000000	98.059934 
2166.000000	98.056249 
2165.000000	98.052934 
2164.000000	98.049175 
2163.000000	98.045764 
2162.000000	98.046326 
2161.000000	98.056530 
2160.000000	98.080875 
2159.000000	98.117079 
2158.000000	98.153248 
2157.000000	98.176086 
2156.000000	98.182247 
2155.000000	98.177920 
2154.000000	98.170226 
2153.000000	98.162088 
2152.000000	98.154304 
2151.000000	98.147675 
2150.000000	98.141838 
2149.000000	98.135851 
2148.000000	98.131534 
2147.000000	98.133010 
2146.000000	98.141159 
2145.000000	98.151249 
2144.000000	98.158040 
2143.000000	98.160803 
2142.000000	98.161193 
2141.000000	98.158823 
2140.000000	98.151996 
2139.000000	98.141786 
2138.000000	98.132706 
2137.000000	98.128903 
2136.000000	98.130817 
2135.000000	98.135653 
2134.000000	98.140190 
2133.000000	98.143036 
2132.000000	98.144576 
2131.000000	98.144996 
2130.000000	98.142806 
2129.000000	98.135944 
2128.000000	98.124297 
2127.000000	98.110587 
2126.000000	98.098895 
2125.000000	98.092295 
2124.000000	98.091195 
2123.000000	98.093183 
2122.000000	98.094764 
2121.000000	98.093944 
2120.000000	98.090844 
2119.000000	98.085767 
2118.000000	98.078206 
2117.000000	98.068752 
2116.000000	98.060254 
2115.000000	98.055219 
2114.000000	98.053325 
2113.000000	98.053025 
2112.000000	98.054721 
2111.000000	98.059623 
2110.000000	98.065780 
2109.000000	98.068442 
2108.000000	98.065175 
2107.000000	98.058421 
2106.000000	98.052404 
2105.000000	98.049156 
2104.000000	98.048226 
2103.000000	98.048458 
2102.000000	98.048845 
2101.000000	98.048677 
2100.000000	98.047889 
2099.000000	98.047139 
2098.000000	98.047411 
2097.000000	98.049827 
2096.000000	98.055128 
2095.000000	98.062220 
2094.000000	98.067939 
2093.000000	98.069883 
2092.000000	98.068811 
2091.000000	98.067276 
2090.000000	98.066452 
2089.000000	98.065325 
2088.000000	98.062668 
2087.000000	98.058592 
2086.000000	98.054372 
2085.000000	98.051725 
2084.000000	98.052071 
2083.000000	98.055540 
2082.000000	98.060390 
2081.000000	98.064171 
2080.000000	98.065923 
2079.000000	98.066418 
2078.000000	98.066649 
2077.000000	98.067066 
2076.000000	98.067968 
2075.000000	98.069445 
2074.000000	98.070859 
2073.000000	98.071326 
2072.000000	98.071028 
2071.000000	98.071322 
2070.000000	98.073199 
2069.000000	98.076215 
2068.000000	98.079233 
2067.000000	98.081703 
2066.000000	98.083763 
2065.000000	98.085793 
2064.000000	98.088427 
2063.000000	98.092236 
2062.000000	98.096737 
2061.000000	98.100244 
2060.000000	98.101417 
2059.000000	98.100699 
2058.000000	98.100029 
2057.000000	98.101452 
2056.000000	98.105901 
2055.000000	98.112412 
2054.000000	98.118048 
2053.000000	98.119671 
2052.000000	98.116499 
2051.000000	98.110743 
2050.000000	98.105938 
2049.000000	98.104973 
2048.000000	98.109560 
2047.000000	98.119828 
2046.000000	98.133487 
2045.000000	98.146305 
2044.000000	98.154833 
2043.000000	98.158276 
2042.000000	98.157768 
2041.000000	98.155395 
2040.000000	98.154074 
2039.000000	98.156722 
2038.000000	98.164611 
2037.000000	98.176729 
2036.000000	98.190463 
2035.000000	98.202304 
2034.000000	98.208941 
2033.000000	98.210027 
2032.000000	98.209659 
2031.000000	98.212031 
2030.000000	98.215712 
2029.000000	98.215981 
2028.000000	98.212551 
2027.000000	98.210611 
2026.000000	98.213147 
2025.000000	98.216501 
2024.000000	98.215986 
2023.000000	98.212443 
2022.000000	98.210425 
2021.000000	98.211996 
2020.000000	98.214904 
2019.000000	98.215772 
2018.000000	98.213141 
2017.000000	98.208431 
2016.000000	98.205273 
2015.000000	98.206885 
2014.000000	98.213380 
2013.000000	98.221639 
2012.000000	98.227264 
2011.000000	98.226718 
2010.000000	98.219801 
2009.000000	98.211927 
2008.000000	98.210624 
2007.000000	98.216102 
2006.000000	98.218992 
2005.000000	98.212202 
2004.000000	98.201086 
2003.000000	98.195528 
2002.000000	98.195229 
2001.000000	98.191318 
2000.000000	98.181151 
1999.000000	98.172096 
1998.000000	98.169219 
1997.000000	98.168235 
1996.000000	98.163652 
1995.000000	98.156735 
1994.000000	98.150978 
1993.000000	98.145727 
1992.000000	98.139442 
1991.000000	98.134901 
1990.000000	98.135762 
1989.000000	98.141165 
1988.000000	98.147244 
1987.000000	98.151511 
1986.000000	98.153658 
1985.000000	98.154357 
1984.000000	98.155074 
1983.000000	98.156580 
1982.000000	98.156765 
1981.000000	98.153469 
1980.000000	98.150280 
1979.000000	98.155000 
1978.000000	98.170339 
1977.000000	98.189893 
1976.000000	98.205719 
1975.000000	98.216161 
1974.000000	98.222913 
1973.000000	98.225782 
1972.000000	98.224073 
1971.000000	98.219202 
1970.000000	98.212513 
1969.000000	98.203357 
1968.000000	98.192181 
1967.000000	98.182943 
1966.000000	98.179326 
1965.000000	98.180516 
1964.000000	98.183088 
1963.000000	98.185269 
1962.000000	98.187646 
1961.000000	98.190779 
1960.000000	98.193180 
1959.000000	98.191601 
1958.000000	98.183809 
1957.000000	98.172132 
1956.000000	98.163257 
1955.000000	98.162000 
1954.000000	98.165820 
1953.000000	98.167223 
1952.000000	98.161845 
1951.000000	98.152083 
1950.000000	98.143201 
1949.000000	98.138218 
1948.000000	98.137200 
1947.000000	98.138827 
1946.000000	98.141093 
1945.000000	98.142153 
1944.000000	98.141641 
1943.000000	98.140313 
1942.000000	98.138102 
1941.000000	98.133962 
1940.000000	98.127893 
1939.000000	98.121413 
1938.000000	98.115968 
1937.000000	98.111948 
1936.000000	98.109223 
1935.000000	98.107544 
1934.000000	98.106218 
1933.000000	98.104295 
1932.000000	98.101526 
1931.000000	98.098480 
1930.000000	98.095536 
1929.000000	98.092619 
1928.000000	98.089769 
1927.000000	98.087183 
1926.000000	98.084739 
1925.000000	98.082052 
1924.000000	98.079138 
1923.000000	98.076600 
1922.000000	98.074726 
1921.000000	98.073103 
1920.000000	98.071304 
1919.000000	98.069246 
1918.000000	98.066825 
1917.000000	98.063845 
1916.000000	98.060580 
1915.000000	98.057694 
1914.000000	98.055272 
1913.000000	98.052618 
1912.000000	98.049501 
1911.000000	98.046850 
1910.000000	98.045299 
1909.000000	98.044064 
1908.000000	98.042093 
1907.000000	98.039312 
1906.000000	98.035997 
1905.000000	98.032258 
1904.000000	98.028705 
1903.000000	98.026355 
1902.000000	98.024989 
1901.000000	98.023240 
1900.000000	98.020841 
1899.000000	98.019072 
1898.000000	98.018509 
1897.000000	98.017852 
1896.000000	98.015878 
1895.000000	98.013107 
1894.000000	98.010312 
1893.000000	98.007288 
1892.000000	98.004174 
1891.000000	98.002100 
1890.000000	98.001648 
1889.000000	98.001997 
1888.000000	98.002604 
1887.000000	98.003736 
1886.000000	98.004473 
1885.000000	98.002655 
1884.000000	97.997944 
1883.000000	97.993161 
1882.000000	97.990931 
1881.000000	97.991032 
1880.000000	97.991882 
1879.000000	97.992460 
1878.000000	97.992138 
1877.000000	97.990616 
1876.000000	97.989178 
1875.000000	97.990012 
1874.000000	97.992892 
1873.000000	97.994675 
1872.000000	97.993832 
1871.000000	97.992685 
1870.000000	97.993375 
1869.000000	97.994413 
1868.000000	97.994446 
1867.000000	97.995353 
1866.000000	97.997599 
1865.000000	97.998569 
1864.000000	97.997280 
1863.000000	97.996720 
1862.000000	97.999144 
1861.000000	98.002025 
1860.000000	98.002122 
1859.000000	98.000805 
1858.000000	98.001089 
1857.000000	98.002501 
1856.000000	98.002894 
1855.000000	98.002725 
1854.000000	98.004122 
1853.000000	98.007672 
1852.000000	98.012617 
1851.000000	98.018277 
1850.000000	98.023828 
1849.000000	98.028719 
1848.000000	98.033643 
1847.000000	98.039848 
1846.000000	98.046409 
1845.000000	98.050313 
1844.000000	98.050817 
1843.000000	98.050681 
1842.000000	98.050986 
1841.000000	98.049980 
1840.000000	98.046591 
1839.000000	98.042367 
1838.000000	98.039938 
1837.000000	98.039924 
1836.000000	98.041390 
1835.000000	98.043989 
1834.000000	98.047426 
1833.000000	98.050458 
1832.000000	98.051378 
1831.000000	98.049626 
1830.000000	98.046704 
1829.000000	98.044270 
1828.000000	98.042289 
1827.000000	98.040782 
1826.000000	98.040419 
1825.000000	98.041012 
1824.000000	98.041582 
1823.000000	98.042129 
1822.000000	98.043143 
1821.000000	98.044069 
1820.000000	98.044332 
1819.000000	98.045306 
1818.000000	98.048278 
1817.000000	98.050955 
1816.000000	98.050219 
1815.000000	98.046916 
1814.000000	98.044227 
1813.000000	98.043207 
1812.000000	98.042654 
1811.000000	98.042659 
1810.000000	98.043887 
1809.000000	98.044357 
1808.000000	98.042415 
1807.000000	98.039757 
1806.000000	98.038349 
1805.000000	98.037550 
1804.000000	98.036415 
1803.000000	98.036170 
1802.000000	98.038050 
1801.000000	98.040589 
1800.000000	98.041681 
1799.000000	98.041797 
1798.000000	98.041891 
1797.000000	98.041358 
1796.000000	98.040600 
1795.000000	98.041871 
1794.000000	98.046031 
1793.000000	98.050328 
1792.000000	98.051819 
1791.000000	98.052259 
1790.000000	98.054071 
1789.000000	98.056146 
1788.000000	98.057013 
1787.000000	98.057806 
1786.000000	98.060459 
1785.000000	98.064349 
1784.000000	98.067293 
1783.000000	98.068671 
1782.000000	98.069410 
1781.000000	98.070556 
1780.000000	98.072646 
1779.000000	98.075664 
1778.000000	98.079029 
1777.000000	98.081787 
1776.000000	98.083422 
1775.000000	98.083924 
1774.000000	98.083766 
1773.000000	98.084399 
1772.000000	98.086816 
1771.000000	98.090710 
1770.000000	98.096091 
1769.000000	98.102589 
1768.000000	98.108079 
1767.000000	98.110791 
1766.000000	98.111403 
1765.000000	98.111547 
1764.000000	98.111577 
1763.000000	98.111197 
1762.000000	98.111572 
1761.000000	98.113961 
1760.000000	98.117477 
1759.000000	98.121041 
1758.000000	98.124717 
1757.000000	98.128808 
1756.000000	98.132498 
1755.000000	98.134748 
1754.000000	98.136943 
1753.000000	98.141249 
1752.000000	98.146816 
1751.000000	98.149901 
1750.000000	98.149581 
1749.000000	98.148765 
1748.000000	98.148444 
1747.000000	98.146920 
1746.000000	98.144576 
1745.000000	98.144315 
1744.000000	98.146268 
1743.000000	98.147371 
1742.000000	98.146703 
1741.000000	98.146180 
1740.000000	98.146667 
1739.000000	98.147076 
1738.000000	98.146851 
1737.000000	98.146228 
1736.000000	98.145213 
1735.000000	98.144161 
1734.000000	98.143648 
1733.000000	98.142704 
1732.000000	98.140843 
1731.000000	98.139047 
1730.000000	98.138470 
1729.000000	98.139524 
1728.000000	98.141124 
1727.000000	98.141519 
1726.000000	98.140207 
1725.000000	98.138015 
1724.000000	98.135514 
1723.000000	98.133057 
1722.000000	98.131308 
1721.000000	98.130309 
1720.000000	98.129406 
1719.000000	98.128294 
1718.000000	98.127212 
1717.000000	98.124197 
1716.000000	98.118777 
1715.000000	98.114544 
1714.000000	98.112838 
1713.000000	98.111647 
1712.000000	98.109690 
1711.000000	98.107514 
1710.000000	98.105658 
1709.000000	98.103490 
1708.000000	98.100366 
1707.000000	98.096850 
1706.000000	98.093608 
1705.000000	98.090129 
1704.000000	98.086135 
1703.000000	98.082627 
1702.000000	98.080185 
1701.000000	98.078044 
1700.000000	98.074785 
1699.000000	98.071195 
1698.000000	98.068428 
1697.000000	98.065824 
1696.000000	98.062667 
1695.000000	98.059194 
1694.000000	98.055672 
1693.000000	98.051952 
1692.000000	98.048119 
1691.000000	98.044525 
1690.000000	98.041324 
1689.000000	98.038200 
1688.000000	98.034782 
1687.000000	98.031002 
1686.000000	98.026608 
1685.000000	98.021311 
1684.000000	98.016383 
1683.000000	98.013441 
1682.000000	98.011068 
1681.000000	98.008520 
1680.000000	98.005982 
1679.000000	98.003352 
1678.000000	98.000108 
1677.000000	97.996656 
1676.000000	97.994680 
1675.000000	97.994176 
1674.000000	97.992985 
1673.000000	97.990312 
1672.000000	97.986204 
1671.000000	97.980150 
1670.000000	97.972092 
1669.000000	97.965370 
1668.000000	97.963664 
1667.000000	97.964323 
1666.000000	97.962648 
1665.000000	97.956427 
1664.000000	97.947317 
1663.000000	97.939768 
1662.000000	97.935049 
1661.000000	97.931595 
1660.000000	97.929512 
1659.000000	97.926827 
1658.000000	97.920201 
1657.000000	97.910241 
1656.000000	97.901699 
1655.000000	97.894974 
1654.000000	97.887966 
1653.000000	97.882546 
1652.000000	97.878144 
1651.000000	97.872704 
1650.000000	97.869916 
1649.000000	97.868774 
1648.000000	97.867781 
1647.000000	97.865573 
1646.000000	97.861146 
1645.000000	97.854074 
1644.000000	97.848142 
1643.000000	97.847074 
1642.000000	97.848948 
1641.000000	97.849646 
1640.000000	97.848790 
1639.000000	97.848093 
1638.000000	97.847762 
1637.000000	97.847201 
1636.000000	97.848689 
1635.000000	97.849838 
1634.000000	97.846266 
1633.000000	97.842020 
1632.000000	97.843270 
1631.000000	97.850500 
1630.000000	97.858239 
1629.000000	97.861614 
1628.000000	97.862576 
1627.000000	97.864734 
1626.000000	97.867398 
1625.000000	97.870380 
1624.000000	97.877894 
1623.000000	97.891609 
1622.000000	97.904898 
1621.000000	97.913988 
1620.000000	97.922959 
1619.000000	97.934673 
1618.000000	97.947067 
1617.000000	97.958940 
1616.000000	97.972842 
1615.000000	97.985529 
1614.000000	97.992778 
1613.000000	97.999494 
1612.000000	98.013474 
1611.000000	98.034146 
1610.000000	98.051295 
1609.000000	98.060659 
1608.000000	98.069241 
1607.000000	98.080409 
1606.000000	98.088703 
1605.000000	98.092858 
1604.000000	98.099237 
1603.000000	98.110123 
1602.000000	98.121109 
1601.000000	98.130259 
1600.000000	98.139817 
1599.000000	98.148455 
1598.000000	98.152062 
1597.000000	98.152371 
1596.000000	98.156377 
1595.000000	98.165955 
1594.000000	98.174819 
1593.000000	98.179021 
1592.000000	98.181984 
1591.000000	98.186491 
1590.000000	98.190177 
1589.000000	98.192476 
1588.000000	98.197358 
1587.000000	98.205312 
1586.000000	98.210655 
1585.000000	98.210907 
1584.000000	98.211243 
1583.000000	98.214756 
1582.000000	98.217387 
1581.000000	98.217642 
1580.000000	98.219652 
1579.000000	98.223712 
1578.000000	98.223953 
1577.000000	98.219212 
1576.000000	98.217321 
1575.000000	98.218651 
1574.000000	98.215778 
1573.000000	98.209895 
1572.000000	98.206167 
1571.000000	98.206302 
1570.000000	98.207845 
1569.000000	98.210881 
1568.000000	98.217284 
1567.000000	98.222164 
1566.000000	98.220261 
1565.000000	98.213410 
1564.000000	98.207816 
1563.000000	98.204949 
1562.000000	98.201240 
1561.000000	98.198028 
1560.000000	98.203156 
1559.000000	98.212176 
1558.000000	98.203346 
1557.000000	98.182992 
1556.000000	98.169155 
1555.000000	98.162258 
1554.000000	98.155216 
1553.000000	98.146097 
1552.000000	98.137674 
1551.000000	98.131800 
1550.000000	98.127434 
1549.000000	98.122368 
1548.000000	98.115894 
1547.000000	98.108351 
1546.000000	98.098479 
1545.000000	98.084778 
1544.000000	98.069552 
1543.000000	98.057345 
1542.000000	98.049152 
1541.000000	98.040452 
1540.000000	98.030927 
1539.000000	98.021879 
1538.000000	98.007373 
1537.000000	97.987353 
1536.000000	97.965926 
1535.000000	97.945943 
1534.000000	97.927880 
1533.000000	97.911361 
1532.000000	97.897232 
1531.000000	97.887455 
1530.000000	97.879898 
1529.000000	97.868311 
1528.000000	97.850395 
1527.000000	97.830421 
1526.000000	97.812399 
1525.000000	97.794732 
1524.000000	97.776059 
1523.000000	97.758425 
1522.000000	97.742441 
1521.000000	97.723716 
1520.000000	97.700500 
1519.000000	97.677686 
1518.000000	97.658663 
1517.000000	97.641670 
1516.000000	97.624295 
1515.000000	97.607120 
1514.000000	97.591790 
1513.000000	97.576246 
1512.000000	97.555701 
1511.000000	97.531243 
1510.000000	97.508878 
1509.000000	97.489717 
1508.000000	97.468311 
1507.000000	97.446307 
1506.000000	97.426772 
1505.000000	97.401426 
1504.000000	97.372230 
1503.000000	97.345122 
1502.000000	97.320629 
1501.000000	97.296361 
1500.000000	97.269941 
1499.000000	97.243179 
1498.000000	97.222047 
1497.000000	97.206714 
1496.000000	97.189664 
1495.000000	97.170043 
1494.000000	97.152896 
1493.000000	97.137678 
1492.000000	97.119081 
1491.000000	97.094448 
1490.000000	97.066921 
1489.000000	97.038556 
1488.000000	97.009308 
1487.000000	96.983654 
1486.000000	96.963193 
1485.000000	96.944223 
1484.000000	96.925271 
1483.000000	96.907034 
1482.000000	96.889337 
1481.000000	96.870058 
1480.000000	96.848925 
1479.000000	96.829679 
1478.000000	96.814590 
1477.000000	96.800629 
1476.000000	96.784432 
1475.000000	96.768918 
1474.000000	96.755739 
1473.000000	96.740496 
1472.000000	96.719384 
1471.000000	96.697118 
1470.000000	96.678673 
1469.000000	96.662433 
1468.000000	96.645136 
1467.000000	96.628057 
1466.000000	96.613925 
1465.000000	96.601065 
1464.000000	96.586258 
1463.000000	96.569617 
1462.000000	96.553789 
1461.000000	96.538479 
1460.000000	96.521775 
1459.000000	96.503490 
1458.000000	96.488504 
1457.000000	96.479534 
1456.000000	96.465268 
1455.000000	96.440484 
1454.000000	96.414831 
1453.000000	96.394134 
1452.000000	96.376957 
1451.000000	96.361152 
1450.000000	96.348559 
1449.000000	96.340181 
1448.000000	96.331552 
1447.000000	96.318931 
1446.000000	96.303833 
1445.000000	96.290014 
1444.000000	96.278981 
1443.000000	96.269073 
1442.000000	96.259676 
1441.000000	96.251832 
1440.000000	96.244533 
1439.000000	96.235168 
1438.000000	96.226452 
1437.000000	96.224385 
1436.000000	96.226843 
1435.000000	96.226305 
1434.000000	96.222990 
1433.000000	96.220016 
1432.000000	96.217997 
1431.000000	96.215474 
1430.000000	96.213609 
1429.000000	96.214618 
1428.000000	96.216106 
1427.000000	96.215063 
1426.000000	96.213061 
1425.000000	96.216169 
1424.000000	96.225286 
1423.000000	96.232079 
1422.000000	96.232622 
1421.000000	96.232003 
1420.000000	96.234286 
1419.000000	96.235932 
1418.000000	96.235545 
1417.000000	96.235005 
1416.000000	96.232538 
1415.000000	96.226007 
1414.000000	96.216817 
1413.000000	96.209603 
1412.000000	96.206935 
1411.000000	96.207876 
1410.000000	96.213019 
1409.000000	96.223865 
1408.000000	96.238857 
1407.000000	96.256357 
1406.000000	96.278223 
1405.000000	96.308804 
1404.000000	96.346807 
1403.000000	96.384463 
1402.000000	96.418704 
1401.000000	96.453281 
1400.000000	96.490707 
1399.000000	96.524937 
1398.000000	96.546181 
1397.000000	96.550165 
1396.000000	96.541287 
1395.000000	96.533730 
1394.000000	96.546692 
1393.000000	96.589350 
1392.000000	96.651006 
1391.000000	96.712471 
1390.000000	96.761804 
1389.000000	96.798313 
1388.000000	96.826242 
1387.000000	96.848365 
1386.000000	96.866415 
1385.000000	96.884103 
1384.000000	96.904773 
1383.000000	96.928123 
1382.000000	96.952610 
1381.000000	96.978582 
1380.000000	97.007704 
1379.000000	97.039580 
1378.000000	97.071650 
1377.000000	97.103210 
1376.000000	97.136490 
1375.000000	97.172998 
1374.000000	97.210922 
1373.000000	97.247311 
1372.000000	97.280513 
1371.000000	97.310602 
1370.000000	97.338747 
1369.000000	97.368279 
1368.000000	97.401209 
1367.000000	97.434337 
1366.000000	97.463159 
1365.000000	97.487381 
1364.000000	97.510651 
1363.000000	97.536429 
1362.000000	97.564696 
1361.000000	97.593108 
1360.000000	97.619891 
1359.000000	97.644398 
1358.000000	97.667095 
1357.000000	97.690264 
1356.000000	97.715622 
1355.000000	97.741328 
1354.000000	97.763900 
1353.000000	97.782424 
1352.000000	97.799040 
1351.000000	97.816062 
1350.000000	97.832846 
1349.000000	97.849048 
1348.000000	97.864843 
1347.000000	97.879289 
1346.000000	97.891972 
1345.000000	97.905010 
1344.000000	97.920185 
1343.000000	97.935429 
1342.000000	97.947183 
1341.000000	97.955579 
1340.000000	97.964227 
1339.000000	97.974981 
1338.000000	97.986826 
1337.000000	97.999294 
1336.000000	98.012376 
1335.000000	98.024672 
1334.000000	98.035273 
1333.000000	98.046023 
1332.000000	98.058626 
1331.000000	98.070629 
1330.000000	98.077974 
1329.000000	98.081074 
1328.000000	98.084068 
1327.000000	98.088727 
1326.000000	98.093181 
1325.000000	98.097364 
1324.000000	98.103413 
1323.000000	98.111234 
1322.000000	98.118352 
1321.000000	98.123918 
1320.000000	98.129369 
1319.000000	98.135554 
1318.000000	98.142277 
1317.000000	98.149868 
1316.000000	98.158537 
1315.000000	98.166890 
1314.000000	98.173652 
1313.000000	98.179800 
1312.000000	98.186801 
1311.000000	98.194044 
1310.000000	98.200341 
1309.000000	98.206325 
1308.000000	98.212732 
1307.000000	98.217943 
1306.000000	98.219643 
1305.000000	98.218927 
1304.000000	98.218828 
1303.000000	98.219953 
1302.000000	98.220394 
1301.000000	98.219277 
1300.000000	98.217655 
1299.000000	98.216540 
1298.000000	98.216337 
1297.000000	98.217560 
1296.000000	98.220170 
1295.000000	98.222460 
1294.000000	98.222780 
1293.000000	98.221782 
1292.000000	98.221257 
1291.000000	98.221471 
1290.000000	98.221272 
1289.000000	98.220195 
1288.000000	98.218909 
1287.000000	98.217930 
1286.000000	98.217275 
1285.000000	98.217068 
1284.000000	98.217450 
1283.000000	98.218338 
1282.000000	98.219581 
1281.000000	98.220733 
1280.000000	98.220922 
1279.000000	98.219561 
1278.000000	98.217646 
1277.000000	98.217123 
1276.000000	98.218573 
1275.000000	98.220493 
1274.000000	98.221389 
1273.000000	98.221345 
1272.000000	98.221091 
1271.000000	98.220927 
1270.000000	98.221063 
1269.000000	98.221614 
1268.000000	98.221805 
1267.000000	98.220732 
1266.000000	98.219370 
1265.000000	98.219486 
1264.000000	98.220290 
1263.000000	98.219029 
1262.000000	98.215519 
1261.000000	98.213034 
1260.000000	98.213458 
1259.000000	98.214175 
1258.000000	98.212097 
1257.000000	98.208026 
1256.000000	98.204878 
1255.000000	98.203626 
1254.000000	98.202884 
1253.000000	98.200993 
1252.000000	98.197267 
1251.000000	98.192793 
1250.000000	98.191104 
1249.000000	98.196048 
1248.000000	98.207545 
1247.000000	98.220800 
1246.000000	98.230360 
1245.000000	98.232883 
1244.000000	98.226818 
1243.000000	98.214209 
1242.000000	98.203653 
1241.000000	98.205577 
1240.000000	98.220910 
1239.000000	98.238107 
1238.000000	98.244852 
1237.000000	98.239737 
1236.000000	98.229640 
1235.000000	98.219443 
1234.000000	98.208808 
1233.000000	98.196995 
1232.000000	98.185878 
1231.000000	98.178031 
1230.000000	98.174566 
1229.000000	98.174363 
1228.000000	98.173560 
1227.000000	98.167116 
1226.000000	98.153157 
1225.000000	98.134743 
1224.000000	98.115619 
1223.000000	98.095845 
1222.000000	98.073626 
1221.000000	98.049287 
1220.000000	98.024316 
1219.000000	97.997717 
1218.000000	97.966546 
1217.000000	97.929580 
1216.000000	97.887866 
1215.000000	97.842119 
1214.000000	97.792001 
1213.000000	97.737736 
1212.000000	97.680177 
1211.000000	97.619368 
1210.000000	97.554663 
1209.000000	97.486114 
1208.000000	97.414384 
1207.000000	97.339716 
1206.000000	97.262514 
1205.000000	97.184366 
1204.000000	97.106391 
1203.000000	97.026659 
1202.000000	96.941487 
1201.000000	96.849818 
1200.000000	96.754594 
1199.000000	96.659303 
1198.000000	96.565122 
1197.000000	96.472171 
1196.000000	96.381173 
1195.000000	96.291844 
1194.000000	96.201010 
1193.000000	96.104744 
1192.000000	96.001920 
1191.000000	95.894009 
1190.000000	95.782168 
1189.000000	95.666577 
1188.000000	95.548177 
1187.000000	95.428614 
1186.000000	95.308215 
1185.000000	95.186074 
1184.000000	95.062479 
1183.000000	94.939087 
1182.000000	94.816099 
1181.000000	94.691443 
1180.000000	94.563589 
1179.000000	94.433146 
1178.000000	94.300894 
1177.000000	94.166044 
1176.000000	94.027134 
1175.000000	93.882969 
1174.000000	93.732374 
1173.000000	93.575238 
1172.000000	93.414146 
1171.000000	93.252849 
1170.000000	93.092933 
1169.000000	92.934541 
1168.000000	92.780744 
1167.000000	92.638661 
1166.000000	92.516409 
1165.000000	92.422257 
1164.000000	92.366189 
1163.000000	92.356555 
1162.000000	92.391948 
1161.000000	92.458047 
1160.000000	92.532848 
1159.000000	92.593573 
1158.000000	92.621457 
1157.000000	92.605964 
1156.000000	92.546905 
1155.000000	92.451777 
1154.000000	92.331019 
1153.000000	92.195781 
1152.000000	92.056887 
1151.000000	91.921198 
1150.000000	91.788813 
1149.000000	91.657131 
1148.000000	91.527112 
1147.000000	91.401974 
1146.000000	91.280878 
1145.000000	91.158829 
1144.000000	91.032843 
1143.000000	90.903813 
1142.000000	90.772822 
1141.000000	90.640360 
1140.000000	90.508845 
1139.000000	90.380683 
1138.000000	90.253549 
1137.000000	90.122281 
1136.000000	89.985451 
1135.000000	89.845877 
1134.000000	89.705728 
1133.000000	89.565890 
1132.000000	89.428245 
1131.000000	89.292378 
1130.000000	89.151917 
1129.000000	89.001407 
1128.000000	88.845268 
1127.000000	88.692075 
1126.000000	88.541289 
1125.000000	88.384645 
1124.000000	88.219931 
1123.000000	88.053211 
1122.000000	87.886934 
1121.000000	87.716754 
1120.000000	87.542485 
1119.000000	87.371643 
1118.000000	87.208765 
1117.000000	87.051000 
1116.000000	86.897288 
1115.000000	86.751939 
1114.000000	86.615785 
1113.000000	86.483404 
1112.000000	86.352167 
1111.000000	86.224482 
1110.000000	86.099450 
1109.000000	85.972451 
1108.000000	85.843758 
1107.000000	85.717593 
1106.000000	85.591532 
1105.000000	85.458406 
1104.000000	85.320096 
1103.000000	85.187086 
1102.000000	85.062214 
1101.000000	84.937462 
1100.000000	84.808154 
1099.000000	84.679585 
1098.000000	84.554006 
1097.000000	84.425800 
1096.000000	84.292474 
1095.000000	84.158397 
1094.000000	84.024014 
1093.000000	83.883319 
1092.000000	83.735530 
1091.000000	83.587538 
1090.000000	83.441838 
1089.000000	83.294043 
1088.000000	83.145015 
1087.000000	83.002366 
1086.000000	82.866592 
1085.000000	82.728557 
1084.000000	82.583899 
1083.000000	82.437374 
1082.000000	82.290538 
1081.000000	82.138439 
1080.000000	81.981029 
1079.000000	81.824188 
1078.000000	81.667112 
1077.000000	81.502623 
1076.000000	81.331341 
1075.000000	81.160138 
1074.000000	80.984982 
1073.000000	80.791445 
1072.000000	80.572816 
1071.000000	80.329636 
1070.000000	80.051059 
1069.000000	79.719616 
1068.000000	79.341646 
1067.000000	78.954167 
1066.000000	78.590758 
1065.000000	78.253576 
1064.000000	77.926257 
1063.000000	77.595236 
1062.000000	77.249139 
1061.000000	76.877228 
1060.000000	76.482580 
1059.000000	76.084990 
1058.000000	75.700860 
1057.000000	75.329493 
1056.000000	74.962900 
1055.000000	74.594355 
1054.000000	74.213460 
1053.000000	73.810660 
1052.000000	73.393561 
1051.000000	72.981649 
1050.000000	72.578390 
1049.000000	72.168217 
1048.000000	71.745639 
1047.000000	71.323804 
1046.000000	70.910625 
1045.000000	70.500791 
1044.000000	70.094605 
1043.000000	69.700882 
1042.000000	69.316647 
1041.000000	68.926595 
1040.000000	68.528840 
1039.000000	68.140630 
1038.000000	67.773616 
1037.000000	67.424126 
1036.000000	67.091053 
1035.000000	66.780568 
1034.000000	66.489205 
1033.000000	66.204685 
1032.000000	65.926243 
1031.000000	65.662329 
1030.000000	65.409340 
1029.000000	65.159354 
1028.000000	64.928574 
1027.000000	64.746648 
1026.000000	64.612801 
1025.000000	64.491848 
1024.000000	64.358938 
1023.000000	64.219289 
1022.000000	64.079769 
1021.000000	63.933369 
1020.000000	63.779810 
1019.000000	63.631626 
1018.000000	63.489889 
1017.000000	63.340244 
1016.000000	63.180920 
1015.000000	63.028288 
1014.000000	62.887573 
1013.000000	62.744956 
1012.000000	62.595831 
1011.000000	62.453932 
1010.000000	62.324943 
1009.000000	62.197906 
1008.000000	62.070718 
1007.000000	61.958252 
1006.000000	61.867591 
1005.000000	61.790272 
1004.000000	61.725280 
1003.000000	61.683971 
1002.000000	61.665742 
1001.000000	61.654309 
1000.000000	61.644391 
999.000000	 61.647346 
998.000000	 61.665525 
997.000000	 61.686702 
996.000000	 61.708647 
995.000000	 61.743079 
994.000000	 61.790206 
993.000000	 61.835554 
992.000000	 61.877228 
991.000000	 61.930426 
990.000000	 61.999953 
989.000000	 62.073974 
988.000000	 62.149506 
987.000000	 62.238093 
986.000000	 62.341663 
985.000000	 62.449146 
984.000000	 62.561753 
983.000000	 62.695276 
982.000000	 62.852709 
981.000000	 63.020372 
980.000000	 63.195447 
979.000000	 63.391604 
978.000000	 63.612646 
977.000000	 63.846447 
976.000000	 64.089613 
975.000000	 64.352866 
974.000000	 64.637470 
973.000000	 64.931140 
972.000000	 65.231298 
971.000000	 65.547889 
970.000000	 65.879626 
969.000000	 66.212042 
968.000000	 66.542424 
967.000000	 66.882341 
966.000000	 67.232449 
965.000000	 67.579233 
964.000000	 67.919932 
963.000000	 68.266469 
962.000000	 68.621076 
961.000000	 68.971274 
960.000000	 69.312196 
959.000000	 69.651194 
958.000000	 69.987825 
957.000000	 70.312045 
956.000000	 70.624807 
955.000000	 70.937876 
954.000000	 71.250553 
953.000000	 71.548705 
952.000000	 71.829040 
951.000000	 72.102034 
950.000000	 72.368833 
949.000000	 72.617949 
948.000000	 72.847686 
947.000000	 73.069633 
946.000000	 73.286527 
945.000000	 73.487470 
944.000000	 73.668360 
943.000000	 73.836798 
942.000000	 73.994306 
941.000000	 74.134033 
940.000000	 74.259051 
939.000000	 74.383382 
938.000000	 74.512476 
937.000000	 74.641633 
936.000000	 74.774414 
935.000000	 74.921546 
934.000000	 75.080462 
933.000000	 75.237619 
932.000000	 75.392319 
931.000000	 75.556116 
930.000000	 75.727288 
929.000000	 75.889209 
928.000000	 76.037011 
927.000000	 76.183157 
926.000000	 76.333043 
925.000000	 76.477022 
924.000000	 76.610171 
923.000000	 76.737781 
922.000000	 76.857004 
921.000000	 76.954934 
920.000000	 77.030228 
919.000000	 77.096751 
918.000000	 77.161582 
917.000000	 77.219444 
916.000000	 77.272503 
915.000000	 77.334793 
914.000000	 77.413001 
913.000000	 77.504129 
912.000000	 77.616446 
911.000000	 77.770405 
910.000000	 77.973107 
909.000000	 78.212975 
908.000000	 78.484614 
907.000000	 78.796876 
906.000000	 79.150136 
905.000000	 79.527212 
904.000000	 79.914484 
903.000000	 80.314062 
902.000000	 80.729514 
901.000000	 81.156352 
900.000000	 81.590443 
899.000000	 82.030119 
898.000000	 82.467385 
897.000000	 82.892337 
896.000000	 83.305936 
895.000000	 83.713732 
894.000000	 84.109680 
893.000000	 84.483113 
892.000000	 84.838715 
891.000000	 85.190482 
890.000000	 85.536691 
889.000000	 85.859559 
888.000000	 86.149609 
887.000000	 86.412433 
886.000000	 86.651906 
885.000000	 86.865077 
884.000000	 87.054626 
883.000000	 87.228298 
882.000000	 87.384293 
881.000000	 87.515141 
880.000000	 87.628031 
879.000000	 87.743114 
878.000000	 87.868948 
877.000000	 87.998227 
876.000000	 88.130790 
875.000000	 88.281687 
874.000000	 88.463332 
873.000000	 88.677950 
872.000000	 88.929130 
871.000000	 89.220907 
870.000000	 89.542872 
869.000000	 89.875299 
868.000000	 90.211770 
867.000000	 90.559968 
866.000000	 90.919477 
865.000000	 91.276397 
864.000000	 91.621819 
863.000000	 91.959397 
862.000000	 92.292378 
861.000000	 92.618033 
860.000000	 92.937080 
859.000000	 93.253937 
858.000000	 93.564121 
857.000000	 93.853795 
856.000000	 94.115060 
855.000000	 94.351981 
854.000000	 94.570675 
853.000000	 94.773048 
852.000000	 94.960313 
851.000000	 95.132784 
850.000000	 95.286403 
849.000000	 95.419049 
848.000000	 95.538858 
847.000000	 95.655978 
846.000000	 95.767510 
845.000000	 95.861186 
844.000000	 95.931742 
843.000000	 95.982321 
842.000000	 96.012777 
841.000000	 96.020042 
840.000000	 96.008744 
839.000000	 95.987956 
838.000000	 95.957366 
837.000000	 95.909288 
836.000000	 95.844693 
835.000000	 95.775127 
834.000000	 95.709033 
833.000000	 95.649220 
832.000000	 95.603862 
831.000000	 95.584815 
830.000000	 95.592405 
829.000000	 95.616161 
828.000000	 95.653435 
827.000000	 95.712591 
826.000000	 95.795524 
825.000000	 95.893356 
824.000000	 96.001485 
823.000000	 96.120008 
822.000000	 96.237417 
821.000000	 96.334817 
820.000000	 96.408815 
819.000000	 96.472213 
818.000000	 96.531492 
817.000000	 96.579337 
816.000000	 96.608575 
815.000000	 96.615785 
814.000000	 96.588067 
813.000000	 96.502305 
812.000000	 96.343225 
811.000000	 96.109816 
810.000000	 95.800467 
809.000000	 95.405831 
808.000000	 94.922271 
807.000000	 94.359457 
806.000000	 93.728688 
805.000000	 93.038366 
804.000000	 92.310288 
803.000000	 91.586618 
802.000000	 90.910502 
801.000000	 90.312032 
800.000000	 89.818449 
799.000000	 89.456215 
798.000000	 89.230019 
797.000000	 89.117634 
796.000000	 89.096201 
795.000000	 89.155501 
794.000000	 89.277556 
793.000000	 89.426126 
792.000000	 89.570403 
791.000000	 89.702296 
790.000000	 89.818856 
789.000000	 89.903800 
788.000000	 89.938843 
787.000000	 89.920025 
786.000000	 89.850435 
785.000000	 89.727136 
784.000000	 89.547273 
783.000000	 89.320714 
782.000000	 89.068922 
781.000000	 88.817990 
780.000000	 88.597245 
779.000000	 88.434044 
778.000000	 88.342872 
777.000000	 88.327181 
776.000000	 88.392021 
775.000000	 88.539770 
774.000000	 88.750924 
773.000000	 88.986771 
772.000000	 89.218015 
771.000000	 89.437959 
770.000000	 89.644312 
769.000000	 89.823838 
768.000000	 89.963190 
767.000000	 90.064554 
766.000000	 90.143080 
765.000000	 90.213800 
764.000000	 90.283095 
763.000000	 90.347196 
762.000000	 90.398932 
761.000000	 90.441177 
760.000000	 90.489529 
759.000000	 90.554603 
758.000000	 90.629334 
757.000000	 90.704866 
756.000000	 90.789223 
755.000000	 90.894070 
754.000000	 91.012065 
753.000000	 91.127216 
752.000000	 91.240409 
751.000000	 91.362375 
750.000000	 91.486173 
749.000000	 91.591672 
748.000000	 91.678271 
747.000000	 91.770037 
746.000000	 91.884521 
745.000000	 92.016752 
744.000000	 92.158131 
743.000000	 92.311572 
742.000000	 92.482176 
741.000000	 92.669224 
740.000000	 92.871671 
739.000000	 93.087826 
738.000000	 93.308997 
737.000000	 93.527222 
736.000000	 93.746621 
735.000000	 93.970728 
734.000000	 94.182495 
733.000000	 94.356650 
732.000000	 94.489700 
731.000000	 94.598644 
730.000000	 94.692766 
729.000000	 94.768676 
728.000000	 94.833104 
727.000000	 94.906402 
726.000000	 94.997750 
725.000000	 95.096121 
724.000000	 95.191103 
723.000000	 95.285673 
722.000000	 95.385679 
721.000000	 95.494148 
720.000000	 95.617902 
719.000000	 95.760239 
718.000000	 95.903581 
717.000000	 96.019312 
716.000000	 96.098958 
715.000000	 96.159949 
714.000000	 96.219639 
713.000000	 96.281528 
712.000000	 96.349117 
711.000000	 96.431279 
710.000000	 96.525677 
709.000000	 96.614602 
708.000000	 96.684112 
707.000000	 96.731600 
706.000000	 96.751367 
705.000000	 96.731346 
704.000000	 96.669638 
703.000000	 96.575043 
702.000000	 96.442900 
701.000000	 96.247872 
700.000000	 95.970241 
699.000000	 95.616148 
698.000000	 95.211109 
697.000000	 94.795242 
696.000000	 94.429760 
695.000000	 94.181117 
694.000000	 94.080613 
693.000000	 94.110550 
692.000000	 94.233448 
691.000000	 94.418315 
690.000000	 94.637103 
689.000000	 94.860571 
688.000000	 95.072612 
687.000000	 95.274528 
686.000000	 95.464482 
685.000000	 95.628793 
684.000000	 95.761601 
683.000000	 95.874457 
682.000000	 95.979162 
681.000000	 96.077369 
680.000000	 96.172275 
679.000000	 96.271984 
678.000000	 96.373739 
677.000000	 96.462775 
676.000000	 96.533868 
675.000000	 96.598255 
674.000000	 96.665368 
673.000000	 96.734383 
672.000000	 96.807256 
671.000000	 96.893822 
670.000000	 97.002079 
669.000000	 97.133204 
668.000000	 97.285743 
667.000000	 97.443765 
666.000000	 97.574487 
665.000000	 97.674869 
664.000000	 97.769692 
663.000000	 97.874370 
662.000000	 97.980960 
661.000000	 98.074219 
660.000000	 98.156784 
659.000000	 98.239068 
658.000000	 98.311552 
657.000000	 98.352313 
656.000000	 98.357172 
655.000000	 98.338604 
654.000000	 98.299709 
653.000000	 98.234932 
652.000000	 98.159390 
651.000000	 98.112806 
650.000000	 98.122079 

