4000.000000	99.976163  
3999.000000	99.975320  
3998.000000	99.974827  
3997.000000	99.974417  
3996.000000	99.974045  
3995.000000	99.973763  
3994.000000	99.973498  
3993.000000	99.973192  
3992.000000	99.972985  
3991.000000	99.973017  
3990.000000	99.973216  
3989.000000	99.973392  
3988.000000	99.973466  
3987.000000	99.973486  
3986.000000	99.973447  
3985.000000	99.973261  
3984.000000	99.972928  
3983.000000	99.972606  
3982.000000	99.972422  
3981.000000	99.972262  
3980.000000	99.971840  
3979.000000	99.970926  
3978.000000	99.969450  
3977.000000	99.967545  
3976.000000	99.965529  
3975.000000	99.963844  
3974.000000	99.962865  
3973.000000	99.962720  
3972.000000	99.963262  
3971.000000	99.964125  
3970.000000	99.964912  
3969.000000	99.965452  
3968.000000	99.965770  
3967.000000	99.965914  
3966.000000	99.965851  
3965.000000	99.965502  
3964.000000	99.964893  
3963.000000	99.964233  
3962.000000	99.963790  
3961.000000	99.963716  
3960.000000	99.963951  
3959.000000	99.964104  
3958.000000	99.963677  
3957.000000	99.962554  
3956.000000	99.961199  
3955.000000	99.960340  
3954.000000	99.960390  
3953.000000	99.961146  
3952.000000	99.961995  
3951.000000	99.962451  
3950.000000	99.962703  
3949.000000	99.963309  
3948.000000	99.964286  
3947.000000	99.964874  
3946.000000	99.964273  
3945.000000	99.962294  
3944.000000	99.959484  
3943.000000	99.956989  
3942.000000	99.955723  
3941.000000	99.955713  
3940.000000	99.956255  
3939.000000	99.956534  
3938.000000	99.956224  
3937.000000	99.955730  
3936.000000	99.955811  
3935.000000	99.956929  
3934.000000	99.958765  
3933.000000	99.960385  
3932.000000	99.960863  
3931.000000	99.959921  
3930.000000	99.958066  
3929.000000	99.955951  
3928.000000	99.953910  
3927.000000	99.952178  
3926.000000	99.951033  
3925.000000	99.950859  
3924.000000	99.952079  
3923.000000	99.954607  
3922.000000	99.957736  
3921.000000	99.960545  
3920.000000	99.962573  
3919.000000	99.963899  
3918.000000	99.964476  
3917.000000	99.963987  
3916.000000	99.962434  
3915.000000	99.960576  
3914.000000	99.959284  
3913.000000	99.958832  
3912.000000	99.959022  
3911.000000	99.959367  
3910.000000	99.959409  
3909.000000	99.959135  
3908.000000	99.959015  
3907.000000	99.959703  
3906.000000	99.961628  
3905.000000	99.964713  
3904.000000	99.968343  
3903.000000	99.971213  
3902.000000	99.972042  
3901.000000	99.970695  
3900.000000	99.968117  
3899.000000	99.965755  
3898.000000	99.964494  
3897.000000	99.964149  
3896.000000	99.964036  
3895.000000	99.963594  
3894.000000	99.962668  
3893.000000	99.961605  
3892.000000	99.960904  
3891.000000	99.960710  
3890.000000	99.960870  
3889.000000	99.961290  
3888.000000	99.961801  
3887.000000	99.961994  
3886.000000	99.961663  
3885.000000	99.961074  
3884.000000	99.960589  
3883.000000	99.960217  
3882.000000	99.959757  
3881.000000	99.959205  
3880.000000	99.958714  
3879.000000	99.958363  
3878.000000	99.958079  
3877.000000	99.957734  
3876.000000	99.957236  
3875.000000	99.956623  
3874.000000	99.956056  
3873.000000	99.955683  
3872.000000	99.955490  
3871.000000	99.955353  
3870.000000	99.955140  
3869.000000	99.954826  
3868.000000	99.954458  
3867.000000	99.954071  
3866.000000	99.953659  
3865.000000	99.953229  
3864.000000	99.952831  
3863.000000	99.952488  
3862.000000	99.952178  
3861.000000	99.951878  
3860.000000	99.951595  
3859.000000	99.951340  
3858.000000	99.951108  
3857.000000	99.950891  
3856.000000	99.950709  
3855.000000	99.950566  
3854.000000	99.950472  
3853.000000	99.950471  
3852.000000	99.950542  
3851.000000	99.950628  
3850.000000	99.950712  
3849.000000	99.950767  
3848.000000	99.950788  
3847.000000	99.950791  
3846.000000	99.950785  
3845.000000	99.950775  
3844.000000	99.950765  
3843.000000	99.950743  
3842.000000	99.950725  
3841.000000	99.950756  
3840.000000	99.950858  
3839.000000	99.951006  
3838.000000	99.951140  
3837.000000	99.951205  
3836.000000	99.951198  
3835.000000	99.951150  
3834.000000	99.951100  
3833.000000	99.951058  
3832.000000	99.951007  
3831.000000	99.950925  
3830.000000	99.950792  
3829.000000	99.950595  
3828.000000	99.950342  
3827.000000	99.950069  
3826.000000	99.949829  
3825.000000	99.949681  
3824.000000	99.949635  
3823.000000	99.949556  
3822.000000	99.949284  
3821.000000	99.948892  
3820.000000	99.948648  
3819.000000	99.948695  
3818.000000	99.948879  
3817.000000	99.948746  
3816.000000	99.947956  
3815.000000	99.946640  
3814.000000	99.945364  
3813.000000	99.944436  
3812.000000	99.943717  
3811.000000	99.943034  
3810.000000	99.942518  
3809.000000	99.942383  
3808.000000	99.942470  
3807.000000	99.942318  
3806.000000	99.941914  
3805.000000	99.941788  
3804.000000	99.942142  
3803.000000	99.942134  
3802.000000	99.940795  
3801.000000	99.938531  
3800.000000	99.936722  
3799.000000	99.936094  
3798.000000	99.936293  
3797.000000	99.936531  
3796.000000	99.936457  
3795.000000	99.936114  
3794.000000	99.935332  
3793.000000	99.933497  
3792.000000	99.930347  
3791.000000	99.926779  
3790.000000	99.924117  
3789.000000	99.922783  
3788.000000	99.922043  
3787.000000	99.921282  
3786.000000	99.920779  
3785.000000	99.921036  
3784.000000	99.921939  
3783.000000	99.923059  
3782.000000	99.923893  
3781.000000	99.923973  
3780.000000	99.923606  
3779.000000	99.923600  
3778.000000	99.924129  
3777.000000	99.924888  
3776.000000	99.925549  
3775.000000	99.925463  
3774.000000	99.924818  
3773.000000	99.925241  
3772.000000	99.927899  
3771.000000	99.931695  
3770.000000	99.934928  
3769.000000	99.937126  
3768.000000	99.938229  
3767.000000	99.938446  
3766.000000	99.938046  
3765.000000	99.937362  
3764.000000	99.937436  
3763.000000	99.939301  
3762.000000	99.941922  
3761.000000	99.942768  
3760.000000	99.942059  
3759.000000	99.943007  
3758.000000	99.946492  
3757.000000	99.950060  
3756.000000	99.952367  
3755.000000	99.954281  
3754.000000	99.956973  
3753.000000	99.960834  
3752.000000	99.966762  
3751.000000	99.975364  
3750.000000	99.982151  
3749.000000	99.982236  
3748.000000	99.978005  
3747.000000	99.975909  
3746.000000	99.977584  
3745.000000	99.978439  
3744.000000	99.974482  
3743.000000	99.968343  
3742.000000	99.965502  
3741.000000	99.966584  
3740.000000	99.968349  
3739.000000	99.969676  
3738.000000	99.971010  
3737.000000	99.971379  
3736.000000	99.970246  
3735.000000	99.969267  
3734.000000	99.969640  
3733.000000	99.969325  
3732.000000	99.966132  
3731.000000	99.961182  
3730.000000	99.957400  
3729.000000	99.956376  
3728.000000	99.956212  
3727.000000	99.953798  
3726.000000	99.949101  
3725.000000	99.945037  
3724.000000	99.943099  
3723.000000	99.941966  
3722.000000	99.940385  
3721.000000	99.938092  
3720.000000	99.935666  
3719.000000	99.934382  
3718.000000	99.934557  
3717.000000	99.935700  
3716.000000	99.937737  
3715.000000	99.940611  
3714.000000	99.943282  
3713.000000	99.944063  
3712.000000	99.943267  
3711.000000	99.942413  
3710.000000	99.941429  
3709.000000	99.939309  
3708.000000	99.935390  
3707.000000	99.930054  
3706.000000	99.924582  
3705.000000	99.920148  
3704.000000	99.916963  
3703.000000	99.914652  
3702.000000	99.913313  
3701.000000	99.912787  
3700.000000	99.912028  
3699.000000	99.910383  
3698.000000	99.908033  
3697.000000	99.905749  
3696.000000	99.904822  
3695.000000	99.905940  
3694.000000	99.907919  
3693.000000	99.908385  
3692.000000	99.906249  
3691.000000	99.902744  
3690.000000	99.900440  
3689.000000	99.900435  
3688.000000	99.901278  
3687.000000	99.901648  
3686.000000	99.902021  
3685.000000	99.902803  
3684.000000	99.903474  
3683.000000	99.903413  
3682.000000	99.902474  
3681.000000	99.900827  
3680.000000	99.898862  
3679.000000	99.897663  
3678.000000	99.898409  
3677.000000	99.900551  
3676.000000	99.902161  
3675.000000	99.902321  
3674.000000	99.901455  
3673.000000	99.900542  
3672.000000	99.899863  
3671.000000	99.898293  
3670.000000	99.895912  
3669.000000	99.894177  
3668.000000	99.893437  
3667.000000	99.893150  
3666.000000	99.892997  
3665.000000	99.892808  
3664.000000	99.892313  
3663.000000	99.891112  
3662.000000	99.888941  
3661.000000	99.886254  
3660.000000	99.884157  
3659.000000	99.883477  
3658.000000	99.883832  
3657.000000	99.883973  
3656.000000	99.883350  
3655.000000	99.882911  
3654.000000	99.884155  
3653.000000	99.887190  
3652.000000	99.890045  
3651.000000	99.890522  
3650.000000	99.889242  
3649.000000	99.888318  
3648.000000	99.887277  
3647.000000	99.884798  
3646.000000	99.881620  
3645.000000	99.879277  
3644.000000	99.878140  
3643.000000	99.877424  
3642.000000	99.875813  
3641.000000	99.872827  
3640.000000	99.868975  
3639.000000	99.865264  
3638.000000	99.862745  
3637.000000	99.862061  
3636.000000	99.863016  
3635.000000	99.864451  
3634.000000	99.865839  
3633.000000	99.868688  
3632.000000	99.874744  
3631.000000	99.882599  
3630.000000	99.887400  
3629.000000	99.886616  
3628.000000	99.882588  
3627.000000	99.878769  
3626.000000	99.876812  
3625.000000	99.875333  
3624.000000	99.871884  
3623.000000	99.865745  
3622.000000	99.858325  
3621.000000	99.851305  
3620.000000	99.846708  
3619.000000	99.846650  
3618.000000	99.850727  
3617.000000	99.856222  
3616.000000	99.861310  
3615.000000	99.865491  
3614.000000	99.869363  
3613.000000	99.874211  
3612.000000	99.880405  
3611.000000	99.886482  
3610.000000	99.889928  
3609.000000	99.888891  
3608.000000	99.884224  
3607.000000	99.878699  
3606.000000	99.873966  
3605.000000	99.869724  
3604.000000	99.864957  
3603.000000	99.859468  
3602.000000	99.854546  
3601.000000	99.851815  
3600.000000	99.852523  
3599.000000	99.856819  
3598.000000	99.862729  
3597.000000	99.867205  
3596.000000	99.868684  
3595.000000	99.868204  
3594.000000	99.868532  
3593.000000	99.871476  
3592.000000	99.876276  
3591.000000	99.880721  
3590.000000	99.882378  
3589.000000	99.879894  
3588.000000	99.874541  
3587.000000	99.869441  
3586.000000	99.866099  
3585.000000	99.864244  
3584.000000	99.863373  
3583.000000	99.863231  
3582.000000	99.863277  
3581.000000	99.862941  
3580.000000	99.862194  
3579.000000	99.861698  
3578.000000	99.862169  
3577.000000	99.863651  
3576.000000	99.865719  
3575.000000	99.867723  
3574.000000	99.869070  
3573.000000	99.869615  
3572.000000	99.869839  
3571.000000	99.870594  
3570.000000	99.872219  
3569.000000	99.873676  
3568.000000	99.873719  
3567.000000	99.872762  
3566.000000	99.871991  
3565.000000	99.871680  
3564.000000	99.871451  
3563.000000	99.870737  
3562.000000	99.869183  
3561.000000	99.867026  
3560.000000	99.864965  
3559.000000	99.863695  
3558.000000	99.863285  
3557.000000	99.863121  
3556.000000	99.862639  
3555.000000	99.862107  
3554.000000	99.862268  
3553.000000	99.863378  
3552.000000	99.864738  
3551.000000	99.865571  
3550.000000	99.865984  
3549.000000	99.866592  
3548.000000	99.867477  
3547.000000	99.868165  
3546.000000	99.868190  
3545.000000	99.867616  
3544.000000	99.866987  
3543.000000	99.866927  
3542.000000	99.867663  
3541.000000	99.868842  
3540.000000	99.869771  
3539.000000	99.870039  
3538.000000	99.869847  
3537.000000	99.869791  
3536.000000	99.870288  
3535.000000	99.871281  
3534.000000	99.872440  
3533.000000	99.873461  
3532.000000	99.874198  
3531.000000	99.874645  
3530.000000	99.874938  
3529.000000	99.875338  
3528.000000	99.876064  
3527.000000	99.877081  
3526.000000	99.878074  
3525.000000	99.878700  
3524.000000	99.878890  
3523.000000	99.878922  
3522.000000	99.879173  
3521.000000	99.879806  
3520.000000	99.880749  
3519.000000	99.881888  
3518.000000	99.883130  
3517.000000	99.884316  
3516.000000	99.885261  
3515.000000	99.885939  
3514.000000	99.886614  
3513.000000	99.887619  
3512.000000	99.889048  
3511.000000	99.890709  
3510.000000	99.892333  
3509.000000	99.893717  
3508.000000	99.894731  
3507.000000	99.895375  
3506.000000	99.895851  
3505.000000	99.896492  
3504.000000	99.897539  
3503.000000	99.898976  
3502.000000	99.900534  
3501.000000	99.901882  
3500.000000	99.902816  
3499.000000	99.903360  
3498.000000	99.903835  
3497.000000	99.904733  
3496.000000	99.906346  
3495.000000	99.908418  
3494.000000	99.910203  
3493.000000	99.911075  
3492.000000	99.910983  
3491.000000	99.910385  
3490.000000	99.909879  
3489.000000	99.909832  
3488.000000	99.910299  
3487.000000	99.911123  
3486.000000	99.912020  
3485.000000	99.912716  
3484.000000	99.913102  
3483.000000	99.913301  
3482.000000	99.913546  
3481.000000	99.913958  
3480.000000	99.914483  
3479.000000	99.915068  
3478.000000	99.915782  
3477.000000	99.916684  
3476.000000	99.917656  
3475.000000	99.918449  
3474.000000	99.918906  
3473.000000	99.919081  
3472.000000	99.919141  
3471.000000	99.919188  
3470.000000	99.919247  
3469.000000	99.919375  
3468.000000	99.919625  
3467.000000	99.919932  
3466.000000	99.920130  
3465.000000	99.920147  
3464.000000	99.920117  
3463.000000	99.920228  
3462.000000	99.920496  
3461.000000	99.920762  
3460.000000	99.920896  
3459.000000	99.920940  
3458.000000	99.921006  
3457.000000	99.921135  
3456.000000	99.921290  
3455.000000	99.921432  
3454.000000	99.921553  
3453.000000	99.921658  
3452.000000	99.921749  
3451.000000	99.921839  
3450.000000	99.921934  
3449.000000	99.922035  
3448.000000	99.922141  
3447.000000	99.922247  
3446.000000	99.922347  
3445.000000	99.922435  
3444.000000	99.922506  
3443.000000	99.922563  
3442.000000	99.922610  
3441.000000	99.922644  
3440.000000	99.922664  
3439.000000	99.922658  
3438.000000	99.922623  
3437.000000	99.922560  
3436.000000	99.922480  
3435.000000	99.922401  
3434.000000	99.922335  
3433.000000	99.922288  
3432.000000	99.922258  
3431.000000	99.922249  
3430.000000	99.922255  
3429.000000	99.922243  
3428.000000	99.922161  
3427.000000	99.921980  
3426.000000	99.921741  
3425.000000	99.921513  
3424.000000	99.921334  
3423.000000	99.921222  
3422.000000	99.921211  
3421.000000	99.921340  
3420.000000	99.921569  
3419.000000	99.921748  
3418.000000	99.921740  
3417.000000	99.921537  
3416.000000	99.921267  
3415.000000	99.921069  
3414.000000	99.920994  
3413.000000	99.921018  
3412.000000	99.921067  
3411.000000	99.921038  
3410.000000	99.920878  
3409.000000	99.920653  
3408.000000	99.920517  
3407.000000	99.920520  
3406.000000	99.920492  
3405.000000	99.920204  
3404.000000	99.919634  
3403.000000	99.918981  
3402.000000	99.918406  
3401.000000	99.917869  
3400.000000	99.917340  
3399.000000	99.917006  
3398.000000	99.917102  
3397.000000	99.917582  
3396.000000	99.918187  
3395.000000	99.918821  
3394.000000	99.919661  
3393.000000	99.920753  
3392.000000	99.921692  
3391.000000	99.922026  
3390.000000	99.921790  
3389.000000	99.921365  
3388.000000	99.920920  
3387.000000	99.920331  
3386.000000	99.919622  
3385.000000	99.919260  
3384.000000	99.919787  
3383.000000	99.921251  
3382.000000	99.923110  
3381.000000	99.924590  
3380.000000	99.925114  
3379.000000	99.924460  
3378.000000	99.922845  
3377.000000	99.920888  
3376.000000	99.919272  
3375.000000	99.918313  
3374.000000	99.917880  
3373.000000	99.917735  
3372.000000	99.917757  
3371.000000	99.917799  
3370.000000	99.917566  
3369.000000	99.916964  
3368.000000	99.916380  
3367.000000	99.916295  
3366.000000	99.916606  
3365.000000	99.916750  
3364.000000	99.916614  
3363.000000	99.916840  
3362.000000	99.917965  
3361.000000	99.919662  
3360.000000	99.921155  
3359.000000	99.922132  
3358.000000	99.922842  
3357.000000	99.923440  
3356.000000	99.923725  
3355.000000	99.923498  
3354.000000	99.922772  
3353.000000	99.921615  
3352.000000	99.920212  
3351.000000	99.919181  
3350.000000	99.919406  
3349.000000	99.921262  
3348.000000	99.924123  
3347.000000	99.926824  
3346.000000	99.928591  
3345.000000	99.929363  
3344.000000	99.929437  
3343.000000	99.929008  
3342.000000	99.928075  
3341.000000	99.926640  
3340.000000	99.924896  
3339.000000	99.923194  
3338.000000	99.921825  
3337.000000	99.920912  
3336.000000	99.920518  
3335.000000	99.920746  
3334.000000	99.921564  
3333.000000	99.922564  
3332.000000	99.923078  
3331.000000	99.922633  
3330.000000	99.921262  
3329.000000	99.919460  
3328.000000	99.917913  
3327.000000	99.917094  
3326.000000	99.916905  
3325.000000	99.916708  
3324.000000	99.915921  
3323.000000	99.914673  
3322.000000	99.913730  
3321.000000	99.913697  
3320.000000	99.914468  
3319.000000	99.915412  
3318.000000	99.915946  
3317.000000	99.915904  
3316.000000	99.915482  
3315.000000	99.915057  
3314.000000	99.914943  
3313.000000	99.915099  
3312.000000	99.915081  
3311.000000	99.914419  
3310.000000	99.913104  
3309.000000	99.911665  
3308.000000	99.910705  
3307.000000	99.910356  
3306.000000	99.910259  
3305.000000	99.909978  
3304.000000	99.909413  
3303.000000	99.908796  
3302.000000	99.908395  
3301.000000	99.908272  
3300.000000	99.908272  
3299.000000	99.908178  
3298.000000	99.907846  
3297.000000	99.907253  
3296.000000	99.906483  
3295.000000	99.905697  
3294.000000	99.905071  
3293.000000	99.904709  
3292.000000	99.904590  
3291.000000	99.904572  
3290.000000	99.904477  
3289.000000	99.904197  
3288.000000	99.903791  
3287.000000	99.903461  
3286.000000	99.903375  
3285.000000	99.903513  
3284.000000	99.903739  
3283.000000	99.904005  
3282.000000	99.904397  
3281.000000	99.904970  
3280.000000	99.905598  
3279.000000	99.906021  
3278.000000	99.906011  
3277.000000	99.905480  
3276.000000	99.904463  
3275.000000	99.903049  
3274.000000	99.901341  
3273.000000	99.899522  
3272.000000	99.897973  
3271.000000	99.897183  
3270.000000	99.897442  
3269.000000	99.898616  
3268.000000	99.900195  
3267.000000	99.901538  
3266.000000	99.902169  
3265.000000	99.901954  
3264.000000	99.901194  
3263.000000	99.900473  
3262.000000	99.900145  
3261.000000	99.900069  
3260.000000	99.899926  
3259.000000	99.899734  
3258.000000	99.899819  
3257.000000	99.900307  
3256.000000	99.900892  
3255.000000	99.901179  
3254.000000	99.901114  
3253.000000	99.900948  
3252.000000	99.900895  
3251.000000	99.900906  
3250.000000	99.900793  
3249.000000	99.900492  
3248.000000	99.900159  
3247.000000	99.900012  
3246.000000	99.900074  
3245.000000	99.900135  
3244.000000	99.899987  
3243.000000	99.899649  
3242.000000	99.899299  
3241.000000	99.899039  
3240.000000	99.898809  
3239.000000	99.898547  
3238.000000	99.898298  
3237.000000	99.898138  
3236.000000	99.898049  
3235.000000	99.897931  
3234.000000	99.897698  
3233.000000	99.897330  
3232.000000	99.896880  
3231.000000	99.896460  
3230.000000	99.896160  
3229.000000	99.895982  
3228.000000	99.895824  
3227.000000	99.895572  
3226.000000	99.895207  
3225.000000	99.894836  
3224.000000	99.894591  
3223.000000	99.894493  
3222.000000	99.894391  
3221.000000	99.894088  
3220.000000	99.893522  
3219.000000	99.892832  
3218.000000	99.892222  
3217.000000	99.891752  
3216.000000	99.891324  
3215.000000	99.890850  
3214.000000	99.890353  
3213.000000	99.889880  
3212.000000	99.889419  
3211.000000	99.888939  
3210.000000	99.888456  
3209.000000	99.887961  
3208.000000	99.887351  
3207.000000	99.886530  
3206.000000	99.885558  
3205.000000	99.884647  
3204.000000	99.883966  
3203.000000	99.883512  
3202.000000	99.883179  
3201.000000	99.882899  
3200.000000	99.882640  
3199.000000	99.882343  
3198.000000	99.881932  
3197.000000	99.881385  
3196.000000	99.880766  
3195.000000	99.880156  
3194.000000	99.879591  
3193.000000	99.879056  
3192.000000	99.878532  
3191.000000	99.878023  
3190.000000	99.877538  
3189.000000	99.877075  
3188.000000	99.876617  
3187.000000	99.876130  
3186.000000	99.875584  
3185.000000	99.874982  
3184.000000	99.874355  
3183.000000	99.873753  
3182.000000	99.873199  
3181.000000	99.872683  
3180.000000	99.872173  
3179.000000	99.871649  
3178.000000	99.871122  
3177.000000	99.870616  
3176.000000	99.870139  
3175.000000	99.869681  
3174.000000	99.869219  
3173.000000	99.868728  
3172.000000	99.868195  
3171.000000	99.867632  
3170.000000	99.867076  
3169.000000	99.866548  
3168.000000	99.866049  
3167.000000	99.865580  
3166.000000	99.865154  
3165.000000	99.864781  
3164.000000	99.864434  
3163.000000	99.864055  
3162.000000	99.863596  
3161.000000	99.863047  
3160.000000	99.862457  
3159.000000	99.861936  
3158.000000	99.861591  
3157.000000	99.861422  
3156.000000	99.861235  
3155.000000	99.860773  
3154.000000	99.859941  
3153.000000	99.858926  
3152.000000	99.858065  
3151.000000	99.857499  
3150.000000	99.857033  
3149.000000	99.856361  
3148.000000	99.855507  
3147.000000	99.854889  
3146.000000	99.854836  
3145.000000	99.855201  
3144.000000	99.855539  
3143.000000	99.855649  
3142.000000	99.855695  
3141.000000	99.855816  
3140.000000	99.855861  
3139.000000	99.855605  
3138.000000	99.855077  
3137.000000	99.854529  
3136.000000	99.854188  
3135.000000	99.854129  
3134.000000	99.854252  
3133.000000	99.854315  
3132.000000	99.854062  
3131.000000	99.853423  
3130.000000	99.852566  
3129.000000	99.851758  
3128.000000	99.851187  
3127.000000	99.850899  
3126.000000	99.850842  
3125.000000	99.850916  
3124.000000	99.851007  
3123.000000	99.851007  
3122.000000	99.850791  
3121.000000	99.850244  
3120.000000	99.849362  
3119.000000	99.848342  
3118.000000	99.847511  
3117.000000	99.847098  
3116.000000	99.847103  
3115.000000	99.847333  
3114.000000	99.847533  
3113.000000	99.847558  
3112.000000	99.847428  
3111.000000	99.847256  
3110.000000	99.847117  
3109.000000	99.846967  
3108.000000	99.846728  
3107.000000	99.846385  
3106.000000	99.845996  
3105.000000	99.845615  
3104.000000	99.845249  
3103.000000	99.844879  
3102.000000	99.844504  
3101.000000	99.844143  
3100.000000	99.843803  
3099.000000	99.843472  
3098.000000	99.843129  
3097.000000	99.842761  
3096.000000	99.842372  
3095.000000	99.841974  
3094.000000	99.841570  
3093.000000	99.841161  
3092.000000	99.840742  
3091.000000	99.840314  
3090.000000	99.839876  
3089.000000	99.839431  
3088.000000	99.838985  
3087.000000	99.838542  
3086.000000	99.838103  
3085.000000	99.837663  
3084.000000	99.837216  
3083.000000	99.836761  
3082.000000	99.836296  
3081.000000	99.835825  
3080.000000	99.835354  
3079.000000	99.834883  
3078.000000	99.834412  
3077.000000	99.833937  
3076.000000	99.833449  
3075.000000	99.832940  
3074.000000	99.832409  
3073.000000	99.831861  
3072.000000	99.831299  
3071.000000	99.830729  
3070.000000	99.830150  
3069.000000	99.829562  
3068.000000	99.828964  
3067.000000	99.828350  
3066.000000	99.827723  
3065.000000	99.827114  
3064.000000	99.826586  
3063.000000	99.826180  
3062.000000	99.825850  
3061.000000	99.825451  
3060.000000	99.824861  
3059.000000	99.824131  
3058.000000	99.823450  
3057.000000	99.822864  
3056.000000	99.822167  
3055.000000	99.821172  
3054.000000	99.819971  
3053.000000	99.818858  
3052.000000	99.818024  
3051.000000	99.817469  
3050.000000	99.817065  
3049.000000	99.816603  
3048.000000	99.815878  
3047.000000	99.814881  
3046.000000	99.813841  
3045.000000	99.812933  
3044.000000	99.812109  
3043.000000	99.811402  
3042.000000	99.811092  
3041.000000	99.811255  
3040.000000	99.811295  
3039.000000	99.810495  
3038.000000	99.808920  
3037.000000	99.807348  
3036.000000	99.806237  
3035.000000	99.805215  
3034.000000	99.803862  
3033.000000	99.802584  
3032.000000	99.802159  
3031.000000	99.802521  
3030.000000	99.802513  
3029.000000	99.801091  
3028.000000	99.798461  
3027.000000	99.795851  
3026.000000	99.794202  
3025.000000	99.793344  
3024.000000	99.792536  
3023.000000	99.791484  
3022.000000	99.790509  
3021.000000	99.789874  
3020.000000	99.789264  
3019.000000	99.788007  
3018.000000	99.785563  
3017.000000	99.781832  
3016.000000	99.777227  
3015.000000	99.772602  
3014.000000	99.768868  
3013.000000	99.766457  
3012.000000	99.765111  
3011.000000	99.764180  
3010.000000	99.763132  
3009.000000	99.761950  
3008.000000	99.761169  
3007.000000	99.761306  
3006.000000	99.762094  
3005.000000	99.762549  
3004.000000	99.761985  
3003.000000	99.760547  
3002.000000	99.758372  
3001.000000	99.754862  
3000.000000	99.749669  
2999.000000	99.743992  
2998.000000	99.739733  
2997.000000	99.737383  
2996.000000	99.735768  
2995.000000	99.734042  
2994.000000	99.732816  
2993.000000	99.732742  
2992.000000	99.733113  
2991.000000	99.732715  
2990.000000	99.731435  
2989.000000	99.730156  
2988.000000	99.729509  
2987.000000	99.729419  
2986.000000	99.729501  
2985.000000	99.729338  
2984.000000	99.728713  
2983.000000	99.728155  
2982.000000	99.728857  
2981.000000	99.731377  
2980.000000	99.734617  
2979.000000	99.736716  
2978.000000	99.736941  
2977.000000	99.736191  
2976.000000	99.735739  
2975.000000	99.736048  
2974.000000	99.736984  
2973.000000	99.738725  
2972.000000	99.742072  
2971.000000	99.747699  
2970.000000	99.754994  
2969.000000	99.761882  
2968.000000	99.766391  
2967.000000	99.768643  
2966.000000	99.770896  
2965.000000	99.775325  
2964.000000	99.782020  
2963.000000	99.789236  
2962.000000	99.795022  
2961.000000	99.798275  
2960.000000	99.798968  
2959.000000	99.798396  
2958.000000	99.798936  
2957.000000	99.802424  
2956.000000	99.808275  
2955.000000	99.813649  
2954.000000	99.815859  
2953.000000	99.814597  
2952.000000	99.811915  
2951.000000	99.810388  
2950.000000	99.811306  
2949.000000	99.814240  
2948.000000	99.817960  
2947.000000	99.821654  
2946.000000	99.825316  
2945.000000	99.829096  
2944.000000	99.832666  
2943.000000	99.835466  
2942.000000	99.837482  
2941.000000	99.839517  
2940.000000	99.842609  
2939.000000	99.847248  
2938.000000	99.853213  
2937.000000	99.860237  
2936.000000	99.868774  
2935.000000	99.879798  
2934.000000	99.893442  
2933.000000	99.907925  
2932.000000	99.920267  
2931.000000	99.928325  
2930.000000	99.932150  
2929.000000	99.933628  
2928.000000	99.935164  
2927.000000	99.938419  
2926.000000	99.943520  
2925.000000	99.948934  
2924.000000	99.952368  
2923.000000	99.952227  
2922.000000	99.948408  
2921.000000	99.941833  
2920.000000	99.933330  
2919.000000	99.922961  
2918.000000	99.910347  
2917.000000	99.895759  
2916.000000	99.880972  
2915.000000	99.868679  
2914.000000	99.860529  
2913.000000	99.855776  
2912.000000	99.852050  
2911.000000	99.847477  
2910.000000	99.841835  
2909.000000	99.835981  
2908.000000	99.830874  
2907.000000	99.827003  
2906.000000	99.824088  
2905.000000	99.820968  
2904.000000	99.816426  
2903.000000	99.810564  
2902.000000	99.805291  
2901.000000	99.802416  
2900.000000	99.802766  
2899.000000	99.805091  
2898.000000	99.807120  
2897.000000	99.807157  
2896.000000	99.805321  
2895.000000	99.803292  
2894.000000	99.802557  
2893.000000	99.802788  
2892.000000	99.802240  
2891.000000	99.799582  
2890.000000	99.794957  
2889.000000	99.789470  
2888.000000	99.784442  
2887.000000	99.781174  
2886.000000	99.780564  
2885.000000	99.782370  
2884.000000	99.785167  
2883.000000	99.787353  
2882.000000	99.788073  
2881.000000	99.787272  
2880.000000	99.785630  
2879.000000	99.784713  
2878.000000	99.786343  
2877.000000	99.790930  
2876.000000	99.796715  
2875.000000	99.801372  
2874.000000	99.804355  
2873.000000	99.807089  
2872.000000	99.810893  
2871.000000	99.815216  
2870.000000	99.818147  
2869.000000	99.818359  
2868.000000	99.816421  
2867.000000	99.814420  
2866.000000	99.814407  
2865.000000	99.817142  
2864.000000	99.822084  
2863.000000	99.828340  
2862.000000	99.835364  
2861.000000	99.842925  
2860.000000	99.850952  
2859.000000	99.859575  
2858.000000	99.868755  
2857.000000	99.877469  
2856.000000	99.883734  
2855.000000	99.886159  
2854.000000	99.885374  
2853.000000	99.883343  
2852.000000	99.881108  
2851.000000	99.877691  
2850.000000	99.871466  
2849.000000	99.862078  
2848.000000	99.850793  
2847.000000	99.839640  
2846.000000	99.830773  
2845.000000	99.826099  
2844.000000	99.826129  
2843.000000	99.828751  
2842.000000	99.829946  
2841.000000	99.826715  
2840.000000	99.819318  
2839.000000	99.810574  
2838.000000	99.803413  
2837.000000	99.799271  
2836.000000	99.798040  
2835.000000	99.798437  
2834.000000	99.798705  
2833.000000	99.797995  
2832.000000	99.797131  
2831.000000	99.797145  
2830.000000	99.797235  
2829.000000	99.795393  
2828.000000	99.791278  
2827.000000	99.787114  
2826.000000	99.785062  
2825.000000	99.784849  
2824.000000	99.784974  
2823.000000	99.785176  
2822.000000	99.786295  
2821.000000	99.788227  
2820.000000	99.789494  
2819.000000	99.788975  
2818.000000	99.786984  
2817.000000	99.784507  
2816.000000	99.782274  
2815.000000	99.780731  
2814.000000	99.780116  
2813.000000	99.780228  
2812.000000	99.780557  
2811.000000	99.780819  
2810.000000	99.781076  
2809.000000	99.781361  
2808.000000	99.781552  
2807.000000	99.781530  
2806.000000	99.781128  
2805.000000	99.779993  
2804.000000	99.777927  
2803.000000	99.775435  
2802.000000	99.773501  
2801.000000	99.772592  
2800.000000	99.772277  
2799.000000	99.772007  
2798.000000	99.771821  
2797.000000	99.772023  
2796.000000	99.772521  
2795.000000	99.772852  
2794.000000	99.772731  
2793.000000	99.772314  
2792.000000	99.771871  
2791.000000	99.771417  
2790.000000	99.770767  
2789.000000	99.769902  
2788.000000	99.769119  
2787.000000	99.768732  
2786.000000	99.768734  
2785.000000	99.768850  
2784.000000	99.768870  
2783.000000	99.768773  
2782.000000	99.768585  
2781.000000	99.768305  
2780.000000	99.767980  
2779.000000	99.767749  
2778.000000	99.767716  
2777.000000	99.767832  
2776.000000	99.767909  
2775.000000	99.767817  
2774.000000	99.767591  
2773.000000	99.767353  
2772.000000	99.767204  
2771.000000	99.767160  
2770.000000	99.767158  
2769.000000	99.767099  
2768.000000	99.766938  
2767.000000	99.766733  
2766.000000	99.766572  
2765.000000	99.766440  
2764.000000	99.766234  
2763.000000	99.765938  
2762.000000	99.765725  
2761.000000	99.765771  
2760.000000	99.766047  
2759.000000	99.766340  
2758.000000	99.766478  
2757.000000	99.766493  
2756.000000	99.766544  
2755.000000	99.766733  
2754.000000	99.767006  
2753.000000	99.767225  
2752.000000	99.767334  
2751.000000	99.767422  
2750.000000	99.767575  
2749.000000	99.767735  
2748.000000	99.767784  
2747.000000	99.767750  
2746.000000	99.767808  
2745.000000	99.768045  
2744.000000	99.768348  
2743.000000	99.768549  
2742.000000	99.768622  
2741.000000	99.768636  
2740.000000	99.768612  
2739.000000	99.768519  
2738.000000	99.768394  
2737.000000	99.768344  
2736.000000	99.768421  
2735.000000	99.768546  
2734.000000	99.768583  
2733.000000	99.768475  
2732.000000	99.768289  
2731.000000	99.768152  
2730.000000	99.768141  
2729.000000	99.768239  
2728.000000	99.768380  
2727.000000	99.768506  
2726.000000	99.768595  
2725.000000	99.768643  
2724.000000	99.768667  
2723.000000	99.768689  
2722.000000	99.768720  
2721.000000	99.768729  
2720.000000	99.768683  
2719.000000	99.768583  
2718.000000	99.768468  
2717.000000	99.768371  
2716.000000	99.768296  
2715.000000	99.768224  
2714.000000	99.768125  
2713.000000	99.767980  
2712.000000	99.767790  
2711.000000	99.767581  
2710.000000	99.767396  
2709.000000	99.767267  
2708.000000	99.767203  
2707.000000	99.767193  
2706.000000	99.767195  
2705.000000	99.767140  
2704.000000	99.766962  
2703.000000	99.766675  
2702.000000	99.766407  
2701.000000	99.766284  
2700.000000	99.766312  
2699.000000	99.766374  
2698.000000	99.766332  
2697.000000	99.766102  
2696.000000	99.765671  
2695.000000	99.765139  
2694.000000	99.764688  
2693.000000	99.764374  
2692.000000	99.763978  
2691.000000	99.763275  
2690.000000	99.762408  
2689.000000	99.761761  
2688.000000	99.761418  
2687.000000	99.761055  
2686.000000	99.760485  
2685.000000	99.760056  
2684.000000	99.760250  
2683.000000	99.761013  
2682.000000	99.761644  
2681.000000	99.761410  
2680.000000	99.760158  
2679.000000	99.758412  
2678.000000	99.756962  
2677.000000	99.756337  
2676.000000	99.756573  
2675.000000	99.757309  
2674.000000	99.757986  
2673.000000	99.758073  
2672.000000	99.757416  
2671.000000	99.756449  
2670.000000	99.755907  
2669.000000	99.756134  
2668.000000	99.756658  
2667.000000	99.756558  
2666.000000	99.755244  
2665.000000	99.752895  
2664.000000	99.750218  
2663.000000	99.747787  
2662.000000	99.745555  
2661.000000	99.743182  
2660.000000	99.740860  
2659.000000	99.739370  
2658.000000	99.739029  
2657.000000	99.738926  
2656.000000	99.737774  
2655.000000	99.735438  
2654.000000	99.733058  
2653.000000	99.731721  
2652.000000	99.731602  
2651.000000	99.732361  
2650.000000	99.733555  
2649.000000	99.734488  
2648.000000	99.734444  
2647.000000	99.733535  
2646.000000	99.732807  
2645.000000	99.733039  
2644.000000	99.733879  
2643.000000	99.734472  
2642.000000	99.734528  
2641.000000	99.734284  
2640.000000	99.733839  
2639.000000	99.733124  
2638.000000	99.732334  
2637.000000	99.731866  
2636.000000	99.731902  
2635.000000	99.732457  
2634.000000	99.733658  
2633.000000	99.735531  
2632.000000	99.737572  
2631.000000	99.738943  
2630.000000	99.739246  
2629.000000	99.738839  
2628.000000	99.738414  
2627.000000	99.738393  
2626.000000	99.738665  
2625.000000	99.738807  
2624.000000	99.738560  
2623.000000	99.738193  
2622.000000	99.738327  
2621.000000	99.739296  
2620.000000	99.740820  
2619.000000	99.742278  
2618.000000	99.743274  
2617.000000	99.743802  
2616.000000	99.743990  
2615.000000	99.743946  
2614.000000	99.743850  
2613.000000	99.743960  
2612.000000	99.744420  
2611.000000	99.745169  
2610.000000	99.746054  
2609.000000	99.746934  
2608.000000	99.747715  
2607.000000	99.748344  
2606.000000	99.748856  
2605.000000	99.749363  
2604.000000	99.749963  
2603.000000	99.750665  
2602.000000	99.751427  
2601.000000	99.752217  
2600.000000	99.753012  
2599.000000	99.753786  
2598.000000	99.754528  
2597.000000	99.755259  
2596.000000	99.756007  
2595.000000	99.756774  
2594.000000	99.757537  
2593.000000	99.758278  
2592.000000	99.758986  
2591.000000	99.759669  
2590.000000	99.760347  
2589.000000	99.761045  
2588.000000	99.761767  
2587.000000	99.762499  
2586.000000	99.763214  
2585.000000	99.763900  
2584.000000	99.764563  
2583.000000	99.765223  
2582.000000	99.765894  
2581.000000	99.766584  
2580.000000	99.767291  
2579.000000	99.768010  
2578.000000	99.768730  
2577.000000	99.769445  
2576.000000	99.770152  
2575.000000	99.770855  
2574.000000	99.771558  
2573.000000	99.772263  
2572.000000	99.772967  
2571.000000	99.773663  
2570.000000	99.774346  
2569.000000	99.775021  
2568.000000	99.775694  
2567.000000	99.776370  
2566.000000	99.777045  
2565.000000	99.777707  
2564.000000	99.778348  
2563.000000	99.778965  
2562.000000	99.779556  
2561.000000	99.780120  
2560.000000	99.780654  
2559.000000	99.781156  
2558.000000	99.781627  
2557.000000	99.782069  
2556.000000	99.782493  
2555.000000	99.782907  
2554.000000	99.783321  
2553.000000	99.783733  
2552.000000	99.784141  
2551.000000	99.784538  
2550.000000	99.784916  
2549.000000	99.785271  
2548.000000	99.785602  
2547.000000	99.785915  
2546.000000	99.786216  
2545.000000	99.786505  
2544.000000	99.786781  
2543.000000	99.787044  
2542.000000	99.787293  
2541.000000	99.787525  
2540.000000	99.787733  
2539.000000	99.787917  
2538.000000	99.788077  
2537.000000	99.788214  
2536.000000	99.788333  
2535.000000	99.788447  
2534.000000	99.788571  
2533.000000	99.788706  
2532.000000	99.788826  
2531.000000	99.788912  
2530.000000	99.788967  
2529.000000	99.789007  
2528.000000	99.789055  
2527.000000	99.789143  
2526.000000	99.789291  
2525.000000	99.789449  
2524.000000	99.789514  
2523.000000	99.789442  
2522.000000	99.789328  
2521.000000	99.789320  
2520.000000	99.789473  
2519.000000	99.789734  
2518.000000	99.789992  
2517.000000	99.790151  
2516.000000	99.790200  
2515.000000	99.790316  
2514.000000	99.790783  
2513.000000	99.791721  
2512.000000	99.792867  
2511.000000	99.793723  
2510.000000	99.793975  
2509.000000	99.793698  
2508.000000	99.793294  
2507.000000	99.793155  
2506.000000	99.793372  
2505.000000	99.793711  
2504.000000	99.793884  
2503.000000	99.793799  
2502.000000	99.793486  
2501.000000	99.792947  
2500.000000	99.792348  
2499.000000	99.792252  
2498.000000	99.793280  
2497.000000	99.795435  
2496.000000	99.797936  
2495.000000	99.799801  
2494.000000	99.800553  
2493.000000	99.800390  
2492.000000	99.800037  
2491.000000	99.800359  
2490.000000	99.801702  
2489.000000	99.803528  
2488.000000	99.804911  
2487.000000	99.805506  
2486.000000	99.805703  
2485.000000	99.805802  
2484.000000	99.805488  
2483.000000	99.804422  
2482.000000	99.802986  
2481.000000	99.802112  
2480.000000	99.802503  
2479.000000	99.804261  
2478.000000	99.807049  
2477.000000	99.810216  
2476.000000	99.812833  
2475.000000	99.813949  
2474.000000	99.813136  
2473.000000	99.810898  
2472.000000	99.808442  
2471.000000	99.806786  
2470.000000	99.806008  
2469.000000	99.805434  
2468.000000	99.804546  
2467.000000	99.803471  
2466.000000	99.802522  
2465.000000	99.801655  
2464.000000	99.800715  
2463.000000	99.799949  
2462.000000	99.799848  
2461.000000	99.800479  
2460.000000	99.801238  
2459.000000	99.801329  
2458.000000	99.800449  
2457.000000	99.799105  
2456.000000	99.798316  
2455.000000	99.798749  
2454.000000	99.799969  
2453.000000	99.800748  
2452.000000	99.800325  
2451.000000	99.799200  
2450.000000	99.798518  
2449.000000	99.798931  
2448.000000	99.800308  
2447.000000	99.802101  
2446.000000	99.803661  
2445.000000	99.804410  
2444.000000	99.804149  
2443.000000	99.803250  
2442.000000	99.802367  
2441.000000	99.801912  
2440.000000	99.801910  
2439.000000	99.802166  
2438.000000	99.802403  
2437.000000	99.802378  
2436.000000	99.802082  
2435.000000	99.801732  
2434.000000	99.801479  
2433.000000	99.801327  
2432.000000	99.801424  
2431.000000	99.802081  
2430.000000	99.803337  
2429.000000	99.804708  
2428.000000	99.805588  
2427.000000	99.805890  
2426.000000	99.805979  
2425.000000	99.806170  
2424.000000	99.806529  
2423.000000	99.807048  
2422.000000	99.807682  
2421.000000	99.808273  
2420.000000	99.808704  
2419.000000	99.809079  
2418.000000	99.809511  
2417.000000	99.809844  
2416.000000	99.809876  
2415.000000	99.809766  
2414.000000	99.809881  
2413.000000	99.810338  
2412.000000	99.810994  
2411.000000	99.811760  
2410.000000	99.812523  
2409.000000	99.812910  
2408.000000	99.812628  
2407.000000	99.811943  
2406.000000	99.811436  
2405.000000	99.811249  
2404.000000	99.811014  
2403.000000	99.810549  
2402.000000	99.810158  
2401.000000	99.810131  
2400.000000	99.810391  
2399.000000	99.810790  
2398.000000	99.811339  
2397.000000	99.811961  
2396.000000	99.812335  
2395.000000	99.812257  
2394.000000	99.811872  
2393.000000	99.811489  
2392.000000	99.811242  
2391.000000	99.811078  
2390.000000	99.810909  
2389.000000	99.810656  
2388.000000	99.810289  
2387.000000	99.809900  
2386.000000	99.809612  
2385.000000	99.809408  
2384.000000	99.809156  
2383.000000	99.808761  
2382.000000	99.808271  
2381.000000	99.807760  
2380.000000	99.807250  
2379.000000	99.806712  
2378.000000	99.806143  
2377.000000	99.805551  
2376.000000	99.804938  
2375.000000	99.804303  
2374.000000	99.803653  
2373.000000	99.802995  
2372.000000	99.802334  
2371.000000	99.801670  
2370.000000	99.800995  
2369.000000	99.800302  
2368.000000	99.799583  
2367.000000	99.798836  
2366.000000	99.798064  
2365.000000	99.797268  
2364.000000	99.796451  
2363.000000	99.795616  
2362.000000	99.794772  
2361.000000	99.793926  
2360.000000	99.793085  
2359.000000	99.792253  
2358.000000	99.791431  
2357.000000	99.790614  
2356.000000	99.789793  
2355.000000	99.788960  
2354.000000	99.788111  
2353.000000	99.787254  
2352.000000	99.786406  
2351.000000	99.785577  
2350.000000	99.784771  
2349.000000	99.783977  
2348.000000	99.783189  
2347.000000	99.782408  
2346.000000	99.781647  
2345.000000	99.780922  
2344.000000	99.780237  
2343.000000	99.779577  
2342.000000	99.778924  
2341.000000	99.778265  
2340.000000	99.777606  
2339.000000	99.776943  
2338.000000	99.776274  
2337.000000	99.775631  
2336.000000	99.775042  
2335.000000	99.774486  
2334.000000	99.773904  
2333.000000	99.773276  
2332.000000	99.772764  
2331.000000	99.772536  
2330.000000	99.772547  
2329.000000	99.772366  
2328.000000	99.771608  
2327.000000	99.770038  
2326.000000	99.767786  
2325.000000	99.765354  
2324.000000	99.763604  
2323.000000	99.763207  
2322.000000	99.764110  
2321.000000	99.765665  
2320.000000	99.767422  
2319.000000	99.769150  
2318.000000	99.770747  
2317.000000	99.771754  
2316.000000	99.771925  
2315.000000	99.770837  
2314.000000	99.768594  
2313.000000	99.765615  
2312.000000	99.763289  
2311.000000	99.762448  
2310.000000	99.763067  
2309.000000	99.764122  
2308.000000	99.765220  
2307.000000	99.766392  
2306.000000	99.767831  
2305.000000	99.769067  
2304.000000	99.769743  
2303.000000	99.769563  
2302.000000	99.768556  
2301.000000	99.766519  
2300.000000	99.763542  
2299.000000	99.759608  
2298.000000	99.755348  
2297.000000	99.751668  
2296.000000	99.749876  
2295.000000	99.750136  
2294.000000	99.751096  
2293.000000	99.750505  
2292.000000	99.747496  
2291.000000	99.742986  
2290.000000	99.738417  
2289.000000	99.734507  
2288.000000	99.731578  
2287.000000	99.730284  
2286.000000	99.731204  
2285.000000	99.734099  
2284.000000	99.737924  
2283.000000	99.741756  
2282.000000	99.745167  
2281.000000	99.748446  
2280.000000	99.752323  
2279.000000	99.756948  
2278.000000	99.760947  
2277.000000	99.762638  
2276.000000	99.762428  
2275.000000	99.762709  
2274.000000	99.764767  
2273.000000	99.767024  
2272.000000	99.767405  
2271.000000	99.766290  
2270.000000	99.766078  
2269.000000	99.768293  
2268.000000	99.772141  
2267.000000	99.775510  
2266.000000	99.776774  
2265.000000	99.775919  
2264.000000	99.774382  
2263.000000	99.773697  
2262.000000	99.774103  
2261.000000	99.774649  
2260.000000	99.774681  
2259.000000	99.774667  
2258.000000	99.775340  
2257.000000	99.776667  
2256.000000	99.778023  
2255.000000	99.779023  
2254.000000	99.779795  
2253.000000	99.780611  
2252.000000	99.781568  
2251.000000	99.782599  
2250.000000	99.783600  
2249.000000	99.784531  
2248.000000	99.785440  
2247.000000	99.786366  
2246.000000	99.787297  
2245.000000	99.788191  
2244.000000	99.789026  
2243.000000	99.789800  
2242.000000	99.790529  
2241.000000	99.791259  
2240.000000	99.792064  
2239.000000	99.793001  
2238.000000	99.793987  
2237.000000	99.794780  
2236.000000	99.795198  
2235.000000	99.795386  
2234.000000	99.795784  
2233.000000	99.796682  
2232.000000	99.797949  
2231.000000	99.799190  
2230.000000	99.800100  
2229.000000	99.800553  
2228.000000	99.800463  
2227.000000	99.799763  
2226.000000	99.798548  
2225.000000	99.797262  
2224.000000	99.796684  
2223.000000	99.797467  
2222.000000	99.799549  
2221.000000	99.801877  
2220.000000	99.803161  
2219.000000	99.803118  
2218.000000	99.802707  
2217.000000	99.803132  
2216.000000	99.804720  
2215.000000	99.806957  
2214.000000	99.809172  
2213.000000	99.810793  
2212.000000	99.811228  
2211.000000	99.810215  
2210.000000	99.808462  
2209.000000	99.807412  
2208.000000	99.808023  
2207.000000	99.810067  
2206.000000	99.812667  
2205.000000	99.815310  
2204.000000	99.817997  
2203.000000	99.820449  
2202.000000	99.821853  
2201.000000	99.821656  
2200.000000	99.819979  
2199.000000	99.817334  
2198.000000	99.814135  
2197.000000	99.810836  
2196.000000	99.808542  
2195.000000	99.808554  
2194.000000	99.810926  
2193.000000	99.813763  
2192.000000	99.814380  
2191.000000	99.811378  
2190.000000	99.805730  
2189.000000	99.799983  
2188.000000	99.796229  
2187.000000	99.794956  
2186.000000	99.796002  
2185.000000	99.799839  
2184.000000	99.806652  
2183.000000	99.814140  
2182.000000	99.818115  
2181.000000	99.816784  
2180.000000	99.813223  
2179.000000	99.811798  
2178.000000	99.813031  
2177.000000	99.814284  
2176.000000	99.814692  
2175.000000	99.816489  
2174.000000	99.820885  
2173.000000	99.825494  
2172.000000	99.827363  
2171.000000	99.826473  
2170.000000	99.824522  
2169.000000	99.821920  
2168.000000	99.817875  
2167.000000	99.812548  
2166.000000	99.807211  
2165.000000	99.802474  
2164.000000	99.797901  
2163.000000	99.793920  
2162.000000	99.793598  
2161.000000	99.801971  
2160.000000	99.822640  
2159.000000	99.853060  
2158.000000	99.882593  
2157.000000	99.899717  
2156.000000	99.901649  
2155.000000	99.894455  
2154.000000	99.885899  
2153.000000	99.879459  
2152.000000	99.875192  
2151.000000	99.872766  
2150.000000	99.871418  
2149.000000	99.869440  
2148.000000	99.866541  
2147.000000	99.865548  
2146.000000	99.869497  
2145.000000	99.877783  
2144.000000	99.886942  
2143.000000	99.894235  
2142.000000	99.898311  
2141.000000	99.897572  
2140.000000	99.890989  
2139.000000	99.880828  
2138.000000	99.872281  
2137.000000	99.869202  
2136.000000	99.871272  
2135.000000	99.875535  
2134.000000	99.879320  
2133.000000	99.881344  
2132.000000	99.881359  
2131.000000	99.879621  
2130.000000	99.876136  
2129.000000	99.870196  
2128.000000	99.861366  
2127.000000	99.851171  
2126.000000	99.842992  
2125.000000	99.839349  
2124.000000	99.839471  
2123.000000	99.840022  
2122.000000	99.838194  
2121.000000	99.833821  
2120.000000	99.828568  
2119.000000	99.823740  
2118.000000	99.819407  
2117.000000	99.815370  
2116.000000	99.812065  
2115.000000	99.810165  
2114.000000	99.809789  
2113.000000	99.810591  
2112.000000	99.812566  
2111.000000	99.815514  
2110.000000	99.817657  
2109.000000	99.816568  
2108.000000	99.812131  
2107.000000	99.807412  
2106.000000	99.805643  
2105.000000	99.806786  
2104.000000	99.807908  
2103.000000	99.806503  
2102.000000	99.802694  
2101.000000	99.798319  
2100.000000	99.794981  
2099.000000	99.793309  
2098.000000	99.793397  
2097.000000	99.795260  
2096.000000	99.798573  
2095.000000	99.802089  
2094.000000	99.803908  
2093.000000	99.802887  
2092.000000	99.799589  
2091.000000	99.795803  
2090.000000	99.792969  
2089.000000	99.791073  
2088.000000	99.789132  
2087.000000	99.786411  
2086.000000	99.783199  
2085.000000	99.780592  
2084.000000	99.779530  
2083.000000	99.780049  
2082.000000	99.781327  
2081.000000	99.782306  
2080.000000	99.782428  
2079.000000	99.781778  
2078.000000	99.780776  
2077.000000	99.779862  
2076.000000	99.779278  
2075.000000	99.778949  
2074.000000	99.778555  
2073.000000	99.777855  
2072.000000	99.776968  
2071.000000	99.776292  
2070.000000	99.776094  
2069.000000	99.776236  
2068.000000	99.776301  
2067.000000	99.775978  
2066.000000	99.775347  
2065.000000	99.774899  
2064.000000	99.775192  
2063.000000	99.776312  
2062.000000	99.777598  
2061.000000	99.778095  
2060.000000	99.777426  
2059.000000	99.776128  
2058.000000	99.775208  
2057.000000	99.775367  
2056.000000	99.776677  
2055.000000	99.778526  
2054.000000	99.779728  
2053.000000	99.779177  
2052.000000	99.776591  
2051.000000	99.772777  
2050.000000	99.769261  
2049.000000	99.767275  
2048.000000	99.767311  
2047.000000	99.769234  
2046.000000	99.772206  
2045.000000	99.774812  
2044.000000	99.775938  
2043.000000	99.775644  
2042.000000	99.774951  
2041.000000	99.774837  
2040.000000	99.775694  
2039.000000	99.777529  
2038.000000	99.780169  
2037.000000	99.783206  
2036.000000	99.786079  
2035.000000	99.788231  
2034.000000	99.789182  
2033.000000	99.788928  
2032.000000	99.788408  
2031.000000	99.788699  
2030.000000	99.789456  
2029.000000	99.789206  
2028.000000	99.787687  
2027.000000	99.786624  
2026.000000	99.787225  
2025.000000	99.787997  
2024.000000	99.786603  
2023.000000	99.783213  
2022.000000	99.780402  
2021.000000	99.779739  
2020.000000	99.780015  
2019.000000	99.779313  
2018.000000	99.777503  
2017.000000	99.775955  
2016.000000	99.775868  
2015.000000	99.777790  
2014.000000	99.781946  
2013.000000	99.787606  
2012.000000	99.792244  
2011.000000	99.792801  
2010.000000	99.788498  
2009.000000	99.782240  
2008.000000	99.778253  
2007.000000	99.777782  
2006.000000	99.778368  
2005.000000	99.777026  
2004.000000	99.773097  
2003.000000	99.767689  
2002.000000	99.761962  
2001.000000	99.757135  
2000.000000	99.754922  
1999.000000	99.756163  
1998.000000	99.759319  
1997.000000	99.761558  
1996.000000	99.761546  
1995.000000	99.759898  
1994.000000	99.757079  
1993.000000	99.752640  
1992.000000	99.747286  
1991.000000	99.743938  
1990.000000	99.744975  
1989.000000	99.749484  
1988.000000	99.753897  
1987.000000	99.755208  
1986.000000	99.753181  
1985.000000	99.749783  
1984.000000	99.747192  
1983.000000	99.746061  
1982.000000	99.745458  
1981.000000	99.744673  
1980.000000	99.744725  
1979.000000	99.747275  
1978.000000	99.752218  
1977.000000	99.757460  
1976.000000	99.761446  
1975.000000	99.764661  
1974.000000	99.767899  
1973.000000	99.770422  
1972.000000	99.770863  
1971.000000	99.769081  
1970.000000	99.766116  
1969.000000	99.762916  
1968.000000	99.760136  
1967.000000	99.758783  
1966.000000	99.759697  
1965.000000	99.762385  
1964.000000	99.765077  
1963.000000	99.766390  
1962.000000	99.766689  
1961.000000	99.767554  
1960.000000	99.769717  
1959.000000	99.771766  
1958.000000	99.771608  
1957.000000	99.769110  
1956.000000	99.766608  
1955.000000	99.766310  
1954.000000	99.767677  
1953.000000	99.768192  
1952.000000	99.766485  
1951.000000	99.763572  
1950.000000	99.761271  
1949.000000	99.760328  
1948.000000	99.760478  
1947.000000	99.761255  
1946.000000	99.762121  
1945.000000	99.762547  
1944.000000	99.762418  
1943.000000	99.762128  
1942.000000	99.761937  
1941.000000	99.761604  
1940.000000	99.760890  
1939.000000	99.759937  
1938.000000	99.759054  
1937.000000	99.758389  
1936.000000	99.757886  
1935.000000	99.757423  
1934.000000	99.756890  
1933.000000	99.756221  
1932.000000	99.755440  
1931.000000	99.754626  
1930.000000	99.753840  
1929.000000	99.753094  
1928.000000	99.752382  
1927.000000	99.751690  
1926.000000	99.750991  
1925.000000	99.750253  
1924.000000	99.749471  
1923.000000	99.748687  
1922.000000	99.747945  
1921.000000	99.747247  
1920.000000	99.746553  
1919.000000	99.745822  
1918.000000	99.745029  
1917.000000	99.744187  
1916.000000	99.743349  
1915.000000	99.742556  
1914.000000	99.741764  
1913.000000	99.740861  
1912.000000	99.739875  
1911.000000	99.739076  
1910.000000	99.738698  
1909.000000	99.738662  
1908.000000	99.738606  
1907.000000	99.738298  
1906.000000	99.737702  
1905.000000	99.736874  
1904.000000	99.736007  
1903.000000	99.735366  
1902.000000	99.734927  
1901.000000	99.734418  
1900.000000	99.733779  
1899.000000	99.733240  
1898.000000	99.732853  
1897.000000	99.732231  
1896.000000	99.731068  
1895.000000	99.729605  
1894.000000	99.728218  
1893.000000	99.727041  
1892.000000	99.726173  
1891.000000	99.725697  
1890.000000	99.725524  
1889.000000	99.725652  
1888.000000	99.726457  
1887.000000	99.727903  
1886.000000	99.728830  
1885.000000	99.727983  
1884.000000	99.725684  
1883.000000	99.723748  
1882.000000	99.723296  
1881.000000	99.723910  
1880.000000	99.724840  
1879.000000	99.725984  
1878.000000	99.727512  
1877.000000	99.729453  
1876.000000	99.731914  
1875.000000	99.734778  
1874.000000	99.736819  
1873.000000	99.736558  
1872.000000	99.734403  
1871.000000	99.732711  
1870.000000	99.732894  
1869.000000	99.733776  
1868.000000	99.734282  
1867.000000	99.735203  
1866.000000	99.736809  
1865.000000	99.738171  
1864.000000	99.738944  
1863.000000	99.739972  
1862.000000	99.741515  
1861.000000	99.742228  
1860.000000	99.741138  
1859.000000	99.739282  
1858.000000	99.738130  
1857.000000	99.737855  
1856.000000	99.738178  
1855.000000	99.739290  
1854.000000	99.741321  
1853.000000	99.744044  
1852.000000	99.747191  
1851.000000	99.750356  
1850.000000	99.752849  
1849.000000	99.754450  
1848.000000	99.755908  
1847.000000	99.758155  
1846.000000	99.761016  
1845.000000	99.763446  
1844.000000	99.765212  
1843.000000	99.766891  
1842.000000	99.767849  
1841.000000	99.767155  
1840.000000	99.764861  
1839.000000	99.762083  
1838.000000	99.760181  
1837.000000	99.759643  
1836.000000	99.760203  
1835.000000	99.761496  
1834.000000	99.763163  
1833.000000	99.764609  
1832.000000	99.764745  
1831.000000	99.762928  
1830.000000	99.760259  
1829.000000	99.758736  
1828.000000	99.758828  
1827.000000	99.759817  
1826.000000	99.761037  
1825.000000	99.762071  
1824.000000	99.762792  
1823.000000	99.763322  
1822.000000	99.763679  
1821.000000	99.763718  
1820.000000	99.763555  
1819.000000	99.763706  
1818.000000	99.764263  
1817.000000	99.764537  
1816.000000	99.764124  
1815.000000	99.763455  
1814.000000	99.763043  
1813.000000	99.762836  
1812.000000	99.762578  
1811.000000	99.762403  
1810.000000	99.762476  
1809.000000	99.762544  
1808.000000	99.762416  
1807.000000	99.762247  
1806.000000	99.762130  
1805.000000	99.761974  
1804.000000	99.761808  
1803.000000	99.761826  
1802.000000	99.762106  
1801.000000	99.762475  
1800.000000	99.762718  
1799.000000	99.762861  
1798.000000	99.762935  
1797.000000	99.762819  
1796.000000	99.762631  
1795.000000	99.762888  
1794.000000	99.763951  
1793.000000	99.765290  
1792.000000	99.765975  
1791.000000	99.766142  
1790.000000	99.766298  
1789.000000	99.766073  
1788.000000	99.765149  
1787.000000	99.764229  
1786.000000	99.764279  
1785.000000	99.765219  
1784.000000	99.766293  
1783.000000	99.767145  
1782.000000	99.767893  
1781.000000	99.768631  
1780.000000	99.769371  
1779.000000	99.770214  
1778.000000	99.770974  
1777.000000	99.771224  
1776.000000	99.770814  
1775.000000	99.770090  
1774.000000	99.769848  
1773.000000	99.770719  
1772.000000	99.772121  
1771.000000	99.773847  
1770.000000	99.776876  
1769.000000	99.781247  
1768.000000	99.784925  
1767.000000	99.786345  
1766.000000	99.786214  
1765.000000	99.785559  
1764.000000	99.784020  
1763.000000	99.781276  
1762.000000	99.779395  
1761.000000	99.780622  
1760.000000	99.784313  
1759.000000	99.789003  
1758.000000	99.794331  
1757.000000	99.800014  
1756.000000	99.804284  
1755.000000	99.806193  
1754.000000	99.808185  
1753.000000	99.812928  
1752.000000	99.818859  
1751.000000	99.821771  
1750.000000	99.821668  
1749.000000	99.822175  
1748.000000	99.823667  
1747.000000	99.823742  
1746.000000	99.822822  
1745.000000	99.823272  
1744.000000	99.824557  
1743.000000	99.824616  
1742.000000	99.824200  
1741.000000	99.825236  
1740.000000	99.827161  
1739.000000	99.828208  
1738.000000	99.828521  
1737.000000	99.829083  
1736.000000	99.830095  
1735.000000	99.831203  
1734.000000	99.832029  
1733.000000	99.833113  
1732.000000	99.834240  
1731.000000	99.834785  
1730.000000	99.834942  
1729.000000	99.835555  
1728.000000	99.836696  
1727.000000	99.837704  
1726.000000	99.838366  
1725.000000	99.838967  
1724.000000	99.839642  
1723.000000	99.840373  
1722.000000	99.841213  
1721.000000	99.842192  
1720.000000	99.843265  
1719.000000	99.844363  
1718.000000	99.845383  
1717.000000	99.846081  
1716.000000	99.846589  
1715.000000	99.847283  
1714.000000	99.848164  
1713.000000	99.849031  
1712.000000	99.849877  
1711.000000	99.850801  
1710.000000	99.851802  
1709.000000	99.852792  
1708.000000	99.853740  
1707.000000	99.854703  
1706.000000	99.855704  
1705.000000	99.856658  
1704.000000	99.857596  
1703.000000	99.858769  
1702.000000	99.860308  
1701.000000	99.862010  
1700.000000	99.863381  
1699.000000	99.864738  
1698.000000	99.866411  
1697.000000	99.868145  
1696.000000	99.869671  
1695.000000	99.871166  
1694.000000	99.872746  
1693.000000	99.874205  
1692.000000	99.875526  
1691.000000	99.876945  
1690.000000	99.878643  
1689.000000	99.880494  
1688.000000	99.882224  
1687.000000	99.883825  
1686.000000	99.885460  
1685.000000	99.887129  
1684.000000	99.888884  
1683.000000	99.891075  
1682.000000	99.893230  
1681.000000	99.895303  
1680.000000	99.897262  
1679.000000	99.899063  
1678.000000	99.900878  
1677.000000	99.903107  
1676.000000	99.905870  
1675.000000	99.908586  
1674.000000	99.910924  
1673.000000	99.913055  
1672.000000	99.914865  
1671.000000	99.916070  
1670.000000	99.916838  
1669.000000	99.918084  
1668.000000	99.920187  
1667.000000	99.922387  
1666.000000	99.924175  
1665.000000	99.925587  
1664.000000	99.926840  
1663.000000	99.928102  
1662.000000	99.929441  
1661.000000	99.930956  
1660.000000	99.932634  
1659.000000	99.934182  
1658.000000	99.935460  
1657.000000	99.936611  
1656.000000	99.937868  
1655.000000	99.939086  
1654.000000	99.940101  
1653.000000	99.941056  
1652.000000	99.942407  
1651.000000	99.943885  
1650.000000	99.945388  
1649.000000	99.946762  
1648.000000	99.947997  
1647.000000	99.949122  
1646.000000	99.950208  
1645.000000	99.951278  
1644.000000	99.952349  
1643.000000	99.953416  
1642.000000	99.954458  
1641.000000	99.955465  
1640.000000	99.956436  
1639.000000	99.957369  
1638.000000	99.958262  
1637.000000	99.959115  
1636.000000	99.959926  
1635.000000	99.960698  
1634.000000	99.961436  
1633.000000	99.962153  
1632.000000	99.962864  
1631.000000	99.963568  
1630.000000	99.964258  
1629.000000	99.964933  
1628.000000	99.965599  
1627.000000	99.966258  
1626.000000	99.966911  
1625.000000	99.967563  
1624.000000	99.968220  
1623.000000	99.968878  
1622.000000	99.969525  
1621.000000	99.970156  
1620.000000	99.970770  
1619.000000	99.971367  
1618.000000	99.971920  
1617.000000	99.972378  
1616.000000	99.972839  
1615.000000	99.973336  
1614.000000	99.973657  
1613.000000	99.973885  
1612.000000	99.974437  
1611.000000	99.975372  
1610.000000	99.975983  
1609.000000	99.975928  
1608.000000	99.975857  
1607.000000	99.976052  
1606.000000	99.975973  
1605.000000	99.975663  
1604.000000	99.975820  
1603.000000	99.976349  
1602.000000	99.976559  
1601.000000	99.976549  
1600.000000	99.976829  
1599.000000	99.976973  
1598.000000	99.976384  
1597.000000	99.975519  
1596.000000	99.975280  
1595.000000	99.975701  
1594.000000	99.976083  
1593.000000	99.976244  
1592.000000	99.976552  
1591.000000	99.976858  
1590.000000	99.976608  
1589.000000	99.975971  
1588.000000	99.975693  
1587.000000	99.975826  
1586.000000	99.975735  
1585.000000	99.975330  
1584.000000	99.975049  
1583.000000	99.974787  
1582.000000	99.974056  
1581.000000	99.972974  
1580.000000	99.971935  
1579.000000	99.970810  
1578.000000	99.969317  
1577.000000	99.967737  
1576.000000	99.966550  
1575.000000	99.965486  
1574.000000	99.964114  
1573.000000	99.962591  
1572.000000	99.961110  
1571.000000	99.959664  
1570.000000	99.958180  
1569.000000	99.956717  
1568.000000	99.955243  
1567.000000	99.953603  
1566.000000	99.951789  
1565.000000	99.949884  
1564.000000	99.947941  
1563.000000	99.945946  
1562.000000	99.943893  
1561.000000	99.941798  
1560.000000	99.939654  
1559.000000	99.937419  
1558.000000	99.935080  
1557.000000	99.932647  
1556.000000	99.930164  
1555.000000	99.927646  
1554.000000	99.925079  
1553.000000	99.922460  
1552.000000	99.919801  
1551.000000	99.917111  
1550.000000	99.914384  
1549.000000	99.911622  
1548.000000	99.908822  
1547.000000	99.905944  
1546.000000	99.902929  
1545.000000	99.899746  
1544.000000	99.896464  
1543.000000	99.893204  
1542.000000	99.889996  
1541.000000	99.886713  
1540.000000	99.883344  
1539.000000	99.879984  
1538.000000	99.876451  
1537.000000	99.872722  
1536.000000	99.868929  
1535.000000	99.865126  
1534.000000	99.861248  
1533.000000	99.857238  
1532.000000	99.853239  
1531.000000	99.849452  
1530.000000	99.845814  
1529.000000	99.841955  
1528.000000	99.837694  
1527.000000	99.833281  
1526.000000	99.829080  
1525.000000	99.824931  
1524.000000	99.820549  
1523.000000	99.816129  
1522.000000	99.811822  
1521.000000	99.807013  
1520.000000	99.801599  
1519.000000	99.796407  
1518.000000	99.792247  
1517.000000	99.788931  
1516.000000	99.786131  
1515.000000	99.783762  
1514.000000	99.781667  
1513.000000	99.778673  
1512.000000	99.773192  
1511.000000	99.766386  
1510.000000	99.761088  
1509.000000	99.757554  
1508.000000	99.752854  
1507.000000	99.747696  
1506.000000	99.744670  
1505.000000	99.740242  
1504.000000	99.734362  
1503.000000	99.729346  
1502.000000	99.725248  
1501.000000	99.721112  
1500.000000	99.715610  
1499.000000	99.709539  
1498.000000	99.706023  
1497.000000	99.704878  
1496.000000	99.702080  
1495.000000	99.698006  
1494.000000	99.696201  
1493.000000	99.696681  
1492.000000	99.696095  
1491.000000	99.691752  
1490.000000	99.684548  
1489.000000	99.676544  
1488.000000	99.669005  
1487.000000	99.664146  
1486.000000	99.661590  
1485.000000	99.659470  
1484.000000	99.657879  
1483.000000	99.657260  
1482.000000	99.657289  
1481.000000	99.656855  
1480.000000	99.655955  
1479.000000	99.655928  
1478.000000	99.656850  
1477.000000	99.656743  
1476.000000	99.655303  
1475.000000	99.655638  
1474.000000	99.657819  
1473.000000	99.657333  
1472.000000	99.652146  
1471.000000	99.647560  
1470.000000	99.647150  
1469.000000	99.648624  
1468.000000	99.648531  
1467.000000	99.646991  
1466.000000	99.645964  
1465.000000	99.645257  
1464.000000	99.643548  
1463.000000	99.641452  
1462.000000	99.640772  
1461.000000	99.640822  
1460.000000	99.639475  
1459.000000	99.635878  
1458.000000	99.633679  
1457.000000	99.636152  
1456.000000	99.638122  
1455.000000	99.636030  
1454.000000	99.634013  
1453.000000	99.632782  
1452.000000	99.629771  
1451.000000	99.625070  
1450.000000	99.621813  
1449.000000	99.619830  
1448.000000	99.615249  
1447.000000	99.608547  
1446.000000	99.604851  
1445.000000	99.606033  
1444.000000	99.608909  
1443.000000	99.610654  
1442.000000	99.612660  
1441.000000	99.617143  
1440.000000	99.622540  
1439.000000	99.625797  
1438.000000	99.627345  
1437.000000	99.628823  
1436.000000	99.629818  
1435.000000	99.631307  
1434.000000	99.635508  
1433.000000	99.640832  
1432.000000	99.643798  
1431.000000	99.643386  
1430.000000	99.643200  
1429.000000	99.646153  
1428.000000	99.650174  
1427.000000	99.652851  
1426.000000	99.655081  
1425.000000	99.659336  
1424.000000	99.664771  
1423.000000	99.668624  
1422.000000	99.671789  
1421.000000	99.676495  
1420.000000	99.681171  
1419.000000	99.682948  
1418.000000	99.685531  
1417.000000	99.691182  
1416.000000	99.695744  
1415.000000	99.696550  
1414.000000	99.695435  
1413.000000	99.695453  
1412.000000	99.696941  
1411.000000	99.698980  
1410.000000	99.702408  
1409.000000	99.707560  
1408.000000	99.712435  
1407.000000	99.715678  
1406.000000	99.718516  
1405.000000	99.722871  
1404.000000	99.728140  
1403.000000	99.732752  
1402.000000	99.737127  
1401.000000	99.742083  
1400.000000	99.747058  
1399.000000	99.750921  
1398.000000	99.753933  
1397.000000	99.756909  
1396.000000	99.759781  
1395.000000	99.762334  
1394.000000	99.765644  
1393.000000	99.771013  
1392.000000	99.777694  
1391.000000	99.783921  
1390.000000	99.789033  
1389.000000	99.793411  
1388.000000	99.797313  
1387.000000	99.800691  
1386.000000	99.803931  
1385.000000	99.807632  
1384.000000	99.811597  
1383.000000	99.815104  
1382.000000	99.818126  
1381.000000	99.821304  
1380.000000	99.825032  
1379.000000	99.828960  
1378.000000	99.832644  
1377.000000	99.836243  
1376.000000	99.840087  
1375.000000	99.844032  
1374.000000	99.847887  
1373.000000	99.851861  
1372.000000	99.855804  
1371.000000	99.859189  
1370.000000	99.861809  
1369.000000	99.864657  
1368.000000	99.868512  
1367.000000	99.872642  
1366.000000	99.875923  
1365.000000	99.878065  
1364.000000	99.879563  
1363.000000	99.881358  
1362.000000	99.884169  
1361.000000	99.887883  
1360.000000	99.891779  
1359.000000	99.895216  
1358.000000	99.898079  
1357.000000	99.900894  
1356.000000	99.904066  
1355.000000	99.907350  
1354.000000	99.910277  
1353.000000	99.912564  
1352.000000	99.914368  
1351.000000	99.916222  
1350.000000	99.918125  
1349.000000	99.920199  
1348.000000	99.922263  
1347.000000	99.923865  
1346.000000	99.925212  
1345.000000	99.927393  
1344.000000	99.930825  
1343.000000	99.934289  
1342.000000	99.936227  
1341.000000	99.936569  
1340.000000	99.936563  
1339.000000	99.937091  
1338.000000	99.938189  
1337.000000	99.939914  
1336.000000	99.942286  
1335.000000	99.944943  
1334.000000	99.947653  
1333.000000	99.950568  
1332.000000	99.953290  
1331.000000	99.954452  
1330.000000	99.953312  
1329.000000	99.951355  
1328.000000	99.950899  
1327.000000	99.952340  
1326.000000	99.954166  
1325.000000	99.955733  
1324.000000	99.957379  
1323.000000	99.958809  
1322.000000	99.959294  
1321.000000	99.959013  
1320.000000	99.958865  
1319.000000	99.959523  
1318.000000	99.961401  
1317.000000	99.964562  
1316.000000	99.968098  
1315.000000	99.970639  
1314.000000	99.972052  
1313.000000	99.973387  
1312.000000	99.974819  
1311.000000	99.975267  
1310.000000	99.974629  
1309.000000	99.974550  
1308.000000	99.976121  
1307.000000	99.978324  
1306.000000	99.979466  
1305.000000	99.979449  
1304.000000	99.978770  
1303.000000	99.977324  
1302.000000	99.975221  
1301.000000	99.973456  
1300.000000	99.972600  
1299.000000	99.972219  
1298.000000	99.972324  
1297.000000	99.973746  
1296.000000	99.976300  
1295.000000	99.978002  
1294.000000	99.977579  
1293.000000	99.976349  
1292.000000	99.976370  
1291.000000	99.977662  
1290.000000	99.978449  
1289.000000	99.977417  
1288.000000	99.974763  
1287.000000	99.971581  
1286.000000	99.969062  
1285.000000	99.967961  
1284.000000	99.968414  
1283.000000	99.970437  
1282.000000	99.974122  
1281.000000	99.978508  
1280.000000	99.981092  
1279.000000	99.979890  
1278.000000	99.976167  
1277.000000	99.973337  
1276.000000	99.973048  
1275.000000	99.973978  
1274.000000	99.974634  
1273.000000	99.975089  
1272.000000	99.975541  
1271.000000	99.975507  
1270.000000	99.975224  
1269.000000	99.975673  
1268.000000	99.976382  
1267.000000	99.975508  
1266.000000	99.972972  
1265.000000	99.970619  
1264.000000	99.968927  
1263.000000	99.966663  
1262.000000	99.964222  
1261.000000	99.963829  
1260.000000	99.965462  
1259.000000	99.965699  
1258.000000	99.962647  
1257.000000	99.958529  
1256.000000	99.955966  
1255.000000	99.954644  
1254.000000	99.953197  
1253.000000	99.951537  
1252.000000	99.949777  
1251.000000	99.947211  
1250.000000	99.943903  
1249.000000	99.941059  
1248.000000	99.938634  
1247.000000	99.935063  
1246.000000	99.930608  
1245.000000	99.927670  
1244.000000	99.926516  
1243.000000	99.923779  
1242.000000	99.916870  
1241.000000	99.907267  
1240.000000	99.897979  
1239.000000	99.890134  
1238.000000	99.883402  
1237.000000	99.877505  
1236.000000	99.871848  
1235.000000	99.865405  
1234.000000	99.858054  
1233.000000	99.850683  
1232.000000	99.843637  
1231.000000	99.836687  
1230.000000	99.830189  
1229.000000	99.823730  
1228.000000	99.814224  
1227.000000	99.798665  
1226.000000	99.778710  
1225.000000	99.759289  
1224.000000	99.742216  
1223.000000	99.724490  
1222.000000	99.703538  
1221.000000	99.680519  
1220.000000	99.657385  
1219.000000	99.633880  
1218.000000	99.609065  
1217.000000	99.583100  
1216.000000	99.555967  
1215.000000	99.526653  
1214.000000	99.495025  
1213.000000	99.462656  
1212.000000	99.430629  
1211.000000	99.398317  
1210.000000	99.364983  
1209.000000	99.330960  
1208.000000	99.296915  
1207.000000	99.263643  
1206.000000	99.232481  
1205.000000	99.203865  
1204.000000	99.175490  
1203.000000	99.143968  
1202.000000	99.108747  
1201.000000	99.072760  
1200.000000	99.038863  
1199.000000	99.007315  
1198.000000	98.977286  
1197.000000	98.948877  
1196.000000	98.922624  
1195.000000	98.898008  
1194.000000	98.873206  
1193.000000	98.846164  
1192.000000	98.815928  
1191.000000	98.783398  
1190.000000	98.750568  
1189.000000	98.718587  
1188.000000	98.687003  
1187.000000	98.655088  
1186.000000	98.622802  
1185.000000	98.589915  
1184.000000	98.555642  
1183.000000	98.519972  
1182.000000	98.483770  
1181.000000	98.446797  
1180.000000	98.407705  
1179.000000	98.367245  
1178.000000	98.329172  
1177.000000	98.295653  
1176.000000	98.263361  
1175.000000	98.226421  
1174.000000	98.182241  
1173.000000	98.132795  
1172.000000	98.081519  
1171.000000	98.031247  
1170.000000	97.983817  
1169.000000	97.939032  
1168.000000	97.894901  
1167.000000	97.851482  
1166.000000	97.813834  
1165.000000	97.788735  
1164.000000	97.778952  
1163.000000	97.782390  
1162.000000	97.795363  
1161.000000	97.814001  
1160.000000	97.833112  
1159.000000	97.847052  
1158.000000	97.852671  
1157.000000	97.849143  
1156.000000	97.834976  
1155.000000	97.808448  
1154.000000	97.771690  
1153.000000	97.731106  
1152.000000	97.692013  
1151.000000	97.654845  
1150.000000	97.617616  
1149.000000	97.579855  
1148.000000	97.542708  
1147.000000	97.506853  
1146.000000	97.471717  
1145.000000	97.435732  
1144.000000	97.396669  
1143.000000	97.352964  
1142.000000	97.305639  
1141.000000	97.258051  
1140.000000	97.213336  
1139.000000	97.172756  
1138.000000	97.135955  
1137.000000	97.100989  
1136.000000	97.064386  
1135.000000	97.023866  
1134.000000	96.981928  
1133.000000	96.944262  
1132.000000	96.913022  
1131.000000	96.883580  
1130.000000	96.849853  
1129.000000	96.811315  
1128.000000	96.772274  
1127.000000	96.735214  
1126.000000	96.697728  
1125.000000	96.656476  
1124.000000	96.611825  
1123.000000	96.567275  
1122.000000	96.525629  
1121.000000	96.487094  
1120.000000	96.450577  
1119.000000	96.415319  
1118.000000	96.380791  
1117.000000	96.345778  
1116.000000	96.308438  
1115.000000	96.267632  
1114.000000	96.224156  
1113.000000	96.180364  
1112.000000	96.138352  
1111.000000	96.098630  
1110.000000	96.060741  
1109.000000	96.024696  
1108.000000	95.990441  
1107.000000	95.956731  
1106.000000	95.921795  
1105.000000	95.885982  
1104.000000	95.852447  
1103.000000	95.823541  
1102.000000	95.797050  
1101.000000	95.768385  
1100.000000	95.735597  
1099.000000	95.703467  
1098.000000	95.677454  
1097.000000	95.657674  
1096.000000	95.639107  
1095.000000	95.617480  
1094.000000	95.593587  
1093.000000	95.571694  
1092.000000	95.554808  
1091.000000	95.542074  
1090.000000	95.530217  
1089.000000	95.517237  
1088.000000	95.504712  
1087.000000	95.496369  
1086.000000	95.494295  
1085.000000	95.496633  
1084.000000	95.499057  
1083.000000	95.498568  
1082.000000	95.496033  
1081.000000	95.494961  
1080.000000	95.497603  
1079.000000	95.502375  
1078.000000	95.505772  
1077.000000	95.506817  
1076.000000	95.508231  
1075.000000	95.512252  
1074.000000	95.516322  
1073.000000	95.514551  
1072.000000	95.502988  
1071.000000	95.481834  
1070.000000	95.452780  
1069.000000	95.416253  
1068.000000	95.372364  
1067.000000	95.323066  
1066.000000	95.271433  
1065.000000	95.219072  
1064.000000	95.165731  
1063.000000	95.111237  
1062.000000	95.056469  
1061.000000	95.002743  
1060.000000	94.951795  
1059.000000	94.906295  
1058.000000	94.868695  
1057.000000	94.838690  
1056.000000	94.812433  
1055.000000	94.784783  
1054.000000	94.752593  
1053.000000	94.716614  
1052.000000	94.680880  
1051.000000	94.649537  
1050.000000	94.623001  
1049.000000	94.597329  
1048.000000	94.568327  
1047.000000	94.536330  
1046.000000	94.506284  
1045.000000	94.483151  
1044.000000	94.467455  
1043.000000	94.454848  
1042.000000	94.439769  
1041.000000	94.419965  
1040.000000	94.397628  
1039.000000	94.376293  
1038.000000	94.357349  
1037.000000	94.340088  
1036.000000	94.324484  
1035.000000	94.312451  
1034.000000	94.305953  
1033.000000	94.304689  
1032.000000	94.306058  
1031.000000	94.307079  
1030.000000	94.306596  
1029.000000	94.306260  
1028.000000	94.309158  
1027.000000	94.316609  
1026.000000	94.326159  
1025.000000	94.333634  
1024.000000	94.337462  
1023.000000	94.340198  
1022.000000	94.345516  
1021.000000	94.354364  
1020.000000	94.364466  
1019.000000	94.372807  
1018.000000	94.377803  
1017.000000	94.379553  
1016.000000	94.379320  
1015.000000	94.379200  
1014.000000	94.381213  
1013.000000	94.385666  
1012.000000	94.390854  
1011.000000	94.395312  
1010.000000	94.399999  
1009.000000	94.407013  
1008.000000	94.416445  
1007.000000	94.426378  
1006.000000	94.436425  
1005.000000	94.449151  
1004.000000	94.466678  
1003.000000	94.487803  
1002.000000	94.510220  
1001.000000	94.533915  
1000.000000	94.559975  
999.000000	 94.587449  
998.000000	 94.614436  
997.000000	 94.641686  
996.000000	 94.671864  
995.000000	 94.705169  
994.000000	 94.738624  
993.000000	 94.770205  
992.000000	 94.801244  
991.000000	 94.834435  
990.000000	 94.871939  
989.000000	 94.915200  
988.000000	 94.963236  
987.000000	 95.010677  
986.000000	 95.051303  
985.000000	 95.084996  
984.000000	 95.118069  
983.000000	 95.155634  
982.000000	 95.197017  
981.000000	 95.240008  
980.000000	 95.285740  
979.000000	 95.336489  
978.000000	 95.391463  
977.000000	 95.447949  
976.000000	 95.504855  
975.000000	 95.562361  
974.000000	 95.619720  
973.000000	 95.676229  
972.000000	 95.733381  
971.000000	 95.793507  
970.000000	 95.856698  
969.000000	 95.920756  
968.000000	 95.983555  
967.000000	 96.044031  
966.000000	 96.101828  
965.000000	 96.157625  
964.000000	 96.213281  
963.000000	 96.270223  
962.000000	 96.327899  
961.000000	 96.384536  
960.000000	 96.438780  
959.000000	 96.489976  
958.000000	 96.538038  
957.000000	 96.584364  
956.000000	 96.632101  
955.000000	 96.683733  
954.000000	 96.737881  
953.000000	 96.789436  
952.000000	 96.833769  
951.000000	 96.870980  
950.000000	 96.905882  
949.000000	 96.943611  
948.000000	 96.985365  
947.000000	 97.028863  
946.000000	 97.071968  
945.000000	 97.114029  
944.000000	 97.153888  
943.000000	 97.189588  
942.000000	 97.221570  
941.000000	 97.253750  
940.000000	 97.289062  
939.000000	 97.325352  
938.000000	 97.358391  
937.000000	 97.388016  
936.000000	 97.418432  
935.000000	 97.452944  
934.000000	 97.491205  
933.000000	 97.531683  
932.000000	 97.573684  
931.000000	 97.615808  
930.000000	 97.654781  
929.000000	 97.687662  
928.000000	 97.714370  
927.000000	 97.737440  
926.000000	 97.760173  
925.000000	 97.785144  
924.000000	 97.813155  
923.000000	 97.842653  
922.000000	 97.870694  
921.000000	 97.895235  
920.000000	 97.916460  
919.000000	 97.936040  
918.000000	 97.955742  
917.000000	 97.976789  
916.000000	 97.999695  
915.000000	 98.023870  
914.000000	 98.047525  
913.000000	 98.069037  
912.000000	 98.089397  
911.000000	 98.113074  
910.000000	 98.144913  
909.000000	 98.185257  
908.000000	 98.229067  
907.000000	 98.270869  
906.000000	 98.309372  
905.000000	 98.345783  
904.000000	 98.379911  
903.000000	 98.411696  
902.000000	 98.445424  
901.000000	 98.486932  
900.000000	 98.534882  
899.000000	 98.579566  
898.000000	 98.613184  
897.000000	 98.638797  
896.000000	 98.665820  
895.000000	 98.699358  
894.000000	 98.737370  
893.000000	 98.776392  
892.000000	 98.815510  
891.000000	 98.854405  
890.000000	 98.890663  
889.000000	 98.920120  
888.000000	 98.939105  
887.000000	 98.947042  
886.000000	 98.947830  
885.000000	 98.947359  
884.000000	 98.948401  
883.000000	 98.949021  
882.000000	 98.946702  
881.000000	 98.942294  
880.000000	 98.939031  
879.000000	 98.939701  
878.000000	 98.946100  
877.000000	 98.959254  
876.000000	 98.978685  
875.000000	 99.003220  
874.000000	 99.033802  
873.000000	 99.073326  
872.000000	 99.121891  
871.000000	 99.174201  
870.000000	 99.224065  
869.000000	 99.270345  
868.000000	 99.316676  
867.000000	 99.366391  
866.000000	 99.418592  
865.000000	 99.467747  
864.000000	 99.507069  
863.000000	 99.534802  
862.000000	 99.557690  
861.000000	 99.585279  
860.000000	 99.620128  
859.000000	 99.656719  
858.000000	 99.689671  
857.000000	 99.718239  
856.000000	 99.742421  
855.000000	 99.761162  
854.000000	 99.776739  
853.000000	 99.794352  
852.000000	 99.813730  
851.000000	 99.827491  
850.000000	 99.832746  
849.000000	 99.838537  
848.000000	 99.855414  
847.000000	 99.881586  
846.000000	 99.905774  
845.000000	 99.920637  
844.000000	 99.927009  
843.000000	 99.927773  
842.000000	 99.924973  
841.000000	 99.922678  
840.000000	 99.926300  
839.000000	 99.937363  
838.000000	 99.952010  
837.000000	 99.964931  
836.000000	 99.972423  
835.000000	 99.972969  
834.000000	 99.968612  
833.000000	 99.965287  
832.000000	 99.968102  
831.000000	 99.975737  
830.000000	 99.981819  
829.000000	 99.982016  
828.000000	 99.977783  
827.000000	 99.973618  
826.000000	 99.973040  
825.000000	 99.976838  
824.000000	 99.982619  
823.000000	 99.985507  
822.000000	 99.980877  
821.000000	 99.967068  
820.000000	 99.945730  
819.000000	 99.920871  
818.000000	 99.897107  
817.000000	 99.876268  
816.000000	 99.854956  
815.000000	 99.826803  
814.000000	 99.786925  
813.000000	 99.732159  
812.000000	 99.658053  
811.000000	 99.559936  
810.000000	 99.437854  
809.000000	 99.296554  
808.000000	 99.138888  
807.000000	 98.962304  
806.000000	 98.763792  
805.000000	 98.546961  
804.000000	 98.323786  
803.000000	 98.110809  
802.000000	 97.923255  
801.000000	 97.770149  
800.000000	 97.653351  
799.000000	 97.570594  
798.000000	 97.519455  
797.000000	 97.499086  
796.000000	 97.508974  
795.000000	 97.546381  
794.000000	 97.604626  
793.000000	 97.673347  
792.000000	 97.740748  
791.000000	 97.797142  
790.000000	 97.837237  
789.000000	 97.858353  
788.000000	 97.857119  
787.000000	 97.830718  
786.000000	 97.781389  
785.000000	 97.716299  
784.000000	 97.642025  
783.000000	 97.562267  
782.000000	 97.481803  
781.000000	 97.408609  
780.000000	 97.350046  
779.000000	 97.310459  
778.000000	 97.295138  
777.000000	 97.312888  
776.000000	 97.369406  
775.000000	 97.458253  
774.000000	 97.562142  
773.000000	 97.664254  
772.000000	 97.756795  
771.000000	 97.840535  
770.000000	 97.920333  
769.000000	 98.000107  
768.000000	 98.078048  
767.000000	 98.147235  
766.000000	 98.204164  
765.000000	 98.254967  
764.000000	 98.308978  
763.000000	 98.367828  
762.000000	 98.425547  
761.000000	 98.478031  
760.000000	 98.526777  
759.000000	 98.573796  
758.000000	 98.618948  
757.000000	 98.663012  
756.000000	 98.707627  
755.000000	 98.750756  
754.000000	 98.787879  
753.000000	 98.819914  
752.000000	 98.854410  
751.000000	 98.895611  
750.000000	 98.937668  
749.000000	 98.971959  
748.000000	 98.998239  
747.000000	 99.023969  
746.000000	 99.053687  
745.000000	 99.083602  
744.000000	 99.108164  
743.000000	 99.128914  
742.000000	 99.154276  
741.000000	 99.191105  
740.000000	 99.237985  
739.000000	 99.286888  
738.000000	 99.329954  
737.000000	 99.363603  
736.000000	 99.387486  
735.000000	 99.402626  
734.000000	 99.411672  
733.000000	 99.418540  
732.000000	 99.425393  
731.000000	 99.431265  
730.000000	 99.435597  
729.000000	 99.442256  
728.000000	 99.456089  
727.000000	 99.476279  
726.000000	 99.496938  
725.000000	 99.512892  
724.000000	 99.523074  
723.000000	 99.530025  
722.000000	 99.538697  
721.000000	 99.554151  
720.000000	 99.576857  
719.000000	 99.600622  
718.000000	 99.618120  
717.000000	 99.627815  
716.000000	 99.633980  
715.000000	 99.641532  
714.000000	 99.652718  
713.000000	 99.667527  
712.000000	 99.684166  
711.000000	 99.700038  
710.000000	 99.714868  
709.000000	 99.732588  
708.000000	 99.755585  
707.000000	 99.776712  
706.000000	 99.782963  
705.000000	 99.767088  
704.000000	 99.732518  
703.000000	 99.687569  
702.000000	 99.635790  
701.000000	 99.573013  
700.000000	 99.493986  
699.000000	 99.398575  
698.000000	 99.294457  
697.000000	 99.195632  
696.000000	 99.117593  
695.000000	 99.073480  
694.000000	 99.069063  
693.000000	 99.100673  
692.000000	 99.158920  
691.000000	 99.232567  
690.000000	 99.312150  
689.000000	 99.390460  
688.000000	 99.461989  
687.000000	 99.524615  
686.000000	 99.577692  
685.000000	 99.619484  
684.000000	 99.650072  
683.000000	 99.673743  
682.000000	 99.695639  
681.000000	 99.716149  
680.000000	 99.732144  
679.000000	 99.742369  
678.000000	 99.748203  
677.000000	 99.752637  
676.000000	 99.755463  
675.000000	 99.753019  
674.000000	 99.745781  
673.000000	 99.740386  
672.000000	 99.738608  
671.000000	 99.731019  
670.000000	 99.704533  
669.000000	 99.662466  
668.000000	 99.649196  
667.000000	 99.692672  
666.000000	 99.752236  
665.000000	 99.809251  
664.000000	 99.862690  
663.000000	 99.904002  
662.000000	 99.928691  
661.000000	 99.947163  
660.000000	 99.969197  
659.000000	 99.989977  
658.000000	 100.003102 
657.000000	 100.014987 
656.000000	 100.025584 
655.000000	 100.014075 
654.000000	 99.965402  
653.000000	 99.891000  
652.000000	 99.811424  
651.000000	 99.740889  
650.000000	 99.696576  

