4000.000000	99.571387 
3999.000000	99.570645 
3998.000000	99.570728 
3997.000000	99.571520 
3996.000000	99.572546 
3995.000000	99.573302 
3994.000000	99.573473 
3993.000000	99.573124 
3992.000000	99.572614 
3991.000000	99.572233 
3990.000000	99.572080 
3989.000000	99.572161 
3988.000000	99.572385 
3987.000000	99.572447 
3986.000000	99.571974 
3985.000000	99.570922 
3984.000000	99.569773 
3983.000000	99.569141 
3982.000000	99.569187 
3981.000000	99.569496 
3980.000000	99.569475 
3979.000000	99.568868 
3978.000000	99.567880 
3977.000000	99.566917 
3976.000000	99.566212 
3975.000000	99.565698 
3974.000000	99.565176 
3973.000000	99.564600 
3972.000000	99.564138 
3971.000000	99.563937 
3970.000000	99.564003 
3969.000000	99.564313 
3968.000000	99.564847 
3967.000000	99.565476 
3966.000000	99.565910 
3965.000000	99.565819 
3964.000000	99.565089 
3963.000000	99.563972 
3962.000000	99.562955 
3961.000000	99.562439 
3960.000000	99.562472 
3959.000000	99.562599 
3958.000000	99.562187 
3957.000000	99.561060 
3956.000000	99.559712 
3955.000000	99.558872 
3954.000000	99.558875 
3953.000000	99.559420 
3952.000000	99.559864 
3951.000000	99.559770 
3950.000000	99.559419 
3949.000000	99.559525 
3948.000000	99.560240 
3947.000000	99.560784 
3946.000000	99.560156 
3945.000000	99.557941 
3944.000000	99.554575 
3943.000000	99.551271 
3942.000000	99.549183 
3941.000000	99.548588 
3940.000000	99.548967 
3939.000000	99.549566 
3938.000000	99.549978 
3937.000000	99.550387 
3936.000000	99.551173 
3935.000000	99.552374 
3934.000000	99.553567 
3933.000000	99.554272 
3932.000000	99.554250 
3931.000000	99.553420 
3930.000000	99.551790 
3929.000000	99.549402 
3928.000000	99.546480 
3927.000000	99.543711 
3926.000000	99.541903 
3925.000000	99.541586 
3924.000000	99.543016 
3923.000000	99.545851 
3922.000000	99.549143 
3921.000000	99.551862 
3920.000000	99.553634 
3919.000000	99.554723 
3918.000000	99.555194 
3917.000000	99.554751 
3916.000000	99.553398 
3915.000000	99.551769 
3914.000000	99.550439 
3913.000000	99.549461 
3912.000000	99.548771 
3911.000000	99.548385 
3910.000000	99.548265 
3909.000000	99.548370 
3908.000000	99.548723 
3907.000000	99.549370 
3906.000000	99.550351 
3905.000000	99.551606 
3904.000000	99.553008 
3903.000000	99.554110 
3902.000000	99.554352 
3901.000000	99.553693 
3900.000000	99.552589 
3899.000000	99.551699 
3898.000000	99.551350 
3897.000000	99.551351 
3896.000000	99.551356 
3895.000000	99.551187 
3894.000000	99.550876 
3893.000000	99.550575 
3892.000000	99.550379 
3891.000000	99.550250 
3890.000000	99.550126 
3889.000000	99.549984 
3888.000000	99.549804 
3887.000000	99.549589 
3886.000000	99.549361 
3885.000000	99.549123 
3884.000000	99.548870 
3883.000000	99.548601 
3882.000000	99.548314 
3881.000000	99.548011 
3880.000000	99.547700 
3879.000000	99.547386 
3878.000000	99.547067 
3877.000000	99.546740 
3876.000000	99.546399 
3875.000000	99.546048 
3874.000000	99.545697 
3873.000000	99.545358 
3872.000000	99.545031 
3871.000000	99.544706 
3870.000000	99.544371 
3869.000000	99.544018 
3868.000000	99.543647 
3867.000000	99.543264 
3866.000000	99.542873 
3865.000000	99.542486 
3864.000000	99.542118 
3863.000000	99.541774 
3862.000000	99.541452 
3861.000000	99.541149 
3860.000000	99.540871 
3859.000000	99.540625 
3858.000000	99.540415 
3857.000000	99.540205 
3856.000000	99.539993 
3855.000000	99.539787 
3854.000000	99.539585 
3853.000000	99.539466 
3852.000000	99.539434 
3851.000000	99.539414 
3850.000000	99.539385 
3849.000000	99.539283 
3848.000000	99.539138 
3847.000000	99.539065 
3846.000000	99.539059 
3845.000000	99.539065 
3844.000000	99.539085 
3843.000000	99.539059 
3842.000000	99.539018 
3841.000000	99.539188 
3840.000000	99.539636 
3839.000000	99.540132 
3838.000000	99.540389 
3837.000000	99.540262 
3836.000000	99.539897 
3835.000000	99.539437 
3834.000000	99.538976 
3833.000000	99.538533 
3832.000000	99.538106 
3831.000000	99.537793 
3830.000000	99.537581 
3829.000000	99.537277 
3828.000000	99.536824 
3827.000000	99.536409 
3826.000000	99.536423 
3825.000000	99.537375 
3824.000000	99.539230 
3823.000000	99.540656 
3822.000000	99.540382 
3821.000000	99.538991 
3820.000000	99.538332 
3819.000000	99.539266 
3818.000000	99.540921 
3817.000000	99.541306 
3816.000000	99.539245 
3815.000000	99.535641 
3814.000000	99.532431 
3813.000000	99.530226 
3812.000000	99.528341 
3811.000000	99.526608 
3810.000000	99.525822 
3809.000000	99.526440 
3808.000000	99.527656 
3807.000000	99.528184 
3806.000000	99.528042 
3805.000000	99.528258 
3804.000000	99.528937 
3803.000000	99.528613 
3802.000000	99.526213 
3801.000000	99.522958 
3800.000000	99.520968 
3799.000000	99.520680 
3798.000000	99.520880 
3797.000000	99.520407 
3796.000000	99.519368 
3795.000000	99.518423 
3794.000000	99.517481 
3793.000000	99.515513 
3792.000000	99.511928 
3791.000000	99.507735 
3790.000000	99.504473 
3789.000000	99.502577 
3788.000000	99.501360 
3787.000000	99.500433 
3786.000000	99.500185 
3785.000000	99.501024 
3784.000000	99.502766 
3783.000000	99.505139 
3782.000000	99.507535 
3781.000000	99.508831 
3780.000000	99.508709 
3779.000000	99.507980 
3778.000000	99.507367 
3777.000000	99.507283 
3776.000000	99.507874 
3775.000000	99.508375 
3774.000000	99.508488 
3773.000000	99.509302 
3772.000000	99.511607 
3771.000000	99.514211 
3770.000000	99.515979 
3769.000000	99.517323 
3768.000000	99.518305 
3767.000000	99.518406 
3766.000000	99.517233 
3765.000000	99.515017 
3764.000000	99.513245 
3763.000000	99.513305 
3762.000000	99.514091 
3761.000000	99.513349 
3760.000000	99.512459 
3759.000000	99.515609 
3758.000000	99.522787 
3757.000000	99.529934 
3756.000000	99.535683 
3755.000000	99.541626 
3754.000000	99.548763 
3753.000000	99.556322 
3752.000000	99.564625 
3751.000000	99.574694 
3750.000000	99.581698 
3749.000000	99.580631 
3748.000000	99.575375 
3747.000000	99.573540 
3746.000000	99.575488 
3745.000000	99.574117 
3744.000000	99.565569 
3743.000000	99.555699 
3742.000000	99.551843 
3741.000000	99.553367 
3740.000000	99.555214 
3739.000000	99.555931 
3738.000000	99.556213 
3737.000000	99.554931 
3736.000000	99.552374 
3735.000000	99.551411 
3734.000000	99.552771 
3733.000000	99.552427 
3732.000000	99.547548 
3731.000000	99.540936 
3730.000000	99.536858 
3729.000000	99.536234 
3728.000000	99.535666 
3727.000000	99.531626 
3726.000000	99.525094 
3725.000000	99.519777 
3724.000000	99.516772 
3723.000000	99.514272 
3722.000000	99.511471 
3721.000000	99.508577 
3720.000000	99.505508 
3719.000000	99.502754 
3718.000000	99.500630 
3717.000000	99.499415 
3716.000000	99.500280 
3715.000000	99.503974 
3714.000000	99.509379 
3713.000000	99.513797 
3712.000000	99.515945 
3711.000000	99.515508 
3710.000000	99.511607 
3709.000000	99.504636 
3708.000000	99.496084 
3707.000000	99.487344 
3706.000000	99.479359 
3705.000000	99.472341 
3704.000000	99.465799 
3703.000000	99.459496 
3702.000000	99.454538 
3701.000000	99.451538 
3700.000000	99.449138 
3699.000000	99.445884 
3698.000000	99.441313 
3697.000000	99.435969 
3696.000000	99.431792 
3695.000000	99.430470 
3694.000000	99.430869 
3693.000000	99.429825 
3692.000000	99.426048 
3691.000000	99.421559 
3690.000000	99.419214 
3689.000000	99.418683 
3688.000000	99.416637 
3687.000000	99.412191 
3686.000000	99.408061 
3685.000000	99.405985 
3684.000000	99.405287 
3683.000000	99.404716 
3682.000000	99.403576 
3681.000000	99.401404 
3680.000000	99.398155 
3679.000000	99.395298 
3678.000000	99.394769 
3677.000000	99.395498 
3676.000000	99.394909 
3675.000000	99.393142 
3674.000000	99.391664 
3673.000000	99.390811 
3672.000000	99.388998 
3671.000000	99.383846 
3670.000000	99.376687 
3669.000000	99.371130 
3668.000000	99.367787 
3667.000000	99.365203 
3666.000000	99.362711 
3665.000000	99.360477 
3664.000000	99.358508 
3663.000000	99.356189 
3662.000000	99.352737 
3661.000000	99.348373 
3660.000000	99.344539 
3659.000000	99.342451 
3658.000000	99.341751 
3657.000000	99.341008 
3656.000000	99.339757 
3655.000000	99.339325 
3654.000000	99.341159 
3653.000000	99.344569 
3652.000000	99.346699 
3651.000000	99.345424 
3650.000000	99.342376 
3649.000000	99.340223 
3648.000000	99.338069 
3647.000000	99.334225 
3646.000000	99.329510 
3645.000000	99.325549 
3644.000000	99.322754 
3643.000000	99.320688 
3642.000000	99.318715 
3641.000000	99.316875 
3640.000000	99.315615 
3639.000000	99.315221 
3638.000000	99.315712 
3637.000000	99.316720 
3636.000000	99.317420 
3635.000000	99.316817 
3634.000000	99.315314 
3633.000000	99.315385 
3632.000000	99.318943 
3631.000000	99.324212 
3630.000000	99.326513 
3629.000000	99.324271 
3628.000000	99.320303 
3627.000000	99.317505 
3626.000000	99.316537 
3625.000000	99.315732 
3624.000000	99.313232 
3623.000000	99.308853 
3622.000000	99.303772 
3621.000000	99.298937 
3620.000000	99.295909 
3619.000000	99.296879 
3618.000000	99.301673 
3617.000000	99.307596 
3616.000000	99.312690 
3615.000000	99.316484 
3614.000000	99.319937 
3613.000000	99.324768 
3612.000000	99.331433 
3611.000000	99.338131 
3610.000000	99.342124 
3609.000000	99.341882 
3608.000000	99.338642 
3607.000000	99.335014 
3606.000000	99.332129 
3605.000000	99.329466 
3604.000000	99.326233 
3603.000000	99.322361 
3602.000000	99.318754 
3601.000000	99.316439 
3600.000000	99.316463 
3599.000000	99.319411 
3598.000000	99.324093 
3597.000000	99.327972 
3596.000000	99.329353 
3595.000000	99.328647 
3594.000000	99.328091 
3593.000000	99.329671 
3592.000000	99.333169 
3591.000000	99.336603 
3590.000000	99.337481 
3589.000000	99.334614 
3588.000000	99.329578 
3587.000000	99.325477 
3586.000000	99.323456 
3585.000000	99.322720 
3584.000000	99.322354 
3583.000000	99.322074 
3582.000000	99.321772 
3581.000000	99.321301 
3580.000000	99.320629 
3579.000000	99.320030 
3578.000000	99.319903 
3577.000000	99.320378 
3576.000000	99.321265 
3575.000000	99.322005 
3574.000000	99.321901 
3573.000000	99.320733 
3572.000000	99.319093 
3571.000000	99.318053 
3570.000000	99.318220 
3569.000000	99.318939 
3568.000000	99.318969 
3567.000000	99.317936 
3566.000000	99.316338 
3565.000000	99.314736 
3564.000000	99.313360 
3563.000000	99.311973 
3562.000000	99.310202 
3561.000000	99.308063 
3560.000000	99.305997 
3559.000000	99.304475 
3558.000000	99.303500 
3557.000000	99.302619 
3556.000000	99.301453 
3555.000000	99.300142 
3554.000000	99.299067 
3553.000000	99.298341 
3552.000000	99.297674 
3551.000000	99.296832 
3550.000000	99.295960 
3549.000000	99.295275 
3548.000000	99.294673 
3547.000000	99.293870 
3546.000000	99.292697 
3545.000000	99.291260 
3544.000000	99.289841 
3543.000000	99.288702 
3542.000000	99.287885 
3541.000000	99.287206 
3540.000000	99.286395 
3539.000000	99.285319 
3538.000000	99.284069 
3537.000000	99.282869 
3536.000000	99.281879 
3535.000000	99.281081 
3534.000000	99.280355 
3533.000000	99.279581 
3532.000000	99.278700 
3531.000000	99.277707 
3530.000000	99.276655 
3529.000000	99.275652 
3528.000000	99.274795 
3527.000000	99.274068 
3526.000000	99.273326 
3525.000000	99.272421 
3524.000000	99.271327 
3523.000000	99.270161 
3522.000000	99.269084 
3521.000000	99.268156 
3520.000000	99.267315 
3519.000000	99.266485 
3518.000000	99.265647 
3517.000000	99.264780 
3516.000000	99.263832 
3515.000000	99.262805 
3514.000000	99.261851 
3513.000000	99.261157 
3512.000000	99.260747 
3511.000000	99.260478 
3510.000000	99.260193 
3509.000000	99.259771 
3508.000000	99.259075 
3507.000000	99.258024 
3506.000000	99.256709 
3505.000000	99.255402 
3504.000000	99.254369 
3503.000000	99.253652 
3502.000000	99.253051 
3501.000000	99.252323 
3500.000000	99.251366 
3499.000000	99.250229 
3498.000000	99.249093 
3497.000000	99.248207 
3496.000000	99.247710 
3495.000000	99.247399 
3494.000000	99.246771 
3493.000000	99.245463 
3492.000000	99.243578 
3491.000000	99.241587 
3490.000000	99.239927 
3489.000000	99.238703 
3488.000000	99.237754 
3487.000000	99.236849 
3486.000000	99.235799 
3485.000000	99.234467 
3484.000000	99.232833 
3483.000000	99.231073 
3482.000000	99.229493 
3481.000000	99.228271 
3480.000000	99.227306 
3479.000000	99.226390 
3478.000000	99.225443 
3477.000000	99.224505 
3476.000000	99.223567 
3475.000000	99.222498 
3474.000000	99.221162 
3473.000000	99.219570 
3472.000000	99.217880 
3471.000000	99.216265 
3470.000000	99.214808 
3469.000000	99.213514 
3468.000000	99.212332 
3467.000000	99.211160 
3466.000000	99.209870 
3465.000000	99.208420 
3464.000000	99.206949 
3463.000000	99.205693 
3462.000000	99.204735 
3461.000000	99.203926 
3460.000000	99.203015 
3459.000000	99.201912 
3458.000000	99.200702 
3457.000000	99.199502 
3456.000000	99.198357 
3455.000000	99.197255 
3454.000000	99.196183 
3453.000000	99.195137 
3452.000000	99.194101 
3451.000000	99.193051 
3450.000000	99.191976 
3449.000000	99.190888 
3448.000000	99.189816 
3447.000000	99.188792 
3446.000000	99.187811 
3445.000000	99.186838 
3444.000000	99.185848 
3443.000000	99.184848 
3442.000000	99.183869 
3441.000000	99.182934 
3440.000000	99.182030 
3439.000000	99.181115 
3438.000000	99.180149 
3437.000000	99.179127 
3436.000000	99.178093 
3435.000000	99.177108 
3434.000000	99.176209 
3433.000000	99.175375 
3432.000000	99.174569 
3431.000000	99.173781 
3430.000000	99.173017 
3429.000000	99.172261 
3428.000000	99.171461 
3427.000000	99.170608 
3426.000000	99.169742 
3425.000000	99.168885 
3424.000000	99.167996 
3423.000000	99.167066 
3422.000000	99.166206 
3421.000000	99.165560 
3420.000000	99.165100 
3419.000000	99.164579 
3418.000000	99.163816 
3417.000000	99.162941 
3416.000000	99.162251 
3415.000000	99.161861 
3414.000000	99.161597 
3413.000000	99.161214 
3412.000000	99.160610 
3411.000000	99.159842 
3410.000000	99.159031 
3409.000000	99.158281 
3408.000000	99.157589 
3407.000000	99.156796 
3406.000000	99.155687 
3405.000000	99.154258 
3404.000000	99.152814 
3403.000000	99.151701 
3402.000000	99.150954 
3401.000000	99.150324 
3400.000000	99.149686 
3399.000000	99.149227 
3398.000000	99.149132 
3397.000000	99.149174 
3396.000000	99.148850 
3395.000000	99.147999 
3394.000000	99.147117 
3393.000000	99.146907 
3392.000000	99.147535 
3391.000000	99.148423 
3390.000000	99.148747 
3389.000000	99.148087 
3388.000000	99.146686 
3387.000000	99.145337 
3386.000000	99.144909 
3385.000000	99.145762 
3384.000000	99.147454 
3383.000000	99.149023 
3382.000000	99.149817 
3381.000000	99.149912 
3380.000000	99.149777 
3379.000000	99.149642 
3378.000000	99.149372 
3377.000000	99.148797 
3376.000000	99.147892 
3375.000000	99.146668 
3374.000000	99.145176 
3373.000000	99.143713 
3372.000000	99.142774 
3371.000000	99.142643 
3370.000000	99.143131 
3369.000000	99.143825 
3368.000000	99.144460 
3367.000000	99.144950 
3366.000000	99.145249 
3365.000000	99.145456 
3364.000000	99.145969 
3363.000000	99.147169 
3362.000000	99.148865 
3361.000000	99.150333 
3360.000000	99.151059 
3359.000000	99.151229 
3358.000000	99.151369 
3357.000000	99.151673 
3356.000000	99.151896 
3355.000000	99.151789 
3354.000000	99.151412 
3353.000000	99.151037 
3352.000000	99.150938 
3351.000000	99.151343 
3350.000000	99.152386 
3349.000000	99.153981 
3348.000000	99.155779 
3347.000000	99.157372 
3346.000000	99.158561 
3345.000000	99.159396 
3344.000000	99.160021 
3343.000000	99.160462 
3342.000000	99.160603 
3341.000000	99.160341 
3340.000000	99.159741 
3339.000000	99.159038 
3338.000000	99.158513 
3337.000000	99.158408 
3336.000000	99.158903 
3335.000000	99.160040 
3334.000000	99.161604 
3333.000000	99.163168 
3332.000000	99.164339 
3331.000000	99.164967 
3330.000000	99.165110 
3329.000000	99.164943 
3328.000000	99.164760 
3327.000000	99.164928 
3326.000000	99.165622 
3325.000000	99.166593 
3324.000000	99.167338 
3323.000000	99.167602 
3322.000000	99.167639 
3321.000000	99.167951 
3320.000000	99.168836 
3319.000000	99.170200 
3318.000000	99.171668 
3317.000000	99.172819 
3316.000000	99.173481 
3315.000000	99.173896 
3314.000000	99.174530 
3313.000000	99.175548 
3312.000000	99.176525 
3311.000000	99.176861 
3310.000000	99.176455 
3309.000000	99.175817 
3308.000000	99.175518 
3307.000000	99.175613 
3306.000000	99.175719 
3305.000000	99.175550 
3304.000000	99.175268 
3303.000000	99.175334 
3302.000000	99.176056 
3301.000000	99.177304 
3300.000000	99.178599 
3299.000000	99.179482 
3298.000000	99.179830 
3297.000000	99.179819 
3296.000000	99.179707 
3295.000000	99.179668 
3294.000000	99.179835 
3293.000000	99.180353 
3292.000000	99.181281 
3291.000000	99.182460 
3290.000000	99.183595 
3289.000000	99.184489 
3288.000000	99.185154 
3287.000000	99.185675 
3286.000000	99.186018 
3285.000000	99.186060 
3284.000000	99.185830 
3283.000000	99.185623 
3282.000000	99.185806 
3281.000000	99.186522 
3280.000000	99.187580 
3279.000000	99.188611 
3278.000000	99.189314 
3277.000000	99.189561 
3276.000000	99.189375 
3275.000000	99.188858 
3274.000000	99.188132 
3273.000000	99.187316 
3272.000000	99.186551 
3271.000000	99.186095 
3270.000000	99.186351 
3269.000000	99.187652 
3268.000000	99.189974 
3267.000000	99.192719 
3266.000000	99.194955 
3265.000000	99.196079 
3264.000000	99.196174 
3263.000000	99.195848 
3262.000000	99.195667 
3261.000000	99.195738 
3260.000000	99.195872 
3259.000000	99.195973 
3258.000000	99.196143 
3257.000000	99.196535 
3256.000000	99.197201 
3255.000000	99.198025 
3254.000000	99.198742 
3253.000000	99.199102 
3252.000000	99.199133 
3251.000000	99.199122 
3250.000000	99.199292 
3249.000000	99.199554 
3248.000000	99.199726 
3247.000000	99.199873 
3246.000000	99.200210 
3245.000000	99.200752 
3244.000000	99.201297 
3243.000000	99.201765 
3242.000000	99.202336 
3241.000000	99.203126 
3240.000000	99.203908 
3239.000000	99.204383 
3238.000000	99.204592 
3237.000000	99.204841 
3236.000000	99.205283 
3235.000000	99.205746 
3234.000000	99.205957 
3233.000000	99.205829 
3232.000000	99.205536 
3231.000000	99.205342 
3230.000000	99.205372 
3229.000000	99.205524 
3228.000000	99.205583 
3227.000000	99.205484 
3226.000000	99.205484 
3225.000000	99.206010 
3224.000000	99.207285 
3223.000000	99.209012 
3222.000000	99.210399 
3221.000000	99.210753 
3220.000000	99.210044 
3219.000000	99.208957 
3218.000000	99.208287 
3217.000000	99.208201 
3216.000000	99.208325 
3215.000000	99.208435 
3214.000000	99.208762 
3213.000000	99.209528 
3212.000000	99.210517 
3211.000000	99.211316 
3210.000000	99.211754 
3209.000000	99.211823 
3208.000000	99.211371 
3207.000000	99.210248 
3206.000000	99.208749 
3205.000000	99.207558 
3204.000000	99.207156 
3203.000000	99.207508 
3202.000000	99.208390 
3201.000000	99.209773 
3200.000000	99.211631 
3199.000000	99.213488 
3198.000000	99.214476 
3197.000000	99.214012 
3196.000000	99.212408 
3195.000000	99.210820 
3194.000000	99.210399 
3193.000000	99.211451 
3192.000000	99.213425 
3191.000000	99.215516 
3190.000000	99.217323 
3189.000000	99.218922 
3188.000000	99.220465 
3187.000000	99.221855 
3186.000000	99.222821 
3185.000000	99.223326 
3184.000000	99.223799 
3183.000000	99.224825 
3182.000000	99.226490 
3181.000000	99.228206 
3180.000000	99.229342 
3179.000000	99.229883 
3178.000000	99.230295 
3177.000000	99.230926 
3176.000000	99.231771 
3175.000000	99.232733 
3174.000000	99.233726 
3173.000000	99.234533 
3172.000000	99.234948 
3171.000000	99.235162 
3170.000000	99.235684 
3169.000000	99.236702 
3168.000000	99.237822 
3167.000000	99.238595 
3166.000000	99.239064 
3165.000000	99.239642 
3164.000000	99.240564 
3163.000000	99.241693 
3162.000000	99.242751 
3161.000000	99.243600 
3160.000000	99.244291 
3159.000000	99.244993 
3158.000000	99.245874 
3157.000000	99.246974 
3156.000000	99.248115 
3155.000000	99.249005 
3154.000000	99.249541 
3153.000000	99.249921 
3152.000000	99.250422 
3151.000000	99.251122 
3150.000000	99.251874 
3149.000000	99.252478 
3148.000000	99.252905 
3147.000000	99.253351 
3146.000000	99.254051 
3145.000000	99.255054 
3144.000000	99.256203 
3143.000000	99.257307 
3142.000000	99.258291 
3141.000000	99.259161 
3140.000000	99.259940 
3139.000000	99.260663 
3138.000000	99.261393 
3137.000000	99.262165 
3136.000000	99.262979 
3135.000000	99.263849 
3134.000000	99.264782 
3133.000000	99.265651 
3132.000000	99.266221 
3131.000000	99.266383 
3130.000000	99.266355 
3129.000000	99.266559 
3128.000000	99.267273 
3127.000000	99.268448 
3126.000000	99.269809 
3125.000000	99.271068 
3124.000000	99.272064 
3123.000000	99.272746 
3122.000000	99.273103 
3121.000000	99.273119 
3120.000000	99.272798 
3119.000000	99.272243 
3118.000000	99.271750 
3117.000000	99.271735 
3116.000000	99.272476 
3115.000000	99.273902 
3114.000000	99.275573 
3113.000000	99.276966 
3112.000000	99.277854 
3111.000000	99.278409 
3110.000000	99.279005 
3109.000000	99.279863 
3108.000000	99.280856 
3107.000000	99.281673 
3106.000000	99.282178 
3105.000000	99.282525 
3104.000000	99.282890 
3103.000000	99.283221 
3102.000000	99.283366 
3101.000000	99.283390 
3100.000000	99.283588 
3099.000000	99.284121 
3098.000000	99.284769 
3097.000000	99.285153 
3096.000000	99.285171 
3095.000000	99.285120 
3094.000000	99.285349 
3093.000000	99.285899 
3092.000000	99.286539 
3091.000000	99.287002 
3090.000000	99.287170 
3089.000000	99.287093 
3088.000000	99.286973 
3087.000000	99.287074 
3086.000000	99.287522 
3085.000000	99.288149 
3084.000000	99.288589 
3083.000000	99.288607 
3082.000000	99.288265 
3081.000000	99.287865 
3080.000000	99.287806 
3079.000000	99.288424 
3078.000000	99.289718 
3077.000000	99.291139 
3076.000000	99.291937 
3075.000000	99.291920 
3074.000000	99.291788 
3073.000000	99.292409 
3072.000000	99.293775 
3071.000000	99.294842 
3070.000000	99.294487 
3069.000000	99.292561 
3068.000000	99.289901 
3067.000000	99.287433 
3066.000000	99.285635 
3065.000000	99.284982 
3064.000000	99.286228 
3063.000000	99.289419 
3062.000000	99.292858 
3061.000000	99.294268 
3060.000000	99.293346 
3059.000000	99.292160 
3058.000000	99.292262 
3057.000000	99.292294 
3056.000000	99.289785 
3055.000000	99.284752 
3054.000000	99.280105 
3053.000000	99.278375 
3052.000000	99.279378 
3051.000000	99.281316 
3050.000000	99.282878 
3049.000000	99.283626 
3048.000000	99.283295 
3047.000000	99.281758 
3046.000000	99.279327 
3045.000000	99.276489 
3044.000000	99.273744 
3043.000000	99.272034 
3042.000000	99.272383 
3041.000000	99.274359 
3040.000000	99.275501 
3039.000000	99.273561 
3038.000000	99.268928 
3037.000000	99.263853 
3036.000000	99.259472 
3035.000000	99.254772 
3034.000000	99.248873 
3033.000000	99.243003 
3032.000000	99.239091 
3031.000000	99.236973 
3030.000000	99.234214 
3029.000000	99.228879 
3028.000000	99.221591 
3027.000000	99.214582 
3026.000000	99.209248 
3025.000000	99.205171 
3024.000000	99.201110 
3023.000000	99.196110 
3022.000000	99.189635 
3021.000000	99.181602 
3020.000000	99.172709 
3019.000000	99.164079 
3018.000000	99.155924 
3017.000000	99.147022 
3016.000000	99.136197 
3015.000000	99.124128 
3014.000000	99.112942 
3013.000000	99.103979 
3012.000000	99.096503 
3011.000000	99.088773 
3010.000000	99.079854 
3009.000000	99.070140 
3008.000000	99.060460 
3007.000000	99.051131 
3006.000000	99.041977 
3005.000000	99.033121 
3004.000000	99.025266 
3003.000000	99.018565 
3002.000000	99.011316 
3001.000000	99.000859 
3000.000000	98.986609 
2999.000000	98.971615 
2998.000000	98.960042 
2997.000000	98.953346 
2996.000000	98.949557 
2995.000000	98.945683 
2994.000000	98.939443 
2993.000000	98.928948 
2992.000000	98.913055 
2991.000000	98.893385 
2990.000000	98.874839 
2989.000000	98.862447 
2988.000000	98.857695 
2987.000000	98.858335 
2986.000000	98.860899 
2985.000000	98.862854 
2984.000000	98.863167 
2983.000000	98.862313 
2982.000000	98.861781 
2981.000000	98.862607 
2980.000000	98.864179 
2979.000000	98.865008 
2978.000000	98.864529 
2977.000000	98.863379 
2976.000000	98.861963 
2975.000000	98.859800 
2974.000000	98.856893 
2973.000000	98.855162 
2972.000000	98.857628 
2971.000000	98.865847 
2970.000000	98.878125 
2969.000000	98.890409 
2968.000000	98.899391 
2967.000000	98.905119 
2966.000000	98.910546 
2965.000000	98.918523 
2964.000000	98.929292 
2963.000000	98.940630 
2962.000000	98.949887 
2961.000000	98.955837 
2960.000000	98.959286 
2959.000000	98.962451 
2958.000000	98.967323 
2957.000000	98.973982 
2956.000000	98.980572 
2955.000000	98.985229 
2954.000000	98.987938 
2953.000000	98.990240 
2952.000000	98.993498 
2951.000000	98.997872 
2950.000000	99.002712 
2949.000000	99.007300 
2948.000000	99.011189 
2947.000000	99.014279 
2946.000000	99.016802 
2945.000000	99.019042 
2944.000000	99.020915 
2943.000000	99.021941 
2942.000000	99.021673 
2941.000000	99.020161 
2940.000000	99.018171 
2939.000000	99.016947 
2938.000000	99.017377 
2937.000000	99.019331 
2936.000000	99.022186 
2935.000000	99.025936 
2934.000000	99.031068 
2933.000000	99.036948 
2932.000000	99.041104 
2931.000000	99.041000 
2930.000000	99.036399 
2929.000000	99.029606 
2928.000000	99.023646 
2927.000000	99.020466 
2926.000000	99.020492 
2925.000000	99.022763 
2924.000000	99.025242 
2923.000000	99.025893 
2922.000000	99.024066 
2921.000000	99.020643 
2920.000000	99.016660 
2919.000000	99.012256 
2918.000000	99.007204 
2917.000000	99.001971 
2916.000000	98.997631 
2915.000000	98.994873 
2914.000000	98.993476 
2913.000000	98.992839 
2912.000000	98.992691 
2911.000000	98.993126 
2910.000000	98.994109 
2909.000000	98.995193 
2908.000000	98.995906 
2907.000000	98.996139 
2906.000000	98.995830 
2905.000000	98.994239 
2904.000000	98.990361 
2903.000000	98.984739 
2902.000000	98.980626 
2901.000000	98.981696 
2900.000000	98.989268 
2899.000000	99.000529 
2898.000000	99.010665 
2897.000000	99.016510 
2896.000000	99.018287 
2895.000000	99.018459 
2894.000000	99.019514 
2893.000000	99.022381 
2892.000000	99.026325 
2891.000000	99.029984 
2890.000000	99.032569 
2889.000000	99.034173 
2888.000000	99.035183 
2887.000000	99.035844 
2886.000000	99.036559 
2885.000000	99.038153 
2884.000000	99.041329 
2883.000000	99.045974 
2882.000000	99.051385 
2881.000000	99.057160 
2880.000000	99.063551 
2879.000000	99.070958 
2878.000000	99.079229 
2877.000000	99.087343 
2876.000000	99.093731 
2875.000000	99.097379 
2874.000000	99.099112 
2873.000000	99.101450 
2872.000000	99.106402 
2871.000000	99.113200 
2870.000000	99.118869 
2869.000000	99.121331 
2868.000000	99.121614 
2867.000000	99.122767 
2866.000000	99.126960 
2865.000000	99.134054 
2864.000000	99.142524 
2863.000000	99.151101 
2862.000000	99.159432 
2861.000000	99.167679 
2860.000000	99.175984 
2859.000000	99.184407 
2858.000000	99.192993 
2857.000000	99.201480 
2856.000000	99.208896 
2855.000000	99.213937 
2854.000000	99.216271 
2853.000000	99.217252 
2852.000000	99.218716 
2851.000000	99.221131 
2850.000000	99.223545 
2849.000000	99.225183 
2848.000000	99.226440 
2847.000000	99.228336 
2846.000000	99.231759 
2845.000000	99.237316 
2844.000000	99.244940 
2843.000000	99.253114 
2842.000000	99.259320 
2841.000000	99.262084 
2840.000000	99.262244 
2839.000000	99.261924 
2838.000000	99.262665 
2837.000000	99.264890 
2836.000000	99.268377 
2835.000000	99.272288 
2834.000000	99.275349 
2833.000000	99.277105 
2832.000000	99.278711 
2831.000000	99.281395 
2830.000000	99.284398 
2829.000000	99.285796 
2828.000000	99.285319 
2827.000000	99.284976 
2826.000000	99.286590 
2825.000000	99.289786 
2824.000000	99.293009 
2823.000000	99.295489 
2822.000000	99.297439 
2821.000000	99.299042 
2820.000000	99.300158 
2819.000000	99.300742 
2818.000000	99.300852 
2817.000000	99.300422 
2816.000000	99.299480 
2815.000000	99.298469 
2814.000000	99.297983 
2813.000000	99.298316 
2812.000000	99.299412 
2811.000000	99.301066 
2810.000000	99.302967 
2809.000000	99.304764 
2808.000000	99.306302 
2807.000000	99.307687 
2806.000000	99.308981 
2805.000000	99.309974 
2804.000000	99.310355 
2803.000000	99.310068 
2802.000000	99.309444 
2801.000000	99.309030 
2800.000000	99.309229 
2799.000000	99.309990 
2798.000000	99.310929 
2797.000000	99.311798 
2796.000000	99.312676 
2795.000000	99.313632 
2794.000000	99.314505 
2793.000000	99.315153 
2792.000000	99.315619 
2791.000000	99.315858 
2790.000000	99.315634 
2789.000000	99.314954 
2788.000000	99.314339 
2787.000000	99.314340 
2786.000000	99.314962 
2785.000000	99.315868 
2784.000000	99.316900 
2783.000000	99.318064 
2782.000000	99.319147 
2781.000000	99.319845 
2780.000000	99.320191 
2779.000000	99.320532 
2778.000000	99.321105 
2777.000000	99.321830 
2776.000000	99.322518 
2775.000000	99.323098 
2774.000000	99.323622 
2773.000000	99.324150 
2772.000000	99.324707 
2771.000000	99.325279 
2770.000000	99.325821 
2769.000000	99.326292 
2768.000000	99.326714 
2767.000000	99.327142 
2766.000000	99.327594 
2765.000000	99.328048 
2764.000000	99.328496 
2763.000000	99.328953 
2762.000000	99.329432 
2761.000000	99.329929 
2760.000000	99.330439 
2759.000000	99.330955 
2758.000000	99.331475 
2757.000000	99.331993 
2756.000000	99.332510 
2755.000000	99.333028 
2754.000000	99.333546 
2753.000000	99.334061 
2752.000000	99.334571 
2751.000000	99.335076 
2750.000000	99.335578 
2749.000000	99.336075 
2748.000000	99.336569 
2747.000000	99.337060 
2746.000000	99.337549 
2745.000000	99.338030 
2744.000000	99.338500 
2743.000000	99.338954 
2742.000000	99.339394 
2741.000000	99.339819 
2740.000000	99.340232 
2739.000000	99.340636 
2738.000000	99.341037 
2737.000000	99.341439 
2736.000000	99.341844 
2735.000000	99.342249 
2734.000000	99.342654 
2733.000000	99.343056 
2732.000000	99.343455 
2731.000000	99.343851 
2730.000000	99.344251 
2729.000000	99.344658 
2728.000000	99.345072 
2727.000000	99.345498 
2726.000000	99.345951 
2725.000000	99.346432 
2724.000000	99.346915 
2723.000000	99.347363 
2722.000000	99.347776 
2721.000000	99.348181 
2720.000000	99.348589 
2719.000000	99.348983 
2718.000000	99.349361 
2717.000000	99.349739 
2716.000000	99.350110 
2715.000000	99.350433 
2714.000000	99.350668 
2713.000000	99.350812 
2712.000000	99.350906 
2711.000000	99.351030 
2710.000000	99.351242 
2709.000000	99.351543 
2708.000000	99.351894 
2707.000000	99.352261 
2706.000000	99.352599 
2705.000000	99.352824 
2704.000000	99.352883 
2703.000000	99.352874 
2702.000000	99.353002 
2701.000000	99.353375 
2700.000000	99.353901 
2699.000000	99.354378 
2698.000000	99.354655 
2697.000000	99.354692 
2696.000000	99.354590 
2695.000000	99.354591 
2694.000000	99.354908 
2693.000000	99.355470 
2692.000000	99.355904 
2691.000000	99.355937 
2690.000000	99.355715 
2689.000000	99.355598 
2688.000000	99.355628 
2687.000000	99.355525 
2686.000000	99.355151 
2685.000000	99.354736 
2684.000000	99.354626 
2683.000000	99.354899 
2682.000000	99.355269 
2681.000000	99.355328 
2680.000000	99.354842 
2679.000000	99.353901 
2678.000000	99.352890 
2677.000000	99.352286 
2676.000000	99.352337 
2675.000000	99.352851 
2674.000000	99.353291 
2673.000000	99.353223 
2672.000000	99.352685 
2671.000000	99.352060 
2670.000000	99.351581 
2669.000000	99.351136 
2668.000000	99.350608 
2667.000000	99.350120 
2666.000000	99.349780 
2665.000000	99.349408 
2664.000000	99.348790 
2663.000000	99.347985 
2662.000000	99.347091 
2661.000000	99.345924 
2660.000000	99.344363 
2659.000000	99.342882 
2658.000000	99.342193 
2657.000000	99.342333 
2656.000000	99.342548 
2655.000000	99.342181 
2654.000000	99.341281 
2653.000000	99.340256 
2652.000000	99.339439 
2651.000000	99.339131 
2650.000000	99.339534 
2649.000000	99.340321 
2648.000000	99.340605 
2647.000000	99.339816 
2646.000000	99.338391 
2645.000000	99.337365 
2644.000000	99.337293 
2643.000000	99.337943 
2642.000000	99.338772 
2641.000000	99.339419 
2640.000000	99.339803 
2639.000000	99.340043 
2638.000000	99.340333 
2637.000000	99.340741 
2636.000000	99.341122 
2635.000000	99.341332 
2634.000000	99.341446 
2633.000000	99.341658 
2632.000000	99.342039 
2631.000000	99.342511 
2630.000000	99.342972 
2629.000000	99.343356 
2628.000000	99.343651 
2627.000000	99.343908 
2626.000000	99.344215 
2625.000000	99.344631 
2624.000000	99.345160 
2623.000000	99.345793 
2622.000000	99.346499 
2621.000000	99.347215 
2620.000000	99.347894 
2619.000000	99.348550 
2618.000000	99.349223 
2617.000000	99.349930 
2616.000000	99.350661 
2615.000000	99.351409 
2614.000000	99.352175 
2613.000000	99.352964 
2612.000000	99.353783 
2611.000000	99.354632 
2610.000000	99.355509 
2609.000000	99.356412 
2608.000000	99.357343 
2607.000000	99.358303 
2606.000000	99.359289 
2605.000000	99.360299 
2604.000000	99.361330 
2603.000000	99.362378 
2602.000000	99.363437 
2601.000000	99.364497 
2600.000000	99.365556 
2599.000000	99.366615 
2598.000000	99.367679 
2597.000000	99.368752 
2596.000000	99.369840 
2595.000000	99.370943 
2594.000000	99.372059 
2593.000000	99.373183 
2592.000000	99.374314 
2591.000000	99.375454 
2590.000000	99.376606 
2589.000000	99.377774 
2588.000000	99.378958 
2587.000000	99.380152 
2586.000000	99.381350 
2585.000000	99.382544 
2584.000000	99.383727 
2583.000000	99.384896 
2582.000000	99.386054 
2581.000000	99.387210 
2580.000000	99.388375 
2579.000000	99.389550 
2578.000000	99.390736 
2577.000000	99.391930 
2576.000000	99.393132 
2575.000000	99.394339 
2574.000000	99.395545 
2573.000000	99.396745 
2572.000000	99.397934 
2571.000000	99.399104 
2570.000000	99.400250 
2569.000000	99.401374 
2568.000000	99.402481 
2567.000000	99.403575 
2566.000000	99.404645 
2565.000000	99.405679 
2564.000000	99.406669 
2563.000000	99.407619 
2562.000000	99.408536 
2561.000000	99.409431 
2560.000000	99.410308 
2559.000000	99.411171 
2558.000000	99.412024 
2557.000000	99.412857 
2556.000000	99.413650 
2555.000000	99.414396 
2554.000000	99.415117 
2553.000000	99.415862 
2552.000000	99.416670 
2551.000000	99.417533 
2550.000000	99.418359 
2549.000000	99.419045 
2548.000000	99.419566 
2547.000000	99.419973 
2546.000000	99.420319 
2545.000000	99.420643 
2544.000000	99.420993 
2543.000000	99.421408 
2542.000000	99.421884 
2541.000000	99.422415 
2540.000000	99.423036 
2539.000000	99.423750 
2538.000000	99.424423 
2537.000000	99.424879 
2536.000000	99.425117 
2535.000000	99.425303 
2534.000000	99.425540 
2533.000000	99.425763 
2532.000000	99.425887 
2531.000000	99.425915 
2530.000000	99.425884 
2529.000000	99.425864 
2528.000000	99.426010 
2527.000000	99.426460 
2526.000000	99.427114 
2525.000000	99.427601 
2524.000000	99.427627 
2523.000000	99.427230 
2522.000000	99.426757 
2521.000000	99.426601 
2520.000000	99.426928 
2519.000000	99.427600 
2518.000000	99.428222 
2517.000000	99.428516 
2516.000000	99.428668 
2515.000000	99.429148 
2514.000000	99.430155 
2513.000000	99.431403 
2512.000000	99.432465 
2511.000000	99.433118 
2510.000000	99.433257 
2509.000000	99.432824 
2508.000000	99.432034 
2507.000000	99.431438 
2506.000000	99.431436 
2505.000000	99.431904 
2504.000000	99.432484 
2503.000000	99.433055 
2502.000000	99.433656 
2501.000000	99.434187 
2500.000000	99.434566 
2499.000000	99.435021 
2498.000000	99.435841 
2497.000000	99.436966 
2496.000000	99.438073 
2495.000000	99.438925 
2494.000000	99.439443 
2493.000000	99.439673 
2492.000000	99.439930 
2491.000000	99.440724 
2490.000000	99.442189 
2489.000000	99.443729 
2488.000000	99.444609 
2487.000000	99.444834 
2486.000000	99.445029 
2485.000000	99.445521 
2484.000000	99.445950 
2483.000000	99.445919 
2482.000000	99.445514 
2481.000000	99.445171 
2480.000000	99.445289 
2479.000000	99.446029 
2478.000000	99.447230 
2477.000000	99.448414 
2476.000000	99.449161 
2475.000000	99.449493 
2474.000000	99.449725 
2473.000000	99.449997 
2472.000000	99.450143 
2471.000000	99.450045 
2470.000000	99.449834 
2469.000000	99.449730 
2468.000000	99.449864 
2467.000000	99.450218 
2466.000000	99.450582 
2465.000000	99.450667 
2464.000000	99.450411 
2463.000000	99.450111 
2462.000000	99.450130 
2461.000000	99.450509 
2460.000000	99.450984 
2459.000000	99.451267 
2458.000000	99.451304 
2457.000000	99.451244 
2456.000000	99.451300 
2455.000000	99.451592 
2454.000000	99.452023 
2453.000000	99.452301 
2452.000000	99.452214 
2451.000000	99.451899 
2450.000000	99.451764 
2449.000000	99.452066 
2448.000000	99.452706 
2447.000000	99.453409 
2446.000000	99.454024 
2445.000000	99.454535 
2444.000000	99.454980 
2443.000000	99.455479 
2442.000000	99.456134 
2441.000000	99.456814 
2440.000000	99.457240 
2439.000000	99.457363 
2438.000000	99.457428 
2437.000000	99.457572 
2436.000000	99.457621 
2435.000000	99.457457 
2434.000000	99.457301 
2433.000000	99.457454 
2432.000000	99.458008 
2431.000000	99.458938 
2430.000000	99.460189 
2429.000000	99.461468 
2428.000000	99.462242 
2427.000000	99.462193 
2426.000000	99.461509 
2425.000000	99.460646 
2424.000000	99.459957 
2423.000000	99.459638 
2422.000000	99.459910 
2421.000000	99.461015 
2420.000000	99.463019 
2419.000000	99.465608 
2418.000000	99.467989 
2417.000000	99.469331 
2416.000000	99.469562 
2415.000000	99.469582 
2414.000000	99.470298 
2413.000000	99.471662 
2412.000000	99.473054 
2411.000000	99.474223 
2410.000000	99.475237 
2409.000000	99.475829 
2408.000000	99.475570 
2407.000000	99.474564 
2406.000000	99.473346 
2405.000000	99.472115 
2404.000000	99.470696 
2403.000000	99.469287 
2402.000000	99.468544 
2401.000000	99.468746 
2400.000000	99.469430 
2399.000000	99.470139 
2398.000000	99.470958 
2397.000000	99.472034 
2396.000000	99.473022 
2395.000000	99.473404 
2394.000000	99.473103 
2393.000000	99.472553 
2392.000000	99.472238 
2391.000000	99.472278 
2390.000000	99.472417 
2389.000000	99.472315 
2388.000000	99.471930 
2387.000000	99.471619 
2386.000000	99.471815 
2385.000000	99.472553 
2384.000000	99.473332 
2383.000000	99.473491 
2382.000000	99.472756 
2381.000000	99.471348 
2380.000000	99.469778 
2379.000000	99.468474 
2378.000000	99.467521 
2377.000000	99.466742 
2376.000000	99.465979 
2375.000000	99.465268 
2374.000000	99.464714 
2373.000000	99.464270 
2372.000000	99.463763 
2371.000000	99.463074 
2370.000000	99.462242 
2369.000000	99.461371 
2368.000000	99.460521 
2367.000000	99.459685 
2366.000000	99.458835 
2365.000000	99.457954 
2364.000000	99.457037 
2363.000000	99.456084 
2362.000000	99.455103 
2361.000000	99.454106 
2360.000000	99.453113 
2359.000000	99.452139 
2358.000000	99.451186 
2357.000000	99.450246 
2356.000000	99.449305 
2355.000000	99.448348 
2354.000000	99.447371 
2353.000000	99.446377 
2352.000000	99.445384 
2351.000000	99.444415 
2350.000000	99.443483 
2349.000000	99.442583 
2348.000000	99.441703 
2347.000000	99.440832 
2346.000000	99.439969 
2345.000000	99.439136 
2344.000000	99.438360 
2343.000000	99.437644 
2342.000000	99.436934 
2341.000000	99.436174 
2340.000000	99.435355 
2339.000000	99.434543 
2338.000000	99.433820 
2337.000000	99.433187 
2336.000000	99.432587 
2335.000000	99.431944 
2334.000000	99.431270 
2333.000000	99.430657 
2332.000000	99.430354 
2331.000000	99.430440 
2330.000000	99.430711 
2329.000000	99.430575 
2328.000000	99.429664 
2327.000000	99.427794 
2326.000000	99.425212 
2325.000000	99.422633 
2324.000000	99.421101 
2323.000000	99.421278 
2322.000000	99.422709 
2321.000000	99.424241 
2320.000000	99.425411 
2319.000000	99.426423 
2318.000000	99.427531 
2317.000000	99.428118 
2316.000000	99.427918 
2315.000000	99.426892 
2314.000000	99.425704 
2313.000000	99.424473 
2312.000000	99.423698 
2311.000000	99.423355 
2310.000000	99.423446 
2309.000000	99.423528 
2308.000000	99.424061 
2307.000000	99.425478 
2306.000000	99.427832 
2305.000000	99.430117 
2304.000000	99.431752 
2303.000000	99.432459 
2302.000000	99.432247 
2301.000000	99.430619 
2300.000000	99.427997 
2299.000000	99.425236 
2298.000000	99.423193 
2297.000000	99.421382 
2296.000000	99.419479 
2295.000000	99.417470 
2294.000000	99.415461 
2293.000000	99.412868 
2292.000000	99.409772 
2291.000000	99.407264 
2290.000000	99.406024 
2289.000000	99.405094 
2288.000000	99.403273 
2287.000000	99.401353 
2286.000000	99.401442 
2285.000000	99.404546 
2284.000000	99.409495 
2283.000000	99.414425 
2282.000000	99.418210 
2281.000000	99.421150 
2280.000000	99.424559 
2279.000000	99.429223 
2278.000000	99.433704 
2277.000000	99.435678 
2276.000000	99.435296 
2275.000000	99.435411 
2274.000000	99.437801 
2273.000000	99.440806 
2272.000000	99.442084 
2271.000000	99.441979 
2270.000000	99.442725 
2269.000000	99.445251 
2268.000000	99.448407 
2267.000000	99.450787 
2266.000000	99.452137 
2265.000000	99.453112 
2264.000000	99.454490 
2263.000000	99.456377 
2262.000000	99.457760 
2261.000000	99.457327 
2260.000000	99.455013 
2259.000000	99.452416 
2258.000000	99.451220 
2257.000000	99.451618 
2256.000000	99.452718 
2255.000000	99.453910 
2254.000000	99.455354 
2253.000000	99.457309 
2252.000000	99.459617 
2251.000000	99.461802 
2250.000000	99.463431 
2249.000000	99.464344 
2248.000000	99.464739 
2247.000000	99.464933 
2246.000000	99.465150 
2245.000000	99.465474 
2244.000000	99.465924 
2243.000000	99.466455 
2242.000000	99.466956 
2241.000000	99.467371 
2240.000000	99.467816 
2239.000000	99.468472 
2238.000000	99.469327 
2237.000000	99.470087 
2236.000000	99.470484 
2235.000000	99.470572 
2234.000000	99.470755 
2233.000000	99.471343 
2232.000000	99.472243 
2231.000000	99.473100 
2230.000000	99.473707 
2229.000000	99.474109 
2228.000000	99.474383 
2227.000000	99.474496 
2226.000000	99.474394 
2225.000000	99.474185 
2224.000000	99.474217 
2223.000000	99.474879 
2222.000000	99.476258 
2221.000000	99.477877 
2220.000000	99.479017 
2219.000000	99.479476 
2218.000000	99.479847 
2217.000000	99.480886 
2216.000000	99.482596 
2215.000000	99.484170 
2214.000000	99.484816 
2213.000000	99.484399 
2212.000000	99.483379 
2211.000000	99.482421 
2210.000000	99.482052 
2209.000000	99.482454 
2208.000000	99.483458 
2207.000000	99.484769 
2206.000000	99.486269 
2205.000000	99.488184 
2204.000000	99.490957 
2203.000000	99.494647 
2202.000000	99.498309 
2201.000000	99.500417 
2200.000000	99.500095 
2199.000000	99.498038 
2198.000000	99.495861 
2197.000000	99.494269 
2196.000000	99.493054 
2195.000000	99.492425 
2194.000000	99.493217 
2193.000000	99.495475 
2192.000000	99.497398 
2191.000000	99.496635 
2190.000000	99.492777 
2189.000000	99.488049 
2188.000000	99.485102 
2187.000000	99.484608 
2186.000000	99.485742 
2185.000000	99.488270 
2184.000000	99.492602 
2183.000000	99.497605 
2182.000000	99.500378 
2181.000000	99.499661 
2180.000000	99.497995 
2179.000000	99.498521 
2178.000000	99.500889 
2177.000000	99.502700 
2176.000000	99.503949 
2175.000000	99.507024 
2174.000000	99.512260 
2173.000000	99.516715 
2172.000000	99.518364 
2171.000000	99.518717 
2170.000000	99.519861 
2169.000000	99.521204 
2168.000000	99.520886 
2167.000000	99.518571 
2166.000000	99.514876 
2165.000000	99.509560 
2164.000000	99.502562 
2163.000000	99.496210 
2162.000000	99.494571 
2161.000000	99.500918 
2160.000000	99.516456 
2159.000000	99.539312 
2158.000000	99.562731 
2157.000000	99.577681 
2156.000000	99.580232 
2155.000000	99.574330 
2154.000000	99.567500 
2153.000000	99.563919 
2152.000000	99.562828 
2151.000000	99.562173 
2150.000000	99.561103 
2149.000000	99.559725 
2148.000000	99.558847 
2147.000000	99.560043 
2146.000000	99.564250 
2145.000000	99.570254 
2144.000000	99.575778 
2143.000000	99.579655 
2142.000000	99.581457 
2141.000000	99.579780 
2140.000000	99.573286 
2139.000000	99.563763 
2138.000000	99.556262 
2137.000000	99.554745 
2136.000000	99.558354 
2135.000000	99.562625 
2134.000000	99.563972 
2133.000000	99.562537 
2132.000000	99.561042 
2131.000000	99.561451 
2130.000000	99.562821 
2129.000000	99.562211 
2128.000000	99.557631 
2127.000000	99.549952 
2126.000000	99.541960 
2125.000000	99.535712 
2124.000000	99.531119 
2123.000000	99.527081 
2122.000000	99.523429 
2121.000000	99.521125 
2120.000000	99.520474 
2119.000000	99.519824 
2118.000000	99.516923 
2117.000000	99.511762 
2116.000000	99.507036 
2115.000000	99.505123 
2114.000000	99.505746 
2113.000000	99.507268 
2112.000000	99.509489 
2111.000000	99.513146 
2110.000000	99.516796 
2109.000000	99.517022 
2108.000000	99.512519 
2107.000000	99.506073 
2106.000000	99.501637 
2105.000000	99.500370 
2104.000000	99.500631 
2103.000000	99.500790 
2102.000000	99.500718 
2101.000000	99.500806 
2100.000000	99.500793 
2099.000000	99.500041 
2098.000000	99.498669 
2097.000000	99.498104 
2096.000000	99.500097 
2095.000000	99.504695 
2094.000000	99.509345 
2093.000000	99.511132 
2092.000000	99.509553 
2091.000000	99.506301 
2090.000000	99.503110 
2089.000000	99.500233 
2088.000000	99.497087 
2087.000000	99.493576 
2086.000000	99.490402 
2085.000000	99.488430 
2084.000000	99.488080 
2083.000000	99.489112 
2082.000000	99.490694 
2081.000000	99.491929 
2080.000000	99.492480 
2079.000000	99.492531 
2078.000000	99.492279 
2077.000000	99.491832 
2076.000000	99.491424 
2075.000000	99.491235 
2074.000000	99.491000 
2073.000000	99.490276 
2072.000000	99.489205 
2071.000000	99.488624 
2070.000000	99.489166 
2069.000000	99.490494 
2068.000000	99.491615 
2067.000000	99.491779 
2066.000000	99.490920 
2065.000000	99.489706 
2064.000000	99.489322 
2063.000000	99.490607 
2062.000000	99.493048 
2061.000000	99.494944 
2060.000000	99.495019 
2059.000000	99.493590 
2058.000000	99.492088 
2057.000000	99.491809 
2056.000000	99.493224 
2055.000000	99.495697 
2054.000000	99.497424 
2053.000000	99.496405 
2052.000000	99.492091 
2051.000000	99.485922 
2050.000000	99.480226 
2049.000000	99.476807 
2048.000000	99.476791 
2047.000000	99.480738 
2046.000000	99.487697 
2045.000000	99.494652 
2044.000000	99.498579 
2043.000000	99.498882 
2042.000000	99.497157 
2041.000000	99.495310 
2040.000000	99.494430 
2039.000000	99.495039 
2038.000000	99.497549 
2037.000000	99.502197 
2036.000000	99.508605 
2035.000000	99.515203 
2034.000000	99.519620 
2033.000000	99.520823 
2032.000000	99.520697 
2031.000000	99.521747 
2030.000000	99.523200 
2029.000000	99.522003 
2028.000000	99.517871 
2027.000000	99.514402 
2026.000000	99.514151 
2025.000000	99.515170 
2024.000000	99.514372 
2023.000000	99.512159 
2022.000000	99.511147 
2021.000000	99.511579 
2020.000000	99.510881 
2019.000000	99.507713 
2018.000000	99.504104 
2017.000000	99.503054 
2016.000000	99.505378 
2015.000000	99.509650 
2014.000000	99.514228 
2013.000000	99.518411 
2012.000000	99.521604 
2011.000000	99.522348 
2010.000000	99.519464 
2009.000000	99.514340 
2008.000000	99.510365 
2007.000000	99.508656 
2006.000000	99.506584 
2005.000000	99.502310 
2004.000000	99.498570 
2003.000000	99.498938 
2002.000000	99.502040 
2001.000000	99.502953 
2000.000000	99.500189 
1999.000000	99.497231 
1998.000000	99.496601 
1997.000000	99.496534 
1996.000000	99.494737 
1995.000000	99.491991 
1994.000000	99.489854 
1993.000000	99.487623 
1992.000000	99.484391 
1991.000000	99.482110 
1990.000000	99.483384 
1989.000000	99.487529 
1988.000000	99.490846 
1987.000000	99.490416 
1986.000000	99.486670 
1985.000000	99.482759 
1984.000000	99.481941 
1983.000000	99.484710 
1982.000000	99.487923 
1981.000000	99.487992 
1980.000000	99.485429 
1979.000000	99.484638 
1978.000000	99.488730 
1977.000000	99.496495 
1976.000000	99.504916 
1975.000000	99.512620 
1974.000000	99.519075 
1973.000000	99.522915 
1972.000000	99.523367 
1971.000000	99.521464 
1970.000000	99.518203 
1969.000000	99.513181 
1968.000000	99.506682 
1967.000000	99.501398 
1966.000000	99.499782 
1965.000000	99.501091 
1964.000000	99.502871 
1963.000000	99.504303 
1962.000000	99.506541 
1961.000000	99.510230 
1960.000000	99.514003 
1959.000000	99.515580 
1958.000000	99.513804 
1957.000000	99.509822 
1956.000000	99.506613 
1955.000000	99.506436 
1954.000000	99.508562 
1953.000000	99.509959 
1952.000000	99.508655 
1951.000000	99.505705 
1950.000000	99.503583 
1949.000000	99.503564 
1948.000000	99.505372 
1947.000000	99.508182 
1946.000000	99.511004 
1945.000000	99.512906 
1944.000000	99.513656 
1943.000000	99.513901 
1942.000000	99.514172 
1941.000000	99.514178 
1940.000000	99.513584 
1939.000000	99.512683 
1938.000000	99.511956 
1937.000000	99.511490 
1936.000000	99.511122 
1935.000000	99.510811 
1934.000000	99.510528 
1933.000000	99.510097 
1932.000000	99.509471 
1931.000000	99.508846 
1930.000000	99.508359 
1929.000000	99.507982 
1928.000000	99.507682 
1927.000000	99.507461 
1926.000000	99.507276 
1925.000000	99.507008 
1924.000000	99.506591 
1923.000000	99.506147 
1922.000000	99.505836 
1921.000000	99.505625 
1920.000000	99.505328 
1919.000000	99.504819 
1918.000000	99.504120 
1917.000000	99.503367 
1916.000000	99.502733 
1915.000000	99.502312 
1914.000000	99.502019 
1913.000000	99.501629 
1912.000000	99.501044 
1911.000000	99.500434 
1910.000000	99.499907 
1909.000000	99.499299 
1908.000000	99.498466 
1907.000000	99.497486 
1906.000000	99.496520 
1905.000000	99.495661 
1904.000000	99.494936 
1903.000000	99.494324 
1902.000000	99.493699 
1901.000000	99.492951 
1900.000000	99.492181 
1899.000000	99.491605 
1898.000000	99.491282 
1897.000000	99.491035 
1896.000000	99.490656 
1895.000000	99.490134 
1894.000000	99.489557 
1893.000000	99.488966 
1892.000000	99.488404 
1891.000000	99.487997 
1890.000000	99.487852 
1889.000000	99.487948 
1888.000000	99.488204 
1887.000000	99.488507 
1886.000000	99.488611 
1885.000000	99.488212 
1884.000000	99.487301 
1883.000000	99.486417 
1882.000000	99.486116 
1881.000000	99.486471 
1880.000000	99.487210 
1879.000000	99.488061 
1878.000000	99.488773 
1877.000000	99.489161 
1876.000000	99.489480 
1875.000000	99.490359 
1874.000000	99.491862 
1873.000000	99.493076 
1872.000000	99.493288 
1871.000000	99.492893 
1870.000000	99.492561 
1869.000000	99.492301 
1868.000000	99.492376 
1867.000000	99.493531 
1866.000000	99.495400 
1865.000000	99.496755 
1864.000000	99.497455 
1863.000000	99.498800 
1862.000000	99.501365 
1861.000000	99.503597 
1860.000000	99.503915 
1859.000000	99.503029 
1858.000000	99.502587 
1857.000000	99.502816 
1856.000000	99.503147 
1855.000000	99.503771 
1854.000000	99.505224 
1853.000000	99.507534 
1852.000000	99.510554 
1851.000000	99.514218 
1850.000000	99.517974 
1849.000000	99.521016 
1848.000000	99.523432 
1847.000000	99.526289 
1846.000000	99.529762 
1845.000000	99.532220 
1844.000000	99.532671 
1843.000000	99.532585 
1842.000000	99.532891 
1841.000000	99.532774 
1840.000000	99.531493 
1839.000000	99.529706 
1838.000000	99.528848 
1837.000000	99.529342 
1836.000000	99.530589 
1835.000000	99.532164 
1834.000000	99.534005 
1833.000000	99.535722 
1832.000000	99.536104 
1831.000000	99.534239 
1830.000000	99.531170 
1829.000000	99.529171 
1828.000000	99.528931 
1827.000000	99.529863 
1826.000000	99.531389 
1825.000000	99.532817 
1824.000000	99.533721 
1823.000000	99.534393 
1822.000000	99.535139 
1821.000000	99.535713 
1820.000000	99.535948 
1819.000000	99.536448 
1818.000000	99.537563 
1817.000000	99.538372 
1816.000000	99.538063 
1815.000000	99.537139 
1814.000000	99.536520 
1813.000000	99.536362 
1812.000000	99.536319 
1811.000000	99.536355 
1810.000000	99.536485 
1809.000000	99.536430 
1808.000000	99.536172 
1807.000000	99.536017 
1806.000000	99.536060 
1805.000000	99.536136 
1804.000000	99.536182 
1803.000000	99.536275 
1802.000000	99.536434 
1801.000000	99.536598 
1800.000000	99.536749 
1799.000000	99.536920 
1798.000000	99.537127 
1797.000000	99.537364 
1796.000000	99.537632 
1795.000000	99.537942 
1794.000000	99.538301 
1793.000000	99.538681 
1792.000000	99.539042 
1791.000000	99.539385 
1790.000000	99.539777 
1789.000000	99.540198 
1788.000000	99.540557 
1787.000000	99.540898 
1786.000000	99.541393 
1785.000000	99.542063 
1784.000000	99.542722 
1783.000000	99.543199 
1782.000000	99.543471 
1781.000000	99.543635 
1780.000000	99.543917 
1779.000000	99.544562 
1778.000000	99.545533 
1777.000000	99.546429 
1776.000000	99.546880 
1775.000000	99.546956 
1774.000000	99.547198 
1773.000000	99.548050 
1772.000000	99.549235 
1771.000000	99.550439 
1770.000000	99.551928 
1769.000000	99.553830 
1768.000000	99.555543 
1767.000000	99.556511 
1766.000000	99.556949 
1765.000000	99.557206 
1764.000000	99.557120 
1763.000000	99.556521 
1762.000000	99.556182 
1761.000000	99.557027 
1760.000000	99.558733 
1759.000000	99.560595 
1758.000000	99.562579 
1757.000000	99.564818 
1756.000000	99.566647 
1755.000000	99.567353 
1754.000000	99.567757 
1753.000000	99.569374 
1752.000000	99.572021 
1751.000000	99.573672 
1750.000000	99.573714 
1749.000000	99.573420 
1748.000000	99.573012 
1747.000000	99.571706 
1746.000000	99.570281 
1745.000000	99.570400 
1744.000000	99.571731 
1743.000000	99.572531 
1742.000000	99.572451 
1741.000000	99.572276 
1740.000000	99.572069 
1739.000000	99.571582 
1738.000000	99.571238 
1737.000000	99.571338 
1736.000000	99.571802 
1735.000000	99.572278 
1734.000000	99.572232 
1733.000000	99.572148 
1732.000000	99.572232 
1731.000000	99.572161 
1730.000000	99.572106 
1729.000000	99.572565 
1728.000000	99.573289 
1727.000000	99.573463 
1726.000000	99.572875 
1725.000000	99.571996 
1724.000000	99.571232 
1723.000000	99.570713 
1722.000000	99.570425 
1721.000000	99.570173 
1720.000000	99.569762 
1719.000000	99.569297 
1718.000000	99.569051 
1717.000000	99.568379 
1716.000000	99.567009 
1715.000000	99.566074 
1714.000000	99.565784 
1713.000000	99.565198 
1712.000000	99.564088 
1711.000000	99.563007 
1710.000000	99.562248 
1709.000000	99.561431 
1708.000000	99.560173 
1707.000000	99.558750 
1706.000000	99.557341 
1705.000000	99.555373 
1704.000000	99.552757 
1703.000000	99.550698 
1702.000000	99.550367 
1701.000000	99.550894 
1700.000000	99.549337 
1699.000000	99.546698 
1698.000000	99.545052 
1697.000000	99.543660 
1696.000000	99.541734 
1695.000000	99.540001 
1694.000000	99.538516 
1693.000000	99.536255 
1692.000000	99.533284 
1691.000000	99.530641 
1690.000000	99.528880 
1689.000000	99.527289 
1688.000000	99.524803 
1687.000000	99.521515 
1686.000000	99.518494 
1685.000000	99.515828 
1684.000000	99.513193 
1683.000000	99.511815 
1682.000000	99.509962 
1681.000000	99.507442 
1680.000000	99.504984 
1679.000000	99.502786 
1678.000000	99.500810 
1677.000000	99.499801 
1676.000000	99.500194 
1675.000000	99.500356 
1674.000000	99.499271 
1673.000000	99.497718 
1672.000000	99.496052 
1671.000000	99.493848 
1670.000000	99.490839 
1669.000000	99.488994 
1668.000000	99.489751 
1667.000000	99.490777 
1666.000000	99.490287 
1665.000000	99.488551 
1664.000000	99.486619 
1663.000000	99.485165 
1662.000000	99.484127 
1661.000000	99.483853 
1660.000000	99.484837 
1659.000000	99.485576 
1658.000000	99.484056 
1657.000000	99.479945 
1656.000000	99.475254 
1655.000000	99.471519 
1654.000000	99.468367 
1653.000000	99.465380 
1652.000000	99.466697 
1651.000000	99.469208 
1650.000000	99.472202 
1649.000000	99.473815 
1648.000000	99.473685 
1647.000000	99.471799 
1646.000000	99.469338 
1645.000000	99.465840 
1644.000000	99.461877 
1643.000000	99.458993 
1642.000000	99.456969 
1641.000000	99.454966 
1640.000000	99.452864 
1639.000000	99.450638 
1638.000000	99.448121 
1637.000000	99.445541 
1636.000000	99.443418 
1635.000000	99.439810 
1634.000000	99.432629 
1633.000000	99.424419 
1632.000000	99.419611 
1631.000000	99.419029 
1630.000000	99.419305 
1629.000000	99.416489 
1628.000000	99.410670 
1627.000000	99.403942 
1626.000000	99.397079 
1625.000000	99.391337 
1624.000000	99.388855 
1623.000000	99.388508 
1622.000000	99.385543 
1621.000000	99.378860 
1620.000000	99.371390 
1619.000000	99.364532 
1618.000000	99.357340 
1617.000000	99.350767 
1616.000000	99.349064 
1615.000000	99.348588 
1614.000000	99.342589 
1613.000000	99.334395 
1612.000000	99.331687 
1611.000000	99.334654 
1610.000000	99.334722 
1609.000000	99.328612 
1608.000000	99.322205 
1607.000000	99.317828 
1606.000000	99.311576 
1605.000000	99.303527 
1604.000000	99.298039 
1603.000000	99.295150 
1602.000000	99.291229 
1601.000000	99.286581 
1600.000000	99.283892 
1599.000000	99.281456 
1598.000000	99.275821 
1597.000000	99.268702 
1596.000000	99.265306 
1595.000000	99.266667 
1594.000000	99.268530 
1593.000000	99.268858 
1592.000000	99.269831 
1591.000000	99.271764 
1590.000000	99.272020 
1589.000000	99.271415 
1588.000000	99.274365 
1587.000000	99.281403 
1586.000000	99.288270 
1585.000000	99.293691 
1584.000000	99.300745 
1583.000000	99.309468 
1582.000000	99.315945 
1581.000000	99.319576 
1580.000000	99.322816 
1579.000000	99.325405 
1578.000000	99.326333 
1577.000000	99.330147 
1576.000000	99.342888 
1575.000000	99.358564 
1574.000000	99.366798 
1573.000000	99.369475 
1572.000000	99.373474 
1571.000000	99.382409 
1570.000000	99.394740 
1569.000000	99.409873 
1568.000000	99.426486 
1567.000000	99.438787 
1566.000000	99.444873 
1565.000000	99.448168 
1564.000000	99.451346 
1563.000000	99.452305 
1562.000000	99.450671 
1561.000000	99.455543 
1560.000000	99.475825 
1559.000000	99.497020 
1558.000000	99.503123 
1557.000000	99.499732 
1556.000000	99.498808 
1555.000000	99.501583 
1554.000000	99.504864 
1553.000000	99.508215 
1552.000000	99.512326 
1551.000000	99.517519 
1550.000000	99.523746 
1549.000000	99.530551 
1548.000000	99.536517 
1547.000000	99.540180 
1546.000000	99.540772 
1545.000000	99.538338 
1544.000000	99.535460 
1543.000000	99.536003 
1542.000000	99.540705 
1541.000000	99.544995 
1540.000000	99.547457 
1539.000000	99.549813 
1538.000000	99.547304 
1537.000000	99.540474 
1536.000000	99.533377 
1535.000000	99.528654 
1534.000000	99.525940 
1533.000000	99.523396 
1532.000000	99.521172 
1531.000000	99.520829 
1530.000000	99.521520 
1529.000000	99.519224 
1528.000000	99.512574 
1527.000000	99.505225 
1526.000000	99.500929 
1525.000000	99.498076 
1524.000000	99.493789 
1523.000000	99.488413 
1522.000000	99.482790 
1521.000000	99.476114 
1520.000000	99.469406 
1519.000000	99.464387 
1518.000000	99.461260 
1517.000000	99.458299 
1516.000000	99.455204 
1515.000000	99.453084 
1514.000000	99.452313 
1513.000000	99.450446 
1512.000000	99.443484 
1511.000000	99.432642 
1510.000000	99.423257 
1509.000000	99.417265 
1508.000000	99.411636 
1507.000000	99.407625 
1506.000000	99.407401 
1505.000000	99.402487 
1504.000000	99.392842 
1503.000000	99.383322 
1502.000000	99.375219 
1501.000000	99.367665 
1500.000000	99.358719 
1499.000000	99.348761 
1498.000000	99.341500 
1497.000000	99.337675 
1496.000000	99.333384 
1495.000000	99.327888 
1494.000000	99.323585 
1493.000000	99.320254 
1492.000000	99.315099 
1491.000000	99.306237 
1490.000000	99.295184 
1489.000000	99.284129 
1488.000000	99.273625 
1487.000000	99.265451 
1486.000000	99.259649 
1485.000000	99.254455 
1484.000000	99.249518 
1483.000000	99.244951 
1482.000000	99.240387 
1481.000000	99.234835 
1480.000000	99.228535 
1479.000000	99.223440 
1478.000000	99.220307 
1477.000000	99.217018 
1476.000000	99.212128 
1475.000000	99.208138 
1474.000000	99.205676 
1473.000000	99.200643 
1472.000000	99.190785 
1471.000000	99.181268 
1470.000000	99.176099 
1469.000000	99.173662 
1468.000000	99.170804 
1467.000000	99.167486 
1466.000000	99.165206 
1465.000000	99.162983 
1464.000000	99.158895 
1463.000000	99.153559 
1462.000000	99.149318 
1461.000000	99.145930 
1460.000000	99.141099 
1459.000000	99.133703 
1458.000000	99.127443 
1457.000000	99.126586 
1456.000000	99.127102 
1455.000000	99.124443 
1454.000000	99.121696 
1453.000000	99.120031 
1452.000000	99.117657 
1451.000000	99.114615 
1450.000000	99.113922 
1449.000000	99.115928 
1448.000000	99.116393 
1447.000000	99.113800 
1446.000000	99.111697 
1445.000000	99.112341 
1444.000000	99.113666 
1443.000000	99.113519 
1442.000000	99.113635 
1441.000000	99.116267 
1440.000000	99.119222 
1439.000000	99.118997 
1438.000000	99.117274 
1437.000000	99.117172 
1436.000000	99.117366 
1435.000000	99.116537 
1434.000000	99.116612 
1433.000000	99.117048 
1432.000000	99.114938 
1431.000000	99.108898 
1430.000000	99.102786 
1429.000000	99.100569 
1428.000000	99.100054 
1427.000000	99.097873 
1426.000000	99.094866 
1425.000000	99.094566 
1424.000000	99.096065 
1423.000000	99.094640 
1422.000000	99.090737 
1421.000000	99.088915 
1420.000000	99.089191 
1419.000000	99.087122 
1418.000000	99.086166 
1417.000000	99.089387 
1416.000000	99.091326 
1415.000000	99.088002 
1414.000000	99.081775 
1413.000000	99.077114 
1412.000000	99.074604 
1411.000000	99.072711 
1410.000000	99.073250 
1409.000000	99.078014 
1408.000000	99.084230 
1407.000000	99.088753 
1406.000000	99.092715 
1405.000000	99.100010 
1404.000000	99.110479 
1403.000000	99.120637 
1402.000000	99.130402 
1401.000000	99.141426 
1400.000000	99.152309 
1399.000000	99.159104 
1398.000000	99.160846 
1397.000000	99.159074 
1396.000000	99.154684 
1395.000000	99.149913 
1394.000000	99.150820 
1393.000000	99.162113 
1392.000000	99.180277 
1391.000000	99.197886 
1390.000000	99.210815 
1389.000000	99.219125 
1388.000000	99.223989 
1387.000000	99.226532 
1386.000000	99.228649 
1385.000000	99.232244 
1384.000000	99.237511 
1383.000000	99.243376 
1382.000000	99.249440 
1381.000000	99.256054 
1380.000000	99.263273 
1379.000000	99.270340 
1378.000000	99.276682 
1377.000000	99.282926 
1376.000000	99.290143 
1375.000000	99.298589 
1374.000000	99.307884 
1373.000000	99.317540 
1372.000000	99.326450 
1371.000000	99.333554 
1370.000000	99.338852 
1369.000000	99.344309 
1368.000000	99.351586 
1367.000000	99.359751 
1366.000000	99.366743 
1365.000000	99.371717 
1364.000000	99.375517 
1363.000000	99.380170 
1362.000000	99.387423 
1361.000000	99.397121 
1360.000000	99.407506 
1359.000000	99.416910 
1358.000000	99.424828 
1357.000000	99.432204 
1356.000000	99.439997 
1355.000000	99.447911 
1354.000000	99.455122 
1353.000000	99.461320 
1352.000000	99.467151 
1351.000000	99.473847 
1350.000000	99.481109 
1349.000000	99.488521 
1348.000000	99.495132 
1347.000000	99.499595 
1346.000000	99.502306 
1345.000000	99.506003 
1344.000000	99.512219 
1343.000000	99.518765 
1342.000000	99.522260 
1341.000000	99.522296 
1340.000000	99.521662 
1339.000000	99.523007 
1338.000000	99.527079 
1337.000000	99.533524 
1336.000000	99.540848 
1335.000000	99.546777 
1334.000000	99.550573 
1333.000000	99.553971 
1332.000000	99.558288 
1331.000000	99.561692 
1330.000000	99.561491 
1329.000000	99.558337 
1328.000000	99.555356 
1327.000000	99.553826 
1326.000000	99.552341 
1325.000000	99.550798 
1324.000000	99.550351 
1323.000000	99.550624 
1322.000000	99.549964 
1321.000000	99.547831 
1320.000000	99.544991 
1319.000000	99.542364 
1318.000000	99.541115 
1317.000000	99.542425 
1316.000000	99.546042 
1315.000000	99.550139 
1314.000000	99.553577 
1313.000000	99.556843 
1312.000000	99.560227 
1311.000000	99.562947 
1310.000000	99.564889 
1309.000000	99.567138 
1308.000000	99.569896 
1307.000000	99.571904 
1306.000000	99.572405 
1305.000000	99.572821 
1304.000000	99.574052 
1303.000000	99.574829 
1302.000000	99.574008 
1301.000000	99.572537 
1300.000000	99.571723 
1299.000000	99.571569 
1298.000000	99.572038 
1297.000000	99.573764 
1296.000000	99.576357 
1295.000000	99.577694 
1294.000000	99.576633 
1293.000000	99.574745 
1292.000000	99.574105 
1291.000000	99.574761 
1290.000000	99.575349 
1289.000000	99.574942 
1288.000000	99.573483 
1287.000000	99.571404 
1286.000000	99.569370 
1285.000000	99.567592 
1284.000000	99.565563 
1283.000000	99.563559 
1282.000000	99.563331 
1281.000000	99.565448 
1280.000000	99.567212 
1279.000000	99.565466 
1278.000000	99.561112 
1277.000000	99.557948 
1276.000000	99.557338 
1275.000000	99.556857 
1274.000000	99.554580 
1273.000000	99.551418 
1272.000000	99.548490 
1271.000000	99.545276 
1270.000000	99.541605 
1269.000000	99.538753 
1268.000000	99.537183 
1267.000000	99.535595 
1266.000000	99.533367 
1265.000000	99.531042 
1264.000000	99.527966 
1263.000000	99.522724 
1262.000000	99.516434 
1261.000000	99.512065 
1260.000000	99.509670 
1259.000000	99.505664 
1258.000000	99.498625 
1257.000000	99.491776 
1256.000000	99.488140 
1255.000000	99.486702 
1254.000000	99.485162 
1253.000000	99.483305 
1252.000000	99.481803 
1251.000000	99.480288 
1250.000000	99.478569 
1249.000000	99.477446 
1248.000000	99.476864 
1247.000000	99.475568 
1246.000000	99.473705 
1245.000000	99.472469 
1244.000000	99.470446 
1243.000000	99.464282 
1242.000000	99.454475 
1241.000000	99.446469 
1240.000000	99.443677 
1239.000000	99.442790 
1238.000000	99.438478 
1237.000000	99.429693 
1236.000000	99.418868 
1235.000000	99.407536 
1234.000000	99.395554 
1233.000000	99.383094 
1232.000000	99.371108 
1231.000000	99.360707 
1230.000000	99.352916 
1229.000000	99.347146 
1228.000000	99.339446 
1227.000000	99.324978 
1226.000000	99.303342 
1225.000000	99.279181 
1224.000000	99.256423 
1223.000000	99.234304 
1222.000000	99.210328 
1221.000000	99.184442 
1220.000000	99.158236 
1219.000000	99.131838 
1218.000000	99.103548 
1217.000000	99.071412 
1216.000000	99.034141 
1215.000000	98.991888 
1214.000000	98.947116 
1213.000000	98.903388 
1212.000000	98.862274 
1211.000000	98.822334 
1210.000000	98.781110 
1209.000000	98.736989 
1208.000000	98.689692 
1207.000000	98.640881 
1206.000000	98.593856 
1205.000000	98.550466 
1204.000000	98.508513 
1203.000000	98.464076 
1202.000000	98.416220 
1201.000000	98.367633 
1200.000000	98.320891 
1199.000000	98.276246 
1198.000000	98.233244 
1197.000000	98.192171 
1196.000000	98.153070 
1195.000000	98.114894 
1194.000000	98.076197 
1193.000000	98.035762 
1192.000000	97.992548 
1191.000000	97.946370 
1190.000000	97.898764 
1189.000000	97.851797 
1188.000000	97.805758 
1187.000000	97.759077 
1186.000000	97.710475 
1185.000000	97.660118 
1184.000000	97.608898 
1183.000000	97.557738 
1182.000000	97.507292 
1181.000000	97.457227 
1180.000000	97.406169 
1179.000000	97.353437 
1178.000000	97.300331 
1177.000000	97.248226 
1176.000000	97.195554 
1175.000000	97.138275 
1174.000000	97.073648 
1173.000000	97.002813 
1172.000000	96.929601 
1171.000000	96.857764 
1170.000000	96.789006 
1169.000000	96.722495 
1168.000000	96.656381 
1167.000000	96.591065 
1166.000000	96.531288 
1165.000000	96.484259 
1164.000000	96.455634 
1163.000000	96.447409 
1162.000000	96.458254 
1161.000000	96.483740 
1160.000000	96.515826 
1159.000000	96.544078 
1158.000000	96.559696 
1157.000000	96.558434 
1156.000000	96.539491 
1155.000000	96.503690 
1154.000000	96.454263 
1153.000000	96.397558 
1152.000000	96.340079 
1151.000000	96.284388 
1150.000000	96.229119 
1149.000000	96.172998 
1148.000000	96.117367 
1147.000000	96.064233 
1146.000000	96.013050 
1145.000000	95.960524 
1144.000000	95.903345 
1143.000000	95.840542 
1142.000000	95.773776 
1141.000000	95.706192 
1140.000000	95.640855 
1139.000000	95.579302 
1138.000000	95.520764 
1137.000000	95.462664 
1136.000000	95.402149 
1135.000000	95.337886 
1134.000000	95.271227 
1133.000000	95.205507 
1132.000000	95.143029 
1131.000000	95.082216 
1130.000000	95.018894 
1129.000000	94.951277 
1128.000000	94.882318 
1127.000000	94.815713 
1126.000000	94.750946 
1125.000000	94.684746 
1124.000000	94.616798 
1123.000000	94.550915 
1122.000000	94.490014 
1121.000000	94.432533 
1120.000000	94.374988 
1119.000000	94.316113 
1118.000000	94.257150 
1117.000000	94.199454 
1116.000000	94.142974 
1115.000000	94.086198 
1114.000000	94.027179 
1113.000000	93.965689 
1112.000000	93.904243 
1111.000000	93.845447 
1110.000000	93.788779 
1109.000000	93.731942 
1108.000000	93.674071 
1107.000000	93.615849 
1106.000000	93.557067 
1105.000000	93.497186 
1104.000000	93.438206 
1103.000000	93.383421 
1102.000000	93.332624 
1101.000000	93.282141 
1100.000000	93.229427 
1099.000000	93.177225 
1098.000000	93.128382 
1097.000000	93.082051 
1096.000000	93.035657 
1095.000000	92.988327 
1094.000000	92.940606 
1093.000000	92.892859 
1092.000000	92.845467 
1091.000000	92.798939 
1090.000000	92.752859 
1089.000000	92.706728 
1088.000000	92.662595 
1087.000000	92.624573 
1086.000000	92.594772 
1085.000000	92.571516 
1084.000000	92.551820 
1083.000000	92.533451 
1082.000000	92.514683 
1081.000000	92.494886 
1080.000000	92.475626 
1079.000000	92.458614 
1078.000000	92.442702 
1077.000000	92.425935 
1076.000000	92.410040 
1075.000000	92.398792 
1074.000000	92.391693 
1073.000000	92.383244 
1072.000000	92.368377 
1071.000000	92.343681 
1070.000000	92.303193 
1069.000000	92.239826 
1068.000000	92.154792 
1067.000000	92.062017 
1066.000000	91.978395 
1065.000000	91.910092 
1064.000000	91.850919 
1063.000000	91.790841 
1062.000000	91.722750 
1061.000000	91.644751 
1060.000000	91.561311 
1059.000000	91.481863 
1058.000000	91.414644 
1057.000000	91.360906 
1056.000000	91.315408 
1055.000000	91.270691 
1054.000000	91.220388 
1053.000000	91.161978 
1052.000000	91.099139 
1051.000000	91.039122 
1050.000000	90.984909 
1049.000000	90.931910 
1048.000000	90.874631 
1047.000000	90.814089 
1046.000000	90.756335 
1045.000000	90.705777 
1044.000000	90.661684 
1043.000000	90.619284 
1042.000000	90.573106 
1041.000000	90.521089 
1040.000000	90.466645 
1039.000000	90.415932 
1038.000000	90.373088 
1037.000000	90.339123 
1036.000000	90.314123 
1035.000000	90.297733 
1034.000000	90.287775 
1033.000000	90.280839 
1032.000000	90.274031 
1031.000000	90.264719 
1030.000000	90.251013 
1029.000000	90.235976 
1028.000000	90.229108 
1027.000000	90.238376 
1026.000000	90.260645 
1025.000000	90.284061 
1024.000000	90.299819 
1023.000000	90.307759 
1022.000000	90.311595 
1021.000000	90.313921 
1020.000000	90.316171 
1019.000000	90.318776 
1018.000000	90.320207 
1017.000000	90.319174 
1016.000000	90.318088 
1015.000000	90.320966 
1014.000000	90.327887 
1013.000000	90.335185 
1012.000000	90.341074 
1011.000000	90.347179 
1010.000000	90.354387 
1009.000000	90.361371 
1008.000000	90.368182 
1007.000000	90.377873 
1006.000000	90.393435 
1005.000000	90.415543 
1004.000000	90.443377 
1003.000000	90.475031 
1002.000000	90.507276 
1001.000000	90.537753 
1000.000000	90.567336 
999.000000	 90.598102 
998.000000	 90.629878 
997.000000	 90.661357 
996.000000	 90.693143 
995.000000	 90.726443 
994.000000	 90.760209 
993.000000	 90.793446 
992.000000	 90.829359 
991.000000	 90.873034 
990.000000	 90.925186 
989.000000	 90.981514 
988.000000	 91.037777 
987.000000	 91.092552 
986.000000	 91.146192 
985.000000	 91.200899 
984.000000	 91.261100 
983.000000	 91.329936 
982.000000	 91.405564 
981.000000	 91.483906 
980.000000	 91.564416 
979.000000	 91.649960 
978.000000	 91.741764 
977.000000	 91.837853 
976.000000	 91.935878 
975.000000	 92.034391 
974.000000	 92.132069 
973.000000	 92.228879 
972.000000	 92.327518 
971.000000	 92.430933 
970.000000	 92.538856 
969.000000	 92.648849 
968.000000	 92.759412 
967.000000	 92.869631 
966.000000	 92.977491 
965.000000	 93.081716 
964.000000	 93.184235 
963.000000	 93.287916 
962.000000	 93.392531 
961.000000	 93.495237 
960.000000	 93.593953 
959.000000	 93.687994 
958.000000	 93.776824 
957.000000	 93.860939 
956.000000	 93.943160 
955.000000	 94.026328 
954.000000	 94.109879 
953.000000	 94.190588 
952.000000	 94.266156 
951.000000	 94.336367 
950.000000	 94.401664 
949.000000	 94.462767 
948.000000	 94.521604 
947.000000	 94.580991 
946.000000	 94.642758 
945.000000	 94.706247 
944.000000	 94.768259 
943.000000	 94.824910 
942.000000	 94.875213 
941.000000	 94.922939 
940.000000	 94.973055 
939.000000	 95.025921 
938.000000	 95.077342 
937.000000	 95.124922 
936.000000	 95.171424 
935.000000	 95.220760 
934.000000	 95.273683 
933.000000	 95.329304 
932.000000	 95.387720 
931.000000	 95.448051 
930.000000	 95.506080 
929.000000	 95.557368 
928.000000	 95.602083 
927.000000	 95.644526 
926.000000	 95.688645 
925.000000	 95.735750 
924.000000	 95.785391 
923.000000	 95.835676 
922.000000	 95.882850 
921.000000	 95.923117 
920.000000	 95.956088 
919.000000	 95.985779 
918.000000	 96.017700 
917.000000	 96.054777 
916.000000	 96.095541 
915.000000	 96.135762 
914.000000	 96.172371 
913.000000	 96.206613 
912.000000	 96.243459 
911.000000	 96.287928 
910.000000	 96.341970 
909.000000	 96.404106 
908.000000	 96.471033 
907.000000	 96.539665 
906.000000	 96.608388 
905.000000	 96.676357 
904.000000	 96.742120 
903.000000	 96.805238 
902.000000	 96.869941 
901.000000	 96.943346 
900.000000	 97.026538 
899.000000	 97.110244 
898.000000	 97.183796 
897.000000	 97.247530 
896.000000	 97.310773 
895.000000	 97.378545 
894.000000	 97.446298 
893.000000	 97.508991 
892.000000	 97.569075 
891.000000	 97.631901 
890.000000	 97.696919 
889.000000	 97.757026 
888.000000	 97.804776 
887.000000	 97.837198 
886.000000	 97.857044 
885.000000	 97.871541 
884.000000	 97.887809 
883.000000	 97.907135 
882.000000	 97.924814 
881.000000	 97.937156 
880.000000	 97.947295 
879.000000	 97.962594 
878.000000	 97.987598 
877.000000	 98.021193 
876.000000	 98.059601 
875.000000	 98.100521 
874.000000	 98.145226 
873.000000	 98.197889 
872.000000	 98.261746 
871.000000	 98.334735 
870.000000	 98.410074 
869.000000	 98.482355 
868.000000	 98.551872 
867.000000	 98.621934 
866.000000	 98.693113 
865.000000	 98.761367 
864.000000	 98.821653 
863.000000	 98.872883 
862.000000	 98.919373 
861.000000	 98.967353 
860.000000	 99.020145 
859.000000	 99.077021 
858.000000	 99.135531 
857.000000	 99.192649 
856.000000	 99.243912 
855.000000	 99.285160 
854.000000	 99.317021 
853.000000	 99.344700 
852.000000	 99.371310 
851.000000	 99.394773 
850.000000	 99.413989 
849.000000	 99.434300 
848.000000	 99.461945 
847.000000	 99.494727 
846.000000	 99.523036 
845.000000	 99.540103 
844.000000	 99.547714 
843.000000	 99.552040 
842.000000	 99.557286 
841.000000	 99.564053 
840.000000	 99.571151 
839.000000	 99.577535 
838.000000	 99.583012 
837.000000	 99.586911 
836.000000	 99.586007 
835.000000	 99.576211 
834.000000	 99.558566 
833.000000	 99.541551 
832.000000	 99.533918 
831.000000	 99.535612 
830.000000	 99.538708 
829.000000	 99.537297 
828.000000	 99.533270 
827.000000	 99.532051 
826.000000	 99.536562 
825.000000	 99.547044 
824.000000	 99.562741 
823.000000	 99.579760 
822.000000	 99.589602 
821.000000	 99.584574 
820.000000	 99.565047 
819.000000	 99.539261 
818.000000	 99.515412 
817.000000	 99.494347 
816.000000	 99.469521 
815.000000	 99.432287 
814.000000	 99.376004 
813.000000	 99.295993 
812.000000	 99.188274 
811.000000	 99.050087 
810.000000	 98.880502 
809.000000	 98.679143 
808.000000	 98.445496 
807.000000	 98.180977 
806.000000	 97.890744 
805.000000	 97.583230 
804.000000	 97.270112 
803.000000	 96.966971 
802.000000	 96.690847 
801.000000	 96.455432 
800.000000	 96.269527 
799.000000	 96.138362 
798.000000	 96.063165 
797.000000	 96.039917 
796.000000	 96.060672 
795.000000	 96.115753 
794.000000	 96.194101 
793.000000	 96.283066 
792.000000	 96.369473 
791.000000	 96.441403 
790.000000	 96.489832 
789.000000	 96.509933 
788.000000	 96.501244 
787.000000	 96.466064 
786.000000	 96.406739 
785.000000	 96.324546 
784.000000	 96.222071 
783.000000	 96.106390 
782.000000	 95.988524 
781.000000	 95.879745 
780.000000	 95.790131 
779.000000	 95.730380 
778.000000	 95.711695 
777.000000	 95.741295 
776.000000	 95.817760 
775.000000	 95.930809 
774.000000	 96.065431 
773.000000	 96.206546 
772.000000	 96.341358 
771.000000	 96.461035 
770.000000	 96.563310 
769.000000	 96.652231 
768.000000	 96.732898 
767.000000	 96.807220 
766.000000	 96.875925 
765.000000	 96.942074 
764.000000	 97.009152 
763.000000	 97.077049 
762.000000	 97.143070 
761.000000	 97.206013 
760.000000	 97.266450 
759.000000	 97.324504 
758.000000	 97.381107 
757.000000	 97.440015 
756.000000	 97.503796 
755.000000	 97.568273 
754.000000	 97.626345 
753.000000	 97.677903 
752.000000	 97.730127 
751.000000	 97.786154 
750.000000	 97.838858 
749.000000	 97.879707 
748.000000	 97.910294 
747.000000	 97.940830 
746.000000	 97.978722 
745.000000	 98.022598 
744.000000	 98.067619 
743.000000	 98.113135 
742.000000	 98.163502 
741.000000	 98.222898 
740.000000	 98.290808 
739.000000	 98.362356 
738.000000	 98.431911 
737.000000	 98.495566 
736.000000	 98.550570 
735.000000	 98.594267 
734.000000	 98.625271 
733.000000	 98.644990 
732.000000	 98.656640 
731.000000	 98.663726 
730.000000	 98.670405 
729.000000	 98.681718 
728.000000	 98.699872 
727.000000	 98.721453 
726.000000	 98.742080 
725.000000	 98.762033 
724.000000	 98.784677 
723.000000	 98.811103 
722.000000	 98.839832 
721.000000	 98.870840 
720.000000	 98.905881 
719.000000	 98.944299 
718.000000	 98.981604 
717.000000	 99.012875 
716.000000	 99.036289 
715.000000	 99.054039 
714.000000	 99.071322 
713.000000	 99.093243 
712.000000	 99.120476 
711.000000	 99.149456 
710.000000	 99.178410 
709.000000	 99.210842 
708.000000	 99.248114 
707.000000	 99.280336 
706.000000	 99.292389 
705.000000	 99.277908 
704.000000	 99.241645 
703.000000	 99.188935 
702.000000	 99.117111 
701.000000	 99.019074 
700.000000	 98.892797 
699.000000	 98.743701 
698.000000	 98.583761 
697.000000	 98.432615 
696.000000	 98.315774 
695.000000	 98.255896 
694.000000	 98.259592 
693.000000	 98.314191 
692.000000	 98.398908 
691.000000	 98.496745 
690.000000	 98.598776 
689.000000	 98.699861 
688.000000	 98.794054 
687.000000	 98.876493 
686.000000	 98.944989 
685.000000	 98.999228 
684.000000	 99.041762 
683.000000	 99.078540 
682.000000	 99.116095 
681.000000	 99.156246 
680.000000	 99.194732 
679.000000	 99.225236 
678.000000	 99.244079 
677.000000	 99.253849 
676.000000	 99.257946 
675.000000	 99.256171 
674.000000	 99.251376 
673.000000	 99.253444 
672.000000	 99.266280 
671.000000	 99.277043 
670.000000	 99.266097 
669.000000	 99.231548 
668.000000	 99.218813 
667.000000	 99.268030 
666.000000	 99.340014 
665.000000	 99.404628 
664.000000	 99.459819 
663.000000	 99.503271 
662.000000	 99.532690 
661.000000	 99.555369 
660.000000	 99.581792 
659.000000	 99.613369 
658.000000	 99.645240 
657.000000	 99.675781 
656.000000	 99.696660 
655.000000	 99.687800 
654.000000	 99.641108 
653.000000	 99.575664 
652.000000	 99.518263 
651.000000	 99.485536 
650.000000	 99.491153 

