4000.000000	98.584233 
3999.000000	98.583394 
3998.000000	98.582977 
3997.000000	98.582995 
3996.000000	98.583209 
3995.000000	98.583340 
3994.000000	98.583323 
3993.000000	98.583340 
3992.000000	98.583594 
3991.000000	98.584069 
3990.000000	98.584573 
3989.000000	98.584918 
3988.000000	98.584988 
3987.000000	98.584731 
3986.000000	98.584224 
3985.000000	98.583743 
3984.000000	98.583596 
3983.000000	98.583854 
3982.000000	98.584300 
3981.000000	98.584586 
3980.000000	98.584471 
3979.000000	98.583976 
3978.000000	98.583335 
3977.000000	98.582782 
3976.000000	98.582314 
3975.000000	98.581676 
3974.000000	98.580651 
3973.000000	98.579431 
3972.000000	98.578585 
3971.000000	98.578575 
3970.000000	98.579496 
3969.000000	98.581183 
3968.000000	98.583252 
3967.000000	98.585086 
3966.000000	98.586063 
3965.000000	98.585902 
3964.000000	98.584830 
3963.000000	98.583451 
3962.000000	98.582347 
3961.000000	98.581833 
3960.000000	98.581923 
3959.000000	98.582247 
3958.000000	98.582263 
3957.000000	98.581833 
3956.000000	98.581306 
3955.000000	98.581088 
3954.000000	98.581347 
3953.000000	98.581961 
3952.000000	98.582663 
3951.000000	98.583213 
3950.000000	98.583786 
3949.000000	98.584781 
3948.000000	98.585951 
3947.000000	98.586472 
3946.000000	98.585854 
3945.000000	98.584313 
3944.000000	98.582322 
3943.000000	98.580373 
3942.000000	98.578835 
3941.000000	98.577797 
3940.000000	98.577102 
3939.000000	98.576498 
3938.000000	98.575985 
3937.000000	98.576133 
3936.000000	98.577521 
3935.000000	98.579840 
3934.000000	98.582038 
3933.000000	98.583308 
3932.000000	98.583558 
3931.000000	98.582764 
3930.000000	98.580718 
3929.000000	98.577560 
3928.000000	98.574160 
3927.000000	98.571831 
3926.000000	98.571123 
3925.000000	98.571663 
3924.000000	98.573384 
3923.000000	98.576400 
3922.000000	98.580047 
3921.000000	98.583089 
3920.000000	98.584976 
3919.000000	98.586132 
3918.000000	98.586537 
3917.000000	98.585530 
3916.000000	98.583215 
3915.000000	98.580896 
3914.000000	98.579493 
3913.000000	98.578754 
3912.000000	98.578285 
3911.000000	98.578270 
3910.000000	98.578776 
3909.000000	98.579509 
3908.000000	98.580249 
3907.000000	98.581020 
3906.000000	98.582115 
3905.000000	98.583553 
3904.000000	98.585204 
3903.000000	98.586641 
3902.000000	98.587135 
3901.000000	98.586263 
3900.000000	98.584214 
3899.000000	98.582036 
3898.000000	98.580869 
3897.000000	98.580716 
3896.000000	98.580722 
3895.000000	98.580238 
3894.000000	98.579238 
3893.000000	98.578213 
3892.000000	98.577498 
3891.000000	98.576852 
3890.000000	98.576209 
3889.000000	98.576000 
3888.000000	98.576358 
3887.000000	98.576573 
3886.000000	98.576104 
3885.000000	98.575420 
3884.000000	98.575288 
3883.000000	98.575488 
3882.000000	98.575191 
3881.000000	98.574383 
3880.000000	98.573827 
3879.000000	98.573877 
3878.000000	98.574219 
3877.000000	98.574300 
3876.000000	98.573584 
3875.000000	98.571897 
3874.000000	98.569860 
3873.000000	98.568727 
3872.000000	98.569064 
3871.000000	98.569692 
3870.000000	98.569012 
3869.000000	98.567406 
3868.000000	98.566625 
3867.000000	98.566866 
3866.000000	98.566226 
3865.000000	98.564053 
3864.000000	98.562872 
3863.000000	98.564214 
3862.000000	98.566103 
3861.000000	98.566691 
3860.000000	98.566412 
3859.000000	98.565945 
3858.000000	98.564903 
3857.000000	98.562380 
3856.000000	98.558442 
3855.000000	98.552958 
3854.000000	98.547806 
3853.000000	98.546353 
3852.000000	98.548948 
3851.000000	98.553646 
3850.000000	98.558073 
3849.000000	98.560797 
3848.000000	98.562674 
3847.000000	98.565155 
3846.000000	98.567753 
3845.000000	98.569361 
3844.000000	98.569906 
3843.000000	98.569555 
3842.000000	98.568725 
3841.000000	98.568392 
3840.000000	98.568727 
3839.000000	98.569246 
3838.000000	98.569631 
3837.000000	98.569632 
3836.000000	98.569419 
3835.000000	98.569091 
3834.000000	98.568804 
3833.000000	98.568671 
3832.000000	98.568650 
3831.000000	98.568882 
3830.000000	98.569403 
3829.000000	98.569893 
3828.000000	98.570154 
3827.000000	98.570166 
3826.000000	98.570111 
3825.000000	98.570565 
3824.000000	98.571574 
3823.000000	98.571970 
3822.000000	98.570968 
3821.000000	98.569342 
3820.000000	98.568426 
3819.000000	98.568509 
3818.000000	98.568827 
3817.000000	98.568455 
3816.000000	98.567343 
3815.000000	98.566258 
3814.000000	98.565726 
3813.000000	98.565469 
3812.000000	98.565103 
3811.000000	98.564690 
3810.000000	98.564412 
3809.000000	98.564247 
3808.000000	98.564029 
3807.000000	98.563633 
3806.000000	98.563148 
3805.000000	98.562769 
3804.000000	98.562475 
3803.000000	98.562030 
3802.000000	98.561291 
3801.000000	98.560423 
3800.000000	98.559777 
3799.000000	98.559444 
3798.000000	98.559212 
3797.000000	98.558881 
3796.000000	98.558535 
3795.000000	98.558319 
3794.000000	98.558106 
3793.000000	98.557559 
3792.000000	98.556558 
3791.000000	98.555524 
3790.000000	98.554959 
3789.000000	98.554878 
3788.000000	98.554945 
3787.000000	98.555073 
3786.000000	98.555428 
3785.000000	98.556056 
3784.000000	98.556771 
3783.000000	98.557531 
3782.000000	98.558286 
3781.000000	98.558783 
3780.000000	98.558881 
3779.000000	98.558789 
3778.000000	98.558817 
3777.000000	98.559184 
3776.000000	98.559866 
3775.000000	98.560488 
3774.000000	98.560872 
3773.000000	98.561380 
3772.000000	98.562361 
3771.000000	98.563487 
3770.000000	98.564419 
3769.000000	98.565466 
3768.000000	98.566815 
3767.000000	98.568074 
3766.000000	98.568675 
3765.000000	98.568512 
3764.000000	98.568409 
3763.000000	98.569189 
3762.000000	98.570350 
3761.000000	98.570782 
3760.000000	98.570887 
3759.000000	98.572327 
3758.000000	98.574778 
3757.000000	98.576310 
3756.000000	98.576754 
3755.000000	98.577262 
3754.000000	98.578307 
3753.000000	98.579337 
3752.000000	98.581023 
3751.000000	98.584905 
3750.000000	98.588229 
3749.000000	98.587354 
3748.000000	98.584283 
3747.000000	98.583825 
3746.000000	98.586215 
3745.000000	98.586015 
3744.000000	98.580938 
3743.000000	98.576544 
3742.000000	98.577101 
3741.000000	98.579400 
3740.000000	98.579243 
3739.000000	98.578694 
3738.000000	98.581337 
3737.000000	98.585145 
3736.000000	98.587418 
3735.000000	98.589261 
3734.000000	98.591424 
3733.000000	98.589747 
3732.000000	98.581470 
3731.000000	98.571114 
3730.000000	98.564694 
3729.000000	98.562962 
3728.000000	98.561625 
3727.000000	98.557157 
3726.000000	98.551593 
3725.000000	98.549072 
3724.000000	98.549509 
3723.000000	98.549430 
3722.000000	98.547371 
3721.000000	98.543945 
3720.000000	98.539103 
3719.000000	98.533756 
3718.000000	98.529074 
3717.000000	98.525907 
3716.000000	98.525805 
3715.000000	98.528450 
3714.000000	98.530683 
3713.000000	98.529475 
3712.000000	98.526245 
3711.000000	98.523115 
3710.000000	98.517658 
3709.000000	98.507713 
3708.000000	98.494592 
3707.000000	98.481141 
3706.000000	98.469811 
3705.000000	98.460986 
3704.000000	98.452973 
3703.000000	98.444034 
3702.000000	98.434274 
3701.000000	98.424006 
3700.000000	98.412448 
3699.000000	98.399866 
3698.000000	98.387373 
3697.000000	98.375818 
3696.000000	98.367528 
3695.000000	98.364563 
3694.000000	98.364105 
3693.000000	98.360175 
3692.000000	98.350610 
3691.000000	98.339426 
3690.000000	98.331269 
3689.000000	98.324859 
3688.000000	98.315777 
3687.000000	98.305246 
3686.000000	98.298488 
3685.000000	98.296634 
3684.000000	98.297571 
3683.000000	98.300479 
3682.000000	98.304983 
3681.000000	98.307305 
3680.000000	98.302883 
3679.000000	98.292778 
3678.000000	98.283570 
3677.000000	98.277282 
3676.000000	98.270560 
3675.000000	98.263358 
3674.000000	98.258351 
3673.000000	98.256393 
3672.000000	98.253787 
3671.000000	98.245788 
3670.000000	98.235785 
3669.000000	98.229913 
3668.000000	98.227132 
3667.000000	98.223683 
3666.000000	98.219675 
3665.000000	98.217250 
3664.000000	98.216571 
3663.000000	98.215520 
3662.000000	98.211725 
3661.000000	98.205343 
3660.000000	98.199759 
3659.000000	98.198015 
3658.000000	98.200004 
3657.000000	98.202674 
3656.000000	98.204041 
3655.000000	98.206483 
3654.000000	98.213167 
3653.000000	98.222739 
3652.000000	98.229701 
3651.000000	98.231133 
3650.000000	98.231718 
3649.000000	98.235294 
3648.000000	98.237348 
3647.000000	98.234078 
3646.000000	98.228280 
3645.000000	98.224011 
3644.000000	98.222372 
3643.000000	98.222557 
3642.000000	98.222995 
3641.000000	98.222795 
3640.000000	98.221837 
3639.000000	98.220344 
3638.000000	98.219474 
3637.000000	98.220729 
3636.000000	98.224467 
3635.000000	98.228715 
3634.000000	98.231840 
3633.000000	98.235581 
3632.000000	98.242236 
3631.000000	98.249913 
3630.000000	98.253314 
3629.000000	98.251614 
3628.000000	98.248020 
3627.000000	98.245254 
3626.000000	98.243650 
3625.000000	98.241462 
3624.000000	98.237926 
3623.000000	98.234278 
3622.000000	98.231723 
3621.000000	98.229797 
3620.000000	98.229169 
3619.000000	98.232157 
3618.000000	98.238196 
3617.000000	98.244407 
3616.000000	98.250197 
3615.000000	98.256291 
3614.000000	98.263261 
3613.000000	98.271531 
3612.000000	98.280668 
3611.000000	98.289069 
3610.000000	98.294745 
3609.000000	98.296720 
3608.000000	98.296145 
3607.000000	98.294804 
3606.000000	98.292787 
3605.000000	98.289374 
3604.000000	98.284514 
3603.000000	98.279083 
3602.000000	98.274765 
3601.000000	98.272925 
3600.000000	98.274695 
3599.000000	98.280359 
3598.000000	98.287509 
3597.000000	98.292435 
3596.000000	98.294008 
3595.000000	98.294151 
3594.000000	98.295854 
3593.000000	98.300525 
3592.000000	98.306478 
3591.000000	98.310887 
3590.000000	98.311670 
3589.000000	98.309045 
3588.000000	98.305951 
3587.000000	98.304710 
3586.000000	98.303973 
3585.000000	98.302188 
3584.000000	98.300099 
3583.000000	98.299192 
3582.000000	98.299432 
3581.000000	98.299163 
3580.000000	98.297004 
3579.000000	98.293568 
3578.000000	98.290937 
3577.000000	98.290642 
3576.000000	98.292625 
3575.000000	98.295564 
3574.000000	98.297884 
3573.000000	98.299123 
3572.000000	98.299901 
3571.000000	98.301168 
3570.000000	98.303325 
3569.000000	98.305534 
3568.000000	98.306737 
3567.000000	98.306861 
3566.000000	98.305889 
3565.000000	98.303905 
3564.000000	98.301704 
3563.000000	98.299708 
3562.000000	98.297482 
3561.000000	98.294752 
3560.000000	98.291939 
3559.000000	98.289772 
3558.000000	98.288218 
3557.000000	98.286439 
3556.000000	98.284161 
3555.000000	98.282665 
3554.000000	98.283510 
3553.000000	98.286649 
3552.000000	98.290132 
3551.000000	98.292014 
3550.000000	98.292247 
3549.000000	98.292098 
3548.000000	98.292475 
3547.000000	98.293433 
3546.000000	98.294300 
3545.000000	98.294298 
3544.000000	98.293361 
3543.000000	98.292275 
3542.000000	98.291883 
3541.000000	98.292201 
3540.000000	98.292317 
3539.000000	98.291405 
3538.000000	98.289707 
3537.000000	98.288482 
3536.000000	98.288800 
3535.000000	98.290492 
3534.000000	98.292642 
3533.000000	98.294573 
3532.000000	98.296119 
3531.000000	98.297134 
3530.000000	98.297393 
3529.000000	98.297138 
3528.000000	98.297121 
3527.000000	98.297824 
3526.000000	98.298780 
3525.000000	98.299101 
3524.000000	98.298613 
3523.000000	98.298108 
3522.000000	98.298343 
3521.000000	98.299257 
3520.000000	98.300255 
3519.000000	98.300993 
3518.000000	98.301628 
3517.000000	98.302435 
3516.000000	98.303483 
3515.000000	98.304681 
3514.000000	98.306074 
3513.000000	98.307835 
3512.000000	98.309948 
3511.000000	98.312108 
3510.000000	98.313947 
3509.000000	98.315199 
3508.000000	98.315732 
3507.000000	98.315680 
3506.000000	98.315497 
3505.000000	98.315803 
3504.000000	98.316969 
3503.000000	98.318805 
3502.000000	98.320645 
3501.000000	98.321917 
3500.000000	98.322514 
3499.000000	98.322637 
3498.000000	98.322602 
3497.000000	98.322795 
3496.000000	98.323550 
3495.000000	98.324854 
3494.000000	98.326227 
3493.000000	98.327089 
3492.000000	98.327246 
3491.000000	98.326993 
3490.000000	98.326861 
3489.000000	98.327198 
3488.000000	98.327938 
3487.000000	98.328698 
3486.000000	98.329088 
3485.000000	98.329007 
3484.000000	98.328715 
3483.000000	98.328615 
3482.000000	98.328927 
3481.000000	98.329509 
3480.000000	98.330006 
3479.000000	98.330211 
3478.000000	98.330291 
3477.000000	98.330608 
3476.000000	98.331288 
3475.000000	98.332006 
3474.000000	98.332290 
3473.000000	98.332052 
3472.000000	98.331685 
3471.000000	98.331593 
3470.000000	98.331781 
3469.000000	98.331967 
3468.000000	98.331838 
3467.000000	98.331154 
3466.000000	98.329799 
3465.000000	98.327991 
3464.000000	98.326385 
3463.000000	98.325644 
3462.000000	98.325852 
3461.000000	98.326396 
3460.000000	98.326503 
3459.000000	98.325972 
3458.000000	98.325179 
3457.000000	98.324576 
3456.000000	98.324270 
3455.000000	98.324084 
3454.000000	98.323931 
3453.000000	98.323889 
3452.000000	98.324004 
3451.000000	98.324118 
3450.000000	98.323956 
3449.000000	98.323402 
3448.000000	98.322608 
3447.000000	98.321804 
3446.000000	98.321032 
3445.000000	98.320204 
3444.000000	98.319406 
3443.000000	98.318984 
3442.000000	98.319220 
3441.000000	98.320024 
3440.000000	98.320943 
3439.000000	98.321472 
3438.000000	98.321386 
3437.000000	98.320802 
3436.000000	98.320005 
3435.000000	98.319235 
3434.000000	98.318629 
3433.000000	98.318268 
3432.000000	98.318251 
3431.000000	98.318606 
3430.000000	98.319136 
3429.000000	98.319457 
3428.000000	98.319294 
3427.000000	98.318703 
3426.000000	98.317958 
3425.000000	98.317255 
3424.000000	98.316598 
3423.000000	98.315988 
3422.000000	98.315593 
3421.000000	98.315603 
3420.000000	98.315926 
3419.000000	98.316172 
3418.000000	98.316060 
3417.000000	98.315683 
3416.000000	98.315320 
3415.000000	98.315070 
3414.000000	98.314818 
3413.000000	98.314509 
3412.000000	98.314282 
3411.000000	98.314275 
3410.000000	98.314456 
3409.000000	98.314706 
3408.000000	98.314933 
3407.000000	98.315045 
3406.000000	98.314923 
3405.000000	98.314610 
3404.000000	98.314415 
3403.000000	98.314630 
3402.000000	98.315173 
3401.000000	98.315613 
3400.000000	98.315647 
3399.000000	98.315384 
3398.000000	98.315161 
3397.000000	98.315191 
3396.000000	98.315479 
3395.000000	98.316021 
3394.000000	98.316903 
3393.000000	98.318110 
3392.000000	98.319288 
3391.000000	98.319895 
3390.000000	98.319660 
3389.000000	98.318830 
3388.000000	98.317953 
3387.000000	98.317414 
3386.000000	98.317281 
3385.000000	98.317519 
3384.000000	98.318160 
3383.000000	98.319218 
3382.000000	98.320572 
3381.000000	98.321970 
3380.000000	98.323123 
3379.000000	98.323826 
3378.000000	98.324120 
3377.000000	98.324348 
3376.000000	98.324822 
3375.000000	98.325493 
3374.000000	98.326149 
3373.000000	98.326873 
3372.000000	98.327930 
3371.000000	98.329168 
3370.000000	98.329980 
3369.000000	98.330047 
3368.000000	98.329680 
3367.000000	98.329166 
3366.000000	98.328212 
3365.000000	98.326594 
3364.000000	98.325124 
3363.000000	98.325171 
3362.000000	98.327156 
3361.000000	98.330015 
3360.000000	98.332301 
3359.000000	98.333633 
3358.000000	98.334678 
3357.000000	98.335988 
3356.000000	98.337319 
3355.000000	98.338082 
3354.000000	98.338194 
3353.000000	98.338228 
3352.000000	98.338780 
3351.000000	98.339858 
3350.000000	98.341021 
3349.000000	98.342059 
3348.000000	98.343250 
3347.000000	98.344914 
3346.000000	98.346902 
3345.000000	98.348681 
3344.000000	98.349836 
3343.000000	98.350264 
3342.000000	98.350034 
3341.000000	98.349281 
3340.000000	98.348211 
3339.000000	98.347026 
3338.000000	98.345885 
3337.000000	98.345056 
3336.000000	98.344945 
3335.000000	98.345740 
3334.000000	98.347046 
3333.000000	98.348097 
3332.000000	98.348401 
3331.000000	98.348080 
3330.000000	98.347575 
3329.000000	98.347252 
3328.000000	98.347340 
3327.000000	98.348013 
3326.000000	98.349233 
3325.000000	98.350539 
3324.000000	98.351269 
3323.000000	98.351140 
3322.000000	98.350558 
3321.000000	98.350323 
3320.000000	98.350954 
3319.000000	98.352336 
3318.000000	98.353901 
3317.000000	98.355075 
3316.000000	98.355647 
3315.000000	98.355833 
3314.000000	98.356090 
3313.000000	98.356770 
3312.000000	98.357826 
3311.000000	98.358827 
3310.000000	98.359369 
3309.000000	98.359428 
3308.000000	98.359296 
3307.000000	98.359225 
3306.000000	98.359192 
3305.000000	98.359058 
3304.000000	98.358845 
3303.000000	98.358798 
3302.000000	98.359169 
3301.000000	98.359990 
3300.000000	98.361011 
3299.000000	98.361876 
3298.000000	98.362411 
3297.000000	98.362733 
3296.000000	98.363087 
3295.000000	98.363604 
3294.000000	98.364263 
3293.000000	98.365028 
3292.000000	98.365830 
3291.000000	98.366461 
3290.000000	98.366674 
3289.000000	98.366490 
3288.000000	98.366291 
3287.000000	98.366452 
3286.000000	98.366973 
3285.000000	98.367564 
3284.000000	98.368030 
3283.000000	98.368452 
3282.000000	98.369012 
3281.000000	98.369801 
3280.000000	98.370776 
3279.000000	98.371823 
3278.000000	98.372850 
3277.000000	98.373794 
3276.000000	98.374566 
3275.000000	98.374996 
3274.000000	98.374925 
3273.000000	98.374417 
3272.000000	98.373797 
3271.000000	98.373425 
3270.000000	98.373520 
3269.000000	98.374136 
3268.000000	98.375180 
3267.000000	98.376369 
3266.000000	98.377313 
3265.000000	98.377825 
3264.000000	98.378054 
3263.000000	98.378223 
3262.000000	98.378294 
3261.000000	98.378045 
3260.000000	98.377422 
3259.000000	98.376698 
3258.000000	98.376314 
3257.000000	98.376551 
3256.000000	98.377362 
3255.000000	98.378348 
3254.000000	98.378998 
3253.000000	98.379099 
3252.000000	98.378927 
3251.000000	98.378973 
3250.000000	98.379460 
3249.000000	98.380209 
3248.000000	98.380965 
3247.000000	98.381683 
3246.000000	98.382425 
3245.000000	98.383121 
3244.000000	98.383591 
3243.000000	98.383767 
3242.000000	98.383764 
3241.000000	98.383741 
3240.000000	98.383777 
3239.000000	98.383934 
3238.000000	98.384348 
3237.000000	98.385155 
3236.000000	98.386288 
3235.000000	98.387418 
3234.000000	98.388156 
3233.000000	98.388331 
3232.000000	98.388090 
3231.000000	98.387773 
3230.000000	98.387659 
3229.000000	98.387786 
3228.000000	98.387945 
3227.000000	98.387866 
3226.000000	98.387549 
3225.000000	98.387403 
3224.000000	98.387946 
3223.000000	98.389292 
3222.000000	98.390977 
3221.000000	98.392326 
3220.000000	98.393066 
3219.000000	98.393462 
3218.000000	98.393946 
3217.000000	98.394677 
3216.000000	98.395490 
3215.000000	98.396184 
3214.000000	98.396714 
3213.000000	98.397134 
3212.000000	98.397516 
3211.000000	98.397948 
3210.000000	98.398466 
3209.000000	98.398885 
3208.000000	98.398847 
3207.000000	98.398200 
3206.000000	98.397309 
3205.000000	98.396863 
3204.000000	98.397273 
3203.000000	98.398377 
3202.000000	98.399682 
3201.000000	98.400846 
3200.000000	98.401811 
3199.000000	98.402572 
3198.000000	98.403016 
3197.000000	98.403048 
3196.000000	98.402790 
3195.000000	98.402603 
3194.000000	98.402903 
3193.000000	98.403901 
3192.000000	98.405466 
3191.000000	98.407186 
3190.000000	98.408639 
3189.000000	98.409664 
3188.000000	98.410350 
3187.000000	98.410804 
3186.000000	98.411009 
3185.000000	98.410989 
3184.000000	98.411031 
3183.000000	98.411575 
3182.000000	98.412818 
3181.000000	98.414455 
3180.000000	98.415914 
3179.000000	98.416849 
3178.000000	98.417323 
3177.000000	98.417603 
3176.000000	98.417856 
3175.000000	98.418068 
3174.000000	98.418147 
3173.000000	98.418040 
3172.000000	98.417798 
3171.000000	98.417639 
3170.000000	98.417886 
3169.000000	98.418704 
3168.000000	98.419862 
3167.000000	98.420864 
3166.000000	98.421397 
3165.000000	98.421640 
3164.000000	98.422018 
3163.000000	98.422740 
3162.000000	98.423635 
3161.000000	98.424443 
3160.000000	98.425219 
3159.000000	98.426401 
3158.000000	98.428391 
3157.000000	98.431010 
3156.000000	98.433385 
3155.000000	98.434559 
3154.000000	98.434322 
3153.000000	98.433333 
3152.000000	98.432332 
3151.000000	98.431309 
3150.000000	98.429723 
3149.000000	98.427494 
3148.000000	98.425508 
3147.000000	98.424890 
3146.000000	98.425952 
3145.000000	98.428065 
3144.000000	98.430476 
3143.000000	98.433065 
3142.000000	98.436096 
3141.000000	98.439413 
3140.000000	98.442221 
3139.000000	98.443760 
3138.000000	98.444049 
3137.000000	98.443776 
3136.000000	98.443608 
3135.000000	98.443766 
3134.000000	98.444219 
3133.000000	98.444869 
3132.000000	98.445424 
3131.000000	98.445441 
3130.000000	98.444846 
3129.000000	98.444273 
3128.000000	98.444539 
3127.000000	98.445799 
3126.000000	98.447479 
3125.000000	98.448976 
3124.000000	98.450226 
3123.000000	98.451473 
3122.000000	98.452697 
3121.000000	98.453522 
3120.000000	98.453668 
3119.000000	98.453292 
3118.000000	98.452917 
3117.000000	98.453072 
3116.000000	98.453952 
3115.000000	98.455376 
3114.000000	98.456948 
3113.000000	98.458299 
3112.000000	98.459265 
3111.000000	98.459894 
3110.000000	98.460359 
3109.000000	98.460812 
3108.000000	98.461269 
3107.000000	98.461652 
3106.000000	98.461957 
3105.000000	98.462287 
3104.000000	98.462721 
3103.000000	98.463201 
3102.000000	98.463596 
3101.000000	98.463884 
3100.000000	98.464237 
3099.000000	98.464826 
3098.000000	98.465531 
3097.000000	98.465951 
3096.000000	98.465873 
3095.000000	98.465687 
3094.000000	98.466074 
3093.000000	98.467245 
3092.000000	98.468676 
3091.000000	98.469563 
3090.000000	98.469409 
3089.000000	98.468285 
3088.000000	98.466879 
3087.000000	98.466313 
3086.000000	98.467585 
3085.000000	98.470760 
3084.000000	98.474564 
3083.000000	98.477098 
3082.000000	98.477226 
3081.000000	98.475491 
3080.000000	98.473680 
3079.000000	98.473295 
3078.000000	98.474342 
3077.000000	98.475536 
3076.000000	98.475590 
3075.000000	98.474353 
3074.000000	98.472893 
3073.000000	98.472345 
3072.000000	98.472645 
3071.000000	98.472559 
3070.000000	98.471237 
3069.000000	98.469488 
3068.000000	98.468797 
3067.000000	98.469235 
3066.000000	98.469404 
3065.000000	98.468791 
3064.000000	98.468921 
3063.000000	98.471058 
3062.000000	98.473640 
3061.000000	98.473741 
3060.000000	98.470984 
3059.000000	98.468453 
3058.000000	98.468956 
3057.000000	98.471377 
3056.000000	98.471857 
3055.000000	98.468088 
3054.000000	98.461534 
3053.000000	98.455528 
3052.000000	98.452173 
3051.000000	98.451263 
3050.000000	98.451307 
3049.000000	98.450927 
3048.000000	98.449554 
3047.000000	98.447428 
3046.000000	98.445008 
3045.000000	98.442144 
3044.000000	98.438075 
3043.000000	98.432613 
3042.000000	98.426937 
3041.000000	98.422449 
3040.000000	98.418824 
3039.000000	98.414236 
3038.000000	98.407624 
3037.000000	98.399624 
3036.000000	98.390879 
3035.000000	98.380724 
3034.000000	98.368728 
3033.000000	98.356465 
3032.000000	98.346004 
3031.000000	98.336878 
3030.000000	98.326120 
3029.000000	98.311868 
3028.000000	98.295786 
3027.000000	98.281176 
3026.000000	98.269274 
3025.000000	98.258172 
3024.000000	98.244990 
3023.000000	98.228356 
3022.000000	98.209047 
3021.000000	98.189081 
3020.000000	98.170324 
3019.000000	98.153349 
3018.000000	98.137194 
3017.000000	98.120262 
3016.000000	98.101526 
3015.000000	98.081072 
3014.000000	98.059752 
3013.000000	98.038390 
3012.000000	98.016971 
3011.000000	97.994527 
3010.000000	97.970219 
3009.000000	97.944561 
3008.000000	97.918988 
3007.000000	97.894056 
3006.000000	97.868874 
3005.000000	97.842879 
3004.000000	97.817323 
3003.000000	97.793850 
3002.000000	97.772011 
3001.000000	97.749587 
3000.000000	97.725716 
2999.000000	97.702594 
2998.000000	97.683529 
2997.000000	97.670087 
2996.000000	97.661225 
2995.000000	97.653557 
2994.000000	97.641223 
2993.000000	97.617247 
2992.000000	97.578631 
2991.000000	97.531520 
2990.000000	97.489482 
2989.000000	97.464308 
2988.000000	97.458305 
2987.000000	97.465184 
2986.000000	97.476548 
2985.000000	97.486841 
2984.000000	97.493836 
2983.000000	97.497757 
2982.000000	97.500670 
2981.000000	97.504602 
2980.000000	97.508987 
2979.000000	97.511015 
2978.000000	97.509142 
2977.000000	97.504905 
2976.000000	97.500398 
2975.000000	97.495529 
2974.000000	97.489539 
2973.000000	97.484357 
2972.000000	97.484389 
2971.000000	97.492635 
2970.000000	97.508142 
2969.000000	97.527356 
2968.000000	97.547100 
2967.000000	97.566267 
2966.000000	97.585666 
2965.000000	97.606700 
2964.000000	97.629570 
2963.000000	97.652316 
2962.000000	97.671874 
2961.000000	97.686387 
2960.000000	97.696522 
2959.000000	97.704890 
2958.000000	97.714457 
2957.000000	97.726986 
2956.000000	97.742074 
2955.000000	97.757587 
2954.000000	97.771615 
2953.000000	97.784186 
2952.000000	97.796811 
2951.000000	97.810570 
2950.000000	97.825077 
2949.000000	97.839120 
2948.000000	97.851604 
2947.000000	97.861883 
2946.000000	97.869961 
2945.000000	97.876560 
2944.000000	97.882373 
2943.000000	97.887392 
2942.000000	97.891527 
2941.000000	97.895572 
2940.000000	97.900727 
2939.000000	97.907077 
2938.000000	97.913251 
2937.000000	97.918105 
2936.000000	97.922468 
2935.000000	97.928879 
2934.000000	97.939424 
2933.000000	97.953559 
2932.000000	97.967649 
2931.000000	97.976973 
2930.000000	97.978967 
2929.000000	97.974977 
2928.000000	97.968988 
2927.000000	97.964591 
2926.000000	97.963066 
2925.000000	97.963484 
2924.000000	97.963912 
2923.000000	97.962850 
2922.000000	97.960331 
2921.000000	97.957497 
2920.000000	97.954566 
2919.000000	97.949666 
2918.000000	97.940583 
2917.000000	97.927318 
2916.000000	97.911945 
2915.000000	97.896172 
2914.000000	97.880218 
2913.000000	97.864327 
2912.000000	97.850049 
2911.000000	97.839225 
2910.000000	97.832205 
2909.000000	97.827643 
2908.000000	97.823748 
2907.000000	97.819019 
2906.000000	97.811856 
2905.000000	97.800179 
2904.000000	97.782826 
2903.000000	97.762591 
2902.000000	97.747622 
2901.000000	97.746884 
2900.000000	97.763439 
2899.000000	97.790396 
2898.000000	97.815576 
2897.000000	97.830659 
2896.000000	97.835730 
2895.000000	97.836048 
2894.000000	97.836623 
2893.000000	97.839664 
2892.000000	97.844991 
2891.000000	97.851036 
2890.000000	97.855916 
2889.000000	97.858613 
2888.000000	97.859400 
2887.000000	97.859376 
2886.000000	97.860270 
2885.000000	97.864505 
2884.000000	97.874110 
2883.000000	97.888803 
2882.000000	97.905796 
2881.000000	97.922291 
2880.000000	97.937779 
2879.000000	97.953600 
2878.000000	97.970732 
2877.000000	97.988470 
2876.000000	98.004886 
2875.000000	98.018331 
2874.000000	98.028889 
2873.000000	98.038452 
2872.000000	98.048754 
2871.000000	98.059207 
2870.000000	98.067566 
2869.000000	98.073137 
2868.000000	98.078569 
2867.000000	98.087938 
2866.000000	98.103471 
2865.000000	98.124441 
2864.000000	98.148424 
2863.000000	98.173092 
2862.000000	98.197268 
2861.000000	98.220941 
2860.000000	98.244385 
2859.000000	98.267355 
2858.000000	98.289322 
2857.000000	98.310042 
2856.000000	98.329036 
2855.000000	98.344960 
2854.000000	98.357017 
2853.000000	98.366742 
2852.000000	98.376574 
2851.000000	98.386443 
2850.000000	98.393434 
2849.000000	98.395250 
2848.000000	98.392682 
2847.000000	98.388436 
2846.000000	98.385113 
2845.000000	98.384916 
2844.000000	98.389446 
2843.000000	98.398262 
2842.000000	98.408410 
2841.000000	98.416520 
2840.000000	98.420969 
2839.000000	98.421923 
2838.000000	98.420708 
2837.000000	98.419684 
2836.000000	98.420919 
2835.000000	98.423823 
2834.000000	98.425675 
2833.000000	98.425670 
2832.000000	98.426683 
2831.000000	98.431324 
2830.000000	98.437937 
2829.000000	98.442860 
2828.000000	98.445369 
2827.000000	98.447693 
2826.000000	98.450814 
2825.000000	98.453282 
2824.000000	98.454466 
2823.000000	98.456206 
2822.000000	98.460164 
2821.000000	98.465527 
2820.000000	98.470474 
2819.000000	98.474385 
2818.000000	98.477406 
2817.000000	98.479062 
2816.000000	98.478661 
2815.000000	98.476598 
2814.000000	98.474312 
2813.000000	98.473145 
2812.000000	98.473647 
2811.000000	98.475621 
2810.000000	98.478388 
2809.000000	98.481286 
2808.000000	98.484171 
2807.000000	98.487223 
2806.000000	98.490198 
2805.000000	98.492253 
2804.000000	98.492701 
2803.000000	98.491738 
2802.000000	98.490391 
2801.000000	98.489812 
2800.000000	98.490526 
2799.000000	98.492225 
2798.000000	98.494231 
2797.000000	98.496084 
2796.000000	98.497615 
2795.000000	98.498648 
2794.000000	98.499075 
2793.000000	98.499310 
2792.000000	98.500141 
2791.000000	98.501737 
2790.000000	98.503186 
2789.000000	98.503537 
2788.000000	98.503001 
2787.000000	98.502640 
2786.000000	98.502991 
2785.000000	98.503676 
2784.000000	98.504258 
2783.000000	98.504770 
2782.000000	98.505281 
2781.000000	98.505556 
2780.000000	98.505536 
2779.000000	98.505755 
2778.000000	98.506826 
2777.000000	98.508737 
2776.000000	98.510842 
2775.000000	98.512465 
2774.000000	98.513439 
2773.000000	98.514091 
2772.000000	98.514890 
2771.000000	98.515998 
2770.000000	98.517077 
2769.000000	98.517684 
2768.000000	98.517823 
2767.000000	98.517950 
2766.000000	98.518391 
2765.000000	98.518952 
2764.000000	98.519222 
2763.000000	98.519110 
2762.000000	98.518995 
2761.000000	98.519338 
2760.000000	98.520231 
2759.000000	98.521348 
2758.000000	98.522310 
2757.000000	98.523094 
2756.000000	98.524001 
2755.000000	98.525226 
2754.000000	98.526547 
2753.000000	98.527579 
2752.000000	98.528289 
2751.000000	98.529045 
2750.000000	98.530042 
2749.000000	98.530912 
2748.000000	98.531191 
2747.000000	98.531046 
2746.000000	98.531207 
2745.000000	98.532125 
2744.000000	98.533484 
2743.000000	98.534648 
2742.000000	98.535341 
2741.000000	98.535672 
2740.000000	98.535732 
2739.000000	98.535597 
2738.000000	98.535688 
2737.000000	98.536657 
2736.000000	98.538650 
2735.000000	98.540898 
2734.000000	98.542368 
2733.000000	98.542813 
2732.000000	98.542850 
2731.000000	98.543124 
2730.000000	98.543757 
2729.000000	98.544711 
2728.000000	98.546232 
2727.000000	98.548512 
2726.000000	98.551151 
2725.000000	98.553404 
2724.000000	98.554988 
2723.000000	98.556236 
2722.000000	98.557383 
2721.000000	98.558014 
2720.000000	98.557536 
2719.000000	98.555978 
2718.000000	98.554149 
2717.000000	98.553025 
2716.000000	98.552988 
2715.000000	98.553631 
2714.000000	98.554192 
2713.000000	98.554228 
2712.000000	98.553968 
2711.000000	98.554011 
2710.000000	98.554695 
2709.000000	98.555801 
2708.000000	98.556839 
2707.000000	98.557444 
2706.000000	98.557489 
2705.000000	98.556983 
2704.000000	98.556120 
2703.000000	98.555431 
2702.000000	98.555598 
2701.000000	98.556888 
2700.000000	98.558768 
2699.000000	98.560237 
2698.000000	98.560670 
2697.000000	98.560264 
2696.000000	98.559724 
2695.000000	98.559665 
2694.000000	98.560298 
2693.000000	98.561395 
2692.000000	98.562347 
2691.000000	98.562515 
2690.000000	98.561855 
2689.000000	98.561073 
2688.000000	98.560834 
2687.000000	98.560993 
2686.000000	98.560968 
2685.000000	98.560710 
2684.000000	98.560739 
2683.000000	98.561179 
2682.000000	98.561378 
2681.000000	98.560790 
2680.000000	98.559726 
2679.000000	98.558878 
2678.000000	98.558504 
2677.000000	98.558537 
2676.000000	98.559138 
2675.000000	98.560462 
2674.000000	98.561975 
2673.000000	98.562606 
2672.000000	98.561729 
2671.000000	98.559744 
2670.000000	98.557714 
2669.000000	98.556631 
2668.000000	98.556733 
2667.000000	98.557134 
2666.000000	98.556313 
2665.000000	98.553466 
2664.000000	98.549415 
2663.000000	98.545903 
2662.000000	98.543844 
2661.000000	98.542689 
2660.000000	98.541515 
2659.000000	98.540179 
2658.000000	98.539154 
2657.000000	98.538616 
2656.000000	98.538145 
2655.000000	98.537258 
2654.000000	98.535930 
2653.000000	98.534570 
2652.000000	98.533677 
2651.000000	98.533464 
2650.000000	98.533644 
2649.000000	98.533503 
2648.000000	98.532370 
2647.000000	98.530142 
2646.000000	98.527362 
2645.000000	98.524773 
2644.000000	98.522817 
2643.000000	98.521549 
2642.000000	98.520884 
2641.000000	98.520786 
2640.000000	98.521243 
2639.000000	98.522195 
2638.000000	98.523437 
2637.000000	98.524465 
2636.000000	98.524624 
2635.000000	98.523737 
2634.000000	98.522617 
2633.000000	98.522520 
2632.000000	98.523824 
2631.000000	98.525504 
2630.000000	98.526125 
2629.000000	98.525263 
2628.000000	98.523661 
2627.000000	98.522291 
2626.000000	98.521507 
2625.000000	98.521117 
2624.000000	98.520912 
2623.000000	98.520980 
2622.000000	98.521541 
2621.000000	98.522591 
2620.000000	98.523764 
2619.000000	98.524629 
2618.000000	98.525148 
2617.000000	98.525621 
2616.000000	98.526126 
2615.000000	98.526319 
2614.000000	98.525978 
2613.000000	98.525442 
2612.000000	98.525243 
2611.000000	98.525484 
2610.000000	98.525856 
2609.000000	98.526119 
2608.000000	98.526306 
2607.000000	98.526522 
2606.000000	98.526825 
2605.000000	98.527284 
2604.000000	98.527899 
2603.000000	98.528518 
2602.000000	98.528967 
2601.000000	98.529240 
2600.000000	98.529443 
2599.000000	98.529648 
2598.000000	98.529870 
2597.000000	98.530112 
2596.000000	98.530389 
2595.000000	98.530701 
2594.000000	98.531031 
2593.000000	98.531366 
2592.000000	98.531700 
2591.000000	98.532036 
2590.000000	98.532376 
2589.000000	98.532728 
2588.000000	98.533098 
2587.000000	98.533487 
2586.000000	98.533885 
2585.000000	98.534283 
2584.000000	98.534673 
2583.000000	98.535052 
2582.000000	98.535422 
2581.000000	98.535789 
2580.000000	98.536157 
2579.000000	98.536529 
2578.000000	98.536902 
2577.000000	98.537277 
2576.000000	98.537656 
2575.000000	98.538041 
2574.000000	98.538433 
2573.000000	98.538834 
2572.000000	98.539247 
2571.000000	98.539672 
2570.000000	98.540104 
2569.000000	98.540544 
2568.000000	98.541000 
2567.000000	98.541477 
2566.000000	98.541964 
2565.000000	98.542429 
2564.000000	98.542847 
2563.000000	98.543211 
2562.000000	98.543542 
2561.000000	98.543864 
2560.000000	98.544200 
2559.000000	98.544572 
2558.000000	98.544960 
2557.000000	98.545307 
2556.000000	98.545624 
2555.000000	98.545992 
2554.000000	98.546418 
2553.000000	98.546846 
2552.000000	98.547339 
2551.000000	98.548002 
2550.000000	98.548649 
2549.000000	98.548882 
2548.000000	98.548623 
2547.000000	98.548270 
2546.000000	98.548168 
2545.000000	98.548203 
2544.000000	98.548127 
2543.000000	98.548022 
2542.000000	98.548253 
2541.000000	98.549082 
2540.000000	98.550375 
2539.000000	98.551527 
2538.000000	98.551808 
2537.000000	98.551105 
2536.000000	98.550376 
2535.000000	98.550812 
2534.000000	98.552462 
2533.000000	98.554131 
2532.000000	98.554793 
2531.000000	98.554442 
2530.000000	98.553461 
2529.000000	98.551981 
2528.000000	98.550237 
2527.000000	98.548892 
2526.000000	98.548342 
2525.000000	98.548102 
2524.000000	98.547372 
2523.000000	98.546047 
2522.000000	98.544786 
2521.000000	98.544218 
2520.000000	98.544403 
2519.000000	98.544925 
2518.000000	98.545192 
2517.000000	98.544887 
2516.000000	98.544393 
2515.000000	98.544659 
2514.000000	98.546454 
2513.000000	98.549700 
2512.000000	98.553340 
2511.000000	98.555841 
2510.000000	98.556206 
2509.000000	98.554696 
2508.000000	98.552614 
2507.000000	98.551024 
2506.000000	98.549823 
2505.000000	98.548443 
2504.000000	98.547029 
2503.000000	98.546293 
2502.000000	98.546408 
2501.000000	98.546779 
2500.000000	98.546931 
2499.000000	98.547051 
2498.000000	98.547532 
2497.000000	98.548457 
2496.000000	98.549584 
2495.000000	98.550404 
2494.000000	98.550342 
2493.000000	98.549481 
2492.000000	98.548995 
2491.000000	98.550154 
2490.000000	98.552911 
2489.000000	98.555843 
2488.000000	98.557568 
2487.000000	98.557939 
2486.000000	98.557742 
2485.000000	98.557755 
2484.000000	98.558146 
2483.000000	98.558511 
2482.000000	98.558352 
2481.000000	98.557681 
2480.000000	98.557197 
2479.000000	98.557593 
2478.000000	98.558738 
2477.000000	98.559749 
2476.000000	98.559903 
2475.000000	98.559206 
2474.000000	98.558168 
2473.000000	98.557321 
2472.000000	98.556888 
2471.000000	98.556718 
2470.000000	98.556479 
2469.000000	98.556104 
2468.000000	98.555927 
2467.000000	98.556196 
2466.000000	98.556630 
2465.000000	98.556738 
2464.000000	98.556453 
2463.000000	98.556181 
2462.000000	98.556261 
2461.000000	98.556627 
2460.000000	98.557012 
2459.000000	98.557225 
2458.000000	98.557246 
2457.000000	98.557192 
2456.000000	98.557256 
2455.000000	98.557531 
2454.000000	98.557911 
2453.000000	98.558186 
2452.000000	98.558271 
2451.000000	98.558254 
2450.000000	98.558279 
2449.000000	98.558411 
2448.000000	98.558629 
2447.000000	98.558878 
2446.000000	98.559114 
2445.000000	98.559312 
2444.000000	98.559481 
2443.000000	98.559647 
2442.000000	98.559827 
2441.000000	98.560016 
2440.000000	98.560209 
2439.000000	98.560423 
2438.000000	98.560681 
2437.000000	98.560977 
2436.000000	98.561261 
2435.000000	98.561483 
2434.000000	98.561637 
2433.000000	98.561780 
2432.000000	98.561997 
2431.000000	98.562348 
2430.000000	98.562805 
2429.000000	98.563265 
2428.000000	98.563669 
2427.000000	98.564045 
2426.000000	98.564430 
2425.000000	98.564793 
2424.000000	98.565063 
2423.000000	98.565222 
2422.000000	98.565382 
2421.000000	98.565793 
2420.000000	98.566687 
2419.000000	98.568014 
2418.000000	98.569292 
2417.000000	98.569985 
2416.000000	98.570025 
2415.000000	98.569835 
2414.000000	98.569818 
2413.000000	98.570047 
2412.000000	98.570473 
2411.000000	98.571098 
2410.000000	98.571822 
2409.000000	98.572453 
2408.000000	98.572930 
2407.000000	98.573237 
2406.000000	98.573189 
2405.000000	98.572636 
2404.000000	98.571789 
2403.000000	98.571082 
2402.000000	98.570682 
2401.000000	98.570410 
2400.000000	98.570141 
2399.000000	98.570018 
2398.000000	98.570176 
2397.000000	98.570494 
2396.000000	98.570693 
2395.000000	98.570546 
2394.000000	98.569965 
2393.000000	98.569046 
2392.000000	98.568116 
2391.000000	98.567562 
2390.000000	98.567507 
2389.000000	98.567662 
2388.000000	98.567585 
2387.000000	98.567135 
2386.000000	98.566623 
2385.000000	98.566457 
2384.000000	98.566616 
2383.000000	98.566551 
2382.000000	98.565729 
2381.000000	98.564155 
2380.000000	98.562332 
2379.000000	98.560721 
2378.000000	98.559381 
2377.000000	98.558160 
2376.000000	98.557005 
2375.000000	98.555994 
2374.000000	98.555179 
2373.000000	98.554495 
2372.000000	98.553755 
2371.000000	98.552680 
2370.000000	98.551117 
2369.000000	98.549278 
2368.000000	98.547635 
2367.000000	98.546441 
2366.000000	98.545522 
2365.000000	98.544493 
2364.000000	98.543095 
2363.000000	98.541257 
2362.000000	98.539004 
2361.000000	98.536496 
2360.000000	98.534164 
2359.000000	98.532487 
2358.000000	98.531507 
2357.000000	98.530801 
2356.000000	98.529917 
2355.000000	98.528675 
2354.000000	98.526903 
2353.000000	98.524441 
2352.000000	98.521648 
2351.000000	98.519043 
2350.000000	98.516709 
2349.000000	98.514445 
2348.000000	98.512437 
2347.000000	98.511142 
2346.000000	98.510376 
2345.000000	98.509606 
2344.000000	98.508763 
2343.000000	98.508110 
2342.000000	98.507204 
2341.000000	98.505167 
2340.000000	98.502217 
2339.000000	98.499639 
2338.000000	98.498461 
2337.000000	98.498208 
2336.000000	98.497699 
2335.000000	98.496268 
2334.000000	98.494376 
2333.000000	98.493013 
2332.000000	98.493261 
2331.000000	98.495037 
2330.000000	98.496825 
2329.000000	98.496548 
2328.000000	98.493204 
2327.000000	98.487237 
2326.000000	98.479486 
2325.000000	98.471562 
2324.000000	98.465674 
2323.000000	98.463707 
2322.000000	98.465417 
2321.000000	98.468552 
2320.000000	98.471413 
2319.000000	98.473754 
2318.000000	98.476049 
2317.000000	98.478054 
2316.000000	98.479463 
2315.000000	98.479878 
2314.000000	98.478940 
2313.000000	98.476679 
2312.000000	98.474276 
2311.000000	98.473112 
2310.000000	98.473314 
2309.000000	98.474275 
2308.000000	98.476085 
2307.000000	98.479222 
2306.000000	98.482839 
2305.000000	98.485133 
2304.000000	98.485386 
2303.000000	98.484222 
2302.000000	98.481950 
2301.000000	98.478095 
2300.000000	98.472994 
2299.000000	98.468070 
2298.000000	98.464267 
2297.000000	98.461425 
2296.000000	98.459400 
2295.000000	98.458364 
2294.000000	98.457526 
2293.000000	98.455439 
2292.000000	98.451706 
2291.000000	98.447240 
2290.000000	98.442203 
2289.000000	98.435760 
2288.000000	98.428120 
2287.000000	98.421357 
2286.000000	98.417281 
2285.000000	98.415891 
2284.000000	98.416271 
2283.000000	98.417700 
2282.000000	98.419598 
2281.000000	98.421867 
2280.000000	98.425317 
2279.000000	98.429961 
2278.000000	98.433430 
2277.000000	98.433511 
2276.000000	98.432019 
2275.000000	98.433045 
2274.000000	98.437342 
2273.000000	98.441457 
2272.000000	98.442910 
2271.000000	98.443222 
2270.000000	98.444783 
2269.000000	98.447548 
2268.000000	98.450082 
2267.000000	98.451558 
2266.000000	98.451452 
2265.000000	98.449466 
2264.000000	98.446704 
2263.000000	98.445035 
2262.000000	98.444541 
2261.000000	98.443179 
2260.000000	98.439623 
2259.000000	98.434939 
2258.000000	98.431000 
2257.000000	98.428724 
2256.000000	98.428313 
2255.000000	98.429669 
2254.000000	98.431973 
2253.000000	98.433860 
2252.000000	98.434667 
2251.000000	98.434783 
2250.000000	98.434698 
2249.000000	98.434445 
2248.000000	98.434048 
2247.000000	98.433682 
2246.000000	98.433384 
2245.000000	98.433004 
2244.000000	98.432516 
2243.000000	98.432033 
2242.000000	98.431605 
2241.000000	98.431203 
2240.000000	98.430831 
2239.000000	98.430525 
2238.000000	98.430229 
2237.000000	98.429765 
2236.000000	98.429027 
2235.000000	98.428118 
2234.000000	98.427306 
2233.000000	98.426750 
2232.000000	98.426402 
2231.000000	98.426103 
2230.000000	98.425713 
2229.000000	98.425153 
2228.000000	98.424360 
2227.000000	98.423248 
2226.000000	98.421705 
2225.000000	98.419797 
2224.000000	98.418050 
2223.000000	98.417182 
2222.000000	98.417313 
2221.000000	98.417496 
2220.000000	98.416589 
2219.000000	98.414608 
2218.000000	98.412817 
2217.000000	98.412319 
2216.000000	98.413015 
2215.000000	98.414050 
2214.000000	98.414744 
2213.000000	98.414718 
2212.000000	98.413600 
2211.000000	98.411285 
2210.000000	98.408454 
2209.000000	98.406331 
2208.000000	98.405768 
2207.000000	98.406643 
2206.000000	98.408149 
2205.000000	98.409713 
2204.000000	98.411492 
2203.000000	98.413593 
2202.000000	98.415116 
2201.000000	98.414731 
2200.000000	98.411747 
2199.000000	98.406512 
2198.000000	98.400245 
2197.000000	98.394552 
2196.000000	98.391030 
2195.000000	98.390265 
2194.000000	98.391012 
2193.000000	98.390967 
2192.000000	98.388215 
2191.000000	98.381803 
2190.000000	98.372193 
2189.000000	98.362029 
2188.000000	98.355041 
2187.000000	98.352945 
2186.000000	98.354519 
2185.000000	98.358481 
2184.000000	98.365411 
2183.000000	98.375000 
2182.000000	98.383477 
2181.000000	98.386884 
2180.000000	98.385628 
2179.000000	98.382706 
2178.000000	98.378920 
2177.000000	98.373595 
2176.000000	98.368839 
2175.000000	98.368510 
2174.000000	98.372727 
2173.000000	98.377319 
2172.000000	98.379363 
2171.000000	98.379547 
2170.000000	98.378316 
2169.000000	98.373726 
2168.000000	98.364995 
2167.000000	98.355193 
2166.000000	98.348154 
2165.000000	98.344433 
2164.000000	98.341802 
2163.000000	98.338594 
2162.000000	98.336263 
2161.000000	98.340340 
2160.000000	98.357940 
2159.000000	98.390602 
2158.000000	98.428276 
2157.000000	98.455204 
2156.000000	98.464377 
2155.000000	98.460759 
2154.000000	98.453380 
2153.000000	98.447832 
2152.000000	98.445285 
2151.000000	98.444619 
2150.000000	98.443742 
2149.000000	98.441703 
2148.000000	98.441110 
2147.000000	98.446279 
2146.000000	98.457960 
2145.000000	98.471972 
2144.000000	98.483934 
2143.000000	98.492970 
2142.000000	98.499561 
2141.000000	98.502568 
2140.000000	98.500509 
2139.000000	98.494369 
2138.000000	98.487681 
2137.000000	98.484408 
2136.000000	98.486768 
2135.000000	98.493713 
2134.000000	98.501230 
2133.000000	98.505865 
2132.000000	98.508227 
2131.000000	98.511335 
2130.000000	98.515479 
2129.000000	98.516973 
2128.000000	98.512731 
2127.000000	98.504158 
2126.000000	98.495723 
2125.000000	98.490776 
2124.000000	98.489382 
2123.000000	98.489300 
2122.000000	98.488291 
2121.000000	98.485985 
2120.000000	98.483680 
2119.000000	98.481979 
2118.000000	98.479296 
2117.000000	98.473899 
2116.000000	98.466925 
2115.000000	98.461520 
2114.000000	98.459547 
2113.000000	98.460756 
2112.000000	98.464578 
2111.000000	98.470284 
2110.000000	98.474924 
2109.000000	98.474684 
2108.000000	98.469429 
2107.000000	98.463271 
2106.000000	98.459566 
2105.000000	98.457428 
2104.000000	98.454274 
2103.000000	98.449678 
2102.000000	98.445285 
2101.000000	98.442523 
2100.000000	98.441757 
2099.000000	98.442720 
2098.000000	98.444942 
2097.000000	98.448521 
2096.000000	98.454431 
2095.000000	98.462567 
2094.000000	98.469693 
2093.000000	98.471663 
2092.000000	98.467722 
2091.000000	98.460855 
2090.000000	98.454172 
2089.000000	98.448243 
2088.000000	98.442372 
2087.000000	98.436586 
2086.000000	98.431543 
2085.000000	98.427845 
2084.000000	98.426222 
2083.000000	98.427273 
2082.000000	98.430217 
2081.000000	98.432696 
2080.000000	98.432774 
2079.000000	98.430528 
2078.000000	98.427298 
2077.000000	98.424249 
2076.000000	98.421931 
2075.000000	98.420355 
2074.000000	98.418909 
2073.000000	98.416810 
2072.000000	98.414111 
2071.000000	98.411808 
2070.000000	98.410675 
2069.000000	98.410490 
2068.000000	98.410555 
2067.000000	98.410441 
2066.000000	98.410014 
2065.000000	98.409381 
2064.000000	98.409063 
2063.000000	98.409525 
2062.000000	98.410281 
2061.000000	98.410110 
2060.000000	98.408380 
2059.000000	98.405658 
2058.000000	98.403039 
2057.000000	98.401423 
2056.000000	98.401302 
2055.000000	98.402262 
2054.000000	98.402506 
2053.000000	98.399944 
2052.000000	98.394073 
2051.000000	98.386382 
2050.000000	98.379238 
2049.000000	98.374518 
2048.000000	98.373238 
2047.000000	98.375511 
2046.000000	98.380010 
2045.000000	98.384268 
2044.000000	98.386457 
2043.000000	98.386330 
2042.000000	98.384311 
2041.000000	98.380834 
2040.000000	98.376962 
2039.000000	98.374514 
2038.000000	98.374649 
2037.000000	98.376854 
2036.000000	98.379648 
2035.000000	98.381877 
2034.000000	98.383018 
2033.000000	98.383153 
2032.000000	98.383158 
2031.000000	98.383800 
2030.000000	98.384258 
2029.000000	98.382847 
2028.000000	98.379633 
2027.000000	98.376797 
2026.000000	98.375784 
2025.000000	98.375555 
2024.000000	98.374568 
2023.000000	98.373043 
2022.000000	98.371966 
2021.000000	98.370849 
2020.000000	98.368100 
2019.000000	98.363233 
2018.000000	98.357675 
2017.000000	98.353545 
2016.000000	98.352247 
2015.000000	98.354033 
2014.000000	98.358163 
2013.000000	98.363415 
2012.000000	98.368418 
2011.000000	98.371302 
2010.000000	98.370126 
2009.000000	98.365395 
2008.000000	98.361251 
2007.000000	98.361104 
2006.000000	98.362843 
2005.000000	98.361737 
2004.000000	98.357314 
2003.000000	98.353322 
2002.000000	98.351260 
2001.000000	98.348654 
2000.000000	98.344521 
1999.000000	98.341496 
1998.000000	98.340777 
1997.000000	98.339566 
1996.000000	98.335821 
1995.000000	98.331703 
1994.000000	98.329525 
1993.000000	98.327537 
1992.000000	98.323184 
1991.000000	98.318202 
1990.000000	98.316494 
1989.000000	98.318576 
1988.000000	98.321104 
1987.000000	98.320885 
1986.000000	98.317619 
1985.000000	98.313458 
1984.000000	98.311026 
1983.000000	98.310827 
1982.000000	98.310061 
1981.000000	98.305983 
1980.000000	98.300959 
1979.000000	98.301046 
1978.000000	98.308612 
1977.000000	98.319392 
1976.000000	98.327761 
1975.000000	98.332777 
1974.000000	98.336195 
1973.000000	98.338501 
1972.000000	98.339605 
1971.000000	98.340495 
1970.000000	98.341613 
1969.000000	98.341462 
1968.000000	98.339038 
1967.000000	98.336311 
1966.000000	98.336114 
1965.000000	98.338672 
1964.000000	98.342055 
1963.000000	98.345004 
1962.000000	98.347905 
1961.000000	98.351373 
1960.000000	98.355038 
1959.000000	98.357716 
1958.000000	98.358537 
1957.000000	98.358098 
1956.000000	98.358461 
1955.000000	98.361206 
1954.000000	98.365550 
1953.000000	98.368932 
1952.000000	98.369893 
1951.000000	98.369369 
1950.000000	98.369211 
1949.000000	98.370191 
1948.000000	98.372048 
1947.000000	98.374543 
1946.000000	98.377511 
1945.000000	98.380382 
1944.000000	98.382404 
1943.000000	98.383364 
1942.000000	98.383644 
1941.000000	98.383745 
1940.000000	98.384012 
1939.000000	98.384598 
1938.000000	98.385451 
1937.000000	98.386398 
1936.000000	98.387376 
1935.000000	98.388478 
1934.000000	98.389646 
1933.000000	98.390413 
1932.000000	98.390363 
1931.000000	98.389779 
1930.000000	98.389286 
1929.000000	98.389096 
1928.000000	98.389191 
1927.000000	98.389784 
1926.000000	98.390892 
1925.000000	98.391846 
1924.000000	98.392223 
1923.000000	98.393000 
1922.000000	98.395279 
1921.000000	98.398397 
1920.000000	98.400648 
1919.000000	98.401094 
1918.000000	98.399810 
1917.000000	98.397376 
1916.000000	98.395099 
1915.000000	98.394334 
1914.000000	98.394686 
1913.000000	98.394104 
1912.000000	98.391710 
1911.000000	98.389339 
1910.000000	98.388512 
1909.000000	98.388024 
1908.000000	98.386374 
1907.000000	98.384331 
1906.000000	98.383358 
1905.000000	98.383088 
1904.000000	98.382312 
1903.000000	98.380922 
1902.000000	98.378813 
1901.000000	98.375311 
1900.000000	98.371055 
1899.000000	98.368313 
1898.000000	98.368205 
1897.000000	98.368830 
1896.000000	98.367631 
1895.000000	98.364565 
1894.000000	98.361064 
1893.000000	98.357789 
1892.000000	98.355061 
1891.000000	98.353786 
1890.000000	98.354731 
1889.000000	98.357640 
1888.000000	98.361870 
1887.000000	98.366319 
1886.000000	98.368507 
1885.000000	98.366066 
1884.000000	98.359921 
1883.000000	98.354187 
1882.000000	98.351533 
1881.000000	98.351285 
1880.000000	98.352125 
1879.000000	98.353778 
1878.000000	98.355805 
1877.000000	98.357313 
1876.000000	98.358845 
1875.000000	98.362297 
1874.000000	98.367468 
1873.000000	98.371154 
1872.000000	98.371571 
1871.000000	98.370767 
1870.000000	98.370712 
1869.000000	98.369943 
1868.000000	98.367714 
1867.000000	98.366965 
1866.000000	98.369109 
1865.000000	98.371955 
1864.000000	98.374011 
1863.000000	98.376978 
1862.000000	98.381944 
1861.000000	98.386041 
1860.000000	98.386497 
1859.000000	98.385393 
1858.000000	98.386326 
1857.000000	98.389138 
1856.000000	98.391767 
1855.000000	98.394540 
1854.000000	98.399008 
1853.000000	98.404646 
1852.000000	98.409837 
1851.000000	98.414145 
1850.000000	98.417974 
1849.000000	98.421591 
1848.000000	98.425454 
1847.000000	98.430535 
1846.000000	98.436633 
1845.000000	98.441438 
1844.000000	98.443329 
1843.000000	98.443528 
1842.000000	98.442989 
1841.000000	98.441364 
1840.000000	98.438911 
1839.000000	98.437081 
1838.000000	98.437081 
1837.000000	98.438134 
1836.000000	98.439151 
1835.000000	98.440773 
1834.000000	98.443821 
1833.000000	98.447303 
1832.000000	98.448850 
1831.000000	98.447111 
1830.000000	98.443841 
1829.000000	98.442047 
1828.000000	98.442077 
1827.000000	98.442736 
1826.000000	98.443539 
1825.000000	98.444115 
1824.000000	98.443965 
1823.000000	98.443599 
1822.000000	98.443966 
1821.000000	98.445012 
1820.000000	98.446079 
1819.000000	98.447685 
1818.000000	98.450460 
1817.000000	98.452325 
1816.000000	98.450682 
1815.000000	98.446446 
1814.000000	98.442888 
1813.000000	98.441627 
1812.000000	98.441750 
1811.000000	98.442630 
1810.000000	98.444008 
1809.000000	98.443945 
1808.000000	98.441351 
1807.000000	98.437951 
1806.000000	98.435324 
1805.000000	98.432783 
1804.000000	98.429910 
1803.000000	98.428513 
1802.000000	98.429960 
1801.000000	98.432613 
1800.000000	98.434105 
1799.000000	98.434963 
1798.000000	98.436379 
1797.000000	98.437486 
1796.000000	98.437696 
1795.000000	98.438497 
1794.000000	98.441034 
1793.000000	98.443439 
1792.000000	98.443155 
1791.000000	98.441568 
1790.000000	98.441065 
1789.000000	98.441101 
1788.000000	98.440610 
1787.000000	98.440414 
1786.000000	98.441719 
1785.000000	98.443568 
1784.000000	98.444231 
1783.000000	98.443915 
1782.000000	98.444087 
1781.000000	98.445776 
1780.000000	98.448832 
1779.000000	98.452492 
1778.000000	98.455941 
1777.000000	98.458469 
1776.000000	98.459829 
1775.000000	98.460176 
1774.000000	98.460140 
1773.000000	98.460737 
1772.000000	98.462136 
1771.000000	98.464007 
1770.000000	98.467049 
1769.000000	98.471676 
1768.000000	98.476398 
1767.000000	98.479291 
1766.000000	98.480238 
1765.000000	98.480437 
1764.000000	98.480620 
1763.000000	98.480967 
1762.000000	98.482232 
1761.000000	98.485029 
1760.000000	98.488382 
1759.000000	98.491335 
1758.000000	98.494183 
1757.000000	98.497690 
1756.000000	98.501396 
1755.000000	98.503914 
1754.000000	98.505537 
1753.000000	98.508110 
1752.000000	98.512213 
1751.000000	98.515771 
1750.000000	98.517210 
1749.000000	98.517494 
1748.000000	98.517913 
1747.000000	98.518547 
1746.000000	98.519561 
1745.000000	98.521641 
1744.000000	98.524285 
1743.000000	98.526092 
1742.000000	98.526868 
1741.000000	98.527536 
1740.000000	98.528438 
1739.000000	98.529187 
1738.000000	98.529604 
1737.000000	98.529824 
1736.000000	98.530170 
1735.000000	98.530999 
1734.000000	98.532121 
1733.000000	98.532868 
1732.000000	98.533054 
1731.000000	98.533078 
1730.000000	98.533463 
1729.000000	98.534355 
1728.000000	98.535398 
1727.000000	98.536119 
1726.000000	98.536437 
1725.000000	98.536593 
1724.000000	98.536761 
1723.000000	98.536968 
1722.000000	98.537180 
1721.000000	98.537358 
1720.000000	98.537496 
1719.000000	98.537620 
1718.000000	98.537718 
1717.000000	98.537717 
1716.000000	98.537653 
1715.000000	98.537593 
1714.000000	98.537543 
1713.000000	98.537486 
1712.000000	98.537418 
1711.000000	98.537338 
1710.000000	98.537249 
1709.000000	98.537155 
1708.000000	98.537061 
1707.000000	98.536975 
1706.000000	98.536901 
1705.000000	98.536841 
1704.000000	98.536791 
1703.000000	98.536758 
1702.000000	98.536749 
1701.000000	98.536766 
1700.000000	98.536802 
1699.000000	98.536854 
1698.000000	98.536923 
1697.000000	98.537007 
1696.000000	98.537103 
1695.000000	98.537210 
1694.000000	98.537323 
1693.000000	98.537418 
1692.000000	98.537473 
1691.000000	98.537542 
1690.000000	98.537710 
1689.000000	98.537982 
1688.000000	98.538257 
1687.000000	98.538474 
1686.000000	98.538668 
1685.000000	98.538869 
1684.000000	98.539138 
1683.000000	98.539563 
1682.000000	98.539936 
1681.000000	98.540237 
1680.000000	98.540615 
1679.000000	98.541072 
1678.000000	98.541475 
1677.000000	98.541908 
1676.000000	98.542700 
1675.000000	98.543845 
1674.000000	98.544834 
1673.000000	98.545418 
1672.000000	98.545705 
1671.000000	98.545814 
1670.000000	98.545723 
1669.000000	98.545674 
1668.000000	98.546076 
1667.000000	98.546764 
1666.000000	98.547346 
1665.000000	98.547663 
1664.000000	98.547842 
1663.000000	98.548098 
1662.000000	98.548298 
1661.000000	98.548343 
1660.000000	98.548548 
1659.000000	98.549009 
1658.000000	98.549419 
1657.000000	98.549570 
1656.000000	98.549607 
1655.000000	98.549604 
1654.000000	98.549427 
1653.000000	98.549191 
1652.000000	98.549244 
1651.000000	98.549289 
1650.000000	98.549281 
1649.000000	98.549289 
1648.000000	98.549421 
1647.000000	98.549531 
1646.000000	98.549459 
1645.000000	98.549147 
1644.000000	98.548815 
1643.000000	98.548728 
1642.000000	98.548807 
1641.000000	98.548895 
1640.000000	98.549052 
1639.000000	98.549267 
1638.000000	98.549391 
1637.000000	98.549432 
1636.000000	98.549692 
1635.000000	98.549767 
1634.000000	98.549045 
1633.000000	98.547946 
1632.000000	98.547343 
1631.000000	98.547459 
1630.000000	98.547678 
1629.000000	98.547336 
1628.000000	98.546636 
1627.000000	98.546121 
1626.000000	98.545710 
1625.000000	98.545291 
1624.000000	98.545389 
1623.000000	98.546286 
1622.000000	98.547081 
1621.000000	98.547166 
1620.000000	98.547144 
1619.000000	98.547502 
1618.000000	98.547709 
1617.000000	98.547192 
1616.000000	98.546892 
1615.000000	98.546808 
1614.000000	98.545730 
1613.000000	98.544512 
1612.000000	98.545401 
1611.000000	98.548617 
1610.000000	98.551097 
1609.000000	98.551129 
1608.000000	98.550999 
1607.000000	98.552355 
1606.000000	98.553459 
1605.000000	98.553393 
1604.000000	98.554098 
1603.000000	98.556344 
1602.000000	98.558242 
1601.000000	98.559179 
1600.000000	98.560676 
1599.000000	98.562620 
1598.000000	98.562994 
1597.000000	98.561840 
1596.000000	98.561930 
1595.000000	98.564524 
1594.000000	98.567302 
1593.000000	98.568522 
1592.000000	98.569678 
1591.000000	98.571950 
1590.000000	98.573762 
1589.000000	98.574283 
1588.000000	98.575491 
1587.000000	98.578274 
1586.000000	98.580222 
1585.000000	98.580043 
1584.000000	98.580418 
1583.000000	98.582902 
1582.000000	98.585003 
1581.000000	98.585547 
1580.000000	98.586687 
1579.000000	98.588498 
1578.000000	98.587921 
1577.000000	98.584967 
1576.000000	98.584898 
1575.000000	98.587650 
1574.000000	98.587067 
1573.000000	98.583001 
1572.000000	98.579556 
1571.000000	98.579128 
1570.000000	98.580116 
1569.000000	98.582044 
1568.000000	98.586149 
1567.000000	98.588987 
1566.000000	98.587418 
1565.000000	98.583524 
1564.000000	98.581071 
1563.000000	98.578961 
1562.000000	98.574120 
1561.000000	98.571012 
1560.000000	98.579793 
1559.000000	98.593134 
1558.000000	98.590147 
1557.000000	98.575458 
1556.000000	98.563544 
1555.000000	98.556987 
1554.000000	98.551538 
1553.000000	98.545429 
1552.000000	98.539920 
1551.000000	98.536143 
1550.000000	98.533639 
1549.000000	98.530767 
1548.000000	98.526925 
1547.000000	98.522562 
1546.000000	98.517364 
1545.000000	98.510532 
1544.000000	98.503693 
1543.000000	98.499826 
1542.000000	98.498547 
1541.000000	98.493280 
1540.000000	98.481712 
1539.000000	98.469419 
1538.000000	98.455553 
1537.000000	98.438778 
1536.000000	98.421522 
1535.000000	98.407090 
1534.000000	98.395287 
1533.000000	98.383160 
1532.000000	98.370200 
1531.000000	98.359450 
1530.000000	98.350809 
1529.000000	98.339436 
1528.000000	98.323093 
1527.000000	98.305903 
1526.000000	98.292135 
1525.000000	98.279895 
1524.000000	98.266403 
1523.000000	98.253404 
1522.000000	98.242779 
1521.000000	98.231060 
1520.000000	98.215105 
1519.000000	98.197626 
1518.000000	98.182343 
1517.000000	98.169481 
1516.000000	98.157268 
1515.000000	98.145267 
1514.000000	98.134662 
1513.000000	98.124734 
1512.000000	98.111422 
1511.000000	98.094535 
1510.000000	98.078936 
1509.000000	98.066751 
1508.000000	98.054063 
1507.000000	98.040383 
1506.000000	98.027739 
1505.000000	98.008791 
1504.000000	97.984652 
1503.000000	97.961337 
1502.000000	97.941253 
1501.000000	97.923308 
1500.000000	97.904273 
1499.000000	97.883955 
1498.000000	97.868405 
1497.000000	97.859898 
1496.000000	97.851554 
1495.000000	97.840631 
1494.000000	97.830847 
1493.000000	97.822403 
1492.000000	97.811409 
1491.000000	97.795695 
1490.000000	97.777746 
1489.000000	97.758668 
1488.000000	97.737552 
1487.000000	97.719059 
1486.000000	97.705077 
1485.000000	97.691394 
1484.000000	97.676853 
1483.000000	97.663711 
1482.000000	97.653627 
1481.000000	97.644289 
1480.000000	97.633219 
1479.000000	97.622841 
1478.000000	97.616385 
1477.000000	97.612004 
1476.000000	97.605930 
1475.000000	97.600254 
1474.000000	97.596219 
1473.000000	97.589039 
1472.000000	97.575079 
1471.000000	97.560443 
1470.000000	97.550629 
1469.000000	97.543032 
1468.000000	97.533202 
1467.000000	97.522401 
1466.000000	97.514623 
1465.000000	97.509170 
1464.000000	97.502205 
1463.000000	97.492771 
1462.000000	97.483833 
1461.000000	97.476001 
1460.000000	97.467275 
1459.000000	97.456396 
1458.000000	97.447270 
1457.000000	97.443464 
1456.000000	97.436772 
1455.000000	97.421788 
1454.000000	97.405866 
1453.000000	97.394663 
1452.000000	97.387132 
1451.000000	97.381028 
1450.000000	97.378851 
1449.000000	97.383148 
1448.000000	97.389566 
1447.000000	97.392421 
1446.000000	97.391636 
1445.000000	97.391030 
1444.000000	97.391988 
1443.000000	97.392624 
1442.000000	97.393201 
1441.000000	97.395833 
1440.000000	97.398895 
1439.000000	97.398332 
1438.000000	97.397208 
1437.000000	97.403240 
1436.000000	97.415520 
1435.000000	97.425373 
1434.000000	97.431075 
1433.000000	97.435206 
1432.000000	97.438792 
1431.000000	97.440733 
1430.000000	97.442735 
1429.000000	97.447643 
1428.000000	97.453001 
1427.000000	97.454872 
1426.000000	97.454035 
1425.000000	97.456487 
1424.000000	97.463826 
1423.000000	97.469176 
1422.000000	97.469285 
1421.000000	97.468844 
1420.000000	97.471232 
1419.000000	97.472427 
1418.000000	97.471336 
1417.000000	97.470446 
1416.000000	97.468102 
1415.000000	97.461993 
1414.000000	97.453270 
1413.000000	97.446079 
1412.000000	97.442605 
1411.000000	97.441719 
1410.000000	97.443608 
1409.000000	97.449632 
1408.000000	97.458830 
1407.000000	97.469885 
1406.000000	97.483676 
1405.000000	97.503069 
1404.000000	97.527428 
1403.000000	97.551808 
1402.000000	97.574336 
1401.000000	97.597266 
1400.000000	97.621564 
1399.000000	97.642559 
1398.000000	97.653705 
1397.000000	97.652043 
1396.000000	97.640348 
1395.000000	97.629444 
1394.000000	97.634768 
1393.000000	97.663612 
1392.000000	97.707338 
1391.000000	97.750378 
1390.000000	97.783090 
1389.000000	97.804841 
1388.000000	97.819038 
1387.000000	97.828666 
1386.000000	97.836153 
1385.000000	97.844476 
1384.000000	97.855549 
1383.000000	97.868719 
1382.000000	97.882750 
1381.000000	97.897751 
1380.000000	97.914835 
1379.000000	97.933868 
1378.000000	97.953131 
1377.000000	97.971876 
1376.000000	97.991367 
1375.000000	98.012753 
1374.000000	98.035309 
1373.000000	98.057632 
1372.000000	98.078784 
1371.000000	98.098657 
1370.000000	98.117624 
1369.000000	98.137565 
1368.000000	98.159714 
1367.000000	98.181970 
1366.000000	98.201415 
1365.000000	98.217868 
1364.000000	98.233562 
1363.000000	98.250473 
1362.000000	98.268390 
1361.000000	98.285831 
1360.000000	98.301940 
1359.000000	98.316679 
1358.000000	98.330446 
1357.000000	98.344623 
1356.000000	98.360284 
1355.000000	98.376347 
1354.000000	98.390825 
1353.000000	98.403330 
1352.000000	98.415032 
1351.000000	98.426797 
1350.000000	98.436897 
1349.000000	98.444799 
1348.000000	98.451203 
1347.000000	98.456181 
1346.000000	98.460260 
1345.000000	98.465879 
1344.000000	98.474735 
1343.000000	98.484773 
1342.000000	98.492376 
1341.000000	98.497091 
1340.000000	98.501583 
1339.000000	98.507163 
1338.000000	98.512950 
1337.000000	98.518909 
1336.000000	98.525486 
1335.000000	98.531601 
1334.000000	98.536270 
1333.000000	98.541040 
1332.000000	98.547679 
1331.000000	98.554201 
1330.000000	98.556653 
1329.000000	98.554975 
1328.000000	98.553104 
1327.000000	98.553367 
1326.000000	98.554180 
1325.000000	98.554672 
1324.000000	98.555840 
1323.000000	98.557393 
1322.000000	98.557620 
1321.000000	98.556439 
1320.000000	98.555636 
1319.000000	98.556326 
1318.000000	98.558631 
1317.000000	98.562928 
1316.000000	98.569033 
1315.000000	98.574830 
1314.000000	98.578184 
1313.000000	98.579529 
1312.000000	98.580647 
1311.000000	98.581829 
1310.000000	98.582377 
1309.000000	98.582853 
1308.000000	98.584490 
1307.000000	98.587193 
1306.000000	98.589534 
1305.000000	98.591251 
1304.000000	98.592672 
1303.000000	98.592974 
1302.000000	98.591157 
1301.000000	98.588002 
1300.000000	98.585222 
1299.000000	98.583550 
1298.000000	98.583162 
1297.000000	98.584589 
1296.000000	98.587613 
1295.000000	98.590101 
1294.000000	98.590120 
1293.000000	98.588294 
1292.000000	98.586455 
1291.000000	98.585015 
1290.000000	98.583174 
1289.000000	98.580747 
1288.000000	98.578179 
1287.000000	98.575329 
1286.000000	98.571683 
1285.000000	98.567294 
1284.000000	98.562573 
1283.000000	98.557990 
1282.000000	98.554271 
1281.000000	98.551779 
1280.000000	98.549732 
1279.000000	98.546806 
1278.000000	98.543091 
1277.000000	98.539954 
1276.000000	98.537562 
1275.000000	98.534140 
1274.000000	98.528697 
1273.000000	98.522785 
1272.000000	98.518197 
1271.000000	98.514350 
1270.000000	98.509332 
1269.000000	98.502394 
1268.000000	98.494134 
1267.000000	98.485410 
1266.000000	98.477208 
1265.000000	98.469746 
1264.000000	98.461012 
1263.000000	98.448462 
1262.000000	98.433118 
1261.000000	98.419381 
1260.000000	98.409426 
1259.000000	98.400035 
1258.000000	98.387442 
1257.000000	98.372712 
1256.000000	98.359881 
1255.000000	98.350505 
1254.000000	98.342350 
1253.000000	98.332363 
1252.000000	98.319404 
1251.000000	98.305097 
1250.000000	98.293391 
1249.000000	98.287965 
1248.000000	98.288681 
1247.000000	98.291244 
1246.000000	98.290616 
1245.000000	98.282953 
1244.000000	98.265482 
1243.000000	98.239471 
1242.000000	98.214143 
1241.000000	98.201639 
1240.000000	98.204250 
1239.000000	98.210322 
1238.000000	98.206376 
1237.000000	98.189955 
1236.000000	98.167310 
1235.000000	98.142641 
1234.000000	98.115073 
1233.000000	98.084339 
1232.000000	98.053422 
1231.000000	98.024964 
1230.000000	97.998743 
1229.000000	97.973039 
1228.000000	97.945699 
1227.000000	97.913993 
1226.000000	97.876202 
1225.000000	97.833536 
1224.000000	97.788397 
1223.000000	97.740838 
1222.000000	97.688728 
1221.000000	97.631057 
1220.000000	97.568873 
1219.000000	97.502948 
1218.000000	97.432495 
1217.000000	97.356353 
1216.000000	97.274079 
1215.000000	97.186057 
1214.000000	97.093806 
1213.000000	96.999753 
1212.000000	96.905159 
1211.000000	96.808750 
1210.000000	96.708774 
1209.000000	96.606056 
1208.000000	96.503561 
1207.000000	96.403304 
1206.000000	96.305203 
1205.000000	96.208509 
1204.000000	96.112220 
1203.000000	96.014079 
1202.000000	95.911900 
1201.000000	95.806787 
1200.000000	95.702844 
1199.000000	95.602547 
1198.000000	95.504567 
1197.000000	95.407406 
1196.000000	95.312465 
1195.000000	95.221171 
1194.000000	95.130992 
1193.000000	95.037353 
1192.000000	94.938539 
1191.000000	94.836236 
1190.000000	94.732107 
1189.000000	94.626468 
1188.000000	94.519845 
1187.000000	94.413079 
1186.000000	94.305676 
1185.000000	94.196129 
1184.000000	94.083970 
1183.000000	93.969523 
1182.000000	93.851770 
1181.000000	93.728683 
1180.000000	93.599897 
1179.000000	93.467038 
1178.000000	93.331344 
1177.000000	93.192775 
1176.000000	93.051168 
1175.000000	92.906114 
1174.000000	92.755972 
1173.000000	92.599622 
1172.000000	92.439011 
1171.000000	92.277600 
1170.000000	92.116761 
1169.000000	91.956558 
1168.000000	91.799928 
1167.000000	91.653369 
1166.000000	91.524217 
1165.000000	91.420684 
1164.000000	91.353557 
1163.000000	91.332559 
1162.000000	91.358913 
1161.000000	91.422718 
1160.000000	91.505826 
1159.000000	91.584657 
1158.000000	91.634686 
1157.000000	91.639579 
1156.000000	91.597481 
1155.000000	91.517320 
1154.000000	91.410725 
1153.000000	91.288593 
1152.000000	91.160858 
1151.000000	91.033216 
1150.000000	90.904534 
1149.000000	90.772237 
1148.000000	90.639460 
1147.000000	90.512260 
1146.000000	90.391036 
1145.000000	90.270374 
1144.000000	90.146846 
1143.000000	90.021391 
1142.000000	89.894712 
1141.000000	89.766407 
1140.000000	89.638643 
1139.000000	89.514636 
1138.000000	89.392948 
1137.000000	89.268706 
1136.000000	89.140724 
1135.000000	89.012333 
1134.000000	88.885518 
1133.000000	88.759588 
1132.000000	88.634797 
1131.000000	88.511289 
1130.000000	88.385528 
1129.000000	88.254474 
1128.000000	88.122255 
1127.000000	87.995424 
1126.000000	87.872536 
1125.000000	87.746304 
1124.000000	87.615255 
1123.000000	87.484430 
1122.000000	87.354931 
1121.000000	87.222444 
1120.000000	87.086929 
1119.000000	86.953931 
1118.000000	86.824660 
1117.000000	86.694282 
1116.000000	86.561619 
1115.000000	86.431125 
1114.000000	86.303622 
1113.000000	86.174656 
1112.000000	86.043721 
1111.000000	85.915222 
1110.000000	85.789557 
1109.000000	85.663418 
1108.000000	85.538271 
1107.000000	85.419041 
1106.000000	85.304299 
1105.000000	85.188150 
1104.000000	85.072006 
1103.000000	84.963219 
1102.000000	84.861834 
1101.000000	84.760755 
1100.000000	84.658719 
1099.000000	84.562833 
1098.000000	84.474220 
1097.000000	84.385555 
1096.000000	84.294448 
1095.000000	84.207418 
1094.000000	84.127559 
1093.000000	84.049421 
1092.000000	83.969029 
1091.000000	83.888616 
1090.000000	83.809375 
1089.000000	83.730234 
1088.000000	83.655778 
1087.000000	83.594594 
1086.000000	83.547502 
1085.000000	83.507225 
1084.000000	83.470481 
1083.000000	83.440035 
1082.000000	83.415079 
1081.000000	83.391401 
1080.000000	83.371238 
1079.000000	83.360914 
1078.000000	83.358647 
1077.000000	83.357133 
1076.000000	83.357462 
1075.000000	83.366321 
1074.000000	83.379289 
1073.000000	83.381124 
1072.000000	83.361869 
1071.000000	83.316875 
1070.000000	83.232049 
1069.000000	83.089730 
1068.000000	82.896017 
1067.000000	82.687886 
1066.000000	82.502747 
1065.000000	82.348755 
1064.000000	82.211223 
1063.000000	82.073745 
1062.000000	81.924485 
1061.000000	81.756296 
1060.000000	81.574120 
1059.000000	81.396799 
1058.000000	81.243037 
1057.000000	81.118312 
1056.000000	81.016886 
1055.000000	80.928374 
1054.000000	80.840563 
1053.000000	80.746379 
1052.000000	80.652082 
1051.000000	80.569335 
1050.000000	80.496797 
1049.000000	80.420842 
1048.000000	80.335557 
1047.000000	80.248484 
1046.000000	80.165896 
1045.000000	80.086291 
1044.000000	80.009113 
1043.000000	79.936519 
1042.000000	79.864803 
1041.000000	79.786089 
1040.000000	79.701324 
1039.000000	79.621779 
1038.000000	79.556383 
1037.000000	79.506845 
1036.000000	79.474302 
1035.000000	79.459351 
1034.000000	79.455389 
1033.000000	79.452135 
1032.000000	79.444665 
1031.000000	79.430301 
1030.000000	79.403000 
1029.000000	79.365115 
1028.000000	79.339447 
1027.000000	79.350947 
1026.000000	79.396269 
1025.000000	79.447092 
1024.000000	79.483241 
1023.000000	79.506210 
1022.000000	79.521970 
1021.000000	79.530280 
1020.000000	79.533341 
1019.000000	79.537552 
1018.000000	79.542329 
1017.000000	79.541269 
1016.000000	79.536910 
1015.000000	79.540022 
1014.000000	79.552039 
1013.000000	79.562870 
1012.000000	79.568773 
1011.000000	79.578120 
1010.000000	79.596464 
1009.000000	79.619609 
1008.000000	79.644550 
1007.000000	79.674386 
1006.000000	79.709608 
1005.000000	79.746703 
1004.000000	79.787726 
1003.000000	79.839452 
1002.000000	79.901157 
1001.000000	79.964433 
1000.000000	80.025936 
999.000000	 80.088922 
998.000000	 80.152398 
997.000000	 80.211297 
996.000000	 80.267841 
995.000000	 80.330265 
994.000000	 80.399722 
993.000000	 80.470692 
992.000000	 80.544375 
991.000000	 80.628906 
990.000000	 80.725709 
989.000000	 80.827767 
988.000000	 80.931687 
987.000000	 81.039779 
986.000000	 81.150933 
985.000000	 81.262225 
984.000000	 81.378854 
983.000000	 81.509271 
982.000000	 81.651152 
981.000000	 81.794733 
980.000000	 81.939378 
979.000000	 82.093736 
978.000000	 82.259546 
977.000000	 82.428963 
976.000000	 82.598743 
975.000000	 82.774271 
974.000000	 82.958394 
973.000000	 83.148159 
972.000000	 83.343208 
971.000000	 83.545963 
970.000000	 83.753135 
969.000000	 83.957985 
968.000000	 84.160678 
967.000000	 84.365756 
966.000000	 84.570630 
965.000000	 84.768064 
964.000000	 84.958979 
963.000000	 85.151150 
962.000000	 85.345962 
961.000000	 85.537794 
960.000000	 85.725493 
959.000000	 85.912541 
958.000000	 86.096726 
957.000000	 86.272236 
956.000000	 86.442292 
955.000000	 86.617266 
954.000000	 86.798397 
953.000000	 86.974616 
952.000000	 87.137732 
951.000000	 87.290542 
950.000000	 87.438335 
949.000000	 87.581921 
948.000000	 87.721434 
947.000000	 87.858514 
946.000000	 87.992011 
945.000000	 88.118206 
944.000000	 88.237024 
943.000000	 88.352677 
942.000000	 88.468355 
941.000000	 88.585443 
940.000000	 88.705980 
939.000000	 88.829442 
938.000000	 88.949697 
937.000000	 89.062537 
936.000000	 89.173548 
935.000000	 89.290932 
934.000000	 89.413617 
933.000000	 89.535102 
932.000000	 89.655459 
931.000000	 89.779123 
930.000000	 89.902970 
929.000000	 90.017643 
928.000000	 90.120689 
927.000000	 90.218996 
926.000000	 90.318064 
925.000000	 90.417357 
924.000000	 90.516358 
923.000000	 90.616672 
922.000000	 90.717125 
921.000000	 90.813864 
920.000000	 90.905888 
919.000000	 90.994800 
918.000000	 91.080197 
917.000000	 91.161162 
916.000000	 91.240347 
915.000000	 91.320163 
914.000000	 91.397449 
913.000000	 91.469576 
912.000000	 91.543901 
911.000000	 91.632797 
910.000000	 91.740027 
909.000000	 91.859289 
908.000000	 91.984544 
907.000000	 92.113581 
906.000000	 92.242575 
905.000000	 92.366330 
904.000000	 92.485515 
903.000000	 92.607532 
902.000000	 92.739189 
901.000000	 92.882071 
900.000000	 93.032948 
899.000000	 93.184065 
898.000000	 93.325764 
897.000000	 93.454975 
896.000000	 93.578160 
895.000000	 93.701510 
894.000000	 93.822793 
893.000000	 93.938765 
892.000000	 94.054650 
891.000000	 94.176979 
890.000000	 94.300020 
889.000000	 94.408242 
888.000000	 94.490486 
887.000000	 94.545040 
886.000000	 94.574814 
885.000000	 94.585994 
884.000000	 94.588760 
883.000000	 94.590122 
882.000000	 94.587203 
881.000000	 94.576454 
880.000000	 94.568238 
879.000000	 94.582147 
878.000000	 94.627412 
877.000000	 94.697146 
876.000000	 94.781961 
875.000000	 94.880214 
874.000000	 94.995449 
873.000000	 95.133350 
872.000000	 95.300384 
871.000000	 95.495105 
870.000000	 95.700641 
869.000000	 95.895310 
868.000000	 96.070941 
867.000000	 96.233268 
866.000000	 96.386884 
865.000000	 96.529315 
864.000000	 96.659326 
863.000000	 96.781300 
862.000000	 96.899257 
861.000000	 97.013858 
860.000000	 97.127117 
859.000000	 97.243066 
858.000000	 97.360720 
857.000000	 97.471690 
856.000000	 97.568081 
855.000000	 97.650092 
854.000000	 97.724563 
853.000000	 97.798055 
852.000000	 97.871617 
851.000000	 97.940660 
850.000000	 98.000820 
849.000000	 98.055161 
848.000000	 98.112578 
847.000000	 98.176554 
846.000000	 98.239222 
845.000000	 98.290540 
844.000000	 98.329574 
843.000000	 98.361973 
842.000000	 98.390319 
841.000000	 98.413629 
840.000000	 98.433929 
839.000000	 98.455926 
838.000000	 98.480015 
837.000000	 98.500891 
836.000000	 98.513394 
835.000000	 98.516178 
834.000000	 98.511069 
833.000000	 98.503333 
832.000000	 98.501478 
831.000000	 98.511559 
830.000000	 98.531272 
829.000000	 98.553229 
828.000000	 98.572785 
827.000000	 98.588378 
826.000000	 98.597165 
825.000000	 98.597806 
824.000000	 98.596386 
823.000000	 98.600916 
822.000000	 98.608852 
821.000000	 98.607406 
820.000000	 98.586950 
819.000000	 98.548209 
818.000000	 98.496397 
817.000000	 98.432812 
816.000000	 98.351667 
815.000000	 98.240818 
814.000000	 98.085481 
813.000000	 97.874683 
812.000000	 97.604436 
811.000000	 97.272351 
810.000000	 96.870649 
809.000000	 96.389201 
808.000000	 95.826037 
807.000000	 95.190822 
806.000000	 94.497877 
805.000000	 93.762988 
804.000000	 93.010844 
803.000000	 92.278200 
802.000000	 91.603321 
801.000000	 91.016968 
800.000000	 90.545253 
799.000000	 90.208538 
798.000000	 90.009505 
797.000000	 89.930814 
796.000000	 89.949293 
795.000000	 90.044238 
794.000000	 90.191343 
793.000000	 90.361419 
792.000000	 90.529839 
791.000000	 90.679677 
790.000000	 90.795152 
789.000000	 90.860606 
788.000000	 90.866189 
787.000000	 90.806723 
786.000000	 90.675560 
785.000000	 90.468736 
784.000000	 90.197340 
783.000000	 89.889617 
782.000000	 89.580025 
781.000000	 89.301444 
780.000000	 89.085005 
779.000000	 88.955357 
778.000000	 88.923058 
777.000000	 88.988407 
776.000000	 89.148816 
775.000000	 89.390274 
774.000000	 89.676480 
773.000000	 89.965159 
772.000000	 90.238412 
771.000000	 90.505552 
770.000000	 90.776666 
769.000000	 91.045199 
768.000000	 91.296132 
767.000000	 91.519526 
766.000000	 91.715085 
765.000000	 91.892481 
764.000000	 92.067064 
763.000000	 92.247187 
762.000000	 92.426396 
761.000000	 92.595280 
760.000000	 92.758058 
759.000000	 92.928338 
758.000000	 93.110725 
757.000000	 93.295418 
756.000000	 93.468350 
755.000000	 93.618646 
754.000000	 93.741363 
753.000000	 93.843670 
752.000000	 93.944705 
751.000000	 94.058148 
750.000000	 94.176944 
749.000000	 94.285820 
748.000000	 94.385904 
747.000000	 94.494199 
746.000000	 94.619118 
745.000000	 94.749275 
744.000000	 94.869309 
743.000000	 94.977142 
742.000000	 95.083110 
741.000000	 95.199348 
740.000000	 95.331230 
739.000000	 95.472399 
738.000000	 95.607469 
737.000000	 95.725592 
736.000000	 95.830197 
735.000000	 95.929397 
734.000000	 96.020124 
733.000000	 96.089615 
732.000000	 96.130807 
731.000000	 96.150479 
730.000000	 96.164608 
729.000000	 96.190686 
728.000000	 96.239859 
727.000000	 96.308940 
726.000000	 96.382625 
725.000000	 96.449316 
724.000000	 96.511622 
723.000000	 96.576867 
722.000000	 96.643781 
721.000000	 96.706375 
720.000000	 96.765695 
719.000000	 96.828175 
718.000000	 96.895494 
717.000000	 96.964957 
716.000000	 97.035980 
715.000000	 97.107425 
714.000000	 97.173371 
713.000000	 97.231511 
712.000000	 97.291781 
711.000000	 97.366469 
710.000000	 97.454064 
709.000000	 97.541513 
708.000000	 97.618191 
707.000000	 97.677470 
706.000000	 97.709374 
705.000000	 97.703342 
704.000000	 97.655934 
703.000000	 97.564868 
702.000000	 97.417100 
701.000000	 97.194644 
700.000000	 96.893903 
699.000000	 96.531198 
698.000000	 96.134537 
697.000000	 95.745005 
696.000000	 95.423073 
695.000000	 95.230794 
694.000000	 95.195201 
693.000000	 95.294917 
692.000000	 95.482653 
691.000000	 95.713243 
690.000000	 95.955314 
689.000000	 96.192682 
688.000000	 96.422150 
687.000000	 96.642989 
686.000000	 96.844424 
685.000000	 97.011057 
684.000000	 97.141076 
683.000000	 97.247940 
682.000000	 97.342866 
681.000000	 97.426232 
680.000000	 97.499056 
679.000000	 97.571289 
678.000000	 97.651302 
677.000000	 97.735862 
676.000000	 97.814684 
675.000000	 97.880176 
674.000000	 97.930275 
673.000000	 97.965698 
672.000000	 97.987397 
671.000000	 97.996263 
670.000000	 97.998645 
669.000000	 98.016028 
668.000000	 98.083554 
667.000000	 98.199920 
666.000000	 98.309298 
665.000000	 98.384675 
664.000000	 98.442497 
663.000000	 98.498303 
662.000000	 98.550352 
661.000000	 98.593264 
660.000000	 98.631995 
659.000000	 98.670653 
658.000000	 98.700155 
657.000000	 98.711395 
656.000000	 98.707358 
655.000000	 98.691202 
654.000000	 98.654710 
653.000000	 98.591887 
652.000000	 98.518403 
651.000000	 98.468878 
650.000000	 98.473674 

