4000.000000	98.434458 
3999.000000	98.433297 
3998.000000	98.432867 
3997.000000	98.432766 
3996.000000	98.432667 
3995.000000	98.432626 
3994.000000	98.432863 
3993.000000	98.433399 
3992.000000	98.433924 
3991.000000	98.434068 
3990.000000	98.433933 
3989.000000	98.434107 
3988.000000	98.434939 
3987.000000	98.435981 
3986.000000	98.436464 
3985.000000	98.436098 
3984.000000	98.435247 
3983.000000	98.434526 
3982.000000	98.434339 
3981.000000	98.434568 
3980.000000	98.434602 
3979.000000	98.433793 
3978.000000	98.431991 
3977.000000	98.429729 
3976.000000	98.427767 
3975.000000	98.426483 
3974.000000	98.425715 
3973.000000	98.425218 
3972.000000	98.424996 
3971.000000	98.425132 
3970.000000	98.425667 
3969.000000	98.426720 
3968.000000	98.428313 
3967.000000	98.430095 
3966.000000	98.431488 
3965.000000	98.432052 
3964.000000	98.431706 
3963.000000	98.430682 
3962.000000	98.429346 
3961.000000	98.428153 
3960.000000	98.427536 
3959.000000	98.427475 
3958.000000	98.427472 
3957.000000	98.427239 
3956.000000	98.426960 
3955.000000	98.426908 
3954.000000	98.427160 
3953.000000	98.427578 
3952.000000	98.427973 
3951.000000	98.428242 
3950.000000	98.428713 
3949.000000	98.429902 
3948.000000	98.431539 
3947.000000	98.432612 
3946.000000	98.432385 
3945.000000	98.430869 
3944.000000	98.428488 
3943.000000	98.425979 
3942.000000	98.424202 
3941.000000	98.423577 
3940.000000	98.423789 
3939.000000	98.424062 
3938.000000	98.423940 
3937.000000	98.423973 
3936.000000	98.425139 
3935.000000	98.427488 
3934.000000	98.429884 
3933.000000	98.431070 
3932.000000	98.430665 
3931.000000	98.428874 
3930.000000	98.426025 
3929.000000	98.422580 
3928.000000	98.419273 
3927.000000	98.417082 
3926.000000	98.416373 
3925.000000	98.416770 
3924.000000	98.418362 
3923.000000	98.421317 
3922.000000	98.424778 
3921.000000	98.427360 
3920.000000	98.428834 
3919.000000	98.430296 
3918.000000	98.431938 
3917.000000	98.432363 
3916.000000	98.430689 
3915.000000	98.427956 
3914.000000	98.425698 
3913.000000	98.424327 
3912.000000	98.423663 
3911.000000	98.423663 
3910.000000	98.424126 
3909.000000	98.424716 
3908.000000	98.425428 
3907.000000	98.426477 
3906.000000	98.428069 
3905.000000	98.429833 
3904.000000	98.431322 
3903.000000	98.432247 
3902.000000	98.432383 
3901.000000	98.431728 
3900.000000	98.430477 
3899.000000	98.429220 
3898.000000	98.428567 
3897.000000	98.428449 
3896.000000	98.428370 
3895.000000	98.428074 
3894.000000	98.427668 
3893.000000	98.427388 
3892.000000	98.427264 
3891.000000	98.427130 
3890.000000	98.426947 
3889.000000	98.426794 
3888.000000	98.426669 
3887.000000	98.426484 
3886.000000	98.426231 
3885.000000	98.425965 
3884.000000	98.425711 
3883.000000	98.425448 
3882.000000	98.425163 
3881.000000	98.424861 
3880.000000	98.424551 
3879.000000	98.424240 
3878.000000	98.423926 
3877.000000	98.423603 
3876.000000	98.423270 
3875.000000	98.422930 
3874.000000	98.422599 
3873.000000	98.422289 
3872.000000	98.421998 
3871.000000	98.421707 
3870.000000	98.421392 
3869.000000	98.421043 
3868.000000	98.420662 
3867.000000	98.420257 
3866.000000	98.419831 
3865.000000	98.419396 
3864.000000	98.418977 
3863.000000	98.418597 
3862.000000	98.418265 
3861.000000	98.417957 
3860.000000	98.417662 
3859.000000	98.417377 
3858.000000	98.417079 
3857.000000	98.416726 
3856.000000	98.416352 
3855.000000	98.415944 
3854.000000	98.415516 
3853.000000	98.415264 
3852.000000	98.415264 
3851.000000	98.415419 
3850.000000	98.415580 
3849.000000	98.415651 
3848.000000	98.415748 
3847.000000	98.416014 
3846.000000	98.416342 
3845.000000	98.416563 
3844.000000	98.416650 
3843.000000	98.416611 
3842.000000	98.416497 
3841.000000	98.416442 
3840.000000	98.416484 
3839.000000	98.416556 
3838.000000	98.416582 
3837.000000	98.416510 
3836.000000	98.416375 
3835.000000	98.416230 
3834.000000	98.416121 
3833.000000	98.416050 
3832.000000	98.415971 
3831.000000	98.415849 
3830.000000	98.415672 
3829.000000	98.415441 
3828.000000	98.415187 
3827.000000	98.414940 
3826.000000	98.414711 
3825.000000	98.414526 
3824.000000	98.414404 
3823.000000	98.414265 
3822.000000	98.413998 
3821.000000	98.413603 
3820.000000	98.413208 
3819.000000	98.412903 
3818.000000	98.412628 
3817.000000	98.412211 
3816.000000	98.411574 
3815.000000	98.410817 
3814.000000	98.410131 
3813.000000	98.409528 
3812.000000	98.408898 
3811.000000	98.408232 
3810.000000	98.407659 
3809.000000	98.407275 
3808.000000	98.406988 
3807.000000	98.406548 
3806.000000	98.405886 
3805.000000	98.405224 
3804.000000	98.404667 
3803.000000	98.403948 
3802.000000	98.402782 
3801.000000	98.401355 
3800.000000	98.400280 
3799.000000	98.399789 
3798.000000	98.399537 
3797.000000	98.399157 
3796.000000	98.398777 
3795.000000	98.398636 
3794.000000	98.398497 
3793.000000	98.397750 
3792.000000	98.396180 
3791.000000	98.394535 
3790.000000	98.393672 
3789.000000	98.393546 
3788.000000	98.393500 
3787.000000	98.393303 
3786.000000	98.393164 
3785.000000	98.393131 
3784.000000	98.393067 
3783.000000	98.393383 
3782.000000	98.394455 
3781.000000	98.395758 
3780.000000	98.396515 
3779.000000	98.396618 
3778.000000	98.396394 
3777.000000	98.396309 
3776.000000	98.396641 
3775.000000	98.397103 
3774.000000	98.397828 
3773.000000	98.399709 
3772.000000	98.402987 
3771.000000	98.406018 
3770.000000	98.407343 
3769.000000	98.407720 
3768.000000	98.408353 
3767.000000	98.409203 
3766.000000	98.409425 
3765.000000	98.408669 
3764.000000	98.408322 
3763.000000	98.409912 
3762.000000	98.412386 
3761.000000	98.413199 
3760.000000	98.412509 
3759.000000	98.413495 
3758.000000	98.416691 
3757.000000	98.419559 
3756.000000	98.421771 
3755.000000	98.424599 
3754.000000	98.427803 
3753.000000	98.429618 
3752.000000	98.430990 
3751.000000	98.435426 
3750.000000	98.440233 
3749.000000	98.439804 
3748.000000	98.435740 
3747.000000	98.434314 
3746.000000	98.436614 
3745.000000	98.436143 
3744.000000	98.429468 
3743.000000	98.422839 
3742.000000	98.422049 
3741.000000	98.424448 
3740.000000	98.425597 
3739.000000	98.427319 
3738.000000	98.432767 
3737.000000	98.438439 
3736.000000	98.440243 
3735.000000	98.439793 
3734.000000	98.440013 
3733.000000	98.438008 
3732.000000	98.430239 
3731.000000	98.419960 
3730.000000	98.412939 
3729.000000	98.410820 
3728.000000	98.410116 
3727.000000	98.406906 
3726.000000	98.401890 
3725.000000	98.398324 
3724.000000	98.396350 
3723.000000	98.393308 
3722.000000	98.388549 
3721.000000	98.383276 
3720.000000	98.377670 
3719.000000	98.372506 
3718.000000	98.368508 
3717.000000	98.365890 
3716.000000	98.366250 
3715.000000	98.370246 
3714.000000	98.375389 
3713.000000	98.377511 
3712.000000	98.375785 
3711.000000	98.371910 
3710.000000	98.365614 
3709.000000	98.356649 
3708.000000	98.345972 
3707.000000	98.334586 
3706.000000	98.323721 
3705.000000	98.314376 
3704.000000	98.306468 
3703.000000	98.299162 
3702.000000	98.292060 
3701.000000	98.284446 
3700.000000	98.275161 
3699.000000	98.264826 
3698.000000	98.254895 
3697.000000	98.245756 
3696.000000	98.238823 
3695.000000	98.236010 
3694.000000	98.235541 
3693.000000	98.232746 
3692.000000	98.225936 
3691.000000	98.218463 
3690.000000	98.213991 
3689.000000	98.211053 
3688.000000	98.205319 
3687.000000	98.197258 
3686.000000	98.191387 
3685.000000	98.188974 
3684.000000	98.188127 
3683.000000	98.187818 
3682.000000	98.187933 
3681.000000	98.186331 
3680.000000	98.180385 
3679.000000	98.171645 
3678.000000	98.165636 
3677.000000	98.163762 
3676.000000	98.161871 
3675.000000	98.157913 
3674.000000	98.153336 
3673.000000	98.149758 
3672.000000	98.146009 
3671.000000	98.139341 
3670.000000	98.131302 
3669.000000	98.125315 
3668.000000	98.120776 
3667.000000	98.115596 
3666.000000	98.110254 
3665.000000	98.106369 
3664.000000	98.103973 
3663.000000	98.101484 
3662.000000	98.097207 
3661.000000	98.091131 
3660.000000	98.085496 
3659.000000	98.082491 
3658.000000	98.082109 
3657.000000	98.081967 
3656.000000	98.080120 
3655.000000	98.078148 
3654.000000	98.078903 
3653.000000	98.082109 
3652.000000	98.083776 
3651.000000	98.081208 
3650.000000	98.078073 
3649.000000	98.078177 
3648.000000	98.077831 
3647.000000	98.073046 
3646.000000	98.065982 
3645.000000	98.060432 
3644.000000	98.057253 
3643.000000	98.055221 
3642.000000	98.052353 
3641.000000	98.047872 
3640.000000	98.042468 
3639.000000	98.037180 
3638.000000	98.033440 
3637.000000	98.032494 
3636.000000	98.034153 
3635.000000	98.035549 
3634.000000	98.034258 
3633.000000	98.032774 
3632.000000	98.035715 
3631.000000	98.043268 
3630.000000	98.049859 
3629.000000	98.052411 
3628.000000	98.051580 
3627.000000	98.048673 
3626.000000	98.044438 
3625.000000	98.038351 
3624.000000	98.030555 
3623.000000	98.022396 
3622.000000	98.014576 
3621.000000	98.006030 
3620.000000	97.998659 
3619.000000	97.998013 
3618.000000	98.004936 
3617.000000	98.014372 
3616.000000	98.023282 
3615.000000	98.031781 
3614.000000	98.041355 
3613.000000	98.053724 
3612.000000	98.068648 
3611.000000	98.083241 
3610.000000	98.093871 
3609.000000	98.098701 
3608.000000	98.099217 
3607.000000	98.098077 
3606.000000	98.095670 
3605.000000	98.091368 
3604.000000	98.085593 
3603.000000	98.079736 
3602.000000	98.075680 
3601.000000	98.074345 
3600.000000	98.076619 
3599.000000	98.083223 
3598.000000	98.091859 
3597.000000	98.098259 
3596.000000	98.101014 
3595.000000	98.102088 
3594.000000	98.104550 
3593.000000	98.110033 
3592.000000	98.117023 
3591.000000	98.122877 
3590.000000	98.125055 
3589.000000	98.122553 
3588.000000	98.117652 
3587.000000	98.113759 
3586.000000	98.110757 
3585.000000	98.107305 
3584.000000	98.103674 
3583.000000	98.101130 
3582.000000	98.100209 
3581.000000	98.100283 
3580.000000	98.100371 
3579.000000	98.100197 
3578.000000	98.100307 
3577.000000	98.101353 
3576.000000	98.103553 
3575.000000	98.106183 
3574.000000	98.107639 
3573.000000	98.107210 
3572.000000	98.105812 
3571.000000	98.105379 
3570.000000	98.107348 
3569.000000	98.110931 
3568.000000	98.114149 
3567.000000	98.116204 
3566.000000	98.116768 
3565.000000	98.115786 
3564.000000	98.114217 
3563.000000	98.112571 
3562.000000	98.110041 
3561.000000	98.105950 
3560.000000	98.100808 
3559.000000	98.096169 
3558.000000	98.093012 
3557.000000	98.090933 
3556.000000	98.089195 
3555.000000	98.088144 
3554.000000	98.088683 
3553.000000	98.090895 
3552.000000	98.093556 
3551.000000	98.095287 
3550.000000	98.096070 
3549.000000	98.096942 
3548.000000	98.098563 
3547.000000	98.100689 
3546.000000	98.102163 
3545.000000	98.101915 
3544.000000	98.100237 
3543.000000	98.098682 
3542.000000	98.098459 
3541.000000	98.099284 
3540.000000	98.099788 
3539.000000	98.099114 
3538.000000	98.097816 
3537.000000	98.097272 
3536.000000	98.098271 
3535.000000	98.100131 
3534.000000	98.101603 
3533.000000	98.102177 
3532.000000	98.102325 
3531.000000	98.102733 
3530.000000	98.103657 
3529.000000	98.105119 
3528.000000	98.107073 
3527.000000	98.109222 
3526.000000	98.110892 
3525.000000	98.111505 
3524.000000	98.111210 
3523.000000	98.110836 
3522.000000	98.111099 
3521.000000	98.112114 
3520.000000	98.113588 
3519.000000	98.115166 
3518.000000	98.116560 
3517.000000	98.117587 
3516.000000	98.118305 
3515.000000	98.118999 
3514.000000	98.120067 
3513.000000	98.121738 
3512.000000	98.123869 
3511.000000	98.126055 
3510.000000	98.127967 
3509.000000	98.129462 
3508.000000	98.130487 
3507.000000	98.131087 
3506.000000	98.131510 
3505.000000	98.132236 
3504.000000	98.133693 
3503.000000	98.135849 
3502.000000	98.138088 
3501.000000	98.139726 
3500.000000	98.140583 
3499.000000	98.140934 
3498.000000	98.141227 
3497.000000	98.141838 
3496.000000	98.142925 
3495.000000	98.144277 
3494.000000	98.145381 
3493.000000	98.145859 
3492.000000	98.145796 
3491.000000	98.145619 
3490.000000	98.145746 
3489.000000	98.146320 
3488.000000	98.147219 
3487.000000	98.148179 
3486.000000	98.148906 
3485.000000	98.149234 
3484.000000	98.149257 
3483.000000	98.149304 
3482.000000	98.149674 
3481.000000	98.150366 
3480.000000	98.151106 
3479.000000	98.151655 
3478.000000	98.152037 
3477.000000	98.152407 
3476.000000	98.152773 
3475.000000	98.152941 
3474.000000	98.152785 
3473.000000	98.152449 
3472.000000	98.152229 
3471.000000	98.152254 
3470.000000	98.152414 
3469.000000	98.152523 
3468.000000	98.152454 
3467.000000	98.152151 
3466.000000	98.151627 
3465.000000	98.151007 
3464.000000	98.150513 
3463.000000	98.150292 
3462.000000	98.150295 
3461.000000	98.150319 
3460.000000	98.150197 
3459.000000	98.149937 
3458.000000	98.149621 
3457.000000	98.149302 
3456.000000	98.148978 
3455.000000	98.148641 
3454.000000	98.148310 
3453.000000	98.148004 
3452.000000	98.147700 
3451.000000	98.147353 
3450.000000	98.146941 
3449.000000	98.146506 
3448.000000	98.146137 
3447.000000	98.145885 
3446.000000	98.145691 
3445.000000	98.145436 
3444.000000	98.145075 
3443.000000	98.144695 
3442.000000	98.144414 
3441.000000	98.144263 
3440.000000	98.144144 
3439.000000	98.143914 
3438.000000	98.143515 
3437.000000	98.143003 
3436.000000	98.142485 
3435.000000	98.142028 
3434.000000	98.141648 
3433.000000	98.141329 
3432.000000	98.141054 
3431.000000	98.140803 
3430.000000	98.140530 
3429.000000	98.140178 
3428.000000	98.139729 
3427.000000	98.139239 
3426.000000	98.138785 
3425.000000	98.138422 
3424.000000	98.138164 
3423.000000	98.138014 
3422.000000	98.137961 
3421.000000	98.137958 
3420.000000	98.137896 
3419.000000	98.137665 
3418.000000	98.137273 
3417.000000	98.136887 
3416.000000	98.136706 
3415.000000	98.136783 
3414.000000	98.136992 
3413.000000	98.137156 
3412.000000	98.137197 
3411.000000	98.137149 
3410.000000	98.137095 
3409.000000	98.137085 
3408.000000	98.137106 
3407.000000	98.137097 
3406.000000	98.137029 
3405.000000	98.137006 
3404.000000	98.137180 
3403.000000	98.137578 
3402.000000	98.138040 
3401.000000	98.138359 
3400.000000	98.138494 
3399.000000	98.138560 
3398.000000	98.138703 
3397.000000	98.138964 
3396.000000	98.139291 
3395.000000	98.139640 
3394.000000	98.140018 
3393.000000	98.140455 
3392.000000	98.140932 
3391.000000	98.141374 
3390.000000	98.141727 
3389.000000	98.142012 
3388.000000	98.142297 
3387.000000	98.142643 
3386.000000	98.143070 
3385.000000	98.143576 
3384.000000	98.144145 
3383.000000	98.144744 
3382.000000	98.145335 
3381.000000	98.145901 
3380.000000	98.146460 
3379.000000	98.147036 
3378.000000	98.147634 
3377.000000	98.148239 
3376.000000	98.148818 
3375.000000	98.149333 
3374.000000	98.149788 
3373.000000	98.150283 
3372.000000	98.150935 
3371.000000	98.151715 
3370.000000	98.152437 
3369.000000	98.152982 
3368.000000	98.153464 
3367.000000	98.154048 
3366.000000	98.154696 
3365.000000	98.155264 
3364.000000	98.155810 
3363.000000	98.156570 
3362.000000	98.157558 
3361.000000	98.158429 
3360.000000	98.158912 
3359.000000	98.159257 
3358.000000	98.159997 
3357.000000	98.161258 
3356.000000	98.162526 
3355.000000	98.163189 
3354.000000	98.163141 
3353.000000	98.162830 
3352.000000	98.162813 
3351.000000	98.163266 
3350.000000	98.163993 
3349.000000	98.164830 
3348.000000	98.165902 
3347.000000	98.167426 
3346.000000	98.169276 
3345.000000	98.170877 
3344.000000	98.171641 
3343.000000	98.171487 
3342.000000	98.170939 
3341.000000	98.170693 
3340.000000	98.171011 
3339.000000	98.171496 
3338.000000	98.171557 
3337.000000	98.171097 
3336.000000	98.170645 
3335.000000	98.170739 
3334.000000	98.171336 
3333.000000	98.171943 
3332.000000	98.172169 
3331.000000	98.171988 
3330.000000	98.171565 
3329.000000	98.171089 
3328.000000	98.170805 
3327.000000	98.170960 
3326.000000	98.171552 
3325.000000	98.172196 
3324.000000	98.172427 
3323.000000	98.172181 
3322.000000	98.171914 
3321.000000	98.172181 
3320.000000	98.173111 
3319.000000	98.174330 
3318.000000	98.175351 
3317.000000	98.175984 
3316.000000	98.176400 
3315.000000	98.176901 
3314.000000	98.177696 
3313.000000	98.178776 
3312.000000	98.179874 
3311.000000	98.180628 
3310.000000	98.180926 
3309.000000	98.181027 
3308.000000	98.181287 
3307.000000	98.181756 
3306.000000	98.182164 
3305.000000	98.182291 
3304.000000	98.182213 
3303.000000	98.182181 
3302.000000	98.182382 
3301.000000	98.182812 
3300.000000	98.183352 
3299.000000	98.183862 
3298.000000	98.184253 
3297.000000	98.184535 
3296.000000	98.184783 
3295.000000	98.185075 
3294.000000	98.185434 
3293.000000	98.185836 
3292.000000	98.186234 
3291.000000	98.186591 
3290.000000	98.186905 
3289.000000	98.187222 
3288.000000	98.187587 
3287.000000	98.187995 
3286.000000	98.188397 
3285.000000	98.188759 
3284.000000	98.189099 
3283.000000	98.189461 
3282.000000	98.189866 
3281.000000	98.190298 
3280.000000	98.190715 
3279.000000	98.191084 
3278.000000	98.191405 
3277.000000	98.191712 
3276.000000	98.192046 
3275.000000	98.192419 
3274.000000	98.192793 
3273.000000	98.193115 
3272.000000	98.193365 
3271.000000	98.193564 
3270.000000	98.193752 
3269.000000	98.193988 
3268.000000	98.194343 
3267.000000	98.194820 
3266.000000	98.195299 
3265.000000	98.195646 
3264.000000	98.195869 
3263.000000	98.196089 
3262.000000	98.196345 
3261.000000	98.196533 
3260.000000	98.196562 
3259.000000	98.196516 
3258.000000	98.196639 
3257.000000	98.197169 
3256.000000	98.198169 
3255.000000	98.199409 
3254.000000	98.200439 
3253.000000	98.200979 
3252.000000	98.201175 
3251.000000	98.201445 
3250.000000	98.202051 
3249.000000	98.202921 
3248.000000	98.203877 
3247.000000	98.204809 
3246.000000	98.205557 
3245.000000	98.205861 
3244.000000	98.205624 
3243.000000	98.205157 
3242.000000	98.204973 
3241.000000	98.205320 
3240.000000	98.206034 
3239.000000	98.206832 
3238.000000	98.207657 
3237.000000	98.208699 
3236.000000	98.210109 
3235.000000	98.211724 
3234.000000	98.213049 
3233.000000	98.213573 
3232.000000	98.213186 
3231.000000	98.212244 
3230.000000	98.211290 
3229.000000	98.210707 
3228.000000	98.210608 
3227.000000	98.210930 
3226.000000	98.211526 
3225.000000	98.212264 
3224.000000	98.213143 
3223.000000	98.214231 
3222.000000	98.215403 
3221.000000	98.216277 
3220.000000	98.216539 
3219.000000	98.216321 
3218.000000	98.216124 
3217.000000	98.216376 
3216.000000	98.217109 
3215.000000	98.218077 
3214.000000	98.219018 
3213.000000	98.219770 
3212.000000	98.220271 
3211.000000	98.220537 
3210.000000	98.220583 
3209.000000	98.220306 
3208.000000	98.219524 
3207.000000	98.218272 
3206.000000	98.217007 
3205.000000	98.216363 
3204.000000	98.216653 
3203.000000	98.217679 
3202.000000	98.218994 
3201.000000	98.220275 
3200.000000	98.221376 
3199.000000	98.222144 
3198.000000	98.222381 
3197.000000	98.222044 
3196.000000	98.221389 
3195.000000	98.220890 
3194.000000	98.220981 
3193.000000	98.221838 
3192.000000	98.223302 
3191.000000	98.224963 
3190.000000	98.226451 
3189.000000	98.227652 
3188.000000	98.228614 
3187.000000	98.229255 
3186.000000	98.229312 
3185.000000	98.228731 
3184.000000	98.227942 
3183.000000	98.227603 
3182.000000	98.227976 
3181.000000	98.228748 
3180.000000	98.229462 
3179.000000	98.230027 
3178.000000	98.230691 
3177.000000	98.231619 
3176.000000	98.232679 
3175.000000	98.233575 
3174.000000	98.234081 
3173.000000	98.234151 
3172.000000	98.233957 
3171.000000	98.233841 
3170.000000	98.234096 
3169.000000	98.234699 
3168.000000	98.235344 
3167.000000	98.235760 
3166.000000	98.235993 
3165.000000	98.236320 
3164.000000	98.236921 
3163.000000	98.237721 
3162.000000	98.238506 
3161.000000	98.239133 
3160.000000	98.239634 
3159.000000	98.240198 
3158.000000	98.241028 
3157.000000	98.242130 
3156.000000	98.243224 
3155.000000	98.243971 
3154.000000	98.244337 
3153.000000	98.244661 
3152.000000	98.245284 
3151.000000	98.246112 
3150.000000	98.246669 
3149.000000	98.246611 
3148.000000	98.246129 
3147.000000	98.245830 
3146.000000	98.246170 
3145.000000	98.247143 
3144.000000	98.248497 
3143.000000	98.250088 
3142.000000	98.251865 
3141.000000	98.253594 
3140.000000	98.254872 
3139.000000	98.255507 
3138.000000	98.255793 
3137.000000	98.256255 
3136.000000	98.257141 
3135.000000	98.258281 
3134.000000	98.259394 
3133.000000	98.260348 
3132.000000	98.261082 
3131.000000	98.261514 
3130.000000	98.261694 
3129.000000	98.261927 
3128.000000	98.262544 
3127.000000	98.263579 
3126.000000	98.264792 
3125.000000	98.265955 
3124.000000	98.267014 
3123.000000	98.267999 
3122.000000	98.268892 
3121.000000	98.269634 
3120.000000	98.270191 
3119.000000	98.270583 
3118.000000	98.270945 
3117.000000	98.271525 
3116.000000	98.272477 
3115.000000	98.273646 
3114.000000	98.274669 
3113.000000	98.275349 
3112.000000	98.275849 
3111.000000	98.276496 
3110.000000	98.277435 
3109.000000	98.278486 
3108.000000	98.279290 
3107.000000	98.279592 
3106.000000	98.279457 
3105.000000	98.279243 
3104.000000	98.279265 
3103.000000	98.279513 
3102.000000	98.279767 
3101.000000	98.279987 
3100.000000	98.280430 
3099.000000	98.281241 
3098.000000	98.282145 
3097.000000	98.282731 
3096.000000	98.283004 
3095.000000	98.283416 
3094.000000	98.284346 
3093.000000	98.285689 
3092.000000	98.286976 
3091.000000	98.287743 
3090.000000	98.287747 
3089.000000	98.287066 
3088.000000	98.286201 
3087.000000	98.285919 
3086.000000	98.286794 
3085.000000	98.288816 
3084.000000	98.291306 
3083.000000	98.293232 
3082.000000	98.293754 
3081.000000	98.292899 
3080.000000	98.291858 
3079.000000	98.292109 
3078.000000	98.293838 
3077.000000	98.295379 
3076.000000	98.294693 
3075.000000	98.291501 
3074.000000	98.287850 
3073.000000	98.286233 
3072.000000	98.287179 
3071.000000	98.288962 
3070.000000	98.289731 
3069.000000	98.289567 
3068.000000	98.289877 
3067.000000	98.291185 
3066.000000	98.292556 
3065.000000	98.293252 
3064.000000	98.293691 
3063.000000	98.294088 
3062.000000	98.293298 
3061.000000	98.290345 
3060.000000	98.286502 
3059.000000	98.284522 
3058.000000	98.285653 
3057.000000	98.288297 
3056.000000	98.289848 
3055.000000	98.289077 
3054.000000	98.286636 
3053.000000	98.283855 
3052.000000	98.281540 
3051.000000	98.279576 
3050.000000	98.277277 
3049.000000	98.274269 
3048.000000	98.271099 
3047.000000	98.268905 
3046.000000	98.268403 
3045.000000	98.269193 
3044.000000	98.270086 
3043.000000	98.270146 
3042.000000	98.269300 
3041.000000	98.267874 
3040.000000	98.265522 
3039.000000	98.261308 
3038.000000	98.255017 
3037.000000	98.247665 
3036.000000	98.240096 
3035.000000	98.231707 
3034.000000	98.221768 
3033.000000	98.211475 
3032.000000	98.203028 
3031.000000	98.196439 
3030.000000	98.188906 
3029.000000	98.178387 
3028.000000	98.166359 
3027.000000	98.155765 
3026.000000	98.147062 
3025.000000	98.137906 
3024.000000	98.126442 
3023.000000	98.113322 
3022.000000	98.100335 
3021.000000	98.088459 
3020.000000	98.077697 
3019.000000	98.067680 
3018.000000	98.057540 
3017.000000	98.045900 
3016.000000	98.031926 
3015.000000	98.016347 
3014.000000	98.000884 
3013.000000	97.986466 
3012.000000	97.972119 
3011.000000	97.955813 
3010.000000	97.936691 
3009.000000	97.916378 
3008.000000	97.897676 
3007.000000	97.881768 
3006.000000	97.867260 
3005.000000	97.852304 
3004.000000	97.836833 
3003.000000	97.821795 
3002.000000	97.806874 
3001.000000	97.790532 
3000.000000	97.772526 
2999.000000	97.755055 
2998.000000	97.740807 
2997.000000	97.730800 
2996.000000	97.724219 
2995.000000	97.718769 
2994.000000	97.710093 
2993.000000	97.692619 
2992.000000	97.664008 
2991.000000	97.629463 
2990.000000	97.599759 
2989.000000	97.583405 
2988.000000	97.581091 
2987.000000	97.587406 
2986.000000	97.596265 
2985.000000	97.604082 
2984.000000	97.609448 
2983.000000	97.612507 
2982.000000	97.614804 
2981.000000	97.617755 
2980.000000	97.620490 
2979.000000	97.620538 
2978.000000	97.617291 
2977.000000	97.613335 
2976.000000	97.611308 
2975.000000	97.610715 
2974.000000	97.609544 
2973.000000	97.608383 
2972.000000	97.611007 
2971.000000	97.620482 
2970.000000	97.635917 
2969.000000	97.653475 
2968.000000	97.669767 
2967.000000	97.684049 
2966.000000	97.697960 
2965.000000	97.713766 
2964.000000	97.732249 
2963.000000	97.751633 
2962.000000	97.768700 
2961.000000	97.781355 
2960.000000	97.790089 
2959.000000	97.797156 
2958.000000	97.804934 
2957.000000	97.815053 
2956.000000	97.827973 
2955.000000	97.842404 
2954.000000	97.855548 
2953.000000	97.865063 
2952.000000	97.871175 
2951.000000	97.876564 
2950.000000	97.883920 
2949.000000	97.893716 
2948.000000	97.904384 
2947.000000	97.914228 
2946.000000	97.922872 
2945.000000	97.930920 
2944.000000	97.938682 
2943.000000	97.945776 
2942.000000	97.952031 
2941.000000	97.958186 
2940.000000	97.965305 
2939.000000	97.973723 
2938.000000	97.982946 
2937.000000	97.992557 
2936.000000	98.002934 
2935.000000	98.015098 
2934.000000	98.029885 
2933.000000	98.046874 
2932.000000	98.063651 
2931.000000	98.076523 
2930.000000	98.082881 
2929.000000	98.083290 
2928.000000	98.081181 
2927.000000	98.080260 
2926.000000	98.082169 
2925.000000	98.086059 
2924.000000	98.089686 
2923.000000	98.090904 
2922.000000	98.088795 
2921.000000	98.083743 
2920.000000	98.076275 
2919.000000	98.066098 
2918.000000	98.052754 
2917.000000	98.036931 
2916.000000	98.020315 
2915.000000	98.004091 
2914.000000	97.988345 
2913.000000	97.973102 
2912.000000	97.959127 
2911.000000	97.947256 
2910.000000	97.937458 
2909.000000	97.929074 
2908.000000	97.921724 
2907.000000	97.915101 
2906.000000	97.907786 
2905.000000	97.896891 
2904.000000	97.880211 
2903.000000	97.859855 
2902.000000	97.843510 
2901.000000	97.839551 
2900.000000	97.850999 
2899.000000	97.872015 
2898.000000	97.892226 
2897.000000	97.904407 
2896.000000	97.908286 
2895.000000	97.908120 
2894.000000	97.908257 
2893.000000	97.910536 
2892.000000	97.914173 
2891.000000	97.917016 
2890.000000	97.917453 
2889.000000	97.915689 
2888.000000	97.913224 
2887.000000	97.911323 
2886.000000	97.910636 
2885.000000	97.911968 
2884.000000	97.916388 
2883.000000	97.924245 
2882.000000	97.934774 
2881.000000	97.946878 
2880.000000	97.959761 
2879.000000	97.972870 
2878.000000	97.985920 
2877.000000	97.998987 
2876.000000	98.011822 
2875.000000	98.023266 
2874.000000	98.032412 
2873.000000	98.040269 
2872.000000	98.048827 
2871.000000	98.058083 
2870.000000	98.065585 
2869.000000	98.069910 
2868.000000	98.073482 
2867.000000	98.080719 
2866.000000	98.093954 
2865.000000	98.112123 
2864.000000	98.132819 
2863.000000	98.154478 
2862.000000	98.176687 
2861.000000	98.199384 
2860.000000	98.222205 
2859.000000	98.244468 
2858.000000	98.265676 
2857.000000	98.285761 
2856.000000	98.304162 
2855.000000	98.318896 
2854.000000	98.327893 
2853.000000	98.331543 
2852.000000	98.332563 
2851.000000	98.332801 
2850.000000	98.331215 
2849.000000	98.325823 
2848.000000	98.316833 
2847.000000	98.307147 
2846.000000	98.300289 
2845.000000	98.298341 
2844.000000	98.301038 
2843.000000	98.305986 
2842.000000	98.310186 
2841.000000	98.312123 
2840.000000	98.312256 
2839.000000	98.311441 
2838.000000	98.309841 
2837.000000	98.307805 
2836.000000	98.306578 
2835.000000	98.307063 
2834.000000	98.308643 
2833.000000	98.310210 
2832.000000	98.311641 
2831.000000	98.313192 
2830.000000	98.314189 
2829.000000	98.313777 
2828.000000	98.312667 
2827.000000	98.312710 
2826.000000	98.314628 
2825.000000	98.317286 
2824.000000	98.319456 
2823.000000	98.321336 
2822.000000	98.323917 
2821.000000	98.327442 
2820.000000	98.330867 
2819.000000	98.332620 
2818.000000	98.331876 
2817.000000	98.329399 
2816.000000	98.327118 
2815.000000	98.326594 
2814.000000	98.327986 
2813.000000	98.330558 
2812.000000	98.333709 
2811.000000	98.337078 
2810.000000	98.340091 
2809.000000	98.342124 
2808.000000	98.343046 
2807.000000	98.343236 
2806.000000	98.343124 
2805.000000	98.342904 
2804.000000	98.342588 
2803.000000	98.342236 
2802.000000	98.342129 
2801.000000	98.342611 
2800.000000	98.343681 
2799.000000	98.344914 
2798.000000	98.345883 
2797.000000	98.346577 
2796.000000	98.347298 
2795.000000	98.348243 
2794.000000	98.349308 
2793.000000	98.350311 
2792.000000	98.351226 
2791.000000	98.352052 
2790.000000	98.352649 
2789.000000	98.352891 
2788.000000	98.352885 
2787.000000	98.352905 
2786.000000	98.353151 
2785.000000	98.353682 
2784.000000	98.354488 
2783.000000	98.355483 
2782.000000	98.356464 
2781.000000	98.357244 
2780.000000	98.357834 
2779.000000	98.358410 
2778.000000	98.359116 
2777.000000	98.359928 
2776.000000	98.360710 
2775.000000	98.361352 
2774.000000	98.361866 
2773.000000	98.362363 
2772.000000	98.362949 
2771.000000	98.363632 
2770.000000	98.364334 
2769.000000	98.364982 
2768.000000	98.365576 
2767.000000	98.366161 
2766.000000	98.366763 
2765.000000	98.367368 
2764.000000	98.367954 
2763.000000	98.368527 
2762.000000	98.369126 
2761.000000	98.369798 
2760.000000	98.370553 
2759.000000	98.371346 
2758.000000	98.372113 
2757.000000	98.372833 
2756.000000	98.373535 
2755.000000	98.374250 
2754.000000	98.374978 
2753.000000	98.375701 
2752.000000	98.376414 
2751.000000	98.377123 
2750.000000	98.377828 
2749.000000	98.378518 
2748.000000	98.379189 
2747.000000	98.379850 
2746.000000	98.380519 
2745.000000	98.381205 
2744.000000	98.381905 
2743.000000	98.382612 
2742.000000	98.383315 
2741.000000	98.384000 
2740.000000	98.384644 
2739.000000	98.385238 
2738.000000	98.385799 
2737.000000	98.386375 
2736.000000	98.386992 
2735.000000	98.387643 
2734.000000	98.388280 
2733.000000	98.388873 
2732.000000	98.389438 
2731.000000	98.390009 
2730.000000	98.390594 
2729.000000	98.391180 
2728.000000	98.391778 
2727.000000	98.392402 
2726.000000	98.393016 
2725.000000	98.393559 
2724.000000	98.394027 
2723.000000	98.394494 
2722.000000	98.395036 
2721.000000	98.395636 
2720.000000	98.396188 
2719.000000	98.396589 
2718.000000	98.396826 
2717.000000	98.396995 
2716.000000	98.397236 
2715.000000	98.397590 
2714.000000	98.397953 
2713.000000	98.398176 
2712.000000	98.398235 
2711.000000	98.398281 
2710.000000	98.398484 
2709.000000	98.398884 
2708.000000	98.399413 
2707.000000	98.399985 
2706.000000	98.400503 
2705.000000	98.400843 
2704.000000	98.400940 
2703.000000	98.400928 
2702.000000	98.401088 
2701.000000	98.401565 
2700.000000	98.402195 
2699.000000	98.402660 
2698.000000	98.402809 
2697.000000	98.402758 
2696.000000	98.402708 
2695.000000	98.402744 
2694.000000	98.402846 
2693.000000	98.402965 
2692.000000	98.403014 
2691.000000	98.402887 
2690.000000	98.402631 
2689.000000	98.402487 
2688.000000	98.402578 
2687.000000	98.402641 
2686.000000	98.402358 
2685.000000	98.401930 
2684.000000	98.401994 
2683.000000	98.402811 
2682.000000	98.403758 
2681.000000	98.403928 
2680.000000	98.403051 
2679.000000	98.401612 
2678.000000	98.400304 
2677.000000	98.399511 
2676.000000	98.399262 
2675.000000	98.399374 
2674.000000	98.399552 
2673.000000	98.399540 
2672.000000	98.399251 
2671.000000	98.398714 
2670.000000	98.398011 
2669.000000	98.397384 
2668.000000	98.397212 
2667.000000	98.397588 
2666.000000	98.398000 
2665.000000	98.397682 
2664.000000	98.396287 
2663.000000	98.394074 
2662.000000	98.391578 
2661.000000	98.389296 
2660.000000	98.387618 
2659.000000	98.386730 
2658.000000	98.386428 
2657.000000	98.386164 
2656.000000	98.385415 
2655.000000	98.383985 
2654.000000	98.382073 
2653.000000	98.380200 
2652.000000	98.379015 
2651.000000	98.378863 
2650.000000	98.379420 
2649.000000	98.379813 
2648.000000	98.379292 
2647.000000	98.377797 
2646.000000	98.375920 
2645.000000	98.374405 
2644.000000	98.373674 
2643.000000	98.373682 
2642.000000	98.374005 
2641.000000	98.374016 
2640.000000	98.373127 
2639.000000	98.371122 
2638.000000	98.368428 
2637.000000	98.365956 
2636.000000	98.364471 
2635.000000	98.364149 
2634.000000	98.364724 
2633.000000	98.365891 
2632.000000	98.367439 
2631.000000	98.369093 
2630.000000	98.370510 
2629.000000	98.371435 
2628.000000	98.371719 
2627.000000	98.371288 
2626.000000	98.370291 
2625.000000	98.369160 
2624.000000	98.368297 
2623.000000	98.367808 
2622.000000	98.367695 
2621.000000	98.368079 
2620.000000	98.368942 
2619.000000	98.369857 
2618.000000	98.370314 
2617.000000	98.370199 
2616.000000	98.369648 
2615.000000	98.368688 
2614.000000	98.367441 
2613.000000	98.366441 
2612.000000	98.366153 
2611.000000	98.366298 
2610.000000	98.366222 
2609.000000	98.365807 
2608.000000	98.365460 
2607.000000	98.365337 
2606.000000	98.365246 
2605.000000	98.365295 
2604.000000	98.365875 
2603.000000	98.366963 
2602.000000	98.368022 
2601.000000	98.368652 
2600.000000	98.368934 
2599.000000	98.369076 
2598.000000	98.369153 
2597.000000	98.369250 
2596.000000	98.369514 
2595.000000	98.369954 
2594.000000	98.370396 
2593.000000	98.370696 
2592.000000	98.370861 
2591.000000	98.370966 
2590.000000	98.371088 
2589.000000	98.371307 
2588.000000	98.371670 
2587.000000	98.372134 
2586.000000	98.372593 
2585.000000	98.372972 
2584.000000	98.373277 
2583.000000	98.373534 
2582.000000	98.373754 
2581.000000	98.373963 
2580.000000	98.374200 
2579.000000	98.374488 
2578.000000	98.374824 
2577.000000	98.375197 
2576.000000	98.375591 
2575.000000	98.375983 
2574.000000	98.376364 
2573.000000	98.376741 
2572.000000	98.377118 
2571.000000	98.377491 
2570.000000	98.377855 
2569.000000	98.378208 
2568.000000	98.378556 
2567.000000	98.378904 
2566.000000	98.379247 
2565.000000	98.379576 
2564.000000	98.379888 
2563.000000	98.380182 
2562.000000	98.380460 
2561.000000	98.380720 
2560.000000	98.380961 
2559.000000	98.381180 
2558.000000	98.381375 
2557.000000	98.381542 
2556.000000	98.381682 
2555.000000	98.381801 
2554.000000	98.381908 
2553.000000	98.382008 
2552.000000	98.382108 
2551.000000	98.382209 
2550.000000	98.382305 
2549.000000	98.382387 
2548.000000	98.382448 
2547.000000	98.382488 
2546.000000	98.382506 
2545.000000	98.382504 
2544.000000	98.382484 
2543.000000	98.382451 
2542.000000	98.382409 
2541.000000	98.382357 
2540.000000	98.382293 
2539.000000	98.382215 
2538.000000	98.382119 
2537.000000	98.382004 
2536.000000	98.381871 
2535.000000	98.381726 
2534.000000	98.381570 
2533.000000	98.381404 
2532.000000	98.381229 
2531.000000	98.381047 
2530.000000	98.380860 
2529.000000	98.380672 
2528.000000	98.380489 
2527.000000	98.380320 
2526.000000	98.380167 
2525.000000	98.380031 
2524.000000	98.379908 
2523.000000	98.379796 
2522.000000	98.379695 
2521.000000	98.379599 
2520.000000	98.379505 
2519.000000	98.379418 
2518.000000	98.379340 
2517.000000	98.379266 
2516.000000	98.379201 
2515.000000	98.379176 
2514.000000	98.379216 
2513.000000	98.379323 
2512.000000	98.379460 
2511.000000	98.379562 
2510.000000	98.379580 
2509.000000	98.379505 
2508.000000	98.379418 
2507.000000	98.379416 
2506.000000	98.379509 
2505.000000	98.379612 
2504.000000	98.379658 
2503.000000	98.379678 
2502.000000	98.379710 
2501.000000	98.379725 
2500.000000	98.379722 
2499.000000	98.379815 
2498.000000	98.380106 
2497.000000	98.380542 
2496.000000	98.380964 
2495.000000	98.381258 
2494.000000	98.381423 
2493.000000	98.381548 
2492.000000	98.381770 
2491.000000	98.382177 
2490.000000	98.382710 
2489.000000	98.383185 
2488.000000	98.383475 
2487.000000	98.383643 
2486.000000	98.383851 
2485.000000	98.384167 
2484.000000	98.384486 
2483.000000	98.384641 
2482.000000	98.384565 
2481.000000	98.384346 
2480.000000	98.384189 
2479.000000	98.384247 
2478.000000	98.384499 
2477.000000	98.384771 
2476.000000	98.384889 
2475.000000	98.384836 
2474.000000	98.384730 
2473.000000	98.384693 
2472.000000	98.384756 
2471.000000	98.384859 
2470.000000	98.384917 
2469.000000	98.384911 
2468.000000	98.384891 
2467.000000	98.384869 
2466.000000	98.384749 
2465.000000	98.384450 
2464.000000	98.384069 
2463.000000	98.383829 
2462.000000	98.383831 
2461.000000	98.383974 
2460.000000	98.384078 
2459.000000	98.384061 
2458.000000	98.383957 
2457.000000	98.383832 
2456.000000	98.383729 
2455.000000	98.383638 
2454.000000	98.383469 
2453.000000	98.383117 
2452.000000	98.382618 
2451.000000	98.382214 
2450.000000	98.382143 
2449.000000	98.382434 
2448.000000	98.382924 
2447.000000	98.383428 
2446.000000	98.383843 
2445.000000	98.384082 
2444.000000	98.384098 
2443.000000	98.383940 
2442.000000	98.383732 
2441.000000	98.383564 
2440.000000	98.383469 
2439.000000	98.383476 
2438.000000	98.383612 
2437.000000	98.383826 
2436.000000	98.383963 
2435.000000	98.383898 
2434.000000	98.383696 
2433.000000	98.383646 
2432.000000	98.384034 
2431.000000	98.384852 
2430.000000	98.385759 
2429.000000	98.386371 
2428.000000	98.386597 
2427.000000	98.386627 
2426.000000	98.386686 
2425.000000	98.386954 
2424.000000	98.387582 
2423.000000	98.388568 
2422.000000	98.389567 
2421.000000	98.390102 
2420.000000	98.390084 
2419.000000	98.389897 
2418.000000	98.389839 
2417.000000	98.389794 
2416.000000	98.389687 
2415.000000	98.389896 
2414.000000	98.390872 
2413.000000	98.392537 
2412.000000	98.394335 
2411.000000	98.395821 
2410.000000	98.396913 
2409.000000	98.397626 
2408.000000	98.397844 
2407.000000	98.397489 
2406.000000	98.396736 
2405.000000	98.395908 
2404.000000	98.395208 
2403.000000	98.394622 
2402.000000	98.394093 
2401.000000	98.393731 
2400.000000	98.393791 
2399.000000	98.394423 
2398.000000	98.395468 
2397.000000	98.396485 
2396.000000	98.396971 
2395.000000	98.396690 
2394.000000	98.395969 
2393.000000	98.395604 
2392.000000	98.396159 
2391.000000	98.397282 
2390.000000	98.397958 
2389.000000	98.397572 
2388.000000	98.396569 
2387.000000	98.396042 
2386.000000	98.396854 
2385.000000	98.399145 
2384.000000	98.402140 
2383.000000	98.404277 
2382.000000	98.404241 
2381.000000	98.401998 
2380.000000	98.398821 
2379.000000	98.396086 
2378.000000	98.394023 
2377.000000	98.392109 
2376.000000	98.390175 
2375.000000	98.388625 
2374.000000	98.387773 
2373.000000	98.387528 
2372.000000	98.387672 
2371.000000	98.387908 
2370.000000	98.387765 
2369.000000	98.387025 
2368.000000	98.386069 
2367.000000	98.385340 
2366.000000	98.384635 
2365.000000	98.383484 
2364.000000	98.381911 
2363.000000	98.380285 
2362.000000	98.378668 
2361.000000	98.376876 
2360.000000	98.375130 
2359.000000	98.373934 
2358.000000	98.373191 
2357.000000	98.372311 
2356.000000	98.371021 
2355.000000	98.369628 
2354.000000	98.368186 
2353.000000	98.366498 
2352.000000	98.364789 
2351.000000	98.363424 
2350.000000	98.362315 
2349.000000	98.361070 
2348.000000	98.359627 
2347.000000	98.358132 
2346.000000	98.356540 
2345.000000	98.354932 
2344.000000	98.353662 
2343.000000	98.352945 
2342.000000	98.352277 
2341.000000	98.350945 
2340.000000	98.348792 
2339.000000	98.346264 
2338.000000	98.343980 
2337.000000	98.342112 
2336.000000	98.340610 
2335.000000	98.339302 
2334.000000	98.338099 
2333.000000	98.337020 
2332.000000	98.336565 
2331.000000	98.336905 
2330.000000	98.337501 
2329.000000	98.337155 
2328.000000	98.335265 
2327.000000	98.331888 
2326.000000	98.327558 
2325.000000	98.323250 
2324.000000	98.320212 
2323.000000	98.319224 
2322.000000	98.319673 
2321.000000	98.320051 
2320.000000	98.319895 
2319.000000	98.319779 
2318.000000	98.320260 
2317.000000	98.320775 
2316.000000	98.320906 
2315.000000	98.320421 
2314.000000	98.319367 
2313.000000	98.317474 
2312.000000	98.315217 
2311.000000	98.313249 
2310.000000	98.311912 
2309.000000	98.310839 
2308.000000	98.310149 
2307.000000	98.310191 
2306.000000	98.310980 
2305.000000	98.311892 
2304.000000	98.312739 
2303.000000	98.313431 
2302.000000	98.313462 
2301.000000	98.311853 
2300.000000	98.308753 
2299.000000	98.305099 
2298.000000	98.301727 
2297.000000	98.298735 
2296.000000	98.296406 
2295.000000	98.294720 
2294.000000	98.292745 
2293.000000	98.289436 
2292.000000	98.285325 
2291.000000	98.281695 
2290.000000	98.278155 
2289.000000	98.273000 
2288.000000	98.266103 
2287.000000	98.259920 
2286.000000	98.256871 
2285.000000	98.257345 
2284.000000	98.260251 
2283.000000	98.264268 
2282.000000	98.268154 
2281.000000	98.271472 
2280.000000	98.275028 
2279.000000	98.279141 
2278.000000	98.281796 
2277.000000	98.280661 
2276.000000	98.276779 
2275.000000	98.273815 
2274.000000	98.273586 
2273.000000	98.274590 
2272.000000	98.275230 
2271.000000	98.275858 
2270.000000	98.277112 
2269.000000	98.278528 
2268.000000	98.279721 
2267.000000	98.281048 
2266.000000	98.282355 
2265.000000	98.282715 
2264.000000	98.281918 
2263.000000	98.280566 
2262.000000	98.278414 
2261.000000	98.274330 
2260.000000	98.268289 
2259.000000	98.262086 
2258.000000	98.257463 
2257.000000	98.254700 
2256.000000	98.253434 
2255.000000	98.253613 
2254.000000	98.255200 
2253.000000	98.257660 
2252.000000	98.260169 
2251.000000	98.261856 
2250.000000	98.261976 
2249.000000	98.260458 
2248.000000	98.258249 
2247.000000	98.256469 
2246.000000	98.255465 
2245.000000	98.254924 
2244.000000	98.254587 
2243.000000	98.254312 
2242.000000	98.253804 
2241.000000	98.252856 
2240.000000	98.251784 
2239.000000	98.251186 
2238.000000	98.251183 
2237.000000	98.251198 
2236.000000	98.250653 
2235.000000	98.249680 
2234.000000	98.248944 
2233.000000	98.248908 
2232.000000	98.249474 
2231.000000	98.250101 
2230.000000	98.250172 
2229.000000	98.249393 
2228.000000	98.247907 
2227.000000	98.246123 
2226.000000	98.244295 
2225.000000	98.242515 
2224.000000	98.241172 
2223.000000	98.240822 
2222.000000	98.241405 
2221.000000	98.241941 
2220.000000	98.241387 
2219.000000	98.239664 
2218.000000	98.237701 
2217.000000	98.236546 
2216.000000	98.236498 
2215.000000	98.236984 
2214.000000	98.237150 
2213.000000	98.236702 
2212.000000	98.236024 
2211.000000	98.235337 
2210.000000	98.234247 
2209.000000	98.232702 
2208.000000	98.231862 
2207.000000	98.232938 
2206.000000	98.235309 
2205.000000	98.237013 
2204.000000	98.237113 
2203.000000	98.236424 
2202.000000	98.235858 
2201.000000	98.235348 
2200.000000	98.234891 
2199.000000	98.234805 
2198.000000	98.234269 
2197.000000	98.231723 
2196.000000	98.227463 
2195.000000	98.223823 
2194.000000	98.222039 
2193.000000	98.220681 
2192.000000	98.217652 
2191.000000	98.212211 
2190.000000	98.204856 
2189.000000	98.196921 
2188.000000	98.190485 
2187.000000	98.187322 
2186.000000	98.187878 
2185.000000	98.192076 
2184.000000	98.199882 
2183.000000	98.209275 
2182.000000	98.215280 
2181.000000	98.214338 
2180.000000	98.208837 
2179.000000	98.204280 
2178.000000	98.202642 
2177.000000	98.202053 
2176.000000	98.202113 
2175.000000	98.204926 
2174.000000	98.210347 
2173.000000	98.214474 
2172.000000	98.214333 
2171.000000	98.210785 
2170.000000	98.205870 
2169.000000	98.200516 
2168.000000	98.195847 
2167.000000	98.193355 
2166.000000	98.192154 
2165.000000	98.188678 
2164.000000	98.180809 
2163.000000	98.170727 
2162.000000	98.163521 
2161.000000	98.165302 
2160.000000	98.181373 
2159.000000	98.211286 
2158.000000	98.244247 
2157.000000	98.266121 
2156.000000	98.273166 
2155.000000	98.272468 
2154.000000	98.271322 
2153.000000	98.270500 
2152.000000	98.268229 
2151.000000	98.265334 
2150.000000	98.263731 
2149.000000	98.263573 
2148.000000	98.264724 
2147.000000	98.268515 
2146.000000	98.275562 
2145.000000	98.283813 
2144.000000	98.290869 
2143.000000	98.296503 
2142.000000	98.301103 
2141.000000	98.303386 
2140.000000	98.301685 
2139.000000	98.296633 
2138.000000	98.291334 
2137.000000	98.289252 
2136.000000	98.292007 
2135.000000	98.298209 
2134.000000	98.304283 
2133.000000	98.307754 
2132.000000	98.309586 
2131.000000	98.311838 
2130.000000	98.313570 
2129.000000	98.311408 
2128.000000	98.304352 
2127.000000	98.295906 
2126.000000	98.290732 
2125.000000	98.290230 
2124.000000	98.291980 
2123.000000	98.292476 
2122.000000	98.290095 
2121.000000	98.286164 
2120.000000	98.283211 
2119.000000	98.281832 
2118.000000	98.279922 
2117.000000	98.275665 
2116.000000	98.270348 
2115.000000	98.266678 
2114.000000	98.265585 
2113.000000	98.266352 
2112.000000	98.269083 
2111.000000	98.274224 
2110.000000	98.279672 
2109.000000	98.281638 
2108.000000	98.278832 
2107.000000	98.273542 
2106.000000	98.268566 
2105.000000	98.264821 
2104.000000	98.262254 
2103.000000	98.260963 
2102.000000	98.260460 
2101.000000	98.259493 
2100.000000	98.257539 
2099.000000	98.255573 
2098.000000	98.254886 
2097.000000	98.256012 
2096.000000	98.258855 
2095.000000	98.262612 
2094.000000	98.265519 
2093.000000	98.265986 
2092.000000	98.264170 
2091.000000	98.261675 
2090.000000	98.259648 
2089.000000	98.257749 
2088.000000	98.255040 
2087.000000	98.251183 
2086.000000	98.246790 
2085.000000	98.243149 
2084.000000	98.241550 
2083.000000	98.242409 
2082.000000	98.244665 
2081.000000	98.246374 
2080.000000	98.246381 
2079.000000	98.244895 
2078.000000	98.242682 
2077.000000	98.240395 
2076.000000	98.238596 
2075.000000	98.237471 
2074.000000	98.236332 
2073.000000	98.234282 
2072.000000	98.231617 
2071.000000	98.229700 
2070.000000	98.229183 
2069.000000	98.229175 
2068.000000	98.228451 
2067.000000	98.226642 
2066.000000	98.223971 
2065.000000	98.220915 
2064.000000	98.218455 
2063.000000	98.217610 
2062.000000	98.218171 
2061.000000	98.218615 
2060.000000	98.217684 
2059.000000	98.215500 
2058.000000	98.213070 
2057.000000	98.211502 
2056.000000	98.211526 
2055.000000	98.212622 
2054.000000	98.212485 
2053.000000	98.208688 
2052.000000	98.200973 
2051.000000	98.191469 
2050.000000	98.182868 
2049.000000	98.176866 
2048.000000	98.174456 
2047.000000	98.176073 
2046.000000	98.180543 
2045.000000	98.185080 
2044.000000	98.187381 
2043.000000	98.186950 
2042.000000	98.184294 
2041.000000	98.180433 
2040.000000	98.177246 
2039.000000	98.176507 
2038.000000	98.178107 
2037.000000	98.180352 
2036.000000	98.182196 
2035.000000	98.183877 
2034.000000	98.185341 
2033.000000	98.185955 
2032.000000	98.185862 
2031.000000	98.185565 
2030.000000	98.184181 
2029.000000	98.180528 
2028.000000	98.176117 
2027.000000	98.174338 
2026.000000	98.175876 
2025.000000	98.177354 
2024.000000	98.175745 
2023.000000	98.172183 
2022.000000	98.169842 
2021.000000	98.169796 
2020.000000	98.170542 
2019.000000	98.170314 
2018.000000	98.168505 
2017.000000	98.165960 
2016.000000	98.165014 
2015.000000	98.167902 
2014.000000	98.174198 
2013.000000	98.180695 
2012.000000	98.184302 
2011.000000	98.183903 
2010.000000	98.179866 
2009.000000	98.174195 
2008.000000	98.170579 
2007.000000	98.171091 
2006.000000	98.173121 
2005.000000	98.172509 
2004.000000	98.169086 
2003.000000	98.165550 
2002.000000	98.162018 
2001.000000	98.156491 
2000.000000	98.150298 
1999.000000	98.147492 
1998.000000	98.148205 
1997.000000	98.147892 
1996.000000	98.144220 
1995.000000	98.139837 
1994.000000	98.136623 
1993.000000	98.132143 
1992.000000	98.124884 
1991.000000	98.118721 
1990.000000	98.117841 
1989.000000	98.120967 
1988.000000	98.123722 
1987.000000	98.124240 
1986.000000	98.123891 
1985.000000	98.124332 
1984.000000	98.125946 
1983.000000	98.127429 
1982.000000	98.125907 
1981.000000	98.119833 
1980.000000	98.112555 
1979.000000	98.109989 
1978.000000	98.113935 
1977.000000	98.121032 
1976.000000	98.128647 
1975.000000	98.137637 
1974.000000	98.147507 
1973.000000	98.154049 
1972.000000	98.154472 
1971.000000	98.150839 
1970.000000	98.146535 
1969.000000	98.142238 
1968.000000	98.137633 
1967.000000	98.134382 
1966.000000	98.134448 
1965.000000	98.137235 
1964.000000	98.140606 
1963.000000	98.143577 
1962.000000	98.146563 
1961.000000	98.149828 
1960.000000	98.152920 
1959.000000	98.155057 
1958.000000	98.155644 
1957.000000	98.155096 
1956.000000	98.155197 
1955.000000	98.157490 
1954.000000	98.161201 
1953.000000	98.163750 
1952.000000	98.163756 
1951.000000	98.162324 
1950.000000	98.161421 
1949.000000	98.161858 
1948.000000	98.163357 
1947.000000	98.165503 
1946.000000	98.167925 
1945.000000	98.170239 
1944.000000	98.172248 
1943.000000	98.173875 
1942.000000	98.174762 
1941.000000	98.174567 
1940.000000	98.173658 
1939.000000	98.172910 
1938.000000	98.172815 
1937.000000	98.173206 
1936.000000	98.173797 
1935.000000	98.174478 
1934.000000	98.175137 
1933.000000	98.175533 
1932.000000	98.175511 
1931.000000	98.175193 
1930.000000	98.174798 
1929.000000	98.174449 
1928.000000	98.174250 
1927.000000	98.174325 
1926.000000	98.174606 
1925.000000	98.174765 
1924.000000	98.174576 
1923.000000	98.174231 
1922.000000	98.174069 
1921.000000	98.174108 
1920.000000	98.174072 
1919.000000	98.173711 
1918.000000	98.172944 
1917.000000	98.171860 
1916.000000	98.170802 
1915.000000	98.170115 
1914.000000	98.169669 
1913.000000	98.168986 
1912.000000	98.168019 
1911.000000	98.167381 
1910.000000	98.167263 
1909.000000	98.166825 
1908.000000	98.165416 
1907.000000	98.163511 
1906.000000	98.161964 
1905.000000	98.160897 
1904.000000	98.159980 
1903.000000	98.159122 
1902.000000	98.158024 
1901.000000	98.156143 
1900.000000	98.153755 
1899.000000	98.152118 
1898.000000	98.151919 
1897.000000	98.152139 
1896.000000	98.151298 
1895.000000	98.149379 
1894.000000	98.147206 
1893.000000	98.144976 
1892.000000	98.142732 
1891.000000	98.141138 
1890.000000	98.140780 
1889.000000	98.141451 
1888.000000	98.142941 
1887.000000	98.145127 
1886.000000	98.146619 
1885.000000	98.145275 
1884.000000	98.141055 
1883.000000	98.136835 
1882.000000	98.134830 
1881.000000	98.134435 
1880.000000	98.134481 
1879.000000	98.135210 
1878.000000	98.136885 
1877.000000	98.138693 
1876.000000	98.140346 
1875.000000	98.142798 
1874.000000	98.145762 
1873.000000	98.146818 
1872.000000	98.144987 
1871.000000	98.142571 
1870.000000	98.141377 
1869.000000	98.140024 
1868.000000	98.138476 
1867.000000	98.140072 
1866.000000	98.145425 
1865.000000	98.150878 
1864.000000	98.153922 
1863.000000	98.156275 
1862.000000	98.159687 
1861.000000	98.162056 
1860.000000	98.161179 
1859.000000	98.159161 
1858.000000	98.158956 
1857.000000	98.159951 
1856.000000	98.160796 
1855.000000	98.162848 
1854.000000	98.167345 
1853.000000	98.172492 
1852.000000	98.176448 
1851.000000	98.180242 
1850.000000	98.185259 
1849.000000	98.191047 
1848.000000	98.196700 
1847.000000	98.202418 
1846.000000	98.207571 
1845.000000	98.209703 
1844.000000	98.208648 
1843.000000	98.208180 
1842.000000	98.209680 
1841.000000	98.210836 
1840.000000	98.210037 
1839.000000	98.208172 
1838.000000	98.207081 
1837.000000	98.207198 
1836.000000	98.208236 
1835.000000	98.210592 
1834.000000	98.214000 
1833.000000	98.216777 
1832.000000	98.217046 
1831.000000	98.214389 
1830.000000	98.210635 
1829.000000	98.208201 
1828.000000	98.207314 
1827.000000	98.207384 
1826.000000	98.208167 
1825.000000	98.208829 
1824.000000	98.208769 
1823.000000	98.208926 
1822.000000	98.210124 
1821.000000	98.211513 
1820.000000	98.212238 
1819.000000	98.213648 
1818.000000	98.216908 
1817.000000	98.219357 
1816.000000	98.217795 
1815.000000	98.213451 
1814.000000	98.209949 
1813.000000	98.208312 
1812.000000	98.207081 
1811.000000	98.206502 
1810.000000	98.207827 
1809.000000	98.209161 
1808.000000	98.208072 
1807.000000	98.205486 
1806.000000	98.203245 
1805.000000	98.200945 
1804.000000	98.197943 
1803.000000	98.195950 
1802.000000	98.196683 
1801.000000	98.198653 
1800.000000	98.199308 
1799.000000	98.199074 
1798.000000	98.199327 
1797.000000	98.199413 
1796.000000	98.199094 
1795.000000	98.200364 
1794.000000	98.204520 
1793.000000	98.209005 
1792.000000	98.210260 
1791.000000	98.209605 
1790.000000	98.209921 
1789.000000	98.210634 
1788.000000	98.210298 
1787.000000	98.209837 
1786.000000	98.211133 
1785.000000	98.213588 
1784.000000	98.215088 
1783.000000	98.215352 
1782.000000	98.215731 
1781.000000	98.217175 
1780.000000	98.219651 
1779.000000	98.222706 
1778.000000	98.225766 
1777.000000	98.228002 
1776.000000	98.229090 
1775.000000	98.229541 
1774.000000	98.230360 
1773.000000	98.232243 
1772.000000	98.234510 
1771.000000	98.236754 
1770.000000	98.240557 
1769.000000	98.246934 
1768.000000	98.253765 
1767.000000	98.257995 
1766.000000	98.259276 
1765.000000	98.259208 
1764.000000	98.258606 
1763.000000	98.257441 
1762.000000	98.257148 
1761.000000	98.259598 
1760.000000	98.263945 
1759.000000	98.268556 
1758.000000	98.273453 
1757.000000	98.279269 
1756.000000	98.285022 
1755.000000	98.288957 
1754.000000	98.292359 
1753.000000	98.298528 
1752.000000	98.307352 
1751.000000	98.313577 
1750.000000	98.314286 
1749.000000	98.312518 
1748.000000	98.311318 
1747.000000	98.310367 
1746.000000	98.309553 
1745.000000	98.310543 
1744.000000	98.313081 
1743.000000	98.314616 
1742.000000	98.314696 
1741.000000	98.315237 
1740.000000	98.316916 
1739.000000	98.318657 
1738.000000	98.319872 
1737.000000	98.320808 
1736.000000	98.322039 
1735.000000	98.323606 
1734.000000	98.324558 
1733.000000	98.324488 
1732.000000	98.323970 
1731.000000	98.323672 
1730.000000	98.324174 
1729.000000	98.325499 
1728.000000	98.326920 
1727.000000	98.327667 
1726.000000	98.327765 
1725.000000	98.327757 
1724.000000	98.327911 
1723.000000	98.328233 
1722.000000	98.328696 
1721.000000	98.329130 
1720.000000	98.329420 
1719.000000	98.329662 
1718.000000	98.329937 
1717.000000	98.330004 
1716.000000	98.329903 
1715.000000	98.329917 
1714.000000	98.330042 
1713.000000	98.330167 
1712.000000	98.330271 
1711.000000	98.330371 
1710.000000	98.330472 
1709.000000	98.330582 
1708.000000	98.330712 
1707.000000	98.330871 
1706.000000	98.331063 
1705.000000	98.331287 
1704.000000	98.331543 
1703.000000	98.331843 
1702.000000	98.332198 
1701.000000	98.332601 
1700.000000	98.333028 
1699.000000	98.333467 
1698.000000	98.333922 
1697.000000	98.334389 
1696.000000	98.334863 
1695.000000	98.335347 
1694.000000	98.335844 
1693.000000	98.336356 
1692.000000	98.336887 
1691.000000	98.337455 
1690.000000	98.338078 
1689.000000	98.338743 
1688.000000	98.339408 
1687.000000	98.340068 
1686.000000	98.340750 
1685.000000	98.341427 
1684.000000	98.342051 
1683.000000	98.342746 
1682.000000	98.343466 
1681.000000	98.344223 
1680.000000	98.345116 
1679.000000	98.346105 
1678.000000	98.347060 
1677.000000	98.348089 
1676.000000	98.349490 
1675.000000	98.351159 
1674.000000	98.352548 
1673.000000	98.353468 
1672.000000	98.354100 
1671.000000	98.354585 
1670.000000	98.354916 
1669.000000	98.355416 
1668.000000	98.356519 
1667.000000	98.357909 
1666.000000	98.359046 
1665.000000	98.359748 
1664.000000	98.360191 
1663.000000	98.360691 
1662.000000	98.361269 
1661.000000	98.361906 
1660.000000	98.362897 
1659.000000	98.364104 
1658.000000	98.364833 
1657.000000	98.364823 
1656.000000	98.364716 
1655.000000	98.365015 
1654.000000	98.365353 
1653.000000	98.365659 
1652.000000	98.366554 
1651.000000	98.367505 
1650.000000	98.368384 
1649.000000	98.369244 
1648.000000	98.370066 
1647.000000	98.370761 
1646.000000	98.371435 
1645.000000	98.372091 
1644.000000	98.372768 
1643.000000	98.373575 
1642.000000	98.374467 
1641.000000	98.375334 
1640.000000	98.376159 
1639.000000	98.376954 
1638.000000	98.377719 
1637.000000	98.378470 
1636.000000	98.379239 
1635.000000	98.379974 
1634.000000	98.380638 
1633.000000	98.381307 
1632.000000	98.382057 
1631.000000	98.382893 
1630.000000	98.383774 
1629.000000	98.384639 
1628.000000	98.385477 
1627.000000	98.386324 
1626.000000	98.387157 
1625.000000	98.387948 
1624.000000	98.388858 
1623.000000	98.390051 
1622.000000	98.391210 
1621.000000	98.391979 
1620.000000	98.392706 
1619.000000	98.393895 
1618.000000	98.395361 
1617.000000	98.396658 
1616.000000	98.398346 
1615.000000	98.400020 
1614.000000	98.400231 
1613.000000	98.399633 
1612.000000	98.400583 
1611.000000	98.403765 
1610.000000	98.406505 
1609.000000	98.407007 
1608.000000	98.407488 
1607.000000	98.409682 
1606.000000	98.411573 
1605.000000	98.411959 
1604.000000	98.413179 
1603.000000	98.416172 
1602.000000	98.418586 
1601.000000	98.419786 
1600.000000	98.422102 
1599.000000	98.425201 
1598.000000	98.425610 
1597.000000	98.423231 
1596.000000	98.422588 
1595.000000	98.425831 
1594.000000	98.429160 
1593.000000	98.429657 
1592.000000	98.429838 
1591.000000	98.431893 
1590.000000	98.433395 
1589.000000	98.432753 
1588.000000	98.432809 
1587.000000	98.435020 
1586.000000	98.436212 
1585.000000	98.435111 
1584.000000	98.435793 
1583.000000	98.439614 
1582.000000	98.441450 
1581.000000	98.439342 
1580.000000	98.437573 
1579.000000	98.437288 
1578.000000	98.433952 
1577.000000	98.427336 
1576.000000	98.425892 
1575.000000	98.429977 
1574.000000	98.429383 
1573.000000	98.423319 
1572.000000	98.418300 
1571.000000	98.417591 
1570.000000	98.417848 
1569.000000	98.418755 
1568.000000	98.423551 
1567.000000	98.427820 
1566.000000	98.426146 
1565.000000	98.420240 
1564.000000	98.415073 
1563.000000	98.410350 
1562.000000	98.403072 
1561.000000	98.399302 
1560.000000	98.409181 
1559.000000	98.418574 
1558.000000	98.406168 
1557.000000	98.382949 
1556.000000	98.367455 
1555.000000	98.361440 
1554.000000	98.356168 
1553.000000	98.347056 
1552.000000	98.336853 
1551.000000	98.329203 
1550.000000	98.323876 
1549.000000	98.317843 
1548.000000	98.309685 
1547.000000	98.300051 
1546.000000	98.287827 
1545.000000	98.270455 
1544.000000	98.250252 
1543.000000	98.234089 
1542.000000	98.224658 
1541.000000	98.215174 
1540.000000	98.202739 
1539.000000	98.191936 
1538.000000	98.176515 
1537.000000	98.153665 
1536.000000	98.128652 
1535.000000	98.107260 
1534.000000	98.089374 
1533.000000	98.071498 
1532.000000	98.053569 
1531.000000	98.038839 
1530.000000	98.026335 
1529.000000	98.009814 
1528.000000	97.986857 
1527.000000	97.963001 
1526.000000	97.943196 
1525.000000	97.924178 
1524.000000	97.902489 
1523.000000	97.881145 
1522.000000	97.863121 
1521.000000	97.844811 
1520.000000	97.822331 
1519.000000	97.798139 
1518.000000	97.776381 
1517.000000	97.757363 
1516.000000	97.739011 
1515.000000	97.720394 
1514.000000	97.702494 
1513.000000	97.684666 
1512.000000	97.662865 
1511.000000	97.636941 
1510.000000	97.612082 
1509.000000	97.590250 
1508.000000	97.567584 
1507.000000	97.546402 
1506.000000	97.532483 
1505.000000	97.513493 
1504.000000	97.485603 
1503.000000	97.455442 
1502.000000	97.427149 
1501.000000	97.400537 
1500.000000	97.372856 
1499.000000	97.344728 
1498.000000	97.323541 
1497.000000	97.311975 
1496.000000	97.301515 
1495.000000	97.287551 
1494.000000	97.273560 
1493.000000	97.260067 
1492.000000	97.243176 
1491.000000	97.220549 
1490.000000	97.195343 
1489.000000	97.169458 
1488.000000	97.141785 
1487.000000	97.117105 
1486.000000	97.097663 
1485.000000	97.078897 
1484.000000	97.059129 
1483.000000	97.040406 
1482.000000	97.023984 
1481.000000	97.007234 
1480.000000	96.987948 
1479.000000	96.969362 
1478.000000	96.954642 
1477.000000	96.940760 
1476.000000	96.923858 
1475.000000	96.908947 
1474.000000	96.900509 
1473.000000	96.893738 
1472.000000	96.881890 
1471.000000	96.867665 
1470.000000	96.855017 
1469.000000	96.841437 
1468.000000	96.823497 
1467.000000	96.804521 
1466.000000	96.790852 
1465.000000	96.782033 
1464.000000	96.772260 
1463.000000	96.758180 
1462.000000	96.741730 
1461.000000	96.723718 
1460.000000	96.703281 
1459.000000	96.682552 
1458.000000	96.671628 
1457.000000	96.677967 
1456.000000	96.684931 
1455.000000	96.675304 
1454.000000	96.656749 
1453.000000	96.640590 
1452.000000	96.628983 
1451.000000	96.619831 
1450.000000	96.615240 
1449.000000	96.617794 
1448.000000	96.622766 
1447.000000	96.624024 
1446.000000	96.621659 
1445.000000	96.619728 
1444.000000	96.620145 
1443.000000	96.621091 
1442.000000	96.622297 
1441.000000	96.624904 
1440.000000	96.626505 
1439.000000	96.623803 
1438.000000	96.623006 
1437.000000	96.634415 
1436.000000	96.654197 
1435.000000	96.667815 
1434.000000	96.672863 
1433.000000	96.675721 
1432.000000	96.680359 
1431.000000	96.685633 
1430.000000	96.692533 
1429.000000	96.703912 
1428.000000	96.715870 
1427.000000	96.722564 
1426.000000	96.725789 
1425.000000	96.735126 
1424.000000	96.753024 
1423.000000	96.767942 
1422.000000	96.773571 
1421.000000	96.777936 
1420.000000	96.789294 
1419.000000	96.803586 
1418.000000	96.816529 
1417.000000	96.828295 
1416.000000	96.836323 
1415.000000	96.838823 
1414.000000	96.838435 
1413.000000	96.841152 
1412.000000	96.849444 
1411.000000	96.860292 
1410.000000	96.872658 
1409.000000	96.888146 
1408.000000	96.905393 
1407.000000	96.922461 
1406.000000	96.941588 
1405.000000	96.968561 
1404.000000	97.003122 
1403.000000	97.037063 
1402.000000	97.066838 
1401.000000	97.096407 
1400.000000	97.128201 
1399.000000	97.156289 
1398.000000	97.173202 
1397.000000	97.178183 
1396.000000	97.176710 
1395.000000	97.178827 
1394.000000	97.196153 
1393.000000	97.233887 
1392.000000	97.283735 
1391.000000	97.331574 
1390.000000	97.369597 
1389.000000	97.398983 
1388.000000	97.423859 
1387.000000	97.445609 
1386.000000	97.463975 
1385.000000	97.480885 
1384.000000	97.499056 
1383.000000	97.518536 
1382.000000	97.538211 
1381.000000	97.558382 
1380.000000	97.580537 
1379.000000	97.604501 
1378.000000	97.628140 
1377.000000	97.650861 
1376.000000	97.674610 
1375.000000	97.700726 
1374.000000	97.728108 
1373.000000	97.755258 
1372.000000	97.781054 
1371.000000	97.804680 
1370.000000	97.825838 
1369.000000	97.847332 
1368.000000	97.872039 
1367.000000	97.897588 
1366.000000	97.919194 
1365.000000	97.935680 
1364.000000	97.950284 
1363.000000	97.967177 
1362.000000	97.987686 
1361.000000	98.010113 
1360.000000	98.032351 
1359.000000	98.053054 
1358.000000	98.071578 
1357.000000	98.089027 
1356.000000	98.106861 
1355.000000	98.124321 
1354.000000	98.139513 
1353.000000	98.152258 
1352.000000	98.164342 
1351.000000	98.177548 
1350.000000	98.190242 
1349.000000	98.201475 
1348.000000	98.211953 
1347.000000	98.221713 
1346.000000	98.230609 
1345.000000	98.240150 
1344.000000	98.251288 
1343.000000	98.261410 
1342.000000	98.266870 
1341.000000	98.268330 
1340.000000	98.270423 
1339.000000	98.275666 
1338.000000	98.282819 
1337.000000	98.291239 
1336.000000	98.301500 
1335.000000	98.312538 
1334.000000	98.322252 
1333.000000	98.330475 
1332.000000	98.338104 
1331.000000	98.343947 
1330.000000	98.346088 
1329.000000	98.346526 
1328.000000	98.349681 
1327.000000	98.356120 
1326.000000	98.361753 
1325.000000	98.365054 
1324.000000	98.368440 
1323.000000	98.373053 
1322.000000	98.377338 
1321.000000	98.380708 
1320.000000	98.384586 
1319.000000	98.389773 
1318.000000	98.395818 
1317.000000	98.402381 
1316.000000	98.408879 
1315.000000	98.413635 
1314.000000	98.415941 
1313.000000	98.417846 
1312.000000	98.421590 
1311.000000	98.426514 
1310.000000	98.430774 
1309.000000	98.434443 
1308.000000	98.438317 
1307.000000	98.441401 
1306.000000	98.441711 
1305.000000	98.439984 
1304.000000	98.438582 
1303.000000	98.438076 
1302.000000	98.437308 
1301.000000	98.435827 
1300.000000	98.433968 
1299.000000	98.431880 
1298.000000	98.430557 
1297.000000	98.432096 
1296.000000	98.436872 
1295.000000	98.441549 
1294.000000	98.442660 
1293.000000	98.440859 
1292.000000	98.439376 
1291.000000	98.439506 
1290.000000	98.439883 
1289.000000	98.439255 
1288.000000	98.437712 
1287.000000	98.435556 
1286.000000	98.432888 
1285.000000	98.430185 
1284.000000	98.428186 
1283.000000	98.427555 
1282.000000	98.428702 
1281.000000	98.430879 
1280.000000	98.431855 
1279.000000	98.429919 
1278.000000	98.426821 
1277.000000	98.426350 
1276.000000	98.429373 
1275.000000	98.432485 
1274.000000	98.432765 
1273.000000	98.431224 
1272.000000	98.430027 
1271.000000	98.428982 
1270.000000	98.426956 
1269.000000	98.424333 
1268.000000	98.421492 
1267.000000	98.416963 
1266.000000	98.409866 
1265.000000	98.401871 
1264.000000	98.394621 
1263.000000	98.387660 
1262.000000	98.380797 
1261.000000	98.375611 
1260.000000	98.372258 
1259.000000	98.367167 
1258.000000	98.357569 
1257.000000	98.345768 
1256.000000	98.335960 
1255.000000	98.328859 
1254.000000	98.322235 
1253.000000	98.314817 
1252.000000	98.306983 
1251.000000	98.299067 
1250.000000	98.291790 
1249.000000	98.287088 
1248.000000	98.285948 
1247.000000	98.286181 
1246.000000	98.284113 
1245.000000	98.276841 
1244.000000	98.262415 
1243.000000	98.241469 
1242.000000	98.220146 
1241.000000	98.207039 
1240.000000	98.203980 
1239.000000	98.203019 
1238.000000	98.195470 
1237.000000	98.180736 
1236.000000	98.163170 
1235.000000	98.143910 
1234.000000	98.120524 
1233.000000	98.092782 
1232.000000	98.064031 
1231.000000	98.037367 
1230.000000	98.013553 
1229.000000	97.991470 
1228.000000	97.967720 
1227.000000	97.937213 
1226.000000	97.897350 
1225.000000	97.850903 
1224.000000	97.802343 
1223.000000	97.752448 
1222.000000	97.698944 
1221.000000	97.640857 
1220.000000	97.579038 
1219.000000	97.513319 
1218.000000	97.442466 
1217.000000	97.366537 
1216.000000	97.286514 
1215.000000	97.201977 
1214.000000	97.111768 
1213.000000	97.016854 
1212.000000	96.919984 
1211.000000	96.822447 
1210.000000	96.723086 
1209.000000	96.620695 
1208.000000	96.515773 
1207.000000	96.410049 
1206.000000	96.305958 
1205.000000	96.206123 
1204.000000	96.111072 
1203.000000	96.017265 
1202.000000	95.919825 
1201.000000	95.817936 
1200.000000	95.715433 
1199.000000	95.615475 
1198.000000	95.517347 
1197.000000	95.419584 
1196.000000	95.323177 
1195.000000	95.229351 
1194.000000	95.136346 
1193.000000	95.041244 
1192.000000	94.943625 
1191.000000	94.844902 
1190.000000	94.745279 
1189.000000	94.643941 
1188.000000	94.541225 
1187.000000	94.437790 
1186.000000	94.332268 
1185.000000	94.222523 
1184.000000	94.109059 
1183.000000	93.994417 
1182.000000	93.879152 
1181.000000	93.761151 
1180.000000	93.639292 
1179.000000	93.514926 
1178.000000	93.389018 
1177.000000	93.260149 
1176.000000	93.126079 
1175.000000	92.985393 
1174.000000	92.837385 
1173.000000	92.682705 
1172.000000	92.524408 
1171.000000	92.366174 
1170.000000	92.209292 
1169.000000	92.053659 
1168.000000	91.901860 
1167.000000	91.760085 
1166.000000	91.635729 
1165.000000	91.537231 
1164.000000	91.475271 
1163.000000	91.458989 
1162.000000	91.488742 
1161.000000	91.553907 
1160.000000	91.636525 
1159.000000	91.714685 
1158.000000	91.766065 
1157.000000	91.774945 
1156.000000	91.737688 
1155.000000	91.660809 
1154.000000	91.555191 
1153.000000	91.432799 
1152.000000	91.304723 
1151.000000	91.176902 
1150.000000	91.048057 
1149.000000	90.915643 
1148.000000	90.782821 
1147.000000	90.655533 
1146.000000	90.534204 
1145.000000	90.413633 
1144.000000	90.290473 
1143.000000	90.165504 
1142.000000	90.039188 
1141.000000	89.910776 
1140.000000	89.782053 
1139.000000	89.656455 
1138.000000	89.533758 
1137.000000	89.410361 
1136.000000	89.285015 
1135.000000	89.159625 
1134.000000	89.034739 
1133.000000	88.909185 
1132.000000	88.783614 
1131.000000	88.659194 
1130.000000	88.533826 
1129.000000	88.405333 
1128.000000	88.276882 
1127.000000	88.152596 
1126.000000	88.029296 
1125.000000	87.900262 
1124.000000	87.766161 
1123.000000	87.633749 
1122.000000	87.504303 
1121.000000	87.372612 
1120.000000	87.237899 
1119.000000	87.105974 
1118.000000	86.978897 
1117.000000	86.851910 
1116.000000	86.722629 
1115.000000	86.594515 
1114.000000	86.469282 
1113.000000	86.344369 
1112.000000	86.219507 
1111.000000	86.097248 
1110.000000	85.976578 
1109.000000	85.854951 
1108.000000	85.735256 
1107.000000	85.622030 
1106.000000	85.511764 
1105.000000	85.397596 
1104.000000	85.282924 
1103.000000	85.178202 
1102.000000	85.084065 
1101.000000	84.990428 
1100.000000	84.892264 
1099.000000	84.796639 
1098.000000	84.708374 
1097.000000	84.623490 
1096.000000	84.538705 
1095.000000	84.456134 
1094.000000	84.375433 
1093.000000	84.292279 
1092.000000	84.207868 
1091.000000	84.129843 
1090.000000	84.061214 
1089.000000	83.998155 
1088.000000	83.940332 
1087.000000	83.892576 
1086.000000	83.854370 
1085.000000	83.818376 
1084.000000	83.781541 
1083.000000	83.747835 
1082.000000	83.719141 
1081.000000	83.693742 
1080.000000	83.674027 
1079.000000	83.664559 
1078.000000	83.662281 
1077.000000	83.659975 
1076.000000	83.658482 
1075.000000	83.662529 
1074.000000	83.665150 
1073.000000	83.650224 
1072.000000	83.609730 
1071.000000	83.543638 
1070.000000	83.443699 
1069.000000	83.295874 
1068.000000	83.103995 
1067.000000	82.896699 
1066.000000	82.702562 
1065.000000	82.527477 
1064.000000	82.361899 
1063.000000	82.196442 
1062.000000	82.023194 
1061.000000	81.835804 
1060.000000	81.639026 
1059.000000	81.450498 
1058.000000	81.285729 
1057.000000	81.146891 
1056.000000	81.028405 
1055.000000	80.923438 
1054.000000	80.822028 
1053.000000	80.714595 
1052.000000	80.602708 
1051.000000	80.496406 
1050.000000	80.396792 
1049.000000	80.292775 
1048.000000	80.178154 
1047.000000	80.058742 
1046.000000	79.940108 
1045.000000	79.821330 
1044.000000	79.702606 
1043.000000	79.586551 
1042.000000	79.469902 
1041.000000	79.345663 
1040.000000	79.216201 
1039.000000	79.093978 
1038.000000	78.987659 
1037.000000	78.897344 
1036.000000	78.823168 
1035.000000	78.766666 
1034.000000	78.722988 
1033.000000	78.682803 
1032.000000	78.641845 
1031.000000	78.599082 
1030.000000	78.549989 
1029.000000	78.495544 
1028.000000	78.453854 
1027.000000	78.445113 
1026.000000	78.464773 
1025.000000	78.487226 
1024.000000	78.496157 
1023.000000	78.495423 
1022.000000	78.491504 
1021.000000	78.484005 
1020.000000	78.475060 
1019.000000	78.470484 
1018.000000	78.467849 
1017.000000	78.458233 
1016.000000	78.442490 
1015.000000	78.431546 
1014.000000	78.428833 
1013.000000	78.427061 
1012.000000	78.423988 
1011.000000	78.426420 
1010.000000	78.436353 
1009.000000	78.447591 
1008.000000	78.458525 
1007.000000	78.474724 
1006.000000	78.497201 
1005.000000	78.521606 
1004.000000	78.550117 
1003.000000	78.590165 
1002.000000	78.639960 
1001.000000	78.688946 
1000.000000	78.733955 
999.000000	 78.781635 
998.000000	 78.834335 
997.000000	 78.887535 
996.000000	 78.942024 
995.000000	 79.004338 
994.000000	 79.073612 
993.000000	 79.141691 
992.000000	 79.207876 
991.000000	 79.280713 
990.000000	 79.364241 
989.000000	 79.454997 
988.000000	 79.552552 
987.000000	 79.659854 
986.000000	 79.773339 
985.000000	 79.886412 
984.000000	 80.002729 
983.000000	 80.132367 
982.000000	 80.275498 
981.000000	 80.423466 
980.000000	 80.575434 
979.000000	 80.739649 
978.000000	 80.917998 
977.000000	 81.103693 
976.000000	 81.294707 
975.000000	 81.495356 
974.000000	 81.703909 
973.000000	 81.912651 
972.000000	 82.121443 
971.000000	 82.337995 
970.000000	 82.563701 
969.000000	 82.791801 
968.000000	 83.020001 
967.000000	 83.252097 
966.000000	 83.486398 
965.000000	 83.715282 
964.000000	 83.937591 
963.000000	 84.159826 
962.000000	 84.383937 
961.000000	 84.604686 
960.000000	 84.819540 
959.000000	 85.030527 
958.000000	 85.236339 
957.000000	 85.433496 
956.000000	 85.625379 
955.000000	 85.819172 
954.000000	 86.013153 
953.000000	 86.197376 
952.000000	 86.367563 
951.000000	 86.528640 
950.000000	 86.684680 
949.000000	 86.835271 
948.000000	 86.982178 
947.000000	 87.129730 
946.000000	 87.277193 
945.000000	 87.419084 
944.000000	 87.553693 
943.000000	 87.684043 
942.000000	 87.811283 
941.000000	 87.934538 
940.000000	 88.055660 
939.000000	 88.176392 
938.000000	 88.293138 
937.000000	 88.403081 
936.000000	 88.512856 
935.000000	 88.631982 
934.000000	 88.759886 
933.000000	 88.888787 
932.000000	 89.016401 
931.000000	 89.145326 
930.000000	 89.272735 
929.000000	 89.392425 
928.000000	 89.505986 
927.000000	 89.620745 
926.000000	 89.737172 
925.000000	 89.848851 
924.000000	 89.954248 
923.000000	 90.057708 
922.000000	 90.158776 
921.000000	 90.251333 
920.000000	 90.334713 
919.000000	 90.416154 
918.000000	 90.500738 
917.000000	 90.587084 
916.000000	 90.673712 
915.000000	 90.761247 
914.000000	 90.847768 
913.000000	 90.930731 
912.000000	 91.015161 
911.000000	 91.112158 
910.000000	 91.227294 
909.000000	 91.356540 
908.000000	 91.493895 
907.000000	 91.636225 
906.000000	 91.780643 
905.000000	 91.924485 
904.000000	 92.069193 
903.000000	 92.219067 
902.000000	 92.375951 
901.000000	 92.538745 
900.000000	 92.705677 
899.000000	 92.872701 
898.000000	 93.032904 
897.000000	 93.183671 
896.000000	 93.330103 
895.000000	 93.475804 
894.000000	 93.615529 
893.000000	 93.744288 
892.000000	 93.868068 
891.000000	 93.995641 
890.000000	 94.122527 
889.000000	 94.232035 
888.000000	 94.309616 
887.000000	 94.348789 
886.000000	 94.348427 
885.000000	 94.315333 
884.000000	 94.267019 
883.000000	 94.219962 
882.000000	 94.174551 
881.000000	 94.122393 
880.000000	 94.068600 
879.000000	 94.034599 
878.000000	 94.036775 
877.000000	 94.074772 
876.000000	 94.144175 
875.000000	 94.248342 
874.000000	 94.392800 
873.000000	 94.577739 
872.000000	 94.799215 
871.000000	 95.048281 
870.000000	 95.306821 
869.000000	 95.554111 
868.000000	 95.780801 
867.000000	 95.990171 
866.000000	 96.185725 
865.000000	 96.365075 
864.000000	 96.526667 
863.000000	 96.674544 
862.000000	 96.813428 
861.000000	 96.944558 
860.000000	 97.068857 
859.000000	 97.189418 
858.000000	 97.307814 
857.000000	 97.420892 
856.000000	 97.523519 
855.000000	 97.613394 
854.000000	 97.693112 
853.000000	 97.768406 
852.000000	 97.842664 
851.000000	 97.911994 
850.000000	 97.969255 
849.000000	 98.015627 
848.000000	 98.063421 
847.000000	 98.122382 
846.000000	 98.186897 
845.000000	 98.242847 
844.000000	 98.283791 
843.000000	 98.313676 
842.000000	 98.336659 
841.000000	 98.352553 
840.000000	 98.361775 
839.000000	 98.367285 
838.000000	 98.370582 
837.000000	 98.370809 
836.000000	 98.367743 
835.000000	 98.361222 
834.000000	 98.349346 
833.000000	 98.333087 
832.000000	 98.320822 
831.000000	 98.320920 
830.000000	 98.330703 
829.000000	 98.341221 
828.000000	 98.352956 
827.000000	 98.376418 
826.000000	 98.414422 
825.000000	 98.454050 
824.000000	 98.480902 
823.000000	 98.491658 
822.000000	 98.487569 
821.000000	 98.465881 
820.000000	 98.424985 
819.000000	 98.370866 
818.000000	 98.311526 
817.000000	 98.247796 
816.000000	 98.172319 
815.000000	 98.073499 
814.000000	 97.937473 
813.000000	 97.749708 
812.000000	 97.498440 
811.000000	 97.175749 
810.000000	 96.774984 
809.000000	 96.291143 
808.000000	 95.726209 
807.000000	 95.090550 
806.000000	 94.396754 
805.000000	 93.658079 
804.000000	 92.897956 
803.000000	 92.154414 
802.000000	 91.468169 
801.000000	 90.870979 
800.000000	 90.388089 
799.000000	 90.039160 
798.000000	 89.828080 
797.000000	 89.741007 
796.000000	 89.759584 
795.000000	 89.865863 
794.000000	 90.032480 
793.000000	 90.223140 
792.000000	 90.409352 
791.000000	 90.576954 
790.000000	 90.713518 
789.000000	 90.800606 
788.000000	 90.822533 
787.000000	 90.773407 
786.000000	 90.651910 
785.000000	 90.458731 
784.000000	 90.204921 
783.000000	 89.915708 
782.000000	 89.620889 
781.000000	 89.346904 
780.000000	 89.120271 
779.000000	 88.968145 
778.000000	 88.908537 
777.000000	 88.945973 
776.000000	 89.077836 
775.000000	 89.294603 
774.000000	 89.572544 
773.000000	 89.878982 
772.000000	 90.189918 
771.000000	 90.495867 
770.000000	 90.791034 
769.000000	 91.066221 
768.000000	 91.313487 
767.000000	 91.530340 
766.000000	 91.718998 
765.000000	 91.887279 
764.000000	 92.047973 
763.000000	 92.209956 
762.000000	 92.371446 
761.000000	 92.528289 
760.000000	 92.684701 
759.000000	 92.847122 
758.000000	 93.011940 
757.000000	 93.170479 
756.000000	 93.323143 
755.000000	 93.477082 
754.000000	 93.632055 
753.000000	 93.780327 
752.000000	 93.918994 
751.000000	 94.050660 
750.000000	 94.173033 
749.000000	 94.280439 
748.000000	 94.376720 
747.000000	 94.474985 
746.000000	 94.582093 
745.000000	 94.693419 
744.000000	 94.805602 
743.000000	 94.924640 
742.000000	 95.057559 
741.000000	 95.203361 
740.000000	 95.354492 
739.000000	 95.501141 
738.000000	 95.634277 
737.000000	 95.751591 
736.000000	 95.859911 
735.000000	 95.964879 
734.000000	 96.060199 
733.000000	 96.134486 
732.000000	 96.186184 
731.000000	 96.224213 
730.000000	 96.256721 
729.000000	 96.288056 
728.000000	 96.323414 
727.000000	 96.365982 
726.000000	 96.411311 
725.000000	 96.453870 
724.000000	 96.498392 
723.000000	 96.555343 
722.000000	 96.625743 
721.000000	 96.699974 
720.000000	 96.771202 
719.000000	 96.839330 
718.000000	 96.900606 
717.000000	 96.945438 
716.000000	 96.971532 
715.000000	 96.991219 
714.000000	 97.021566 
713.000000	 97.072407 
712.000000	 97.144952 
711.000000	 97.234683 
710.000000	 97.332476 
709.000000	 97.428363 
708.000000	 97.515202 
707.000000	 97.584555 
706.000000	 97.623153 
705.000000	 97.619997 
704.000000	 97.574044 
703.000000	 97.486627 
702.000000	 97.346661 
701.000000	 97.133231 
700.000000	 96.836311 
699.000000	 96.468241 
698.000000	 96.059826 
697.000000	 95.658502 
696.000000	 95.328108 
695.000000	 95.130064 
694.000000	 95.089747 
693.000000	 95.185961 
692.000000	 95.375278 
691.000000	 95.618344 
690.000000	 95.885466 
689.000000	 96.151444 
688.000000	 96.396135 
687.000000	 96.608307 
686.000000	 96.783185 
685.000000	 96.921985 
684.000000	 97.037137 
683.000000	 97.146573 
682.000000	 97.257000 
681.000000	 97.359618 
680.000000	 97.446522 
679.000000	 97.522325 
678.000000	 97.593785 
677.000000	 97.659902 
676.000000	 97.715868 
675.000000	 97.759634 
674.000000	 97.793469 
673.000000	 97.821190 
672.000000	 97.843324 
671.000000	 97.855861 
670.000000	 97.859451 
669.000000	 97.872572 
668.000000	 97.934094 
667.000000	 98.051753 
666.000000	 98.167947 
665.000000	 98.247692 
664.000000	 98.302109 
663.000000	 98.348826 
662.000000	 98.393931 
661.000000	 98.437756 
660.000000	 98.482981 
659.000000	 98.525849 
658.000000	 98.550539 
657.000000	 98.548372 
656.000000	 98.529282 
655.000000	 98.504150 
654.000000	 98.469376 
653.000000	 98.418499 
652.000000	 98.362798 
651.000000	 98.332793 
650.000000	 98.354757 

