4000.000000	98.583662 
3999.000000	98.583293 
3998.000000	98.582885 
3997.000000	98.582604 
3996.000000	98.582642 
3995.000000	98.583046 
3994.000000	98.583656 
3993.000000	98.584182 
3992.000000	98.584399 
3991.000000	98.584277 
3990.000000	98.584051 
3989.000000	98.584067 
3988.000000	98.584428 
3987.000000	98.584823 
3986.000000	98.584841 
3985.000000	98.584375 
3984.000000	98.583669 
3983.000000	98.583078 
3982.000000	98.582839 
3981.000000	98.582965 
3980.000000	98.583264 
3979.000000	98.583431 
3978.000000	98.583203 
3977.000000	98.582495 
3976.000000	98.581441 
3975.000000	98.580331 
3974.000000	98.579511 
3973.000000	98.579281 
3972.000000	98.579746 
3971.000000	98.580711 
3970.000000	98.581812 
3969.000000	98.582804 
3968.000000	98.583592 
3967.000000	98.584070 
3966.000000	98.584107 
3965.000000	98.583656 
3964.000000	98.582848 
3963.000000	98.581994 
3962.000000	98.581443 
3961.000000	98.581432 
3960.000000	98.581914 
3959.000000	98.582409 
3958.000000	98.582300 
3957.000000	98.581483 
3956.000000	98.580519 
3955.000000	98.580117 
3954.000000	98.580539 
3953.000000	98.581459 
3952.000000	98.582269 
3951.000000	98.582562 
3950.000000	98.582557 
3949.000000	98.582845 
3948.000000	98.583496 
3947.000000	98.583892 
3946.000000	98.583437 
3945.000000	98.582054 
3944.000000	98.580040 
3943.000000	98.577948 
3942.000000	98.576427 
3941.000000	98.575888 
3940.000000	98.576252 
3939.000000	98.576989 
3938.000000	98.577590 
3937.000000	98.578104 
3936.000000	98.578977 
3935.000000	98.580365 
3934.000000	98.581916 
3933.000000	98.583119 
3932.000000	98.583637 
3931.000000	98.583232 
3930.000000	98.581846 
3929.000000	98.579792 
3928.000000	98.577738 
3927.000000	98.576442 
3926.000000	98.576086 
3925.000000	98.576282 
3924.000000	98.576912 
3923.000000	98.578084 
3922.000000	98.579483 
3921.000000	98.580514 
3920.000000	98.581071 
3919.000000	98.581635 
3918.000000	98.582287 
3917.000000	98.582436 
3916.000000	98.581749 
3915.000000	98.580665 
3914.000000	98.579806 
3913.000000	98.579337 
3912.000000	98.579178 
3911.000000	98.579219 
3910.000000	98.579269 
3909.000000	98.579192 
3908.000000	98.579041 
3907.000000	98.578934 
3906.000000	98.578921 
3905.000000	98.578922 
3904.000000	98.578876 
3903.000000	98.578783 
3902.000000	98.578678 
3901.000000	98.578584 
3900.000000	98.578488 
3899.000000	98.578383 
3898.000000	98.578269 
3897.000000	98.578139 
3896.000000	98.577982 
3895.000000	98.577789 
3894.000000	98.577563 
3893.000000	98.577314 
3892.000000	98.577055 
3891.000000	98.576794 
3890.000000	98.576539 
3889.000000	98.576302 
3888.000000	98.576092 
3887.000000	98.575903 
3886.000000	98.575725 
3885.000000	98.575547 
3884.000000	98.575363 
3883.000000	98.575172 
3882.000000	98.574975 
3881.000000	98.574780 
3880.000000	98.574589 
3879.000000	98.574401 
3878.000000	98.574210 
3877.000000	98.574006 
3876.000000	98.573784 
3875.000000	98.573543 
3874.000000	98.573296 
3873.000000	98.573074 
3872.000000	98.572914 
3871.000000	98.572823 
3870.000000	98.572733 
3869.000000	98.572594 
3868.000000	98.572464 
3867.000000	98.572386 
3866.000000	98.572227 
3865.000000	98.571877 
3864.000000	98.571560 
3863.000000	98.571546 
3862.000000	98.571725 
3861.000000	98.571857 
3860.000000	98.571968 
3859.000000	98.572109 
3858.000000	98.572141 
3857.000000	98.571804 
3856.000000	98.571070 
3855.000000	98.569895 
3854.000000	98.568646 
3853.000000	98.568132 
3852.000000	98.568615 
3851.000000	98.569748 
3850.000000	98.570972 
3849.000000	98.571906 
3848.000000	98.572718 
3847.000000	98.573679 
3846.000000	98.574502 
3845.000000	98.574804 
3844.000000	98.574629 
3843.000000	98.574138 
3842.000000	98.573577 
3841.000000	98.573362 
3840.000000	98.573611 
3839.000000	98.574115 
3838.000000	98.574591 
3837.000000	98.574789 
3836.000000	98.574732 
3835.000000	98.574593 
3834.000000	98.574596 
3833.000000	98.574850 
3832.000000	98.575264 
3831.000000	98.575711 
3830.000000	98.576074 
3829.000000	98.576254 
3828.000000	98.576271 
3827.000000	98.576180 
3826.000000	98.576030 
3825.000000	98.575980 
3824.000000	98.576132 
3823.000000	98.576316 
3822.000000	98.576320 
3821.000000	98.576148 
3820.000000	98.575978 
3819.000000	98.575898 
3818.000000	98.575812 
3817.000000	98.575578 
3816.000000	98.575220 
3815.000000	98.574884 
3814.000000	98.574647 
3813.000000	98.574449 
3812.000000	98.574232 
3811.000000	98.574003 
3810.000000	98.573775 
3809.000000	98.573540 
3808.000000	98.573291 
3807.000000	98.573014 
3806.000000	98.572708 
3805.000000	98.572386 
3804.000000	98.572068 
3803.000000	98.571744 
3802.000000	98.571391 
3801.000000	98.571011 
3800.000000	98.570647 
3799.000000	98.570344 
3798.000000	98.570105 
3797.000000	98.569906 
3796.000000	98.569734 
3795.000000	98.569592 
3794.000000	98.569449 
3793.000000	98.569244 
3792.000000	98.568949 
3791.000000	98.568644 
3790.000000	98.568437 
3789.000000	98.568329 
3788.000000	98.568241 
3787.000000	98.568162 
3786.000000	98.568133 
3785.000000	98.568132 
3784.000000	98.568111 
3783.000000	98.568139 
3782.000000	98.568305 
3781.000000	98.568565 
3780.000000	98.568825 
3779.000000	98.569086 
3778.000000	98.569395 
3777.000000	98.569785 
3776.000000	98.570221 
3775.000000	98.570531 
3774.000000	98.570621 
3773.000000	98.570714 
3772.000000	98.571138 
3771.000000	98.571809 
3770.000000	98.572405 
3769.000000	98.572920 
3768.000000	98.573510 
3767.000000	98.574197 
3766.000000	98.574831 
3765.000000	98.575253 
3764.000000	98.575669 
3763.000000	98.576382 
3762.000000	98.577099 
3761.000000	98.577224 
3760.000000	98.577011 
3759.000000	98.577555 
3758.000000	98.578945 
3757.000000	98.580170 
3756.000000	98.580976 
3755.000000	98.581784 
3754.000000	98.582589 
3753.000000	98.582869 
3752.000000	98.583084 
3751.000000	98.584644 
3750.000000	98.586448 
3749.000000	98.586033 
3748.000000	98.583768 
3747.000000	98.582404 
3746.000000	98.583013 
3745.000000	98.583263 
3744.000000	98.581304 
3743.000000	98.579179 
3742.000000	98.579156 
3741.000000	98.580094 
3740.000000	98.580112 
3739.000000	98.580490 
3738.000000	98.583227 
3737.000000	98.586540 
3736.000000	98.587733 
3735.000000	98.587135 
3734.000000	98.586524 
3733.000000	98.584809 
3732.000000	98.580160 
3731.000000	98.574241 
3730.000000	98.570179 
3729.000000	98.569089 
3728.000000	98.569305 
3727.000000	98.568559 
3726.000000	98.566724 
3725.000000	98.565013 
3724.000000	98.563274 
3723.000000	98.560432 
3722.000000	98.556962 
3721.000000	98.553999 
3720.000000	98.551323 
3719.000000	98.548871 
3718.000000	98.546819 
3717.000000	98.545277 
3716.000000	98.545252 
3715.000000	98.546982 
3714.000000	98.548740 
3713.000000	98.548167 
3712.000000	98.545393 
3711.000000	98.541852 
3710.000000	98.537187 
3709.000000	98.531128 
3708.000000	98.524512 
3707.000000	98.518230 
3706.000000	98.512913 
3705.000000	98.508497 
3704.000000	98.504071 
3703.000000	98.498784 
3702.000000	98.492988 
3701.000000	98.487221 
3700.000000	98.481204 
3699.000000	98.475009 
3698.000000	98.468929 
3697.000000	98.462917 
3696.000000	98.458213 
3695.000000	98.456449 
3694.000000	98.456167 
3693.000000	98.453567 
3692.000000	98.447358 
3691.000000	98.440607 
3690.000000	98.436909 
3689.000000	98.435528 
3688.000000	98.432565 
3687.000000	98.427275 
3686.000000	98.422754 
3685.000000	98.420503 
3684.000000	98.419409 
3683.000000	98.418508 
3682.000000	98.417439 
3681.000000	98.414343 
3680.000000	98.407034 
3679.000000	98.397021 
3678.000000	98.389721 
3677.000000	98.386936 
3676.000000	98.384145 
3675.000000	98.377952 
3674.000000	98.369585 
3673.000000	98.361748 
3672.000000	98.354302 
3671.000000	98.344813 
3670.000000	98.334365 
3669.000000	98.326086 
3668.000000	98.319711 
3667.000000	98.313436 
3666.000000	98.307735 
3665.000000	98.304083 
3664.000000	98.302104 
3663.000000	98.299457 
3662.000000	98.293536 
3661.000000	98.283754 
3660.000000	98.272588 
3659.000000	98.263065 
3658.000000	98.255768 
3657.000000	98.248057 
3656.000000	98.237349 
3655.000000	98.225432 
3654.000000	98.216409 
3653.000000	98.211271 
3652.000000	98.206650 
3651.000000	98.199502 
3650.000000	98.192028 
3649.000000	98.186137 
3648.000000	98.178176 
3647.000000	98.166236 
3646.000000	98.153877 
3645.000000	98.144362 
3644.000000	98.137366 
3643.000000	98.131217 
3642.000000	98.124152 
3641.000000	98.115578 
3640.000000	98.105689 
3639.000000	98.094435 
3638.000000	98.082555 
3637.000000	98.072046 
3636.000000	98.064749 
3635.000000	98.059410 
3634.000000	98.053147 
3633.000000	98.046300 
3632.000000	98.041706 
3631.000000	98.039682 
3630.000000	98.036510 
3629.000000	98.030579 
3628.000000	98.022795 
3627.000000	98.014735 
3626.000000	98.007380 
3625.000000	98.000040 
3624.000000	97.992159 
3623.000000	97.983978 
3622.000000	97.975434 
3621.000000	97.965509 
3620.000000	97.956435 
3619.000000	97.953576 
3618.000000	97.957539 
3617.000000	97.963795 
3616.000000	97.970363 
3615.000000	97.978006 
3614.000000	97.987718 
3613.000000	97.999884 
3612.000000	98.013427 
3611.000000	98.025874 
3610.000000	98.034489 
3609.000000	98.037648 
3608.000000	98.036192 
3607.000000	98.032325 
3606.000000	98.026957 
3605.000000	98.020252 
3604.000000	98.013057 
3603.000000	98.006920 
3602.000000	98.003784 
3601.000000	98.004379 
3600.000000	98.008927 
3599.000000	98.017107 
3598.000000	98.025809 
3597.000000	98.030827 
3596.000000	98.031579 
3595.000000	98.031006 
3594.000000	98.032329 
3593.000000	98.036089 
3592.000000	98.039515 
3591.000000	98.040044 
3590.000000	98.037191 
3589.000000	98.032652 
3588.000000	98.029297 
3587.000000	98.028524 
3586.000000	98.028624 
3585.000000	98.028091 
3584.000000	98.027286 
3583.000000	98.027139 
3582.000000	98.027610 
3581.000000	98.027718 
3580.000000	98.026711 
3579.000000	98.024992 
3578.000000	98.023741 
3577.000000	98.023806 
3576.000000	98.025143 
3575.000000	98.026839 
3574.000000	98.027589 
3573.000000	98.026750 
3572.000000	98.024698 
3571.000000	98.022642 
3570.000000	98.021869 
3569.000000	98.022549 
3568.000000	98.023538 
3567.000000	98.023544 
3566.000000	98.022123 
3565.000000	98.019904 
3564.000000	98.017956 
3563.000000	98.016684 
3562.000000	98.015687 
3561.000000	98.014525 
3560.000000	98.013146 
3559.000000	98.011796 
3558.000000	98.010510 
3557.000000	98.008960 
3556.000000	98.006967 
3555.000000	98.005060 
3554.000000	98.004084 
3553.000000	98.004313 
3552.000000	98.005087 
3551.000000	98.005421 
3550.000000	98.004985 
3549.000000	98.004220 
3548.000000	98.003695 
3547.000000	98.003611 
3546.000000	98.003588 
3545.000000	98.003051 
3544.000000	98.001904 
3543.000000	98.000683 
3542.000000	97.999972 
3541.000000	97.999804 
3540.000000	97.999611 
3539.000000	97.998838 
3538.000000	97.997547 
3537.000000	97.996379 
3536.000000	97.995921 
3535.000000	97.996083 
3534.000000	97.996348 
3533.000000	97.996374 
3532.000000	97.996199 
3531.000000	97.995955 
3530.000000	97.995675 
3529.000000	97.995486 
3528.000000	97.995644 
3527.000000	97.996233 
3526.000000	97.996869 
3525.000000	97.996951 
3524.000000	97.996251 
3523.000000	97.995144 
3522.000000	97.994208 
3521.000000	97.993744 
3520.000000	97.993682 
3519.000000	97.993779 
3518.000000	97.993804 
3517.000000	97.993626 
3516.000000	97.993279 
3515.000000	97.992935 
3514.000000	97.992913 
3513.000000	97.993526 
3512.000000	97.994796 
3511.000000	97.996393 
3510.000000	97.997891 
3509.000000	97.998941 
3508.000000	97.999248 
3507.000000	97.998718 
3506.000000	97.997676 
3505.000000	97.996873 
3504.000000	97.996971 
3503.000000	97.997910 
3502.000000	97.998884 
3501.000000	97.999100 
3500.000000	97.998418 
3499.000000	97.997245 
3498.000000	97.996201 
3497.000000	97.995843 
3496.000000	97.996366 
3495.000000	97.997276 
3494.000000	97.997577 
3493.000000	97.996639 
3492.000000	97.994721 
3491.000000	97.992674 
3490.000000	97.991205 
3489.000000	97.990446 
3488.000000	97.990109 
3487.000000	97.989795 
3486.000000	97.989175 
3485.000000	97.988120 
3484.000000	97.986797 
3483.000000	97.985587 
3482.000000	97.984779 
3481.000000	97.984311 
3480.000000	97.983812 
3479.000000	97.982999 
3478.000000	97.981966 
3477.000000	97.981051 
3476.000000	97.980421 
3475.000000	97.979844 
3474.000000	97.978918 
3473.000000	97.977517 
3472.000000	97.975889 
3471.000000	97.974357 
3470.000000	97.973089 
3469.000000	97.972132 
3468.000000	97.971380 
3467.000000	97.970430 
3466.000000	97.968785 
3465.000000	97.966350 
3464.000000	97.963664 
3463.000000	97.961447 
3462.000000	97.959878 
3461.000000	97.958538 
3460.000000	97.956988 
3459.000000	97.955290 
3458.000000	97.953785 
3457.000000	97.952597 
3456.000000	97.951484 
3455.000000	97.950150 
3454.000000	97.948633 
3453.000000	97.947211 
3452.000000	97.946023 
3451.000000	97.944864 
3450.000000	97.943364 
3449.000000	97.941419 
3448.000000	97.939352 
3447.000000	97.937587 
3446.000000	97.936109 
3445.000000	97.934470 
3444.000000	97.932385 
3443.000000	97.930184 
3442.000000	97.928515 
3441.000000	97.927683 
3440.000000	97.927381 
3439.000000	97.926974 
3438.000000	97.926084 
3437.000000	97.924885 
3436.000000	97.923796 
3435.000000	97.922957 
3434.000000	97.922111 
3433.000000	97.920931 
3432.000000	97.919489 
3431.000000	97.918177 
3430.000000	97.917151 
3429.000000	97.916092 
3428.000000	97.914571 
3427.000000	97.912566 
3426.000000	97.910467 
3425.000000	97.908688 
3424.000000	97.907387 
3423.000000	97.906520 
3422.000000	97.905951 
3421.000000	97.905458 
3420.000000	97.904706 
3419.000000	97.903428 
3418.000000	97.901740 
3417.000000	97.900152 
3416.000000	97.899143 
3415.000000	97.898790 
3414.000000	97.898818 
3413.000000	97.898928 
3412.000000	97.898980 
3411.000000	97.898930 
3410.000000	97.898781 
3409.000000	97.898593 
3408.000000	97.898343 
3407.000000	97.897779 
3406.000000	97.896605 
3405.000000	97.894979 
3404.000000	97.893596 
3403.000000	97.893046 
3402.000000	97.893182 
3401.000000	97.893279 
3400.000000	97.892808 
3399.000000	97.891886 
3398.000000	97.890963 
3397.000000	97.890260 
3396.000000	97.889690 
3395.000000	97.889262 
3394.000000	97.889311 
3393.000000	97.890136 
3392.000000	97.891440 
3391.000000	97.892376 
3390.000000	97.892316 
3389.000000	97.891402 
3388.000000	97.890331 
3387.000000	97.889700 
3386.000000	97.889667 
3385.000000	97.890171 
3384.000000	97.891148 
3383.000000	97.892443 
3382.000000	97.893775 
3381.000000	97.894877 
3380.000000	97.895582 
3379.000000	97.895724 
3378.000000	97.895200 
3377.000000	97.894210 
3376.000000	97.893246 
3375.000000	97.892733 
3374.000000	97.892806 
3373.000000	97.893471 
3372.000000	97.894685 
3371.000000	97.896177 
3370.000000	97.897494 
3369.000000	97.898426 
3368.000000	97.899171 
3367.000000	97.899874 
3366.000000	97.900306 
3365.000000	97.900276 
3364.000000	97.900176 
3363.000000	97.900697 
3362.000000	97.902017 
3361.000000	97.903632 
3360.000000	97.905008 
3359.000000	97.906115 
3358.000000	97.907200 
3357.000000	97.908292 
3356.000000	97.909168 
3355.000000	97.909653 
3354.000000	97.909772 
3353.000000	97.909685 
3352.000000	97.909593 
3351.000000	97.909682 
3350.000000	97.910103 
3349.000000	97.910997 
3348.000000	97.912475 
3347.000000	97.914503 
3346.000000	97.916837 
3345.000000	97.919154 
3344.000000	97.921201 
3343.000000	97.922740 
3342.000000	97.923500 
3341.000000	97.923347 
3340.000000	97.922486 
3339.000000	97.921385 
3338.000000	97.920549 
3337.000000	97.920437 
3336.000000	97.921404 
3335.000000	97.923444 
3334.000000	97.925982 
3333.000000	97.928122 
3332.000000	97.929230 
3331.000000	97.929198 
3330.000000	97.928313 
3329.000000	97.927120 
3328.000000	97.926325 
3327.000000	97.926487 
3326.000000	97.927608 
3325.000000	97.929078 
3324.000000	97.930214 
3323.000000	97.930832 
3322.000000	97.931311 
3321.000000	97.932214 
3320.000000	97.933881 
3319.000000	97.936212 
3318.000000	97.938716 
3317.000000	97.940827 
3316.000000	97.942298 
3315.000000	97.943367 
3314.000000	97.944536 
3313.000000	97.946159 
3312.000000	97.948147 
3311.000000	97.950054 
3310.000000	97.951486 
3309.000000	97.952421 
3308.000000	97.953105 
3307.000000	97.953694 
3306.000000	97.954086 
3305.000000	97.954157 
3304.000000	97.954052 
3303.000000	97.954157 
3302.000000	97.954832 
3301.000000	97.956167 
3300.000000	97.957919 
3299.000000	97.959616 
3298.000000	97.960867 
3297.000000	97.961653 
3296.000000	97.962329 
3295.000000	97.963300 
3294.000000	97.964666 
3293.000000	97.966207 
3292.000000	97.967574 
3291.000000	97.968545 
3290.000000	97.969151 
3289.000000	97.969655 
3288.000000	97.970361 
3287.000000	97.971359 
3286.000000	97.972496 
3285.000000	97.973575 
3284.000000	97.974520 
3283.000000	97.975377 
3282.000000	97.976215 
3281.000000	97.977074 
3280.000000	97.977968 
3279.000000	97.978896 
3278.000000	97.979838 
3277.000000	97.980776 
3276.000000	97.981696 
3275.000000	97.982589 
3274.000000	97.983433 
3273.000000	97.984209 
3272.000000	97.984921 
3271.000000	97.985614 
3270.000000	97.986376 
3269.000000	97.987295 
3268.000000	97.988396 
3267.000000	97.989586 
3266.000000	97.990694 
3265.000000	97.991611 
3264.000000	97.992360 
3263.000000	97.993030 
3262.000000	97.993642 
3261.000000	97.994176 
3260.000000	97.994713 
3259.000000	97.995449 
3258.000000	97.996531 
3257.000000	97.997952 
3256.000000	97.999580 
3255.000000	98.001198 
3254.000000	98.002556 
3253.000000	98.003502 
3252.000000	98.004127 
3251.000000	98.004741 
3250.000000	98.005602 
3249.000000	98.006720 
3248.000000	98.007941 
3247.000000	98.009106 
3246.000000	98.010114 
3245.000000	98.010940 
3244.000000	98.011701 
3243.000000	98.012628 
3242.000000	98.013834 
3241.000000	98.015175 
3240.000000	98.016407 
3239.000000	98.017515 
3238.000000	98.018758 
3237.000000	98.020375 
3236.000000	98.022322 
3235.000000	98.024291 
3234.000000	98.025948 
3233.000000	98.027146 
3232.000000	98.027982 
3231.000000	98.028703 
3230.000000	98.029525 
3229.000000	98.030537 
3228.000000	98.031708 
3227.000000	98.032977 
3226.000000	98.034317 
3225.000000	98.035758 
3224.000000	98.037373 
3223.000000	98.039164 
3222.000000	98.040947 
3221.000000	98.042441 
3220.000000	98.043538 
3219.000000	98.044435 
3218.000000	98.045437 
3217.000000	98.046616 
3216.000000	98.047784 
3215.000000	98.048798 
3214.000000	98.049790 
3213.000000	98.051028 
3212.000000	98.052619 
3211.000000	98.054421 
3210.000000	98.056170 
3209.000000	98.057638 
3208.000000	98.058676 
3207.000000	98.059295 
3206.000000	98.059772 
3205.000000	98.060546 
3204.000000	98.061858 
3203.000000	98.063561 
3202.000000	98.065301 
3201.000000	98.066906 
3200.000000	98.068458 
3199.000000	98.070015 
3198.000000	98.071439 
3197.000000	98.072571 
3196.000000	98.073473 
3195.000000	98.074422 
3194.000000	98.075659 
3193.000000	98.077202 
3192.000000	98.078895 
3191.000000	98.080611 
3190.000000	98.082389 
3189.000000	98.084357 
3188.000000	98.086521 
3187.000000	98.088613 
3186.000000	98.090252 
3185.000000	98.091328 
3184.000000	98.092203 
3183.000000	98.093444 
3182.000000	98.095261 
3181.000000	98.097342 
3180.000000	98.099221 
3179.000000	98.100772 
3178.000000	98.102265 
3177.000000	98.104010 
3176.000000	98.106033 
3175.000000	98.108076 
3174.000000	98.109805 
3173.000000	98.111046 
3172.000000	98.111942 
3171.000000	98.112902 
3170.000000	98.114283 
3169.000000	98.116041 
3168.000000	98.117761 
3167.000000	98.119087 
3166.000000	98.120099 
3165.000000	98.121208 
3164.000000	98.122691 
3163.000000	98.124426 
3162.000000	98.126087 
3161.000000	98.127512 
3160.000000	98.128873 
3159.000000	98.130525 
3158.000000	98.132712 
3157.000000	98.135355 
3156.000000	98.138059 
3155.000000	98.140364 
3154.000000	98.142055 
3153.000000	98.143285 
3152.000000	98.144364 
3151.000000	98.145421 
3150.000000	98.146293 
3149.000000	98.146785 
3148.000000	98.147054 
3147.000000	98.147658 
3146.000000	98.149145 
3145.000000	98.151623 
3144.000000	98.154771 
3143.000000	98.158197 
3142.000000	98.161643 
3141.000000	98.164840 
3140.000000	98.167386 
3139.000000	98.169003 
3138.000000	98.169896 
3137.000000	98.170655 
3136.000000	98.171786 
3135.000000	98.173429 
3134.000000	98.175480 
3133.000000	98.177713 
3132.000000	98.179739 
3131.000000	98.181134 
3130.000000	98.181828 
3129.000000	98.182310 
3128.000000	98.183274 
3127.000000	98.185025 
3126.000000	98.187349 
3125.000000	98.189847 
3124.000000	98.192285 
3123.000000	98.194629 
3122.000000	98.196858 
3121.000000	98.198857 
3120.000000	98.200491 
3119.000000	98.201738 
3118.000000	98.202787 
3117.000000	98.203965 
3116.000000	98.205493 
3115.000000	98.207337 
3114.000000	98.209296 
3113.000000	98.211218 
3112.000000	98.213072 
3111.000000	98.214866 
3110.000000	98.216584 
3109.000000	98.218182 
3108.000000	98.219597 
3107.000000	98.220788 
3106.000000	98.221844 
3105.000000	98.222985 
3104.000000	98.224335 
3103.000000	98.225784 
3102.000000	98.227123 
3101.000000	98.228354 
3100.000000	98.229718 
3099.000000	98.231356 
3098.000000	98.233091 
3097.000000	98.234617 
3096.000000	98.235863 
3095.000000	98.237041 
3094.000000	98.238391 
3093.000000	98.239951 
3092.000000	98.241558 
3091.000000	98.243012 
3090.000000	98.244239 
3089.000000	98.245317 
3088.000000	98.246410 
3087.000000	98.247642 
3086.000000	98.249024 
3085.000000	98.250496 
3084.000000	98.251970 
3083.000000	98.253364 
3082.000000	98.254610 
3081.000000	98.255723 
3080.000000	98.256864 
3079.000000	98.258225 
3078.000000	98.259796 
3077.000000	98.261285 
3076.000000	98.262360 
3075.000000	98.262969 
3074.000000	98.263429 
3073.000000	98.264134 
3072.000000	98.265149 
3071.000000	98.266137 
3070.000000	98.266790 
3069.000000	98.267300 
3068.000000	98.268115 
3067.000000	98.269177 
3066.000000	98.269872 
3065.000000	98.269988 
3064.000000	98.270304 
3063.000000	98.271597 
3062.000000	98.273357 
3061.000000	98.274298 
3060.000000	98.274186 
3059.000000	98.274323 
3058.000000	98.275817 
3057.000000	98.277965 
3056.000000	98.279011 
3055.000000	98.278263 
3054.000000	98.276881 
3053.000000	98.276570 
3052.000000	98.277858 
3051.000000	98.279835 
3050.000000	98.281285 
3049.000000	98.281960 
3048.000000	98.282642 
3047.000000	98.284051 
3046.000000	98.285898 
3045.000000	98.287241 
3044.000000	98.287717 
3043.000000	98.288103 
3042.000000	98.289347 
3041.000000	98.291224 
3040.000000	98.292317 
3039.000000	98.291550 
3038.000000	98.289358 
3037.000000	98.287044 
3036.000000	98.285214 
3035.000000	98.283432 
3034.000000	98.281546 
3033.000000	98.280504 
3032.000000	98.281142 
3031.000000	98.282583 
3030.000000	98.282808 
3029.000000	98.280869 
3028.000000	98.277862 
3027.000000	98.275630 
3026.000000	98.274948 
3025.000000	98.275180 
3024.000000	98.275186 
3023.000000	98.274205 
3022.000000	98.272201 
3021.000000	98.269771 
3020.000000	98.267523 
3019.000000	98.265445 
3018.000000	98.263115 
3017.000000	98.260525 
3016.000000	98.258154 
3015.000000	98.256164 
3014.000000	98.254127 
3013.000000	98.251702 
3012.000000	98.248928 
3011.000000	98.245642 
3010.000000	98.241460 
3009.000000	98.236675 
3008.000000	98.232331 
3007.000000	98.228913 
3006.000000	98.225770 
3005.000000	98.222475 
3004.000000	98.219811 
3003.000000	98.218400 
3002.000000	98.217125 
3001.000000	98.214249 
3000.000000	98.209907 
2999.000000	98.206160 
2998.000000	98.204493 
2997.000000	98.204479 
2996.000000	98.204917 
2995.000000	98.205025 
2994.000000	98.203899 
2993.000000	98.200071 
2992.000000	98.192938 
2991.000000	98.184326 
2990.000000	98.177526 
2989.000000	98.174453 
2988.000000	98.174279 
2987.000000	98.174679 
2986.000000	98.173951 
2985.000000	98.171975 
2984.000000	98.169842 
2983.000000	98.169066 
2982.000000	98.170703 
2981.000000	98.174451 
2980.000000	98.178461 
2979.000000	98.180619 
2978.000000	98.180396 
2977.000000	98.179172 
2976.000000	98.178498 
2975.000000	98.178395 
2974.000000	98.177877 
2973.000000	98.176960 
2972.000000	98.177371 
2971.000000	98.180786 
2970.000000	98.186728 
2969.000000	98.192610 
2968.000000	98.195945 
2967.000000	98.196521 
2966.000000	98.196479 
2965.000000	98.198394 
2964.000000	98.203091 
2963.000000	98.209110 
2962.000000	98.214185 
2961.000000	98.217206 
2960.000000	98.218706 
2959.000000	98.219798 
2958.000000	98.221177 
2957.000000	98.223175 
2956.000000	98.226067 
2955.000000	98.229759 
2954.000000	98.233423 
2953.000000	98.236011 
2952.000000	98.237253 
2951.000000	98.238041 
2950.000000	98.239799 
2949.000000	98.243437 
2948.000000	98.248624 
2947.000000	98.253845 
2946.000000	98.257377 
2945.000000	98.258445 
2944.000000	98.257459 
2943.000000	98.255268 
2942.000000	98.252444 
2941.000000	98.249300 
2940.000000	98.246194 
2939.000000	98.243436 
2938.000000	98.241104 
2937.000000	98.239286 
2936.000000	98.238384 
2935.000000	98.238856 
2934.000000	98.240688 
2933.000000	98.243204 
2932.000000	98.245258 
2931.000000	98.245511 
2930.000000	98.242902 
2929.000000	98.237441 
2928.000000	98.230735 
2927.000000	98.225353 
2926.000000	98.223177 
2925.000000	98.224005 
2924.000000	98.225674 
2923.000000	98.225884 
2922.000000	98.224261 
2921.000000	98.222386 
2920.000000	98.221630 
2919.000000	98.221467 
2918.000000	98.220506 
2917.000000	98.218886 
2916.000000	98.218600 
2915.000000	98.221252 
2914.000000	98.226302 
2913.000000	98.231917 
2912.000000	98.236906 
2911.000000	98.241340 
2910.000000	98.245719 
2909.000000	98.250233 
2908.000000	98.254714 
2907.000000	98.258632 
2906.000000	98.261198 
2905.000000	98.261853 
2904.000000	98.260932 
2903.000000	98.259833 
2902.000000	98.260510 
2901.000000	98.264093 
2900.000000	98.270459 
2899.000000	98.277738 
2898.000000	98.283542 
2897.000000	98.286715 
2896.000000	98.287948 
2895.000000	98.288780 
2894.000000	98.290246 
2893.000000	98.292435 
2892.000000	98.294905 
2891.000000	98.297108 
2890.000000	98.298666 
2889.000000	98.299611 
2888.000000	98.300368 
2887.000000	98.301355 
2886.000000	98.302747 
2885.000000	98.304659 
2884.000000	98.307251 
2883.000000	98.310421 
2882.000000	98.313661 
2881.000000	98.316547 
2880.000000	98.319245 
2879.000000	98.322337 
2878.000000	98.326234 
2877.000000	98.330812 
2876.000000	98.335451 
2875.000000	98.339393 
2874.000000	98.342331 
2873.000000	98.344742 
2872.000000	98.347338 
2871.000000	98.349992 
2870.000000	98.351593 
2869.000000	98.351344 
2868.000000	98.349987 
2867.000000	98.349333 
2866.000000	98.350627 
2865.000000	98.353769 
2864.000000	98.357916 
2863.000000	98.362337 
2862.000000	98.366613 
2861.000000	98.370410 
2860.000000	98.373408 
2859.000000	98.375448 
2858.000000	98.376663 
2857.000000	98.377325 
2856.000000	98.377460 
2855.000000	98.376767 
2854.000000	98.375236 
2853.000000	98.373736 
2852.000000	98.373479 
2851.000000	98.374807 
2850.000000	98.377006 
2849.000000	98.379439 
2848.000000	98.382356 
2847.000000	98.386294 
2846.000000	98.391343 
2845.000000	98.397434 
2844.000000	98.404753 
2843.000000	98.413175 
2842.000000	98.421527 
2841.000000	98.428072 
2840.000000	98.431724 
2839.000000	98.432629 
2838.000000	98.432010 
2837.000000	98.431709 
2836.000000	98.433173 
2835.000000	98.436264 
2834.000000	98.439415 
2833.000000	98.441479 
2832.000000	98.442961 
2831.000000	98.444795 
2830.000000	98.446546 
2829.000000	98.447011 
2828.000000	98.446318 
2827.000000	98.446139 
2826.000000	98.447625 
2825.000000	98.450201 
2824.000000	98.452826 
2823.000000	98.455401 
2822.000000	98.458206 
2821.000000	98.460698 
2820.000000	98.461896 
2819.000000	98.461706 
2818.000000	98.461071 
2817.000000	98.460787 
2816.000000	98.460742 
2815.000000	98.460564 
2814.000000	98.460564 
2813.000000	98.461590 
2812.000000	98.464009 
2811.000000	98.467179 
2810.000000	98.470086 
2809.000000	98.472359 
2808.000000	98.474376 
2807.000000	98.476458 
2806.000000	98.478292 
2805.000000	98.479325 
2804.000000	98.479465 
2803.000000	98.479174 
2802.000000	98.478970 
2801.000000	98.479025 
2800.000000	98.479239 
2799.000000	98.479497 
2798.000000	98.479826 
2797.000000	98.480371 
2796.000000	98.481232 
2795.000000	98.482358 
2794.000000	98.483619 
2793.000000	98.484902 
2792.000000	98.486058 
2791.000000	98.486839 
2790.000000	98.487087 
2789.000000	98.486969 
2788.000000	98.486889 
2787.000000	98.487134 
2786.000000	98.487683 
2785.000000	98.488389 
2784.000000	98.489159 
2783.000000	98.489938 
2782.000000	98.490633 
2781.000000	98.491198 
2780.000000	98.491709 
2779.000000	98.492288 
2778.000000	98.492960 
2777.000000	98.493656 
2776.000000	98.494299 
2775.000000	98.494872 
2774.000000	98.495407 
2773.000000	98.495941 
2772.000000	98.496489 
2771.000000	98.497036 
2770.000000	98.497565 
2769.000000	98.498070 
2768.000000	98.498560 
2767.000000	98.499043 
2766.000000	98.499521 
2765.000000	98.499996 
2764.000000	98.500469 
2763.000000	98.500945 
2762.000000	98.501431 
2761.000000	98.501931 
2760.000000	98.502443 
2759.000000	98.502962 
2758.000000	98.503484 
2757.000000	98.504007 
2756.000000	98.504533 
2755.000000	98.505059 
2754.000000	98.505582 
2753.000000	98.506095 
2752.000000	98.506597 
2751.000000	98.507090 
2750.000000	98.507577 
2749.000000	98.508062 
2748.000000	98.508545 
2747.000000	98.509026 
2746.000000	98.509509 
2745.000000	98.509995 
2744.000000	98.510478 
2743.000000	98.510946 
2742.000000	98.511395 
2741.000000	98.511810 
2740.000000	98.512175 
2739.000000	98.512491 
2738.000000	98.512798 
2737.000000	98.513146 
2736.000000	98.513554 
2735.000000	98.513991 
2734.000000	98.514397 
2733.000000	98.514745 
2732.000000	98.515052 
2731.000000	98.515353 
2730.000000	98.515672 
2729.000000	98.516035 
2728.000000	98.516477 
2727.000000	98.517008 
2726.000000	98.517571 
2725.000000	98.518059 
2724.000000	98.518428 
2723.000000	98.518734 
2722.000000	98.519099 
2721.000000	98.519574 
2720.000000	98.520066 
2719.000000	98.520425 
2718.000000	98.520632 
2717.000000	98.520843 
2716.000000	98.521202 
2715.000000	98.521606 
2714.000000	98.521775 
2713.000000	98.521574 
2712.000000	98.521221 
2711.000000	98.521051 
2710.000000	98.521121 
2709.000000	98.521231 
2708.000000	98.521332 
2707.000000	98.521711 
2706.000000	98.522537 
2705.000000	98.523391 
2704.000000	98.523592 
2703.000000	98.523081 
2702.000000	98.522681 
2701.000000	98.523279 
2700.000000	98.524829 
2699.000000	98.526362 
2698.000000	98.526959 
2697.000000	98.526558 
2696.000000	98.525843 
2695.000000	98.525567 
2694.000000	98.526042 
2693.000000	98.526986 
2692.000000	98.527704 
2691.000000	98.527645 
2690.000000	98.527025 
2689.000000	98.526666 
2688.000000	98.526935 
2687.000000	98.527126 
2686.000000	98.526364 
2685.000000	98.525000 
2684.000000	98.524490 
2683.000000	98.525703 
2682.000000	98.527786 
2681.000000	98.529036 
2680.000000	98.528583 
2679.000000	98.526949 
2678.000000	98.525264 
2677.000000	98.524227 
2676.000000	98.523725 
2675.000000	98.523198 
2674.000000	98.522283 
2673.000000	98.521165 
2672.000000	98.520294 
2671.000000	98.519891 
2670.000000	98.519916 
2669.000000	98.520336 
2668.000000	98.520957 
2667.000000	98.521001 
2666.000000	98.519448 
2665.000000	98.516058 
2664.000000	98.511690 
2663.000000	98.507314 
2662.000000	98.503034 
2661.000000	98.498551 
2660.000000	98.494298 
2659.000000	98.491480 
2658.000000	98.490807 
2657.000000	98.491438 
2656.000000	98.491437 
2655.000000	98.489399 
2654.000000	98.485716 
2653.000000	98.482263 
2652.000000	98.480682 
2651.000000	98.480909 
2650.000000	98.481343 
2649.000000	98.480410 
2648.000000	98.477866 
2647.000000	98.474697 
2646.000000	98.472185 
2645.000000	98.471165 
2644.000000	98.471748 
2643.000000	98.473237 
2642.000000	98.474369 
2641.000000	98.474088 
2640.000000	98.472348 
2639.000000	98.470220 
2638.000000	98.469147 
2637.000000	98.469873 
2636.000000	98.471863 
2635.000000	98.473770 
2634.000000	98.474676 
2633.000000	98.474856 
2632.000000	98.475135 
2631.000000	98.475682 
2630.000000	98.475816 
2629.000000	98.475020 
2628.000000	98.473695 
2627.000000	98.472746 
2626.000000	98.472666 
2625.000000	98.473239 
2624.000000	98.473946 
2623.000000	98.474449 
2622.000000	98.474737 
2621.000000	98.474983 
2620.000000	98.475336 
2619.000000	98.475872 
2618.000000	98.476616 
2617.000000	98.477436 
2616.000000	98.477933 
2615.000000	98.477769 
2614.000000	98.477211 
2613.000000	98.477079 
2612.000000	98.477900 
2611.000000	98.479354 
2610.000000	98.480747 
2609.000000	98.481740 
2608.000000	98.482410 
2607.000000	98.482853 
2606.000000	98.483160 
2605.000000	98.483597 
2604.000000	98.484416 
2603.000000	98.485553 
2602.000000	98.486707 
2601.000000	98.487659 
2600.000000	98.488415 
2599.000000	98.489084 
2598.000000	98.489766 
2597.000000	98.490519 
2596.000000	98.491348 
2595.000000	98.492218 
2594.000000	98.493089 
2593.000000	98.493949 
2592.000000	98.494789 
2591.000000	98.495566 
2590.000000	98.496256 
2589.000000	98.496924 
2588.000000	98.497681 
2587.000000	98.498556 
2586.000000	98.499476 
2585.000000	98.500348 
2584.000000	98.501150 
2583.000000	98.501891 
2582.000000	98.502560 
2581.000000	98.503165 
2580.000000	98.503755 
2579.000000	98.504384 
2578.000000	98.505071 
2577.000000	98.505817 
2576.000000	98.506599 
2575.000000	98.507369 
2574.000000	98.508083 
2573.000000	98.508755 
2572.000000	98.509431 
2571.000000	98.510115 
2570.000000	98.510743 
2569.000000	98.511311 
2568.000000	98.511928 
2567.000000	98.512677 
2566.000000	98.513492 
2565.000000	98.514218 
2564.000000	98.514801 
2563.000000	98.515311 
2562.000000	98.515831 
2561.000000	98.516400 
2560.000000	98.517049 
2559.000000	98.517781 
2558.000000	98.518519 
2557.000000	98.519182 
2556.000000	98.519797 
2555.000000	98.520389 
2554.000000	98.520865 
2553.000000	98.521184 
2552.000000	98.521548 
2551.000000	98.522167 
2550.000000	98.522901 
2549.000000	98.523402 
2548.000000	98.523569 
2547.000000	98.523594 
2546.000000	98.523656 
2545.000000	98.523746 
2544.000000	98.523859 
2543.000000	98.524094 
2542.000000	98.524547 
2541.000000	98.525230 
2540.000000	98.526092 
2539.000000	98.526957 
2538.000000	98.527482 
2537.000000	98.527445 
2536.000000	98.527141 
2535.000000	98.527181 
2534.000000	98.527790 
2533.000000	98.528573 
2532.000000	98.529025 
2531.000000	98.528977 
2530.000000	98.528535 
2529.000000	98.527921 
2528.000000	98.527456 
2527.000000	98.527389 
2526.000000	98.527584 
2525.000000	98.527586 
2524.000000	98.527153 
2523.000000	98.526544 
2522.000000	98.526208 
2521.000000	98.526353 
2520.000000	98.526873 
2519.000000	98.527444 
2518.000000	98.527680 
2517.000000	98.527503 
2516.000000	98.527405 
2515.000000	98.528068 
2514.000000	98.529695 
2513.000000	98.531808 
2512.000000	98.533610 
2511.000000	98.534378 
2510.000000	98.533732 
2509.000000	98.532033 
2508.000000	98.530481 
2507.000000	98.530120 
2506.000000	98.530757 
2505.000000	98.531302 
2504.000000	98.531138 
2503.000000	98.530585 
2502.000000	98.530009 
2501.000000	98.529332 
2500.000000	98.528676 
2499.000000	98.528745 
2498.000000	98.530102 
2497.000000	98.532472 
2496.000000	98.534916 
2495.000000	98.536348 
2494.000000	98.536107 
2493.000000	98.534730 
2492.000000	98.534139 
2491.000000	98.536087 
2490.000000	98.540299 
2489.000000	98.544632 
2488.000000	98.547393 
2487.000000	98.548791 
2486.000000	98.549773 
2485.000000	98.550451 
2484.000000	98.550288 
2483.000000	98.549117 
2482.000000	98.547306 
2481.000000	98.545482 
2480.000000	98.544572 
2479.000000	98.545495 
2478.000000	98.548205 
2477.000000	98.551365 
2476.000000	98.553482 
2475.000000	98.554113 
2474.000000	98.553754 
2473.000000	98.553105 
2472.000000	98.552729 
2471.000000	98.552849 
2470.000000	98.553041 
2469.000000	98.552607 
2468.000000	98.551532 
2467.000000	98.550505 
2466.000000	98.549760 
2465.000000	98.548657 
2464.000000	98.546863 
2463.000000	98.545194 
2462.000000	98.544669 
2461.000000	98.545162 
2460.000000	98.545474 
2459.000000	98.544519 
2458.000000	98.542219 
2457.000000	98.539637 
2456.000000	98.538340 
2455.000000	98.539093 
2454.000000	98.540895 
2453.000000	98.541729 
2452.000000	98.540678 
2451.000000	98.538922 
2450.000000	98.538378 
2449.000000	98.539966 
2448.000000	98.543276 
2447.000000	98.547090 
2446.000000	98.550026 
2445.000000	98.551230 
2444.000000	98.550983 
2443.000000	98.550376 
2442.000000	98.550117 
2441.000000	98.550019 
2440.000000	98.549801 
2439.000000	98.549706 
2438.000000	98.549915 
2437.000000	98.549964 
2436.000000	98.549361 
2435.000000	98.548462 
2434.000000	98.548142 
2433.000000	98.548840 
2432.000000	98.550321 
2431.000000	98.552097 
2430.000000	98.553714 
2429.000000	98.554805 
2428.000000	98.555267 
2427.000000	98.555400 
2426.000000	98.555664 
2425.000000	98.556344 
2424.000000	98.557472 
2423.000000	98.558905 
2422.000000	98.560378 
2421.000000	98.561686 
2420.000000	98.562897 
2419.000000	98.564180 
2418.000000	98.565345 
2417.000000	98.565899 
2416.000000	98.565734 
2415.000000	98.565480 
2414.000000	98.565887 
2413.000000	98.567128 
2412.000000	98.568810 
2411.000000	98.570411 
2410.000000	98.571567 
2409.000000	98.572227 
2408.000000	98.572719 
2407.000000	98.573367 
2406.000000	98.573927 
2405.000000	98.573756 
2404.000000	98.572738 
2403.000000	98.571632 
2402.000000	98.571149 
2401.000000	98.571044 
2400.000000	98.570717 
2399.000000	98.570380 
2398.000000	98.570923 
2397.000000	98.572631 
2396.000000	98.574585 
2395.000000	98.575566 
2394.000000	98.575302 
2393.000000	98.574573 
2392.000000	98.574301 
2391.000000	98.574667 
2390.000000	98.575065 
2389.000000	98.574740 
2388.000000	98.573528 
2387.000000	98.572147 
2386.000000	98.571763 
2385.000000	98.573000 
2384.000000	98.575200 
2383.000000	98.576725 
2382.000000	98.576317 
2381.000000	98.574069 
2380.000000	98.571113 
2379.000000	98.568417 
2378.000000	98.566040 
2377.000000	98.563623 
2376.000000	98.561204 
2375.000000	98.559344 
2374.000000	98.558588 
2373.000000	98.559001 
2372.000000	98.560038 
2371.000000	98.560602 
2370.000000	98.559703 
2369.000000	98.557388 
2368.000000	98.554672 
2367.000000	98.552417 
2366.000000	98.550544 
2365.000000	98.548479 
2364.000000	98.545906 
2363.000000	98.542767 
2362.000000	98.539089 
2361.000000	98.535341 
2360.000000	98.532562 
2359.000000	98.531477 
2358.000000	98.531365 
2357.000000	98.530761 
2356.000000	98.529315 
2355.000000	98.527817 
2354.000000	98.526285 
2353.000000	98.523839 
2352.000000	98.520637 
2351.000000	98.517878 
2350.000000	98.515902 
2349.000000	98.513971 
2348.000000	98.511653 
2347.000000	98.509030 
2346.000000	98.506001 
2345.000000	98.502633 
2344.000000	98.499815 
2343.000000	98.498236 
2342.000000	98.497197 
2341.000000	98.495497 
2340.000000	98.492914 
2339.000000	98.490361 
2338.000000	98.488584 
2337.000000	98.487149 
2336.000000	98.485209 
2335.000000	98.482522 
2334.000000	98.479747 
2333.000000	98.477988 
2332.000000	98.478407 
2331.000000	98.480983 
2330.000000	98.483723 
2329.000000	98.483655 
2328.000000	98.478998 
2327.000000	98.469801 
2326.000000	98.457747 
2325.000000	98.445978 
2324.000000	98.438124 
2323.000000	98.436018 
2322.000000	98.438252 
2321.000000	98.441643 
2320.000000	98.444683 
2319.000000	98.447897 
2318.000000	98.451434 
2317.000000	98.453945 
2316.000000	98.454428 
2315.000000	98.453361 
2314.000000	98.451770 
2313.000000	98.449929 
2312.000000	98.447864 
2311.000000	98.446054 
2310.000000	98.445134 
2309.000000	98.445293 
2308.000000	98.446514 
2307.000000	98.448781 
2306.000000	98.451846 
2305.000000	98.455049 
2304.000000	98.457631 
2303.000000	98.458727 
2302.000000	98.457488 
2301.000000	98.453913 
2300.000000	98.449731 
2299.000000	98.447174 
2298.000000	98.446723 
2297.000000	98.446640 
2296.000000	98.445115 
2295.000000	98.441871 
2294.000000	98.437617 
2293.000000	98.432951 
2292.000000	98.428347 
2291.000000	98.424193 
2290.000000	98.420141 
2289.000000	98.415267 
2288.000000	98.409481 
2287.000000	98.404217 
2286.000000	98.401180 
2285.000000	98.400953 
2284.000000	98.403039 
2283.000000	98.406702 
2282.000000	98.411374 
2281.000000	98.416907 
2280.000000	98.423428 
2279.000000	98.430100 
2278.000000	98.434391 
2277.000000	98.434380 
2276.000000	98.431869 
2275.000000	98.431131 
2274.000000	98.433935 
2273.000000	98.437766 
2272.000000	98.439758 
2271.000000	98.440550 
2270.000000	98.442991 
2269.000000	98.448312 
2268.000000	98.454844 
2267.000000	98.459743 
2266.000000	98.461197 
2265.000000	98.459584 
2264.000000	98.456920 
2263.000000	98.454721 
2262.000000	98.452469 
2261.000000	98.448746 
2260.000000	98.443535 
2259.000000	98.438530 
2258.000000	98.435213 
2257.000000	98.433759 
2256.000000	98.433816 
2255.000000	98.435125 
2254.000000	98.437188 
2253.000000	98.439241 
2252.000000	98.440914 
2251.000000	98.442315 
2250.000000	98.443377 
2249.000000	98.443702 
2248.000000	98.443182 
2247.000000	98.442136 
2246.000000	98.440958 
2245.000000	98.439845 
2244.000000	98.438855 
2243.000000	98.437952 
2242.000000	98.437022 
2241.000000	98.436093 
2240.000000	98.435527 
2239.000000	98.435724 
2238.000000	98.436522 
2237.000000	98.437069 
2236.000000	98.436600 
2235.000000	98.435235 
2234.000000	98.433996 
2233.000000	98.433913 
2232.000000	98.435182 
2231.000000	98.437002 
2230.000000	98.438114 
2229.000000	98.437777 
2228.000000	98.436162 
2227.000000	98.433946 
2226.000000	98.431596 
2225.000000	98.429406 
2224.000000	98.428129 
2223.000000	98.428664 
2222.000000	98.430743 
2221.000000	98.432526 
2220.000000	98.432225 
2219.000000	98.429955 
2218.000000	98.427681 
2217.000000	98.427393 
2216.000000	98.429524 
2215.000000	98.432879 
2214.000000	98.435641 
2213.000000	98.436541 
2212.000000	98.435238 
2211.000000	98.432002 
2210.000000	98.427610 
2209.000000	98.423788 
2208.000000	98.422882 
2207.000000	98.426118 
2206.000000	98.432384 
2205.000000	98.439586 
2204.000000	98.446834 
2203.000000	98.453582 
2202.000000	98.457636 
2201.000000	98.456481 
2200.000000	98.449995 
2199.000000	98.440914 
2198.000000	98.431865 
2197.000000	98.423709 
2196.000000	98.417558 
2195.000000	98.415082 
2194.000000	98.415824 
2193.000000	98.416409 
2192.000000	98.413616 
2191.000000	98.407186 
2190.000000	98.399245 
2189.000000	98.392270 
2188.000000	98.387912 
2187.000000	98.386628 
2186.000000	98.388009 
2185.000000	98.392038 
2184.000000	98.399411 
2183.000000	98.409348 
2182.000000	98.418089 
2181.000000	98.421824 
2180.000000	98.420769 
2179.000000	98.418234 
2178.000000	98.416416 
2177.000000	98.415530 
2176.000000	98.416229 
2175.000000	98.419597 
2174.000000	98.424473 
2173.000000	98.427597 
2172.000000	98.427171 
2171.000000	98.424051 
2170.000000	98.419183 
2169.000000	98.412442 
2168.000000	98.404714 
2167.000000	98.398656 
2166.000000	98.395849 
2165.000000	98.394393 
2164.000000	98.390650 
2163.000000	98.383689 
2162.000000	98.378761 
2161.000000	98.386561 
2160.000000	98.416266 
2159.000000	98.465590 
2158.000000	98.516991 
2157.000000	98.550538 
2156.000000	98.560921 
2155.000000	98.556929 
2154.000000	98.549696 
2153.000000	98.544258 
2152.000000	98.540367 
2151.000000	98.536388 
2150.000000	98.531166 
2149.000000	98.525464 
2148.000000	98.522885 
2147.000000	98.527134 
2146.000000	98.537690 
2145.000000	98.550115 
2144.000000	98.560909 
2143.000000	98.569744 
2142.000000	98.576521 
2141.000000	98.579217 
2140.000000	98.576266 
2139.000000	98.569544 
2138.000000	98.563793 
2137.000000	98.563480 
2136.000000	98.569814 
2135.000000	98.579662 
2134.000000	98.587720 
2133.000000	98.591153 
2132.000000	98.591718 
2131.000000	98.592129 
2130.000000	98.591492 
2129.000000	98.586414 
2128.000000	98.576015 
2127.000000	98.563655 
2126.000000	98.553619 
2125.000000	98.547547 
2124.000000	98.544083 
2123.000000	98.540716 
2122.000000	98.535986 
2121.000000	98.530855 
2120.000000	98.527461 
2119.000000	98.525625 
2118.000000	98.521752 
2117.000000	98.512958 
2116.000000	98.501430 
2115.000000	98.492425 
2114.000000	98.489266 
2113.000000	98.491766 
2112.000000	98.498525 
2111.000000	98.507454 
2110.000000	98.513860 
2109.000000	98.512849 
2108.000000	98.504863 
2107.000000	98.495891 
2106.000000	98.491172 
2105.000000	98.490652 
2104.000000	98.491218 
2103.000000	98.490957 
2102.000000	98.490045 
2101.000000	98.489167 
2100.000000	98.488543 
2099.000000	98.488059 
2098.000000	98.488004 
2097.000000	98.489820 
2096.000000	98.495094 
2095.000000	98.502681 
2094.000000	98.508349 
2093.000000	98.508972 
2092.000000	98.505563 
2091.000000	98.501282 
2090.000000	98.497747 
2089.000000	98.494416 
2088.000000	98.490562 
2087.000000	98.486360 
2086.000000	98.482493 
2085.000000	98.479745 
2084.000000	98.478874 
2083.000000	98.480031 
2082.000000	98.482182 
2081.000000	98.483795 
2080.000000	98.484266 
2079.000000	98.484083 
2078.000000	98.483767 
2077.000000	98.483352 
2076.000000	98.482835 
2075.000000	98.482300 
2074.000000	98.481504 
2073.000000	98.480071 
2072.000000	98.478261 
2071.000000	98.476984 
2070.000000	98.476838 
2069.000000	98.477501 
2068.000000	98.478146 
2067.000000	98.478129 
2066.000000	98.477305 
2065.000000	98.476279 
2064.000000	98.476320 
2063.000000	98.478255 
2062.000000	98.481242 
2061.000000	98.483151 
2060.000000	98.482518 
2059.000000	98.479701 
2058.000000	98.476441 
2057.000000	98.474808 
2056.000000	98.476174 
2055.000000	98.479975 
2054.000000	98.483029 
2053.000000	98.481690 
2052.000000	98.475071 
2051.000000	98.465908 
2050.000000	98.458261 
2049.000000	98.454429 
2048.000000	98.454887 
2047.000000	98.459350 
2046.000000	98.466398 
2045.000000	98.473139 
2044.000000	98.477003 
2043.000000	98.477600 
2042.000000	98.476163 
2041.000000	98.474139 
2040.000000	98.472816 
2039.000000	98.473271 
2038.000000	98.475843 
2037.000000	98.480209 
2036.000000	98.486120 
2035.000000	98.493106 
2034.000000	98.499584 
2033.000000	98.503974 
2032.000000	98.506703 
2031.000000	98.509080 
2030.000000	98.510437 
2029.000000	98.509233 
2028.000000	98.506903 
2027.000000	98.507062 
2026.000000	98.510160 
2025.000000	98.512356 
2024.000000	98.511152 
2023.000000	98.508919 
2022.000000	98.508820 
2021.000000	98.509941 
2020.000000	98.509139 
2019.000000	98.505768 
2018.000000	98.502010 
2017.000000	98.500060 
2016.000000	98.501126 
2015.000000	98.505930 
2014.000000	98.513888 
2013.000000	98.522143 
2012.000000	98.526770 
2011.000000	98.524988 
2010.000000	98.517138 
2009.000000	98.508332 
2008.000000	98.505829 
2007.000000	98.511564 
2006.000000	98.518881 
2005.000000	98.520277 
2004.000000	98.516609 
2003.000000	98.513735 
2002.000000	98.512402 
2001.000000	98.508168 
2000.000000	98.500598 
1999.000000	98.494824 
1998.000000	98.492942 
1997.000000	98.490896 
1996.000000	98.485773 
1995.000000	98.480054 
1994.000000	98.475852 
1993.000000	98.470463 
1992.000000	98.461895 
1991.000000	98.454534 
1990.000000	98.453912 
1989.000000	98.458823 
1988.000000	98.462474 
1987.000000	98.459832 
1986.000000	98.451868 
1985.000000	98.443906 
1984.000000	98.440849 
1983.000000	98.442427 
1982.000000	98.442911 
1981.000000	98.438191 
1980.000000	98.432865 
1979.000000	98.435968 
1978.000000	98.449828 
1977.000000	98.467652 
1976.000000	98.482686 
1975.000000	98.494871 
1974.000000	98.505949 
1973.000000	98.514579 
1972.000000	98.519165 
1971.000000	98.520513 
1970.000000	98.519055 
1969.000000	98.513473 
1968.000000	98.504614 
1967.000000	98.497327 
1966.000000	98.495420 
1965.000000	98.497740 
1964.000000	98.501454 
1963.000000	98.506263 
1962.000000	98.513260 
1961.000000	98.521563 
1960.000000	98.528003 
1959.000000	98.529510 
1958.000000	98.525318 
1957.000000	98.518195 
1956.000000	98.513505 
1955.000000	98.514895 
1954.000000	98.520655 
1953.000000	98.525358 
1952.000000	98.525390 
1951.000000	98.521502 
1950.000000	98.516509 
1949.000000	98.512810 
1948.000000	98.512062 
1947.000000	98.514714 
1946.000000	98.519023 
1945.000000	98.522193 
1944.000000	98.523169 
1943.000000	98.523019 
1942.000000	98.522534 
1941.000000	98.521313 
1940.000000	98.519342 
1939.000000	98.517514 
1938.000000	98.516471 
1937.000000	98.516010 
1936.000000	98.515746 
1935.000000	98.515584 
1934.000000	98.515431 
1933.000000	98.514977 
1932.000000	98.514068 
1931.000000	98.512956 
1930.000000	98.511855 
1929.000000	98.510705 
1928.000000	98.509492 
1927.000000	98.508373 
1926.000000	98.507340 
1925.000000	98.506117 
1924.000000	98.504644 
1923.000000	98.503429 
1922.000000	98.502862 
1921.000000	98.502562 
1920.000000	98.501843 
1919.000000	98.500500 
1918.000000	98.498756 
1917.000000	98.496807 
1916.000000	98.494883 
1915.000000	98.493365 
1914.000000	98.492260 
1913.000000	98.490941 
1912.000000	98.489091 
1911.000000	98.487497 
1910.000000	98.486741 
1909.000000	98.485972 
1908.000000	98.484145 
1907.000000	98.481476 
1906.000000	98.478642 
1905.000000	98.475692 
1904.000000	98.472835 
1903.000000	98.470960 
1902.000000	98.469787 
1901.000000	98.467724 
1900.000000	98.464646 
1899.000000	98.462650 
1898.000000	98.462985 
1897.000000	98.463890 
1896.000000	98.462925 
1895.000000	98.460063 
1894.000000	98.456523 
1893.000000	98.452690 
1892.000000	98.448801 
1891.000000	98.445748 
1890.000000	98.444112 
1889.000000	98.443709 
1888.000000	98.444844 
1887.000000	98.447633 
1886.000000	98.449781 
1885.000000	98.448084 
1884.000000	98.442920 
1883.000000	98.438474 
1882.000000	98.437234 
1881.000000	98.437846 
1880.000000	98.438716 
1879.000000	98.439887 
1878.000000	98.440808 
1877.000000	98.440023 
1876.000000	98.438368 
1875.000000	98.439015 
1874.000000	98.442382 
1873.000000	98.444561 
1872.000000	98.443180 
1871.000000	98.440849 
1870.000000	98.440157 
1869.000000	98.439408 
1868.000000	98.437738 
1867.000000	98.438671 
1866.000000	98.443532 
1865.000000	98.449119 
1864.000000	98.453443 
1863.000000	98.458638 
1862.000000	98.465642 
1861.000000	98.470314 
1860.000000	98.469317 
1859.000000	98.465982 
1858.000000	98.465412 
1857.000000	98.467526 
1856.000000	98.469551 
1855.000000	98.471518 
1854.000000	98.475006 
1853.000000	98.479464 
1852.000000	98.483561 
1851.000000	98.487748 
1850.000000	98.492975 
1849.000000	98.499077 
1848.000000	98.505491 
1847.000000	98.512376 
1846.000000	98.519215 
1845.000000	98.524212 
1844.000000	98.527101 
1843.000000	98.529832 
1842.000000	98.532334 
1841.000000	98.532609 
1840.000000	98.530140 
1839.000000	98.526943 
1838.000000	98.525488 
1837.000000	98.525912 
1836.000000	98.527159 
1835.000000	98.529254 
1834.000000	98.532305 
1833.000000	98.535218 
1832.000000	98.536256 
1831.000000	98.534566 
1830.000000	98.531050 
1829.000000	98.527226 
1828.000000	98.523903 
1827.000000	98.522163 
1826.000000	98.522981 
1825.000000	98.525398 
1824.000000	98.527351 
1823.000000	98.528529 
1822.000000	98.529881 
1821.000000	98.531456 
1820.000000	98.533152 
1819.000000	98.536516 
1818.000000	98.542290 
1817.000000	98.546848 
1816.000000	98.546115 
1815.000000	98.541178 
1814.000000	98.536345 
1813.000000	98.533562 
1812.000000	98.531705 
1811.000000	98.530671 
1810.000000	98.531213 
1809.000000	98.531575 
1808.000000	98.529989 
1807.000000	98.527747 
1806.000000	98.526448 
1805.000000	98.525264 
1804.000000	98.523242 
1803.000000	98.521806 
1802.000000	98.522542 
1801.000000	98.524273 
1800.000000	98.524874 
1799.000000	98.524651 
1798.000000	98.524732 
1797.000000	98.524747 
1796.000000	98.524533 
1795.000000	98.525299 
1794.000000	98.527612 
1793.000000	98.529681 
1792.000000	98.529660 
1791.000000	98.529097 
1790.000000	98.529869 
1789.000000	98.531053 
1788.000000	98.531386 
1787.000000	98.531583 
1786.000000	98.532978 
1785.000000	98.535011 
1784.000000	98.536114 
1783.000000	98.536153 
1782.000000	98.536240 
1781.000000	98.537303 
1780.000000	98.539458 
1779.000000	98.542245 
1778.000000	98.544932 
1777.000000	98.546708 
1776.000000	98.547295 
1775.000000	98.547103 
1774.000000	98.546983 
1773.000000	98.547750 
1772.000000	98.549094 
1771.000000	98.550348 
1770.000000	98.552243 
1769.000000	98.555506 
1768.000000	98.559065 
1767.000000	98.561228 
1766.000000	98.561757 
1765.000000	98.561586 
1764.000000	98.561352 
1763.000000	98.561233 
1762.000000	98.561896 
1761.000000	98.563867 
1760.000000	98.566444 
1759.000000	98.568901 
1758.000000	98.571393 
1757.000000	98.574231 
1756.000000	98.576772 
1755.000000	98.578056 
1754.000000	98.578807 
1753.000000	98.580708 
1752.000000	98.583734 
1751.000000	98.585542 
1750.000000	98.585036 
1749.000000	98.583802 
1748.000000	98.582935 
1747.000000	98.581737 
1746.000000	98.580163 
1745.000000	98.579659 
1744.000000	98.580626 
1743.000000	98.581769 
1742.000000	98.582419 
1741.000000	98.583125 
1740.000000	98.584025 
1739.000000	98.584511 
1738.000000	98.584385 
1737.000000	98.583952 
1736.000000	98.583597 
1735.000000	98.583765 
1734.000000	98.584347 
1733.000000	98.584290 
1732.000000	98.583399 
1731.000000	98.582601 
1730.000000	98.582816 
1729.000000	98.584134 
1728.000000	98.585541 
1727.000000	98.585849 
1726.000000	98.584947 
1725.000000	98.583669 
1724.000000	98.582569 
1723.000000	98.581661 
1722.000000	98.580886 
1721.000000	98.580055 
1720.000000	98.579046 
1719.000000	98.578201 
1718.000000	98.577908 
1717.000000	98.576676 
1716.000000	98.573691 
1715.000000	98.571060 
1714.000000	98.570013 
1713.000000	98.569463 
1712.000000	98.568366 
1711.000000	98.566926 
1710.000000	98.565602 
1709.000000	98.564046 
1708.000000	98.561737 
1707.000000	98.559111 
1706.000000	98.556842 
1705.000000	98.554487 
1704.000000	98.551534 
1703.000000	98.548737 
1702.000000	98.546950 
1701.000000	98.545772 
1700.000000	98.543543 
1699.000000	98.540511 
1698.000000	98.537985 
1697.000000	98.535757 
1696.000000	98.533286 
1695.000000	98.530627 
1694.000000	98.527816 
1693.000000	98.524730 
1692.000000	98.521648 
1691.000000	98.518996 
1690.000000	98.516806 
1689.000000	98.514606 
1688.000000	98.511970 
1687.000000	98.508883 
1686.000000	98.505479 
1685.000000	98.501924 
1684.000000	98.498713 
1683.000000	98.496155 
1682.000000	98.493736 
1681.000000	98.491396 
1680.000000	98.489251 
1679.000000	98.487112 
1678.000000	98.484714 
1677.000000	98.482153 
1676.000000	98.479746 
1675.000000	98.477467 
1674.000000	98.475022 
1673.000000	98.472389 
1672.000000	98.469709 
1671.000000	98.467044 
1670.000000	98.464354 
1669.000000	98.461784 
1668.000000	98.459550 
1667.000000	98.457510 
1666.000000	98.455395 
1665.000000	98.453059 
1664.000000	98.450587 
1663.000000	98.448264 
1662.000000	98.446110 
1661.000000	98.443994 
1660.000000	98.442170 
1659.000000	98.440613 
1658.000000	98.438723 
1657.000000	98.436166 
1656.000000	98.433431 
1655.000000	98.430790 
1654.000000	98.428183 
1653.000000	98.426107 
1652.000000	98.424508 
1651.000000	98.422612 
1650.000000	98.421119 
1649.000000	98.420368 
1648.000000	98.420290 
1647.000000	98.419999 
1646.000000	98.418485 
1645.000000	98.415551 
1644.000000	98.412480 
1643.000000	98.410662 
1642.000000	98.410030 
1641.000000	98.409683 
1640.000000	98.409234 
1639.000000	98.408499 
1638.000000	98.407098 
1637.000000	98.405017 
1636.000000	98.403520 
1635.000000	98.402227 
1634.000000	98.399566 
1633.000000	98.396763 
1632.000000	98.396148 
1631.000000	98.398076 
1630.000000	98.400294 
1629.000000	98.400439 
1628.000000	98.398953 
1627.000000	98.397332 
1626.000000	98.395559 
1625.000000	98.393925 
1624.000000	98.394503 
1623.000000	98.397926 
1622.000000	98.400879 
1621.000000	98.401356 
1620.000000	98.401258 
1619.000000	98.402187 
1618.000000	98.403339 
1617.000000	98.404063 
1616.000000	98.405907 
1615.000000	98.407898 
1614.000000	98.407748 
1613.000000	98.407059 
1612.000000	98.409234 
1611.000000	98.414488 
1610.000000	98.418770 
1609.000000	98.420085 
1608.000000	98.421185 
1607.000000	98.423627 
1606.000000	98.425494 
1605.000000	98.426537 
1604.000000	98.429251 
1603.000000	98.433723 
1602.000000	98.437195 
1601.000000	98.439415 
1600.000000	98.442793 
1599.000000	98.447180 
1598.000000	98.449834 
1597.000000	98.450457 
1596.000000	98.452101 
1595.000000	98.456305 
1594.000000	98.460821 
1593.000000	98.463955 
1592.000000	98.467235 
1591.000000	98.471766 
1590.000000	98.475932 
1589.000000	98.478946 
1588.000000	98.482822 
1587.000000	98.488530 
1586.000000	98.493917 
1585.000000	98.497870 
1584.000000	98.502867 
1583.000000	98.509978 
1582.000000	98.516003 
1581.000000	98.519212 
1580.000000	98.521845 
1579.000000	98.524826 
1578.000000	98.526010 
1577.000000	98.526139 
1576.000000	98.530377 
1575.000000	98.537166 
1574.000000	98.539764 
1573.000000	98.539018 
1572.000000	98.539782 
1571.000000	98.544397 
1570.000000	98.550908 
1569.000000	98.558029 
1568.000000	98.566402 
1567.000000	98.573046 
1566.000000	98.575390 
1565.000000	98.575586 
1564.000000	98.577144 
1563.000000	98.578930 
1562.000000	98.577660 
1561.000000	98.576862 
1560.000000	98.586260 
1559.000000	98.600606 
1558.000000	98.598013 
1557.000000	98.583673 
1556.000000	98.574491 
1555.000000	98.572674 
1554.000000	98.572280 
1553.000000	98.570469 
1552.000000	98.569114 
1551.000000	98.570424 
1550.000000	98.573797 
1549.000000	98.576362 
1548.000000	98.576574 
1547.000000	98.575011 
1546.000000	98.571460 
1545.000000	98.564690 
1544.000000	98.556066 
1543.000000	98.549620 
1542.000000	98.547327 
1541.000000	98.545541 
1540.000000	98.542682 
1539.000000	98.539489 
1538.000000	98.531110 
1537.000000	98.517486 
1536.000000	98.502963 
1535.000000	98.491324 
1534.000000	98.482603 
1533.000000	98.473763 
1532.000000	98.463678 
1531.000000	98.455277 
1530.000000	98.448954 
1529.000000	98.440566 
1528.000000	98.428350 
1527.000000	98.415901 
1526.000000	98.406127 
1525.000000	98.396192 
1524.000000	98.383675 
1523.000000	98.371004 
1522.000000	98.360551 
1521.000000	98.348973 
1520.000000	98.333030 
1519.000000	98.316213 
1518.000000	98.303529 
1517.000000	98.295754 
1516.000000	98.289817 
1515.000000	98.283017 
1514.000000	98.275606 
1513.000000	98.267171 
1512.000000	98.254495 
1511.000000	98.237838 
1510.000000	98.221898 
1509.000000	98.208856 
1508.000000	98.196015 
1507.000000	98.184431 
1506.000000	98.174965 
1505.000000	98.159934 
1504.000000	98.140631 
1503.000000	98.122425 
1502.000000	98.106789 
1501.000000	98.092075 
1500.000000	98.075418 
1499.000000	98.057120 
1498.000000	98.042601 
1497.000000	98.034032 
1496.000000	98.025828 
1495.000000	98.015497 
1494.000000	98.006202 
1493.000000	97.998255 
1492.000000	97.987882 
1491.000000	97.972366 
1490.000000	97.953729 
1489.000000	97.934014 
1488.000000	97.913744 
1487.000000	97.897134 
1486.000000	97.885344 
1485.000000	97.874425 
1484.000000	97.863010 
1483.000000	97.852437 
1482.000000	97.843316 
1481.000000	97.833370 
1480.000000	97.820956 
1479.000000	97.808725 
1478.000000	97.799183 
1477.000000	97.790054 
1476.000000	97.778165 
1475.000000	97.766392 
1474.000000	97.756664 
1473.000000	97.744898 
1472.000000	97.727533 
1471.000000	97.709577 
1470.000000	97.695846 
1469.000000	97.683997 
1468.000000	97.670149 
1467.000000	97.656111 
1466.000000	97.646652 
1465.000000	97.641810 
1464.000000	97.637095 
1463.000000	97.629316 
1462.000000	97.619599 
1461.000000	97.608491 
1460.000000	97.595404 
1459.000000	97.581310 
1458.000000	97.573139 
1457.000000	97.576852 
1456.000000	97.581542 
1455.000000	97.577032 
1454.000000	97.569066 
1453.000000	97.563125 
1452.000000	97.558301 
1451.000000	97.553075 
1450.000000	97.550553 
1449.000000	97.552790 
1448.000000	97.554905 
1447.000000	97.552342 
1446.000000	97.547171 
1445.000000	97.544230 
1444.000000	97.544928 
1443.000000	97.546758 
1442.000000	97.548720 
1441.000000	97.551436 
1440.000000	97.552519 
1439.000000	97.548191 
1438.000000	97.542327 
1437.000000	97.544086 
1436.000000	97.553471 
1435.000000	97.561452 
1434.000000	97.565683 
1433.000000	97.568800 
1432.000000	97.572199 
1431.000000	97.575175 
1430.000000	97.579695 
1429.000000	97.588418 
1428.000000	97.597991 
1427.000000	97.603936 
1426.000000	97.607767 
1425.000000	97.616647 
1424.000000	97.631535 
1423.000000	97.642811 
1422.000000	97.646432 
1421.000000	97.649476 
1420.000000	97.658142 
1419.000000	97.669199 
1418.000000	97.680616 
1417.000000	97.693706 
1416.000000	97.705410 
1415.000000	97.712249 
1414.000000	97.715480 
1413.000000	97.720451 
1412.000000	97.729466 
1411.000000	97.740036 
1410.000000	97.752007 
1409.000000	97.767263 
1408.000000	97.783730 
1407.000000	97.798259 
1406.000000	97.812104 
1405.000000	97.830525 
1404.000000	97.853316 
1403.000000	97.873416 
1402.000000	97.888712 
1401.000000	97.903699 
1400.000000	97.921397 
1399.000000	97.938217 
1398.000000	97.950315 
1397.000000	97.958944 
1396.000000	97.966951 
1395.000000	97.976079 
1394.000000	97.989042 
1393.000000	98.009984 
1392.000000	98.037263 
1391.000000	98.064305 
1390.000000	98.086747 
1389.000000	98.104991 
1388.000000	98.120839 
1387.000000	98.134300 
1386.000000	98.145077 
1385.000000	98.155071 
1384.000000	98.166205 
1383.000000	98.177846 
1382.000000	98.189056 
1381.000000	98.200491 
1380.000000	98.213306 
1379.000000	98.226533 
1378.000000	98.237616 
1377.000000	98.246141 
1376.000000	98.254756 
1375.000000	98.266069 
1374.000000	98.280141 
1373.000000	98.295304 
1372.000000	98.309259 
1371.000000	98.320374 
1370.000000	98.328497 
1369.000000	98.336838 
1368.000000	98.348272 
1367.000000	98.360526 
1366.000000	98.369346 
1365.000000	98.373930 
1364.000000	98.377443 
1363.000000	98.383706 
1362.000000	98.393599 
1361.000000	98.405205 
1360.000000	98.416537 
1359.000000	98.426651 
1358.000000	98.435503 
1357.000000	98.444463 
1356.000000	98.454742 
1355.000000	98.465232 
1354.000000	98.473610 
1353.000000	98.479146 
1352.000000	98.483587 
1351.000000	98.489477 
1350.000000	98.496340 
1349.000000	98.502795 
1348.000000	98.508013 
1347.000000	98.511572 
1346.000000	98.514420 
1345.000000	98.519183 
1344.000000	98.526895 
1343.000000	98.534453 
1342.000000	98.537801 
1341.000000	98.537243 
1340.000000	98.537234 
1339.000000	98.540579 
1338.000000	98.546079 
1337.000000	98.552092 
1336.000000	98.558259 
1335.000000	98.564161 
1334.000000	98.569388 
1333.000000	98.574681 
1332.000000	98.580520 
1331.000000	98.584854 
1330.000000	98.584966 
1329.000000	98.581784 
1328.000000	98.579070 
1327.000000	98.578311 
1326.000000	98.577490 
1325.000000	98.576087 
1324.000000	98.575846 
1323.000000	98.576731 
1322.000000	98.576251 
1321.000000	98.573251 
1320.000000	98.569529 
1319.000000	98.567473 
1318.000000	98.568126 
1317.000000	98.571195 
1316.000000	98.575176 
1315.000000	98.577763 
1314.000000	98.578084 
1313.000000	98.578073 
1312.000000	98.580031 
1311.000000	98.583558 
1310.000000	98.586592 
1309.000000	98.588427 
1308.000000	98.589703 
1307.000000	98.590492 
1306.000000	98.589956 
1305.000000	98.588555 
1304.000000	98.587545 
1303.000000	98.587046 
1302.000000	98.586226 
1301.000000	98.584918 
1300.000000	98.583592 
1299.000000	98.582569 
1298.000000	98.582587 
1297.000000	98.584836 
1296.000000	98.589033 
1295.000000	98.592322 
1294.000000	98.592179 
1293.000000	98.589517 
1292.000000	98.587304 
1291.000000	98.586838 
1290.000000	98.586880 
1289.000000	98.585872 
1288.000000	98.583449 
1287.000000	98.580093 
1286.000000	98.576605 
1285.000000	98.573840 
1284.000000	98.572279 
1283.000000	98.572145 
1282.000000	98.573804 
1281.000000	98.576969 
1280.000000	98.579764 
1279.000000	98.580013 
1278.000000	98.578270 
1277.000000	98.577510 
1276.000000	98.579126 
1275.000000	98.581136 
1274.000000	98.581628 
1273.000000	98.581712 
1272.000000	98.583200 
1271.000000	98.585325 
1270.000000	98.586046 
1269.000000	98.585208 
1268.000000	98.584174 
1267.000000	98.583563 
1266.000000	98.583465 
1265.000000	98.584124 
1264.000000	98.584859 
1263.000000	98.584348 
1262.000000	98.583478 
1261.000000	98.585426 
1260.000000	98.590843 
1259.000000	98.595146 
1258.000000	98.593867 
1257.000000	98.588278 
1256.000000	98.582835 
1255.000000	98.579117 
1254.000000	98.575483 
1253.000000	98.571139 
1252.000000	98.567105 
1251.000000	98.563613 
1250.000000	98.559613 
1249.000000	98.554709 
1248.000000	98.549232 
1247.000000	98.542707 
1246.000000	98.534631 
1245.000000	98.525815 
1244.000000	98.516956 
1243.000000	98.506875 
1242.000000	98.494327 
1241.000000	98.480647 
1240.000000	98.468324 
1239.000000	98.457501 
1238.000000	98.445994 
1237.000000	98.432372 
1236.000000	98.417080 
1235.000000	98.400779 
1234.000000	98.383385 
1233.000000	98.364859 
1232.000000	98.345652 
1231.000000	98.326297 
1230.000000	98.306948 
1229.000000	98.286258 
1228.000000	98.260236 
1227.000000	98.224179 
1226.000000	98.177408 
1225.000000	98.124827 
1224.000000	98.071927 
1223.000000	98.018992 
1222.000000	97.961875 
1221.000000	97.897500 
1220.000000	97.826383 
1219.000000	97.750204 
1218.000000	97.669272 
1217.000000	97.582936 
1216.000000	97.491003 
1215.000000	97.394118 
1214.000000	97.293526 
1213.000000	97.190768 
1212.000000	97.086727 
1211.000000	96.980754 
1210.000000	96.871389 
1209.000000	96.758403 
1208.000000	96.643715 
1207.000000	96.530073 
1206.000000	96.419280 
1205.000000	96.311721 
1204.000000	96.206454 
1203.000000	96.100998 
1202.000000	95.992350 
1201.000000	95.879624 
1200.000000	95.765070 
1199.000000	95.651537 
1198.000000	95.540078 
1197.000000	95.431031 
1196.000000	95.325493 
1195.000000	95.223267 
1194.000000	95.120515 
1193.000000	95.012604 
1192.000000	94.899009 
1191.000000	94.782957 
1190.000000	94.666736 
1189.000000	94.549991 
1188.000000	94.432167 
1187.000000	94.313308 
1186.000000	94.192286 
1185.000000	94.067453 
1184.000000	93.939681 
1183.000000	93.811661 
1182.000000	93.683433 
1181.000000	93.551676 
1180.000000	93.414421 
1179.000000	93.273326 
1178.000000	93.130161 
1177.000000	92.983984 
1176.000000	92.833028 
1175.000000	92.676611 
1174.000000	92.514080 
1173.000000	92.344836 
1172.000000	92.170557 
1171.000000	91.994657 
1170.000000	91.818646 
1169.000000	91.642030 
1168.000000	91.466936 
1167.000000	91.300229 
1166.000000	91.150843 
1165.000000	91.028522 
1164.000000	90.944922 
1163.000000	90.910222 
1162.000000	90.925488 
1161.000000	90.979901 
1160.000000	91.054708 
1159.000000	91.127120 
1158.000000	91.173874 
1157.000000	91.178623 
1156.000000	91.138167 
1155.000000	91.059919 
1154.000000	90.954204 
1153.000000	90.830597 
1152.000000	90.698380 
1151.000000	90.564428 
1150.000000	90.430125 
1149.000000	90.294562 
1148.000000	90.160223 
1147.000000	90.030895 
1146.000000	89.905064 
1145.000000	89.777353 
1144.000000	89.646321 
1143.000000	89.515063 
1142.000000	89.384511 
1141.000000	89.252471 
1140.000000	89.119349 
1139.000000	88.988272 
1138.000000	88.858881 
1137.000000	88.727243 
1136.000000	88.592546 
1135.000000	88.457981 
1134.000000	88.324870 
1133.000000	88.191984 
1132.000000	88.060275 
1131.000000	87.931401 
1130.000000	87.802033 
1129.000000	87.667233 
1128.000000	87.529073 
1127.000000	87.393792 
1126.000000	87.260739 
1125.000000	87.123252 
1124.000000	86.980784 
1123.000000	86.840322 
1122.000000	86.704598 
1121.000000	86.568912 
1120.000000	86.431550 
1119.000000	86.297191 
1118.000000	86.167363 
1117.000000	86.037442 
1116.000000	85.905671 
1115.000000	85.775635 
1114.000000	85.647568 
1113.000000	85.517065 
1112.000000	85.384524 
1111.000000	85.255723 
1110.000000	85.131544 
1109.000000	85.007395 
1108.000000	84.882812 
1107.000000	84.761170 
1106.000000	84.639642 
1105.000000	84.511726 
1104.000000	84.380711 
1103.000000	84.257670 
1102.000000	84.144349 
1101.000000	84.031030 
1100.000000	83.912330 
1099.000000	83.794676 
1098.000000	83.682954 
1097.000000	83.574852 
1096.000000	83.470360 
1095.000000	83.374283 
1094.000000	83.286285 
1093.000000	83.200657 
1092.000000	83.118437 
1091.000000	83.047447 
1090.000000	82.988319 
1089.000000	82.933345 
1088.000000	82.881106 
1087.000000	82.838892 
1086.000000	82.808432 
1085.000000	82.782600 
1084.000000	82.758394 
1083.000000	82.739950 
1082.000000	82.727073 
1081.000000	82.714343 
1080.000000	82.702977 
1079.000000	82.699463 
1078.000000	82.701009 
1077.000000	82.696912 
1076.000000	82.685436 
1075.000000	82.673589 
1074.000000	82.658348 
1073.000000	82.624224 
1072.000000	82.561899 
1071.000000	82.473663 
1070.000000	82.358289 
1069.000000	82.207159 
1068.000000	82.020538 
1067.000000	81.813395 
1066.000000	81.599164 
1065.000000	81.379892 
1064.000000	81.157137 
1063.000000	80.938079 
1062.000000	80.725171 
1061.000000	80.513704 
1060.000000	80.305173 
1059.000000	80.109895 
1058.000000	79.931486 
1057.000000	79.761723 
1056.000000	79.594911 
1055.000000	79.433597 
1054.000000	79.276570 
1053.000000	79.116339 
1052.000000	78.953404 
1051.000000	78.797394 
1050.000000	78.648240 
1049.000000	78.493104 
1048.000000	78.327483 
1047.000000	78.161516 
1046.000000	78.001313 
1045.000000	77.841622 
1044.000000	77.679764 
1043.000000	77.520000 
1042.000000	77.361296 
1041.000000	77.196947 
1040.000000	77.029648 
1039.000000	76.871366 
1038.000000	76.725386 
1037.000000	76.584468 
1036.000000	76.449088 
1035.000000	76.330176 
1034.000000	76.230595 
1033.000000	76.141065 
1032.000000	76.057426 
1031.000000	75.985140 
1030.000000	75.924087 
1029.000000	75.866709 
1028.000000	75.814431 
1027.000000	75.777852 
1026.000000	75.756472 
1025.000000	75.735733 
1024.000000	75.708175 
1023.000000	75.680393 
1022.000000	75.655907 
1021.000000	75.628730 
1020.000000	75.597489 
1019.000000	75.568689 
1018.000000	75.542026 
1017.000000	75.508918 
1016.000000	75.469096 
1015.000000	75.432468 
1014.000000	75.401773 
1013.000000	75.369856 
1012.000000	75.336638 
1011.000000	75.311840 
1010.000000	75.298084 
1009.000000	75.287933 
1008.000000	75.280287 
1007.000000	75.283044 
1006.000000	75.297145 
1005.000000	75.314823 
1004.000000	75.335989 
1003.000000	75.369436 
1002.000000	75.415367 
1001.000000	75.463618 
1000.000000	75.511624 
999.000000	 75.567532 
998.000000	 75.633362 
997.000000	 75.701796 
996.000000	 75.771661 
995.000000	 75.849729 
994.000000	 75.935142 
993.000000	 76.019189 
992.000000	 76.103011 
991.000000	 76.198689 
990.000000	 76.310029 
989.000000	 76.428199 
988.000000	 76.548267 
987.000000	 76.674167 
986.000000	 76.805703 
985.000000	 76.937387 
984.000000	 77.072325 
983.000000	 77.220941 
982.000000	 77.383849 
981.000000	 77.551637 
980.000000	 77.723052 
979.000000	 77.907265 
978.000000	 78.106380 
977.000000	 78.311910 
976.000000	 78.520498 
975.000000	 78.737491 
974.000000	 78.963078 
973.000000	 79.190424 
972.000000	 79.419331 
971.000000	 79.656616 
970.000000	 79.901321 
969.000000	 80.144421 
968.000000	 80.384503 
967.000000	 80.628806 
966.000000	 80.877484 
965.000000	 81.121947 
964.000000	 81.360567 
963.000000	 81.601193 
962.000000	 81.845710 
961.000000	 82.085989 
960.000000	 82.317463 
959.000000	 82.543691 
958.000000	 82.765863 
957.000000	 82.980823 
956.000000	 83.191279 
955.000000	 83.404947 
954.000000	 83.620966 
953.000000	 83.828868 
952.000000	 84.023087 
951.000000	 84.207663 
950.000000	 84.386073 
949.000000	 84.557736 
948.000000	 84.725396 
947.000000	 84.894477 
946.000000	 85.063479 
945.000000	 85.225091 
944.000000	 85.377392 
943.000000	 85.524387 
942.000000	 85.666526 
941.000000	 85.801198 
940.000000	 85.931647 
939.000000	 86.064432 
938.000000	 86.198838 
937.000000	 86.329726 
936.000000	 86.459459 
935.000000	 86.595411 
934.000000	 86.736993 
933.000000	 86.877169 
932.000000	 87.015368 
931.000000	 87.156346 
930.000000	 87.297526 
929.000000	 87.430632 
928.000000	 87.555357 
927.000000	 87.678592 
926.000000	 87.800769 
925.000000	 87.916332 
924.000000	 88.027359 
923.000000	 88.142330 
922.000000	 88.260032 
921.000000	 88.368649 
920.000000	 88.463346 
919.000000	 88.552171 
918.000000	 88.642192 
917.000000	 88.732225 
916.000000	 88.822106 
915.000000	 88.916814 
914.000000	 89.017624 
913.000000	 89.120583 
912.000000	 89.227951 
911.000000	 89.350576 
910.000000	 89.494584 
909.000000	 89.654712 
908.000000	 89.823727 
907.000000	 89.999534 
906.000000	 90.180312 
905.000000	 90.361797 
904.000000	 90.543028 
903.000000	 90.727898 
902.000000	 90.918904 
901.000000	 91.114971 
900.000000	 91.314969 
899.000000	 91.516651 
898.000000	 91.712912 
897.000000	 91.897392 
896.000000	 92.072781 
895.000000	 92.246550 
894.000000	 92.419967 
893.000000	 92.588900 
892.000000	 92.753012 
891.000000	 92.914520 
890.000000	 93.068674 
889.000000	 93.204818 
888.000000	 93.317266 
887.000000	 93.407996 
886.000000	 93.480120 
885.000000	 93.536841 
884.000000	 93.585452 
883.000000	 93.632820 
882.000000	 93.676852 
881.000000	 93.711972 
880.000000	 93.743391 
879.000000	 93.786274 
878.000000	 93.850156 
877.000000	 93.934207 
876.000000	 94.038116 
875.000000	 94.166277 
874.000000	 94.320009 
873.000000	 94.496345 
872.000000	 94.694753 
871.000000	 94.913511 
870.000000	 95.139033 
869.000000	 95.351412 
868.000000	 95.543205 
867.000000	 95.722937 
866.000000	 95.898610 
865.000000	 96.067316 
864.000000	 96.223645 
863.000000	 96.369141 
862.000000	 96.508980 
861.000000	 96.645693 
860.000000	 96.780090 
859.000000	 96.913195 
858.000000	 97.043560 
857.000000	 97.166346 
856.000000	 97.277968 
855.000000	 97.379666 
854.000000	 97.475603 
853.000000	 97.569061 
852.000000	 97.659753 
851.000000	 97.743107 
850.000000	 97.814689 
849.000000	 97.877924 
848.000000	 97.943518 
847.000000	 98.016897 
846.000000	 98.090376 
845.000000	 98.153340 
844.000000	 98.205500 
843.000000	 98.252725 
842.000000	 98.294242 
841.000000	 98.324125 
840.000000	 98.343839 
839.000000	 98.362979 
838.000000	 98.386284 
837.000000	 98.408046 
836.000000	 98.421273 
835.000000	 98.425780 
834.000000	 98.426010 
833.000000	 98.427120 
832.000000	 98.434265 
831.000000	 98.449519 
830.000000	 98.468214 
829.000000	 98.484252 
828.000000	 98.499386 
827.000000	 98.520282 
826.000000	 98.546617 
825.000000	 98.571413 
824.000000	 98.593578 
823.000000	 98.617802 
822.000000	 98.639163 
821.000000	 98.641041 
820.000000	 98.613759 
819.000000	 98.565391 
818.000000	 98.509434 
817.000000	 98.448510 
816.000000	 98.373309 
815.000000	 98.270420 
814.000000	 98.125827 
813.000000	 97.925103 
812.000000	 97.656151 
811.000000	 97.311451 
810.000000	 96.886008 
809.000000	 96.376386 
808.000000	 95.784810 
807.000000	 95.120941 
806.000000	 94.396487 
805.000000	 93.623707 
804.000000	 92.825133 
803.000000	 92.039171 
802.000000	 91.308828 
801.000000	 90.668506 
800.000000	 90.144215 
799.000000	 89.754686 
798.000000	 89.503897 
797.000000	 89.380703 
796.000000	 89.369781 
795.000000	 89.452972 
794.000000	 89.599445 
793.000000	 89.769837 
792.000000	 89.935170 
791.000000	 90.081545 
790.000000	 90.195601 
789.000000	 90.258105 
788.000000	 90.254731 
787.000000	 90.182341 
786.000000	 90.041688 
785.000000	 89.834201 
784.000000	 89.569996 
783.000000	 89.270638 
782.000000	 88.960915 
781.000000	 88.666078 
780.000000	 88.418104 
779.000000	 88.251654 
778.000000	 88.187600 
777.000000	 88.228140 
776.000000	 88.367344 
775.000000	 88.593104 
774.000000	 88.878586 
773.000000	 89.188230 
772.000000	 89.497713 
771.000000	 89.798920 
770.000000	 90.086108 
769.000000	 90.349076 
768.000000	 90.580784 
767.000000	 90.781590 
766.000000	 90.955689 
765.000000	 91.111802 
764.000000	 91.265125 
763.000000	 91.428002 
762.000000	 91.599314 
761.000000	 91.771942 
760.000000	 91.947410 
759.000000	 92.132240 
758.000000	 92.323587 
757.000000	 92.511487 
756.000000	 92.692815 
755.000000	 92.870077 
754.000000	 93.039053 
753.000000	 93.191762 
752.000000	 93.330150 
751.000000	 93.462811 
750.000000	 93.588520 
749.000000	 93.697322 
748.000000	 93.789407 
747.000000	 93.879460 
746.000000	 93.979294 
745.000000	 94.087681 
744.000000	 94.200671 
743.000000	 94.321176 
742.000000	 94.454428 
741.000000	 94.602057 
740.000000	 94.762150 
739.000000	 94.927422 
738.000000	 95.083799 
737.000000	 95.219622 
736.000000	 95.335761 
735.000000	 95.438525 
734.000000	 95.525621 
733.000000	 95.589319 
732.000000	 95.630731 
731.000000	 95.660631 
730.000000	 95.687848 
729.000000	 95.716773 
728.000000	 95.753558 
727.000000	 95.803277 
726.000000	 95.862255 
725.000000	 95.923509 
724.000000	 95.988575 
723.000000	 96.063771 
722.000000	 96.147000 
721.000000	 96.230058 
720.000000	 96.313083 
719.000000	 96.403770 
718.000000	 96.500973 
717.000000	 96.591952 
716.000000	 96.668165 
715.000000	 96.733568 
714.000000	 96.796387 
713.000000	 96.862455 
712.000000	 96.937438 
711.000000	 97.025364 
710.000000	 97.121981 
709.000000	 97.216769 
708.000000	 97.301049 
707.000000	 97.366475 
706.000000	 97.399493 
705.000000	 97.388073 
704.000000	 97.332371 
703.000000	 97.237202 
702.000000	 97.093415 
701.000000	 96.878787 
700.000000	 96.580606 
699.000000	 96.208351 
698.000000	 95.788856 
697.000000	 95.366288 
696.000000	 95.007016 
695.000000	 94.781586 
694.000000	 94.725548 
693.000000	 94.822705 
692.000000	 95.026980 
691.000000	 95.290818 
690.000000	 95.575959 
689.000000	 95.854435 
688.000000	 96.110720 
687.000000	 96.339158 
686.000000	 96.534963 
685.000000	 96.695383 
684.000000	 96.830906 
683.000000	 96.961317 
682.000000	 97.095296 
681.000000	 97.222877 
680.000000	 97.331916 
679.000000	 97.422593 
678.000000	 97.501472 
677.000000	 97.573412 
676.000000	 97.642728 
675.000000	 97.713091 
674.000000	 97.783521 
673.000000	 97.848819 
672.000000	 97.904380 
671.000000	 97.947787 
670.000000	 97.979603 
669.000000	 98.009807 
668.000000	 98.068909 
667.000000	 98.172851 
666.000000	 98.279561 
665.000000	 98.360772 
664.000000	 98.429831 
663.000000	 98.502581 
662.000000	 98.575387 
661.000000	 98.634735 
660.000000	 98.678686 
659.000000	 98.713637 
658.000000	 98.736950 
657.000000	 98.739710 
656.000000	 98.720746 
655.000000	 98.685955 
654.000000	 98.637935 
653.000000	 98.575653 
652.000000	 98.506137 
651.000000	 98.452318 
650.000000	 98.444945 

