4000.000000	97.813659 
3999.000000	97.807347 
3998.000000	97.804934 
3997.000000	97.806396 
3996.000000	97.809733 
3995.000000	97.812343 
3994.000000	97.813190 
3993.000000	97.813192 
3992.000000	97.813870 
3991.000000	97.815665 
3990.000000	97.817812 
3989.000000	97.819388 
3988.000000	97.819845 
3987.000000	97.818981 
3986.000000	97.817146 
3985.000000	97.815202 
3984.000000	97.813679 
3983.000000	97.812115 
3982.000000	97.809654 
3981.000000	97.806153 
3980.000000	97.802561 
3979.000000	97.800228 
3978.000000	97.799723 
3977.000000	97.800324 
3976.000000	97.800432 
3975.000000	97.798696 
3974.000000	97.795118 
3973.000000	97.791357 
3972.000000	97.789527 
3971.000000	97.790358 
3970.000000	97.792840 
3969.000000	97.795524 
3968.000000	97.797595 
3967.000000	97.798878 
3966.000000	97.799692 
3965.000000	97.800616 
3964.000000	97.802008 
3963.000000	97.803489 
3962.000000	97.804069 
3961.000000	97.803247 
3960.000000	97.801704 
3959.000000	97.800391 
3958.000000	97.799476 
3957.000000	97.798488 
3956.000000	97.796840 
3955.000000	97.793967 
3954.000000	97.789739 
3953.000000	97.784720 
3952.000000	97.780103 
3951.000000	97.777169 
3950.000000	97.776955 
3949.000000	97.779541 
3948.000000	97.783063 
3947.000000	97.785304 
3946.000000	97.786262 
3945.000000	97.787858 
3944.000000	97.791058 
3943.000000	97.794624 
3942.000000	97.796823 
3941.000000	97.797464 
3940.000000	97.797527 
3939.000000	97.797196 
3938.000000	97.795390 
3937.000000	97.791539 
3936.000000	97.786733 
3935.000000	97.782420 
3934.000000	97.779287 
3933.000000	97.777609 
3932.000000	97.777703 
3931.000000	97.778842 
3930.000000	97.778725 
3929.000000	97.775488 
3928.000000	97.770125 
3927.000000	97.766351 
3926.000000	97.766755 
3925.000000	97.770575 
3924.000000	97.776369 
3923.000000	97.783475 
3922.000000	97.790568 
3921.000000	97.795804 
3920.000000	97.799260 
3919.000000	97.803039 
3918.000000	97.806752 
3917.000000	97.806112 
3916.000000	97.798308 
3915.000000	97.786062 
3914.000000	97.774345 
3913.000000	97.765423 
3912.000000	97.758893 
3911.000000	97.753653 
3910.000000	97.748683 
3909.000000	97.743621 
3908.000000	97.740340 
3907.000000	97.741863 
3906.000000	97.750021 
3905.000000	97.762427 
3904.000000	97.774576 
3903.000000	97.784436 
3902.000000	97.792794 
3901.000000	97.799837 
3900.000000	97.803010 
3899.000000	97.800712 
3898.000000	97.794991 
3897.000000	97.787934 
3896.000000	97.778668 
3895.000000	97.766345 
3894.000000	97.753239 
3893.000000	97.743561 
3892.000000	97.738435 
3891.000000	97.734700 
3890.000000	97.732092 
3889.000000	97.734971 
3888.000000	97.746146 
3887.000000	97.761274 
3886.000000	97.771957 
3885.000000	97.775101 
3884.000000	97.775523 
3883.000000	97.777309 
3882.000000	97.779104 
3881.000000	97.778265 
3880.000000	97.774591 
3879.000000	97.770132 
3878.000000	97.767443 
3877.000000	97.767539 
3876.000000	97.768913 
3875.000000	97.768322 
3874.000000	97.764745 
3873.000000	97.762400 
3872.000000	97.765672 
3871.000000	97.771057 
3870.000000	97.770006 
3869.000000	97.761726 
3868.000000	97.754840 
3867.000000	97.754019 
3866.000000	97.753557 
3865.000000	97.746856 
3864.000000	97.736822 
3863.000000	97.730655 
3862.000000	97.730345 
3861.000000	97.734695 
3860.000000	97.742743 
3859.000000	97.751071 
3858.000000	97.754818 
3857.000000	97.752677 
3856.000000	97.750964 
3855.000000	97.754363 
3854.000000	97.756403 
3853.000000	97.748402 
3852.000000	97.734129 
3851.000000	97.722271 
3850.000000	97.713702 
3849.000000	97.706311 
3848.000000	97.702674 
3847.000000	97.707305 
3846.000000	97.719040 
3845.000000	97.732504 
3844.000000	97.744058 
3843.000000	97.753528 
3842.000000	97.764664 
3841.000000	97.782191 
3840.000000	97.804352 
3839.000000	97.821606 
3838.000000	97.824984 
3837.000000	97.812993 
3836.000000	97.792850 
3835.000000	97.773120 
3834.000000	97.758648 
3833.000000	97.748961 
3832.000000	97.739632 
3831.000000	97.728261 
3830.000000	97.718438 
3829.000000	97.717062 
3828.000000	97.728499 
3827.000000	97.749042 
3826.000000	97.769763 
3825.000000	97.787679 
3824.000000	97.807450 
3823.000000	97.830331 
3822.000000	97.847306 
3821.000000	97.847198 
3820.000000	97.832221 
3819.000000	97.814139 
3818.000000	97.798104 
3817.000000	97.778274 
3816.000000	97.749441 
3815.000000	97.720509 
3814.000000	97.705928 
3813.000000	97.706226 
3812.000000	97.709956 
3811.000000	97.711217 
3810.000000	97.715727 
3809.000000	97.731156 
3808.000000	97.755134 
3807.000000	97.775928 
3806.000000	97.787676 
3805.000000	97.795957 
3804.000000	97.805652 
3803.000000	97.812939 
3802.000000	97.808955 
3801.000000	97.792392 
3800.000000	97.775272 
3799.000000	97.766404 
3798.000000	97.761532 
3797.000000	97.753293 
3796.000000	97.741525 
3795.000000	97.732908 
3794.000000	97.732283 
3793.000000	97.737974 
3792.000000	97.745525 
3791.000000	97.752911 
3790.000000	97.759728 
3789.000000	97.765466 
3788.000000	97.770223 
3787.000000	97.774926 
3786.000000	97.778828 
3785.000000	97.778740 
3784.000000	97.773016 
3783.000000	97.765384 
3782.000000	97.761550 
3781.000000	97.763170 
3780.000000	97.766993 
3779.000000	97.768980 
3778.000000	97.768329 
3777.000000	97.767047 
3776.000000	97.766372 
3775.000000	97.765181 
3774.000000	97.763311 
3773.000000	97.763294 
3772.000000	97.766702 
3771.000000	97.769819 
3770.000000	97.767641 
3769.000000	97.761041 
3768.000000	97.755613 
3767.000000	97.754964 
3766.000000	97.757631 
3765.000000	97.760017 
3764.000000	97.762036 
3763.000000	97.766726 
3762.000000	97.774246 
3761.000000	97.780568 
3760.000000	97.783530 
3759.000000	97.785823 
3758.000000	97.788039 
3757.000000	97.785784 
3756.000000	97.777251 
3755.000000	97.764965 
3754.000000	97.751639 
3753.000000	97.738025 
3752.000000	97.727020 
3751.000000	97.723430 
3750.000000	97.723253 
3749.000000	97.717595 
3748.000000	97.708245 
3747.000000	97.706431 
3746.000000	97.718122 
3745.000000	97.733044 
3744.000000	97.738725 
3743.000000	97.742774 
3742.000000	97.755395 
3741.000000	97.769023 
3740.000000	97.773014 
3739.000000	97.770323 
3738.000000	97.770128 
3737.000000	97.771091 
3736.000000	97.765921 
3735.000000	97.754570 
3734.000000	97.742568 
3733.000000	97.729255 
3732.000000	97.711605 
3731.000000	97.695519 
3730.000000	97.690400 
3729.000000	97.698093 
3728.000000	97.710425 
3727.000000	97.717185 
3726.000000	97.717695 
3725.000000	97.720820 
3724.000000	97.732106 
3723.000000	97.747155 
3722.000000	97.758005 
3721.000000	97.759670 
3720.000000	97.750875 
3719.000000	97.734446 
3718.000000	97.714224 
3717.000000	97.693272 
3716.000000	97.675863 
3715.000000	97.664038 
3714.000000	97.654412 
3713.000000	97.640966 
3712.000000	97.623230 
3711.000000	97.608376 
3710.000000	97.602397 
3709.000000	97.604643 
3708.000000	97.609286 
3707.000000	97.610000 
3706.000000	97.604852 
3705.000000	97.596364 
3704.000000	97.587883 
3703.000000	97.579841 
3702.000000	97.569194 
3701.000000	97.551740 
3700.000000	97.526597 
3699.000000	97.498121 
3698.000000	97.471979 
3697.000000	97.450846 
3696.000000	97.436233 
3695.000000	97.428867 
3694.000000	97.424701 
3693.000000	97.416436 
3692.000000	97.401784 
3691.000000	97.387196 
3690.000000	97.380314 
3689.000000	97.380097 
3688.000000	97.378914 
3687.000000	97.373853 
3686.000000	97.367889 
3685.000000	97.362001 
3684.000000	97.355097 
3683.000000	97.348153 
3682.000000	97.342523 
3681.000000	97.333963 
3680.000000	97.315496 
3679.000000	97.288071 
3678.000000	97.263383 
3677.000000	97.249760 
3676.000000	97.240314 
3675.000000	97.224958 
3674.000000	97.204716 
3673.000000	97.186238 
3672.000000	97.170562 
3671.000000	97.153087 
3670.000000	97.132464 
3669.000000	97.114185 
3668.000000	97.102170 
3667.000000	97.093575 
3666.000000	97.084547 
3665.000000	97.074553 
3664.000000	97.065100 
3663.000000	97.056898 
3662.000000	97.047793 
3661.000000	97.034537 
3660.000000	97.017269 
3659.000000	96.999463 
3658.000000	96.983178 
3657.000000	96.965163 
3656.000000	96.941559 
3655.000000	96.916834 
3654.000000	96.898414 
3653.000000	96.885400 
3652.000000	96.868071 
3651.000000	96.839015 
3650.000000	96.804919 
3649.000000	96.779923 
3648.000000	96.766851 
3647.000000	96.758859 
3646.000000	96.753185 
3645.000000	96.751513 
3644.000000	96.753387 
3643.000000	96.754717 
3642.000000	96.750602 
3641.000000	96.739950 
3640.000000	96.725249 
3639.000000	96.707856 
3638.000000	96.688388 
3637.000000	96.669888 
3636.000000	96.655937 
3635.000000	96.643566 
3634.000000	96.624541 
3633.000000	96.597152 
3632.000000	96.569330 
3631.000000	96.548040 
3630.000000	96.528013 
3629.000000	96.500209 
3628.000000	96.470240 
3627.000000	96.454383 
3626.000000	96.457312 
3625.000000	96.469630 
3624.000000	96.481887 
3623.000000	96.492085 
3622.000000	96.502311 
3621.000000	96.511092 
3620.000000	96.514886 
3619.000000	96.514190 
3618.000000	96.512489 
3617.000000	96.512764 
3616.000000	96.517364 
3615.000000	96.524333 
3614.000000	96.527668 
3613.000000	96.524553 
3612.000000	96.519850 
3611.000000	96.521980 
3610.000000	96.534955 
3609.000000	96.555610 
3608.000000	96.578395 
3607.000000	96.600875 
3606.000000	96.623075 
3605.000000	96.645658 
3604.000000	96.668959 
3603.000000	96.691368 
3602.000000	96.709248 
3601.000000	96.717826 
3600.000000	96.716476 
3599.000000	96.710022 
3598.000000	96.701915 
3597.000000	96.691993 
3596.000000	96.681547 
3595.000000	96.674270 
3594.000000	96.672935 
3593.000000	96.677276 
3592.000000	96.683967 
3591.000000	96.691698 
3590.000000	96.701928 
3589.000000	96.715276 
3588.000000	96.728888 
3587.000000	96.738966 
3586.000000	96.744364 
3585.000000	96.748416 
3584.000000	96.755062 
3583.000000	96.764678 
3582.000000	96.774062 
3581.000000	96.779707 
3580.000000	96.780892 
3579.000000	96.779642 
3578.000000	96.777820 
3577.000000	96.775435 
3576.000000	96.771680 
3575.000000	96.766008 
3574.000000	96.757603 
3573.000000	96.746429 
3572.000000	96.734336 
3571.000000	96.725338 
3570.000000	96.723545 
3569.000000	96.729021 
3568.000000	96.737549 
3567.000000	96.745784 
3566.000000	96.753529 
3565.000000	96.761509 
3564.000000	96.769344 
3563.000000	96.775396 
3562.000000	96.778104 
3561.000000	96.777193 
3560.000000	96.772947 
3559.000000	96.765943 
3558.000000	96.757256 
3557.000000	96.748543 
3556.000000	96.741607 
3555.000000	96.737761 
3554.000000	96.736749 
3553.000000	96.736760 
3552.000000	96.735958 
3551.000000	96.733960 
3550.000000	96.731923 
3549.000000	96.731175 
3548.000000	96.732321 
3547.000000	96.735521 
3546.000000	96.739878 
3545.000000	96.743366 
3544.000000	96.744900 
3543.000000	96.745874 
3542.000000	96.748482 
3541.000000	96.752786 
3540.000000	96.756298 
3539.000000	96.756845 
3538.000000	96.754927 
3537.000000	96.752810 
3536.000000	96.751764 
3535.000000	96.750737 
3534.000000	96.748261 
3533.000000	96.744312 
3532.000000	96.739710 
3531.000000	96.734609 
3530.000000	96.728497 
3529.000000	96.722061 
3528.000000	96.717792 
3527.000000	96.718238 
3526.000000	96.723678 
3525.000000	96.732002 
3524.000000	96.740605 
3523.000000	96.747977 
3522.000000	96.753455 
3521.000000	96.756714 
3520.000000	96.758011 
3519.000000	96.758264 
3518.000000	96.758080 
3517.000000	96.756631 
3516.000000	96.752220 
3515.000000	96.743999 
3514.000000	96.733443 
3513.000000	96.723854 
3512.000000	96.717960 
3511.000000	96.716244 
3510.000000	96.717262 
3509.000000	96.718857 
3508.000000	96.719502 
3507.000000	96.719576 
3506.000000	96.721241 
3505.000000	96.726698 
3504.000000	96.735917 
3503.000000	96.745846 
3502.000000	96.752363 
3501.000000	96.753406 
3500.000000	96.749845 
3499.000000	96.744027 
3498.000000	96.738253 
3497.000000	96.734028 
3496.000000	96.731606 
3495.000000	96.729584 
3494.000000	96.725807 
3493.000000	96.719613 
3492.000000	96.712901 
3491.000000	96.708501 
3490.000000	96.707556 
3489.000000	96.708684 
3488.000000	96.709508 
3487.000000	96.708853 
3486.000000	96.707359 
3485.000000	96.706298 
3484.000000	96.706244 
3483.000000	96.706686 
3482.000000	96.706532 
3481.000000	96.704879 
3480.000000	96.701571 
3479.000000	96.697420 
3478.000000	96.693803 
3477.000000	96.691628 
3476.000000	96.690528 
3475.000000	96.689177 
3474.000000	96.686586 
3473.000000	96.683056 
3472.000000	96.679775 
3471.000000	96.677568 
3470.000000	96.676294 
3469.000000	96.675301 
3468.000000	96.673988 
3467.000000	96.672008 
3466.000000	96.669272 
3465.000000	96.666028 
3464.000000	96.662861 
3463.000000	96.660294 
3462.000000	96.658309 
3461.000000	96.656318 
3460.000000	96.653757 
3459.000000	96.650640 
3458.000000	96.647488 
3457.000000	96.644855 
3456.000000	96.642913 
3455.000000	96.641362 
3454.000000	96.639709 
3453.000000	96.637604 
3452.000000	96.634920 
3451.000000	96.631694 
3450.000000	96.628128 
3449.000000	96.624642 
3448.000000	96.621619 
3447.000000	96.618999 
3446.000000	96.616296 
3445.000000	96.613286 
3444.000000	96.610528 
3443.000000	96.608948 
3442.000000	96.608916 
3441.000000	96.609827 
3440.000000	96.610547 
3439.000000	96.610118 
3438.000000	96.608140 
3437.000000	96.604827 
3436.000000	96.600894 
3435.000000	96.597237 
3434.000000	96.594351 
3433.000000	96.591848 
3432.000000	96.588863 
3431.000000	96.584969 
3430.000000	96.580583 
3429.000000	96.576628 
3428.000000	96.573814 
3427.000000	96.572245 
3426.000000	96.571616 
3425.000000	96.571456 
3424.000000	96.571317 
3423.000000	96.570995 
3422.000000	96.570538 
3421.000000	96.570077 
3420.000000	96.569588 
3419.000000	96.568812 
3418.000000	96.567492 
3417.000000	96.565707 
3416.000000	96.563825 
3415.000000	96.562207 
3414.000000	96.560942 
3413.000000	96.559867 
3412.000000	96.558799 
3411.000000	96.557673 
3410.000000	96.556545 
3409.000000	96.555461 
3408.000000	96.554408 
3407.000000	96.553393 
3406.000000	96.552424 
3405.000000	96.551504 
3404.000000	96.550626 
3403.000000	96.549784 
3402.000000	96.548974 
3401.000000	96.548202 
3400.000000	96.547479 
3399.000000	96.546817 
3398.000000	96.546220 
3397.000000	96.545685 
3396.000000	96.545206 
3395.000000	96.544783 
3394.000000	96.544425 
3393.000000	96.544138 
3392.000000	96.543918 
3391.000000	96.543751 
3390.000000	96.543617 
3389.000000	96.543505 
3388.000000	96.543423 
3387.000000	96.543390 
3386.000000	96.543423 
3385.000000	96.543522 
3384.000000	96.543671 
3383.000000	96.543850 
3382.000000	96.544050 
3381.000000	96.544278 
3380.000000	96.544551 
3379.000000	96.544878 
3378.000000	96.545257 
3377.000000	96.545675 
3376.000000	96.546123 
3375.000000	96.546604 
3374.000000	96.547130 
3373.000000	96.547717 
3372.000000	96.548365 
3371.000000	96.549057 
3370.000000	96.549769 
3369.000000	96.550487 
3368.000000	96.551219 
3367.000000	96.551986 
3366.000000	96.552805 
3365.000000	96.553680 
3364.000000	96.554602 
3363.000000	96.555556 
3362.000000	96.556533 
3361.000000	96.557533 
3360.000000	96.558559 
3359.000000	96.559613 
3358.000000	96.560686 
3357.000000	96.561757 
3356.000000	96.562804 
3355.000000	96.563821 
3354.000000	96.564820 
3353.000000	96.565823 
3352.000000	96.566848 
3351.000000	96.567901 
3350.000000	96.568975 
3349.000000	96.570067 
3348.000000	96.571171 
3347.000000	96.572280 
3346.000000	96.573417 
3345.000000	96.574640 
3344.000000	96.576013 
3343.000000	96.577502 
3342.000000	96.578950 
3341.000000	96.580186 
3340.000000	96.581194 
3339.000000	96.582180 
3338.000000	96.583357 
3337.000000	96.584732 
3336.000000	96.586092 
3335.000000	96.587182 
3334.000000	96.587884 
3333.000000	96.588296 
3332.000000	96.588664 
3331.000000	96.589145 
3330.000000	96.589656 
3329.000000	96.589963 
3328.000000	96.590020 
3327.000000	96.590274 
3326.000000	96.591388 
3325.000000	96.593558 
3324.000000	96.596364 
3323.000000	96.599132 
3322.000000	96.601434 
3321.000000	96.603277 
3320.000000	96.604886 
3319.000000	96.606414 
3318.000000	96.607764 
3317.000000	96.608599 
3316.000000	96.608583 
3315.000000	96.607836 
3314.000000	96.607159 
3313.000000	96.607669 
3312.000000	96.609970 
3311.000000	96.613601 
3310.000000	96.617383 
3309.000000	96.620256 
3308.000000	96.621873 
3307.000000	96.622558 
3306.000000	96.622901 
3305.000000	96.623413 
3304.000000	96.624267 
3303.000000	96.625217 
3302.000000	96.625848 
3301.000000	96.626058 
3300.000000	96.626303 
3299.000000	96.627317 
3298.000000	96.629514 
3297.000000	96.632579 
3296.000000	96.635643 
3295.000000	96.637923 
3294.000000	96.639313 
3293.000000	96.640305 
3292.000000	96.641251 
3291.000000	96.641865 
3290.000000	96.641671 
3289.000000	96.640732 
3288.000000	96.639642 
3287.000000	96.638878 
3286.000000	96.638535 
3285.000000	96.638835 
3284.000000	96.640475 
3283.000000	96.644091 
3282.000000	96.649477 
3281.000000	96.655616 
3280.000000	96.661386 
3279.000000	96.666120 
3278.000000	96.669586 
3277.000000	96.671574 
3276.000000	96.671582 
3275.000000	96.669040 
3274.000000	96.663993 
3273.000000	96.657641 
3272.000000	96.651960 
3271.000000	96.648599 
3270.000000	96.648254 
3269.000000	96.650877 
3268.000000	96.655951 
3267.000000	96.662319 
3266.000000	96.668150 
3265.000000	96.671853 
3264.000000	96.673192 
3263.000000	96.673230 
3262.000000	96.673164 
3261.000000	96.673361 
3260.000000	96.673398 
3259.000000	96.672882 
3258.000000	96.672177 
3257.000000	96.672322 
3256.000000	96.674150 
3255.000000	96.677448 
3254.000000	96.681018 
3253.000000	96.683652 
3252.000000	96.685027 
3251.000000	96.685611 
3250.000000	96.686070 
3249.000000	96.686927 
3248.000000	96.688469 
3247.000000	96.690499 
3246.000000	96.692191 
3245.000000	96.692699 
3244.000000	96.692211 
3243.000000	96.692166 
3242.000000	96.694145 
3241.000000	96.698577 
3240.000000	96.704400 
3239.000000	96.709978 
3238.000000	96.714497 
3237.000000	96.718393 
3236.000000	96.722494 
3235.000000	96.726791 
3234.000000	96.730102 
3233.000000	96.730954 
3232.000000	96.728834 
3231.000000	96.724647 
3230.000000	96.720216 
3229.000000	96.717362 
3228.000000	96.717136 
3227.000000	96.719569 
3226.000000	96.723932 
3225.000000	96.729414 
3224.000000	96.735669 
3223.000000	96.742628 
3222.000000	96.749947 
3221.000000	96.756858 
3220.000000	96.762427 
3219.000000	96.765810 
3218.000000	96.766429 
3217.000000	96.764352 
3216.000000	96.760614 
3215.000000	96.756969 
3214.000000	96.754865 
3213.000000	96.754501 
3212.000000	96.755010 
3211.000000	96.755534 
3210.000000	96.756070 
3209.000000	96.757338 
3208.000000	96.759930 
3207.000000	96.763779 
3206.000000	96.768377 
3205.000000	96.773316 
3204.000000	96.778513 
3203.000000	96.784107 
3202.000000	96.790306 
3201.000000	96.797146 
3200.000000	96.803938 
3199.000000	96.808937 
3198.000000	96.810115 
3197.000000	96.806741 
3196.000000	96.800189 
3195.000000	96.793285 
3194.000000	96.788757 
3193.000000	96.788068 
3192.000000	96.791179 
3191.000000	96.796745 
3190.000000	96.803068 
3189.000000	96.809481 
3188.000000	96.816627 
3187.000000	96.825066 
3186.000000	96.833801 
3185.000000	96.840759 
3184.000000	96.844818 
3183.000000	96.846950 
3182.000000	96.849235 
3181.000000	96.852993 
3180.000000	96.858019 
3179.000000	96.863101 
3178.000000	96.866775 
3177.000000	96.867893 
3176.000000	96.866186 
3175.000000	96.862671 
3174.000000	96.859422 
3173.000000	96.858535 
3172.000000	96.861003 
3171.000000	96.866213 
3170.000000	96.872301 
3169.000000	96.877354 
3168.000000	96.880817 
3167.000000	96.883860 
3166.000000	96.888147 
3165.000000	96.894069 
3164.000000	96.900201 
3163.000000	96.904605 
3162.000000	96.906641 
3161.000000	96.907551 
3160.000000	96.909610 
3159.000000	96.914628 
3158.000000	96.922628 
3157.000000	96.931402 
3156.000000	96.937668 
3155.000000	96.939568 
3154.000000	96.938422 
3153.000000	96.937821 
3152.000000	96.940171 
3151.000000	96.944049 
3150.000000	96.945367 
3149.000000	96.941402 
3148.000000	96.933690 
3147.000000	96.927060 
3146.000000	96.925691 
3145.000000	96.930327 
3144.000000	96.938885 
3143.000000	96.948777 
3142.000000	96.958424 
3141.000000	96.967197 
3140.000000	96.975213 
3139.000000	96.983478 
3138.000000	96.993222 
3137.000000	97.004131 
3136.000000	97.013565 
3135.000000	97.018496 
3134.000000	97.018308 
3133.000000	97.015075 
3132.000000	97.010953 
3131.000000	97.006086 
3130.000000	96.999634 
3129.000000	96.992070 
3128.000000	96.985555 
3127.000000	96.982351 
3126.000000	96.983752 
3125.000000	96.990371 
3124.000000	97.002198 
3123.000000	97.017567 
3122.000000	97.032623 
3121.000000	97.043344 
3120.000000	97.048777 
3119.000000	97.051872 
3118.000000	97.056782 
3117.000000	97.065054 
3116.000000	97.074373 
3115.000000	97.080873 
3114.000000	97.082457 
3113.000000	97.080058 
3112.000000	97.076523 
3111.000000	97.074526 
3110.000000	97.075004 
3109.000000	97.076733 
3108.000000	97.077248 
3107.000000	97.074902 
3106.000000	97.070793 
3105.000000	97.068406 
3104.000000	97.070814 
3103.000000	97.078248 
3102.000000	97.088412 
3101.000000	97.099101 
3100.000000	97.109718 
3099.000000	97.120079 
3098.000000	97.128924 
3097.000000	97.134721 
3096.000000	97.137605 
3095.000000	97.139270 
3094.000000	97.140588 
3093.000000	97.140228 
3092.000000	97.136423 
3091.000000	97.129670 
3090.000000	97.123066 
3089.000000	97.119658 
3088.000000	97.120049 
3087.000000	97.122814 
3086.000000	97.126504 
3085.000000	97.130925 
3084.000000	97.136652 
3083.000000	97.143880 
3082.000000	97.152119 
3081.000000	97.160588 
3080.000000	97.168305 
3079.000000	97.174039 
3078.000000	97.176846 
3077.000000	97.177009 
3076.000000	97.176207 
3075.000000	97.176234 
3074.000000	97.177432 
3073.000000	97.178424 
3072.000000	97.177517 
3071.000000	97.174557 
3070.000000	97.171570 
3069.000000	97.171448 
3068.000000	97.175497 
3067.000000	97.182115 
3066.000000	97.187800 
3065.000000	97.189810 
3064.000000	97.188093 
3063.000000	97.185174 
3062.000000	97.184356 
3061.000000	97.187630 
3060.000000	97.194452 
3059.000000	97.201893 
3058.000000	97.206580 
3057.000000	97.207296 
3056.000000	97.206012 
3055.000000	97.206145 
3054.000000	97.209435 
3053.000000	97.214304 
3052.000000	97.217075 
3051.000000	97.214924 
3050.000000	97.208214 
3049.000000	97.200822 
3048.000000	97.197702 
3047.000000	97.200821 
3046.000000	97.206840 
3045.000000	97.209102 
3044.000000	97.203057 
3043.000000	97.190326 
3042.000000	97.177696 
3041.000000	97.171649 
3040.000000	97.173302 
3039.000000	97.178282 
3038.000000	97.180964 
3037.000000	97.179040 
3036.000000	97.174718 
3035.000000	97.172405 
3034.000000	97.175309 
3033.000000	97.183011 
3032.000000	97.190889 
3031.000000	97.192025 
3030.000000	97.181517 
3029.000000	97.160584 
3028.000000	97.136569 
3027.000000	97.117287 
3026.000000	97.104163 
3025.000000	97.091556 
3024.000000	97.073394 
3023.000000	97.050431 
3022.000000	97.030449 
3021.000000	97.021409 
3020.000000	97.024967 
3019.000000	97.036109 
3018.000000	97.047771 
3017.000000	97.055504 
3016.000000	97.058588 
3015.000000	97.058222 
3014.000000	97.055398 
3013.000000	97.049577 
3012.000000	97.038103 
3011.000000	97.016940 
3010.000000	96.983583 
3009.000000	96.940541 
3008.000000	96.895729 
3007.000000	96.858140 
3006.000000	96.832380 
3005.000000	96.817370 
3004.000000	96.809485 
3003.000000	96.806244 
3002.000000	96.807187 
3001.000000	96.812547 
3000.000000	96.822104 
2999.000000	96.834692 
2998.000000	96.847460 
2997.000000	96.855799 
2996.000000	96.855175 
2995.000000	96.843707 
2994.000000	96.822665 
2993.000000	96.794274 
2992.000000	96.759738 
2991.000000	96.720115 
2990.000000	96.678919 
2989.000000	96.642864 
2988.000000	96.619143 
2987.000000	96.611596 
2986.000000	96.618983 
2985.000000	96.636448 
2984.000000	96.658268 
2983.000000	96.679669 
2982.000000	96.697260 
2981.000000	96.709162 
2980.000000	96.715773 
2979.000000	96.720008 
2978.000000	96.725163 
2977.000000	96.731360 
2976.000000	96.734413 
2975.000000	96.729346 
2974.000000	96.715846 
2973.000000	96.700308 
2972.000000	96.692171 
2971.000000	96.697594 
2970.000000	96.715597 
2969.000000	96.738840 
2968.000000	96.758254 
2967.000000	96.768843 
2966.000000	96.772628 
2965.000000	96.776264 
2964.000000	96.784924 
2963.000000	96.797663 
2962.000000	96.808625 
2961.000000	96.813095 
2960.000000	96.812487 
2959.000000	96.813719 
2958.000000	96.823728 
2957.000000	96.844289 
2956.000000	96.871200 
2955.000000	96.897690 
2954.000000	96.918876 
2953.000000	96.933898 
2952.000000	96.945012 
2951.000000	96.955087 
2950.000000	96.965320 
2949.000000	96.974474 
2948.000000	96.980010 
2947.000000	96.980291 
2946.000000	96.976061 
2945.000000	96.969822 
2944.000000	96.963987 
2943.000000	96.959818 
2942.000000	96.957920 
2941.000000	96.959006 
2940.000000	96.963679 
2939.000000	96.971817 
2938.000000	96.982948 
2937.000000	96.997201 
2936.000000	97.015193 
2935.000000	97.036584 
2934.000000	97.058925 
2933.000000	97.078130 
2932.000000	97.090245 
2931.000000	97.093218 
2930.000000	97.087840 
2929.000000	97.077492 
2928.000000	97.066484 
2927.000000	97.057541 
2926.000000	97.050400 
2925.000000	97.042872 
2924.000000	97.033679 
2923.000000	97.024606 
2922.000000	97.019787 
2921.000000	97.022108 
2920.000000	97.029805 
2919.000000	97.037008 
2918.000000	97.038637 
2917.000000	97.034971 
2916.000000	97.031128 
2915.000000	97.032123 
2914.000000	97.038546 
2913.000000	97.046707 
2912.000000	97.051854 
2911.000000	97.051168 
2910.000000	97.044769 
2909.000000	97.035053 
2908.000000	97.024887 
2907.000000	97.015174 
2906.000000	97.003667 
2905.000000	96.986683 
2904.000000	96.963244 
2903.000000	96.938452 
2902.000000	96.922274 
2901.000000	96.922874 
2900.000000	96.941114 
2899.000000	96.969301 
2898.000000	96.996853 
2897.000000	97.017928 
2896.000000	97.033742 
2895.000000	97.048469 
2894.000000	97.064155 
2893.000000	97.079068 
2892.000000	97.089440 
2891.000000	97.092148 
2890.000000	97.086838 
2889.000000	97.076782 
2888.000000	97.067350 
2887.000000	97.062238 
2886.000000	97.060959 
2885.000000	97.060528 
2884.000000	97.059742 
2883.000000	97.061094 
2882.000000	97.068241 
2881.000000	97.082225 
2880.000000	97.100613 
2879.000000	97.119815 
2878.000000	97.137641 
2877.000000	97.153835 
2876.000000	97.169060 
2875.000000	97.184190 
2874.000000	97.200245 
2873.000000	97.217693 
2872.000000	97.234871 
2871.000000	97.247735 
2870.000000	97.252742 
2869.000000	97.250743 
2868.000000	97.247284 
2867.000000	97.248016 
2866.000000	97.253852 
2865.000000	97.261477 
2864.000000	97.268154 
2863.000000	97.274750 
2862.000000	97.283675 
2861.000000	97.295362 
2860.000000	97.308385 
2859.000000	97.322649 
2858.000000	97.340554 
2857.000000	97.364035 
2856.000000	97.391227 
2855.000000	97.417127 
2854.000000	97.437582 
2853.000000	97.452107 
2852.000000	97.462707 
2851.000000	97.470837 
2850.000000	97.475859 
2849.000000	97.475808 
2848.000000	97.469143 
2847.000000	97.456449 
2846.000000	97.441456 
2845.000000	97.430037 
2844.000000	97.426679 
2843.000000	97.431166 
2842.000000	97.438838 
2841.000000	97.444419 
2840.000000	97.445836 
2839.000000	97.445239 
2838.000000	97.447309 
2837.000000	97.456241 
2836.000000	97.472822 
2835.000000	97.493245 
2834.000000	97.511324 
2833.000000	97.522923 
2832.000000	97.528555 
2831.000000	97.531831 
2830.000000	97.535973 
2829.000000	97.541718 
2828.000000	97.547327 
2827.000000	97.549735 
2826.000000	97.546347 
2825.000000	97.537177 
2824.000000	97.525517 
2823.000000	97.515692 
2822.000000	97.509537 
2821.000000	97.505029 
2820.000000	97.498344 
2819.000000	97.487621 
2818.000000	97.475733 
2817.000000	97.469629 
2816.000000	97.475854 
2815.000000	97.495432 
2814.000000	97.523148 
2813.000000	97.552479 
2812.000000	97.581207 
2811.000000	97.611020 
2810.000000	97.641986 
2809.000000	97.669145 
2808.000000	97.685254 
2807.000000	97.685722 
2806.000000	97.670425 
2805.000000	97.642466 
2804.000000	97.606930 
2803.000000	97.570417 
2802.000000	97.539432 
2801.000000	97.517522 
2800.000000	97.503938 
2799.000000	97.495870 
2798.000000	97.492567 
2797.000000	97.497127 
2796.000000	97.513751 
2795.000000	97.543065 
2794.000000	97.580067 
2793.000000	97.616535 
2792.000000	97.645497 
2791.000000	97.663737 
2790.000000	97.671448 
2789.000000	97.670725 
2788.000000	97.663879 
2787.000000	97.651656 
2786.000000	97.632875 
2785.000000	97.606989 
2784.000000	97.577613 
2783.000000	97.552460 
2782.000000	97.538289 
2781.000000	97.535962 
2780.000000	97.541060 
2779.000000	97.548901 
2778.000000	97.558087 
2777.000000	97.569390 
2776.000000	97.583142 
2775.000000	97.599008 
2774.000000	97.617036 
2773.000000	97.636517 
2772.000000	97.653423 
2771.000000	97.661411 
2770.000000	97.657277 
2769.000000	97.645096 
2768.000000	97.633586 
2767.000000	97.628557 
2766.000000	97.628492 
2765.000000	97.627670 
2764.000000	97.622529 
2763.000000	97.614632 
2762.000000	97.608655 
2761.000000	97.608537 
2760.000000	97.615024 
2759.000000	97.625473 
2758.000000	97.635414 
2757.000000	97.641298 
2756.000000	97.642814 
2755.000000	97.642759 
2754.000000	97.644496 
2753.000000	97.649034 
2752.000000	97.654234 
2751.000000	97.656791 
2750.000000	97.655291 
2749.000000	97.651589 
2748.000000	97.649289 
2747.000000	97.650842 
2746.000000	97.655886 
2745.000000	97.661930 
2744.000000	97.666187 
2743.000000	97.667043 
2742.000000	97.664586 
2741.000000	97.660483 
2740.000000	97.657077 
2739.000000	97.655730 
2738.000000	97.655623 
2737.000000	97.654455 
2736.000000	97.650769 
2735.000000	97.645769 
2734.000000	97.642850 
2733.000000	97.645067 
2732.000000	97.652957 
2731.000000	97.664188 
2730.000000	97.674844 
2729.000000	97.681888 
2728.000000	97.684930 
2727.000000	97.685947 
2726.000000	97.687281 
2725.000000	97.689348 
2724.000000	97.690265 
2723.000000	97.687665 
2722.000000	97.680740 
2721.000000	97.671184 
2720.000000	97.662605 
2719.000000	97.658468 
2718.000000	97.659951 
2717.000000	97.665251 
2716.000000	97.670836 
2715.000000	97.674159 
2714.000000	97.675449 
2713.000000	97.677272 
2712.000000	97.682389 
2711.000000	97.691421 
2710.000000	97.701667 
2709.000000	97.708367 
2708.000000	97.708036 
2707.000000	97.701083 
2706.000000	97.691674 
2705.000000	97.684616 
2704.000000	97.681958 
2703.000000	97.682551 
2702.000000	97.683916 
2701.000000	97.684241 
2700.000000	97.683266 
2699.000000	97.682339 
2698.000000	97.683753 
2697.000000	97.689084 
2696.000000	97.697431 
2695.000000	97.705512 
2694.000000	97.710312 
2693.000000	97.711845 
2692.000000	97.713245 
2691.000000	97.717863 
2690.000000	97.725713 
2689.000000	97.732420 
2688.000000	97.732235 
2687.000000	97.722714 
2686.000000	97.707264 
2685.000000	97.692899 
2684.000000	97.684368 
2683.000000	97.680898 
2682.000000	97.678629 
2681.000000	97.675549 
2680.000000	97.673645 
2679.000000	97.676665 
2678.000000	97.686704 
2677.000000	97.702588 
2676.000000	97.719989 
2675.000000	97.733120 
2674.000000	97.737936 
2673.000000	97.734948 
2672.000000	97.728978 
2671.000000	97.725038 
2670.000000	97.723866 
2669.000000	97.721925 
2668.000000	97.715686 
2667.000000	97.705324 
2666.000000	97.694331 
2665.000000	97.685853 
2664.000000	97.679512 
2663.000000	97.671907 
2662.000000	97.660199 
2661.000000	97.645229 
2660.000000	97.631137 
2659.000000	97.622181 
2658.000000	97.620311 
2657.000000	97.625444 
2656.000000	97.636796 
2655.000000	97.652916 
2654.000000	97.671007 
2653.000000	97.687798 
2652.000000	97.701798 
2651.000000	97.713959 
2650.000000	97.724874 
2649.000000	97.731511 
2648.000000	97.728333 
2647.000000	97.712312 
2646.000000	97.686472 
2645.000000	97.658464 
2644.000000	97.635657 
2643.000000	97.621796 
2642.000000	97.617501 
2641.000000	97.621736 
2640.000000	97.632089 
2639.000000	97.645163 
2638.000000	97.658263 
2637.000000	97.670573 
2636.000000	97.681779 
2635.000000	97.690080 
2634.000000	97.692935 
2633.000000	97.689775 
2632.000000	97.682913 
2631.000000	97.675437 
2630.000000	97.669151 
2629.000000	97.665197 
2628.000000	97.665380 
2627.000000	97.671068 
2626.000000	97.680487 
2625.000000	97.688438 
2624.000000	97.690151 
2623.000000	97.685322 
2622.000000	97.677745 
2621.000000	97.670933 
2620.000000	97.664868 
2619.000000	97.657580 
2618.000000	97.648818 
2617.000000	97.640896 
2616.000000	97.636392 
2615.000000	97.636768 
2614.000000	97.643315 
2613.000000	97.657083 
2612.000000	97.676118 
2611.000000	97.693811 
2610.000000	97.702851 
2609.000000	97.701174 
2608.000000	97.692881 
2607.000000	97.683813 
2606.000000	97.676452 
2605.000000	97.669617 
2604.000000	97.661767 
2603.000000	97.653453 
2602.000000	97.647441 
2601.000000	97.647194 
2600.000000	97.654532 
2599.000000	97.667878 
2598.000000	97.682554 
2597.000000	97.693631 
2596.000000	97.699079 
2595.000000	97.700364 
2594.000000	97.700702 
2593.000000	97.702394 
2592.000000	97.704987 
2591.000000	97.705808 
2590.000000	97.702765 
2589.000000	97.696856 
2588.000000	97.691790 
2587.000000	97.690825 
2586.000000	97.694195 
2585.000000	97.699467 
2584.000000	97.703693 
2583.000000	97.705444 
2582.000000	97.705366 
2581.000000	97.705262 
2580.000000	97.706244 
2579.000000	97.707568 
2578.000000	97.707658 
2577.000000	97.706175 
2576.000000	97.704398 
2575.000000	97.703639 
2574.000000	97.704094 
2573.000000	97.705437 
2572.000000	97.707623 
2571.000000	97.710540 
2570.000000	97.713585 
2569.000000	97.716129 
2568.000000	97.717971 
2567.000000	97.719016 
2566.000000	97.719043 
2565.000000	97.718166 
2564.000000	97.717130 
2563.000000	97.716847 
2562.000000	97.717576 
2561.000000	97.718858 
2560.000000	97.720080 
2559.000000	97.720925 
2558.000000	97.721428 
2557.000000	97.721805 
2556.000000	97.722264 
2555.000000	97.722844 
2554.000000	97.723387 
2553.000000	97.723752 
2552.000000	97.723994 
2551.000000	97.724332 
2550.000000	97.724953 
2549.000000	97.725881 
2548.000000	97.727032 
2547.000000	97.728200 
2546.000000	97.729002 
2545.000000	97.729086 
2544.000000	97.728560 
2543.000000	97.728089 
2542.000000	97.728245 
2541.000000	97.728903 
2540.000000	97.729381 
2539.000000	97.729195 
2538.000000	97.728571 
2537.000000	97.728311 
2536.000000	97.729168 
2535.000000	97.731324 
2534.000000	97.734153 
2533.000000	97.736447 
2532.000000	97.737267 
2531.000000	97.736681 
2530.000000	97.735859 
2529.000000	97.736174 
2528.000000	97.737912 
2527.000000	97.739824 
2526.000000	97.740141 
2525.000000	97.738206 
2524.000000	97.735041 
2523.000000	97.732425 
2522.000000	97.731223 
2521.000000	97.730873 
2520.000000	97.730312 
2519.000000	97.729163 
2518.000000	97.728102 
2517.000000	97.728443 
2516.000000	97.731337 
2515.000000	97.736949 
2514.000000	97.743969 
2513.000000	97.749874 
2512.000000	97.752445 
2511.000000	97.751178 
2510.000000	97.747524 
2509.000000	97.743987 
2508.000000	97.742179 
2507.000000	97.741846 
2506.000000	97.741586 
2505.000000	97.740391 
2504.000000	97.738618 
2503.000000	97.737519 
2502.000000	97.738041 
2501.000000	97.740215 
2500.000000	97.743350 
2499.000000	97.746327 
2498.000000	97.747965 
2497.000000	97.747734 
2496.000000	97.746326 
2495.000000	97.745213 
2494.000000	97.745238 
2493.000000	97.745930 
2492.000000	97.746282 
2491.000000	97.745921 
2490.000000	97.745232 
2489.000000	97.744729 
2488.000000	97.744834 
2487.000000	97.746042 
2486.000000	97.748572 
2485.000000	97.751669 
2484.000000	97.753856 
2483.000000	97.754264 
2482.000000	97.753671 
2481.000000	97.754026 
2480.000000	97.756634 
2479.000000	97.760733 
2478.000000	97.763737 
2477.000000	97.763185 
2476.000000	97.758676 
2475.000000	97.752256 
2474.000000	97.747030 
2473.000000	97.744959 
2472.000000	97.745664 
2471.000000	97.746971 
2470.000000	97.746894 
2469.000000	97.745551 
2468.000000	97.745254 
2467.000000	97.748444 
2466.000000	97.755423 
2465.000000	97.763793 
2464.000000	97.770338 
2463.000000	97.773455 
2462.000000	97.773633 
2461.000000	97.772322 
2460.000000	97.770546 
2459.000000	97.768312 
2458.000000	97.764875 
2457.000000	97.759473 
2456.000000	97.752113 
2455.000000	97.743905 
2454.000000	97.736841 
2453.000000	97.733183 
2452.000000	97.734505 
2451.000000	97.740540 
2450.000000	97.748796 
2449.000000	97.756179 
2448.000000	97.761518 
2447.000000	97.766170 
2446.000000	97.771912 
2445.000000	97.778427 
2444.000000	97.783048 
2443.000000	97.782869 
2442.000000	97.776961 
2441.000000	97.767172 
2440.000000	97.757420 
2439.000000	97.751601 
2438.000000	97.751462 
2437.000000	97.755921 
2436.000000	97.761845 
2435.000000	97.765949 
2434.000000	97.766693 
2433.000000	97.765075 
2432.000000	97.763760 
2431.000000	97.764841 
2430.000000	97.767958 
2429.000000	97.770598 
2428.000000	97.770353 
2427.000000	97.766859 
2426.000000	97.761852 
2425.000000	97.757788 
2424.000000	97.756308 
2423.000000	97.757403 
2422.000000	97.759607 
2421.000000	97.761203 
2420.000000	97.761751 
2419.000000	97.762806 
2418.000000	97.767019 
2417.000000	97.775957 
2416.000000	97.788082 
2415.000000	97.798928 
2414.000000	97.804130 
2413.000000	97.803072 
2412.000000	97.799216 
2411.000000	97.796354 
2410.000000	97.795032 
2409.000000	97.793122 
2408.000000	97.788791 
2407.000000	97.781845 
2406.000000	97.773042 
2405.000000	97.763765 
2404.000000	97.756569 
2403.000000	97.754381 
2402.000000	97.757975 
2401.000000	97.764839 
2400.000000	97.771302 
2399.000000	97.775759 
2398.000000	97.779532 
2397.000000	97.784778 
2396.000000	97.791973 
2395.000000	97.799221 
2394.000000	97.803647 
2393.000000	97.803457 
2392.000000	97.798905 
2391.000000	97.791942 
2390.000000	97.784927 
2389.000000	97.779221 
2388.000000	97.774869 
2387.000000	97.771166 
2386.000000	97.767441 
2385.000000	97.763706 
2384.000000	97.760657 
2383.000000	97.758986 
2382.000000	97.758761 
2381.000000	97.759347 
2380.000000	97.759654 
2379.000000	97.758618 
2378.000000	97.755801 
2377.000000	97.751881 
2376.000000	97.748507 
2375.000000	97.747099 
2374.000000	97.747693 
2373.000000	97.748914 
2372.000000	97.749105 
2371.000000	97.747621 
2370.000000	97.745023 
2369.000000	97.742498 
2368.000000	97.741022 
2367.000000	97.740727 
2366.000000	97.740880 
2365.000000	97.740426 
2364.000000	97.738846 
2363.000000	97.736272 
2362.000000	97.733153 
2361.000000	97.730156 
2360.000000	97.727782 
2359.000000	97.726050 
2358.000000	97.724572 
2357.000000	97.722841 
2356.000000	97.721056 
2355.000000	97.719774 
2354.000000	97.719131 
2353.000000	97.718774 
2352.000000	97.718354 
2351.000000	97.717958 
2350.000000	97.717232 
2349.000000	97.715489 
2348.000000	97.712529 
2347.000000	97.708924 
2346.000000	97.705986 
2345.000000	97.704380 
2344.000000	97.703949 
2343.000000	97.703595 
2342.000000	97.702138 
2341.000000	97.699381 
2340.000000	97.695760 
2339.000000	97.692351 
2338.000000	97.689867 
2337.000000	97.688433 
2336.000000	97.687404 
2335.000000	97.686131 
2334.000000	97.684290 
2333.000000	97.682429 
2332.000000	97.681270 
2331.000000	97.681616 
2330.000000	97.682786 
2329.000000	97.683249 
2328.000000	97.681674 
2327.000000	97.677376 
2326.000000	97.671223 
2325.000000	97.664474 
2324.000000	97.659238 
2323.000000	97.656361 
2322.000000	97.654925 
2321.000000	97.653399 
2320.000000	97.650988 
2319.000000	97.648896 
2318.000000	97.647971 
2317.000000	97.648466 
2316.000000	97.649417 
2315.000000	97.650042 
2314.000000	97.649696 
2313.000000	97.648562 
2312.000000	97.647398 
2311.000000	97.647067 
2310.000000	97.647637 
2309.000000	97.648324 
2308.000000	97.648350 
2307.000000	97.647522 
2306.000000	97.646194 
2305.000000	97.644923 
2304.000000	97.644231 
2303.000000	97.644219 
2302.000000	97.644135 
2301.000000	97.642976 
2300.000000	97.640530 
2299.000000	97.637940 
2298.000000	97.636769 
2297.000000	97.637588 
2296.000000	97.639583 
2295.000000	97.641075 
2294.000000	97.640932 
2293.000000	97.639509 
2292.000000	97.638663 
2291.000000	97.639907 
2290.000000	97.642862 
2289.000000	97.645370 
2288.000000	97.645715 
2287.000000	97.644097 
2286.000000	97.642200 
2285.000000	97.641621 
2284.000000	97.642833 
2283.000000	97.645071 
2282.000000	97.646728 
2281.000000	97.646247 
2280.000000	97.643391 
2279.000000	97.639857 
2278.000000	97.638108 
2277.000000	97.639684 
2276.000000	97.644347 
2275.000000	97.650481 
2274.000000	97.656059 
2273.000000	97.659805 
2272.000000	97.662087 
2271.000000	97.664508 
2270.000000	97.668134 
2269.000000	97.672047 
2268.000000	97.673840 
2267.000000	97.671316 
2266.000000	97.663906 
2265.000000	97.653629 
2264.000000	97.644845 
2263.000000	97.641444 
2262.000000	97.643831 
2261.000000	97.648689 
2260.000000	97.652334 
2259.000000	97.654173 
2258.000000	97.656306 
2257.000000	97.660646 
2256.000000	97.667082 
2255.000000	97.673929 
2254.000000	97.679106 
2253.000000	97.680942 
2252.000000	97.678501 
2251.000000	97.671593 
2250.000000	97.660912 
2249.000000	97.648832 
2248.000000	97.639281 
2247.000000	97.635216 
2246.000000	97.636346 
2245.000000	97.639869 
2244.000000	97.643992 
2243.000000	97.649501 
2242.000000	97.657318 
2241.000000	97.666306 
2240.000000	97.674225 
2239.000000	97.678967 
2238.000000	97.678020 
2237.000000	97.669122 
2236.000000	97.653836 
2235.000000	97.639291 
2234.000000	97.633115 
2233.000000	97.636952 
2232.000000	97.646092 
2231.000000	97.654699 
2230.000000	97.660296 
2229.000000	97.663424 
2228.000000	97.665773 
2227.000000	97.669309 
2226.000000	97.675082 
2225.000000	97.681648 
2224.000000	97.685564 
2223.000000	97.684121 
2222.000000	97.677172 
2221.000000	97.666729 
2220.000000	97.655276 
2219.000000	97.644623 
2218.000000	97.635406 
2217.000000	97.627088 
2216.000000	97.619671 
2215.000000	97.616068 
2214.000000	97.621512 
2213.000000	97.638828 
2212.000000	97.663701 
2211.000000	97.685757 
2210.000000	97.696682 
2209.000000	97.697422 
2208.000000	97.696740 
2207.000000	97.702176 
2206.000000	97.712617 
2205.000000	97.720044 
2204.000000	97.717187 
2203.000000	97.702401 
2202.000000	97.679320 
2201.000000	97.654650 
2200.000000	97.635184 
2199.000000	97.624105 
2198.000000	97.618768 
2197.000000	97.613639 
2196.000000	97.606932 
2195.000000	97.603671 
2194.000000	97.611402 
2193.000000	97.632926 
2192.000000	97.662624 
2191.000000	97.689006 
2190.000000	97.701687 
2189.000000	97.697453 
2188.000000	97.681026 
2187.000000	97.660621 
2186.000000	97.642774 
2185.000000	97.630203 
2184.000000	97.621019 
2183.000000	97.608671 
2182.000000	97.587392 
2181.000000	97.562482 
2180.000000	97.551597 
2179.000000	97.569090 
2178.000000	97.610384 
2177.000000	97.654483 
2176.000000	97.683605 
2175.000000	97.696641 
2174.000000	97.702472 
2173.000000	97.707354 
2172.000000	97.711582 
2171.000000	97.712963 
2170.000000	97.708033 
2169.000000	97.691887 
2168.000000	97.661629 
2167.000000	97.621148 
2166.000000	97.581330 
2165.000000	97.554416 
2164.000000	97.546452 
2163.000000	97.553696 
2162.000000	97.567789 
2161.000000	97.587276 
2160.000000	97.621658 
2159.000000	97.678037 
2158.000000	97.744545 
2157.000000	97.796183 
2156.000000	97.819596 
2155.000000	97.821152 
2154.000000	97.812678 
2153.000000	97.799708 
2152.000000	97.785191 
2151.000000	97.775913 
2150.000000	97.778276 
2149.000000	97.790400 
2148.000000	97.803111 
2147.000000	97.807901 
2146.000000	97.802041 
2145.000000	97.788975 
2144.000000	97.776671 
2143.000000	97.772648 
2142.000000	97.776847 
2141.000000	97.780341 
2140.000000	97.774071 
2139.000000	97.758778 
2138.000000	97.744899 
2137.000000	97.743413 
2136.000000	97.757402 
2135.000000	97.780603 
2134.000000	97.802485 
2133.000000	97.815478 
2132.000000	97.819443 
2131.000000	97.819789 
2130.000000	97.821289 
2129.000000	97.824102 
2128.000000	97.824828 
2127.000000	97.819945 
2126.000000	97.808594 
2125.000000	97.793741 
2124.000000	97.780436 
2123.000000	97.771261 
2122.000000	97.763640 
2121.000000	97.752887 
2120.000000	97.737531 
2119.000000	97.720165 
2118.000000	97.703860 
2117.000000	97.690213 
2116.000000	97.681038 
2115.000000	97.679282 
2114.000000	97.686901 
2113.000000	97.702516 
2112.000000	97.722569 
2111.000000	97.743916 
2110.000000	97.763667 
2109.000000	97.778371 
2108.000000	97.784911 
2107.000000	97.781661 
2106.000000	97.768782 
2105.000000	97.748772 
2104.000000	97.726982 
2103.000000	97.709475 
2102.000000	97.698979 
2101.000000	97.693554 
2100.000000	97.689419 
2099.000000	97.684888 
2098.000000	97.682220 
2097.000000	97.686408 
2096.000000	97.701032 
2095.000000	97.723024 
2094.000000	97.741833 
2093.000000	97.747495 
2092.000000	97.739658 
2091.000000	97.727388 
2090.000000	97.720406 
2089.000000	97.720854 
2088.000000	97.723970 
2087.000000	97.724399 
2086.000000	97.720740 
2085.000000	97.715531 
2084.000000	97.712508 
2083.000000	97.713493 
2082.000000	97.716911 
2081.000000	97.718913 
2080.000000	97.715973 
2079.000000	97.706642 
2078.000000	97.692211 
2077.000000	97.677101 
2076.000000	97.667321 
2075.000000	97.666201 
2074.000000	97.671815 
2073.000000	97.679758 
2072.000000	97.688432 
2071.000000	97.699638 
2070.000000	97.713990 
2069.000000	97.728384 
2068.000000	97.738758 
2067.000000	97.743145 
2066.000000	97.741153 
2065.000000	97.732952 
2064.000000	97.720428 
2063.000000	97.707524 
2062.000000	97.697677 
2061.000000	97.691662 
2060.000000	97.688378 
2059.000000	97.686708 
2058.000000	97.686532 
2057.000000	97.689109 
2056.000000	97.696302 
2055.000000	97.707519 
2054.000000	97.717066 
2053.000000	97.717382 
2052.000000	97.706056 
2051.000000	97.688465 
2050.000000	97.673886 
2049.000000	97.668931 
2048.000000	97.675010 
2047.000000	97.689492 
2046.000000	97.707006 
2045.000000	97.721922 
2044.000000	97.731835 
2043.000000	97.738098 
2042.000000	97.742365 
2041.000000	97.744174 
2040.000000	97.742753 
2039.000000	97.739009 
2038.000000	97.734306 
2037.000000	97.729130 
2036.000000	97.724062 
2035.000000	97.720334 
2034.000000	97.718455 
2033.000000	97.718079 
2032.000000	97.719959 
2031.000000	97.725892 
2030.000000	97.735898 
2029.000000	97.747428 
2028.000000	97.758257 
2027.000000	97.767856 
2026.000000	97.774822 
2025.000000	97.776035 
2024.000000	97.770398 
2023.000000	97.761241 
2022.000000	97.753477 
2021.000000	97.749368 
2020.000000	97.747819 
2019.000000	97.746113 
2018.000000	97.741779 
2017.000000	97.735093 
2016.000000	97.730583 
2015.000000	97.733484 
2014.000000	97.743952 
2013.000000	97.755824 
2012.000000	97.762140 
2011.000000	97.761051 
2010.000000	97.755787 
2009.000000	97.751690 
2008.000000	97.752695 
2007.000000	97.758239 
2006.000000	97.762680 
2005.000000	97.760433 
2004.000000	97.752371 
2003.000000	97.744850 
2002.000000	97.742146 
2001.000000	97.742667 
2000.000000	97.742739 
1999.000000	97.740505 
1998.000000	97.735236 
1997.000000	97.726688 
1996.000000	97.717026 
1995.000000	97.710438 
1994.000000	97.708708 
1993.000000	97.708980 
1992.000000	97.707908 
1991.000000	97.706302 
1990.000000	97.707155 
1989.000000	97.711287 
1988.000000	97.717115 
1987.000000	97.722706 
1986.000000	97.726323 
1985.000000	97.726397 
1984.000000	97.722665 
1983.000000	97.716636 
1982.000000	97.710227 
1981.000000	97.704979 
1980.000000	97.702822 
1979.000000	97.705512 
1978.000000	97.712125 
1977.000000	97.718937 
1976.000000	97.723627 
1975.000000	97.727787 
1974.000000	97.733733 
1973.000000	97.740801 
1972.000000	97.745926 
1971.000000	97.746715 
1970.000000	97.742930 
1969.000000	97.736552 
1968.000000	97.731370 
1967.000000	97.730351 
1966.000000	97.732707 
1965.000000	97.734782 
1964.000000	97.734503 
1963.000000	97.733631 
1962.000000	97.735179 
1961.000000	97.739841 
1960.000000	97.745411 
1959.000000	97.748758 
1958.000000	97.748038 
1957.000000	97.743739 
1956.000000	97.738764 
1955.000000	97.736469 
1954.000000	97.737546 
1953.000000	97.739384 
1952.000000	97.738791 
1951.000000	97.735199 
1950.000000	97.730778 
1949.000000	97.728270 
1948.000000	97.729112 
1947.000000	97.733058 
1946.000000	97.738340 
1945.000000	97.742626 
1944.000000	97.744688 
1943.000000	97.744930 
1942.000000	97.744139 
1941.000000	97.742365 
1940.000000	97.739569 
1939.000000	97.736250 
1938.000000	97.732726 
1937.000000	97.728684 
1936.000000	97.724199 
1935.000000	97.720485 
1934.000000	97.718683 
1933.000000	97.718298 
1932.000000	97.717857 
1931.000000	97.716882 
1930.000000	97.716002 
1929.000000	97.716173 
1928.000000	97.718801 
1927.000000	97.724985 
1926.000000	97.733297 
1925.000000	97.739387 
1924.000000	97.739936 
1923.000000	97.736406 
1922.000000	97.732531 
1921.000000	97.729397 
1920.000000	97.725624 
1919.000000	97.720275 
1918.000000	97.713419 
1917.000000	97.705247 
1916.000000	97.697100 
1915.000000	97.691689 
1914.000000	97.690307 
1913.000000	97.691432 
1912.000000	97.693295 
1911.000000	97.696298 
1910.000000	97.700754 
1909.000000	97.704378 
1908.000000	97.705022 
1907.000000	97.703695 
1906.000000	97.702294 
1905.000000	97.700565 
1904.000000	97.697950 
1903.000000	97.695757 
1902.000000	97.694319 
1901.000000	97.691568 
1900.000000	97.686570 
1899.000000	97.681400 
1898.000000	97.677886 
1897.000000	97.674762 
1896.000000	97.670389 
1895.000000	97.665885 
1894.000000	97.662622 
1893.000000	97.659613 
1892.000000	97.655828 
1891.000000	97.652270 
1890.000000	97.650229 
1889.000000	97.649666 
1888.000000	97.650859 
1887.000000	97.654536 
1886.000000	97.658799 
1885.000000	97.659168 
1884.000000	97.654034 
1883.000000	97.647593 
1882.000000	97.644957 
1881.000000	97.647067 
1880.000000	97.651775 
1879.000000	97.656857 
1878.000000	97.660600 
1877.000000	97.661517 
1876.000000	97.659609 
1875.000000	97.656718 
1874.000000	97.653853 
1873.000000	97.649999 
1872.000000	97.645356 
1871.000000	97.642603 
1870.000000	97.642642 
1869.000000	97.642321 
1868.000000	97.640500 
1867.000000	97.641479 
1866.000000	97.647828 
1865.000000	97.656681 
1864.000000	97.664401 
1863.000000	97.670914 
1862.000000	97.676984 
1861.000000	97.680526 
1860.000000	97.679838 
1859.000000	97.678039 
1858.000000	97.679757 
1857.000000	97.684961 
1856.000000	97.689569 
1855.000000	97.690661 
1854.000000	97.688339 
1853.000000	97.684415 
1852.000000	97.681887 
1851.000000	97.683466 
1850.000000	97.689294 
1849.000000	97.696816 
1848.000000	97.703543 
1847.000000	97.709363 
1846.000000	97.715102 
1845.000000	97.720812 
1844.000000	97.727087 
1843.000000	97.735139 
1842.000000	97.743175 
1841.000000	97.747224 
1840.000000	97.745202 
1839.000000	97.738834 
1838.000000	97.732519 
1837.000000	97.729200 
1836.000000	97.728949 
1835.000000	97.730761 
1834.000000	97.733028 
1833.000000	97.733408 
1832.000000	97.729826 
1831.000000	97.722507 
1830.000000	97.715440 
1829.000000	97.712827 
1828.000000	97.714319 
1827.000000	97.717399 
1826.000000	97.720860 
1825.000000	97.724501 
1824.000000	97.728582 
1823.000000	97.734219 
1822.000000	97.741801 
1821.000000	97.749020 
1820.000000	97.752517 
1819.000000	97.752063 
1818.000000	97.750254 
1817.000000	97.747743 
1816.000000	97.743305 
1815.000000	97.737814 
1814.000000	97.733540 
1813.000000	97.730678 
1812.000000	97.727761 
1811.000000	97.725759 
1810.000000	97.726792 
1809.000000	97.729175 
1808.000000	97.729795 
1807.000000	97.728760 
1806.000000	97.727768 
1805.000000	97.727074 
1804.000000	97.726671 
1803.000000	97.727791 
1802.000000	97.730722 
1801.000000	97.733052 
1800.000000	97.732550 
1799.000000	97.730548 
1798.000000	97.729388 
1797.000000	97.729318 
1796.000000	97.729934 
1795.000000	97.731648 
1794.000000	97.734205 
1793.000000	97.735353 
1792.000000	97.733538 
1791.000000	97.731261 
1790.000000	97.731311 
1789.000000	97.733209 
1788.000000	97.735482 
1787.000000	97.737810 
1786.000000	97.740308 
1785.000000	97.742315 
1784.000000	97.743664 
1783.000000	97.745562 
1782.000000	97.748911 
1781.000000	97.753086 
1780.000000	97.756439 
1779.000000	97.758110 
1778.000000	97.758532 
1777.000000	97.758425 
1776.000000	97.758203 
1775.000000	97.757849 
1774.000000	97.757228 
1773.000000	97.756486 
1772.000000	97.755930 
1771.000000	97.756225 
1770.000000	97.758596 
1769.000000	97.763617 
1768.000000	97.770069 
1767.000000	97.775595 
1766.000000	97.778832 
1765.000000	97.779996 
1764.000000	97.779877 
1763.000000	97.779583 
1762.000000	97.780782 
1761.000000	97.784345 
1760.000000	97.788905 
1759.000000	97.792607 
1758.000000	97.794796 
1757.000000	97.795836 
1756.000000	97.796243 
1755.000000	97.796325 
1754.000000	97.797039 
1753.000000	97.799414 
1752.000000	97.802637 
1751.000000	97.803988 
1750.000000	97.802627 
1749.000000	97.800946 
1748.000000	97.801017 
1747.000000	97.802528 
1746.000000	97.804810 
1745.000000	97.808253 
1744.000000	97.812313 
1743.000000	97.814952 
1742.000000	97.815365 
1741.000000	97.815119 
1740.000000	97.815858 
1739.000000	97.817137 
1738.000000	97.817079 
1737.000000	97.814358 
1736.000000	97.809128 
1735.000000	97.803237 
1734.000000	97.799625 
1733.000000	97.799036 
1732.000000	97.799236 
1731.000000	97.798749 
1730.000000	97.797840 
1729.000000	97.797064 
1728.000000	97.796537 
1727.000000	97.796275 
1726.000000	97.796809 
1725.000000	97.798371 
1724.000000	97.799407 
1723.000000	97.798339 
1722.000000	97.795626 
1721.000000	97.792651 
1720.000000	97.790529 
1719.000000	97.790191 
1718.000000	97.791198 
1717.000000	97.787888 
1716.000000	97.777230 
1715.000000	97.766244 
1714.000000	97.760969 
1713.000000	97.759354 
1712.000000	97.757324 
1711.000000	97.754332 
1710.000000	97.751782 
1709.000000	97.749213 
1708.000000	97.745391 
1707.000000	97.742441 
1706.000000	97.743715 
1705.000000	97.746525 
1704.000000	97.745108 
1703.000000	97.740048 
1702.000000	97.735911 
1701.000000	97.732875 
1700.000000	97.725166 
1699.000000	97.714560 
1698.000000	97.705521 
1697.000000	97.694926 
1696.000000	97.680825 
1695.000000	97.667850 
1694.000000	97.659261 
1693.000000	97.653044 
1692.000000	97.648017 
1691.000000	97.645204 
1690.000000	97.644948 
1689.000000	97.645433 
1688.000000	97.644614 
1687.000000	97.642056 
1686.000000	97.638495 
1685.000000	97.633183 
1684.000000	97.625831 
1683.000000	97.617114 
1682.000000	97.604690 
1681.000000	97.591510 
1680.000000	97.582256 
1679.000000	97.576482 
1678.000000	97.569616 
1677.000000	97.559962 
1676.000000	97.551341 
1675.000000	97.546754 
1674.000000	97.543653 
1673.000000	97.539036 
1672.000000	97.532351 
1671.000000	97.524253 
1670.000000	97.514697 
1669.000000	97.506328 
1668.000000	97.502784 
1667.000000	97.501664 
1666.000000	97.499102 
1665.000000	97.493959 
1664.000000	97.487620 
1663.000000	97.482070 
1662.000000	97.475464 
1661.000000	97.466453 
1660.000000	97.458793 
1659.000000	97.454007 
1658.000000	97.448610 
1657.000000	97.440171 
1656.000000	97.429900 
1655.000000	97.416727 
1654.000000	97.397627 
1653.000000	97.381211 
1652.000000	97.376429 
1651.000000	97.374479 
1650.000000	97.372043 
1649.000000	97.369814 
1648.000000	97.369646 
1647.000000	97.372693 
1646.000000	97.377840 
1645.000000	97.379864 
1644.000000	97.378397 
1643.000000	97.377853 
1642.000000	97.379021 
1641.000000	97.379580 
1640.000000	97.378593 
1639.000000	97.376126 
1638.000000	97.372307 
1637.000000	97.368150 
1636.000000	97.367794 
1635.000000	97.370084 
1634.000000	97.369081 
1633.000000	97.366508 
1632.000000	97.368847 
1631.000000	97.377831 
1630.000000	97.388094 
1629.000000	97.393960 
1628.000000	97.396860 
1627.000000	97.400558 
1626.000000	97.404343 
1625.000000	97.408366 
1624.000000	97.417594 
1623.000000	97.434319 
1622.000000	97.450910 
1621.000000	97.461267 
1620.000000	97.468548 
1619.000000	97.476843 
1618.000000	97.485736 
1617.000000	97.493982 
1616.000000	97.503750 
1615.000000	97.511861 
1614.000000	97.514075 
1613.000000	97.515469 
1612.000000	97.524263 
1611.000000	97.540204 
1610.000000	97.553372 
1609.000000	97.559543 
1608.000000	97.565664 
1607.000000	97.575789 
1606.000000	97.585493 
1605.000000	97.593445 
1604.000000	97.604046 
1603.000000	97.617226 
1602.000000	97.627726 
1601.000000	97.634523 
1600.000000	97.641728 
1599.000000	97.649808 
1598.000000	97.654809 
1597.000000	97.656298 
1596.000000	97.658842 
1595.000000	97.664949 
1594.000000	97.671778 
1593.000000	97.677393 
1592.000000	97.684071 
1591.000000	97.693071 
1590.000000	97.701654 
1589.000000	97.708072 
1588.000000	97.714293 
1587.000000	97.721487 
1586.000000	97.727657 
1585.000000	97.732298 
1584.000000	97.738651 
1583.000000	97.747355 
1582.000000	97.754391 
1581.000000	97.758388 
1580.000000	97.762419 
1579.000000	97.766775 
1578.000000	97.767914 
1577.000000	97.766511 
1576.000000	97.769767 
1575.000000	97.776970 
1574.000000	97.779307 
1573.000000	97.776738 
1572.000000	97.775222 
1571.000000	97.778368 
1570.000000	97.784466 
1569.000000	97.792025 
1568.000000	97.801071 
1567.000000	97.807452 
1566.000000	97.808294 
1565.000000	97.806512 
1564.000000	97.806798 
1563.000000	97.808212 
1562.000000	97.807067 
1561.000000	97.806680 
1560.000000	97.815771 
1559.000000	97.829103 
1558.000000	97.828844 
1557.000000	97.816976 
1556.000000	97.807979 
1555.000000	97.805551 
1554.000000	97.804117 
1553.000000	97.800068 
1552.000000	97.794860 
1551.000000	97.791993 
1550.000000	97.793569 
1549.000000	97.797875 
1548.000000	97.801595 
1547.000000	97.802640 
1546.000000	97.799915 
1545.000000	97.793510 
1544.000000	97.787196 
1543.000000	97.785814 
1542.000000	97.789397 
1541.000000	97.790395 
1540.000000	97.785351 
1539.000000	97.777985 
1538.000000	97.765651 
1537.000000	97.748131 
1536.000000	97.729530 
1535.000000	97.714033 
1534.000000	97.702684 
1533.000000	97.693700 
1532.000000	97.684872 
1531.000000	97.677305 
1530.000000	97.671901 
1529.000000	97.665707 
1528.000000	97.656539 
1527.000000	97.646638 
1526.000000	97.638519 
1525.000000	97.630362 
1524.000000	97.620318 
1523.000000	97.610505 
1522.000000	97.603086 
1521.000000	97.595095 
1520.000000	97.582172 
1519.000000	97.565443 
1518.000000	97.549146 
1517.000000	97.535761 
1516.000000	97.525254 
1515.000000	97.516426 
1514.000000	97.508673 
1513.000000	97.500700 
1512.000000	97.489051 
1511.000000	97.473783 
1510.000000	97.459285 
1509.000000	97.447781 
1508.000000	97.436959 
1507.000000	97.427676 
1506.000000	97.420747 
1505.000000	97.407799 
1504.000000	97.389377 
1503.000000	97.371271 
1502.000000	97.356177 
1501.000000	97.343413 
1500.000000	97.330224 
1499.000000	97.315286 
1498.000000	97.301328 
1497.000000	97.290307 
1496.000000	97.280088 
1495.000000	97.269646 
1494.000000	97.260257 
1493.000000	97.251700 
1492.000000	97.241672 
1491.000000	97.228413 
1490.000000	97.213115 
1489.000000	97.197224 
1488.000000	97.180642 
1487.000000	97.165788 
1486.000000	97.153645 
1485.000000	97.141420 
1484.000000	97.128154 
1483.000000	97.115421 
1482.000000	97.104918 
1481.000000	97.095622 
1480.000000	97.085684 
1479.000000	97.076322 
1478.000000	97.069502 
1477.000000	97.063371 
1476.000000	97.054473 
1475.000000	97.044342 
1474.000000	97.034501 
1473.000000	97.022385 
1472.000000	97.005942 
1471.000000	96.989248 
1470.000000	96.975904 
1469.000000	96.964245 
1468.000000	96.951389 
1467.000000	96.938871 
1466.000000	96.930030 
1465.000000	96.923841 
1464.000000	96.916303 
1463.000000	96.905797 
1462.000000	96.895153 
1461.000000	96.885801 
1460.000000	96.876588 
1459.000000	96.866367 
1458.000000	96.858614 
1457.000000	96.856527 
1456.000000	96.849903 
1455.000000	96.831240 
1454.000000	96.809498 
1453.000000	96.793257 
1452.000000	96.782810 
1451.000000	96.774982 
1450.000000	96.770021 
1449.000000	96.769008 
1448.000000	96.768163 
1447.000000	96.763964 
1446.000000	96.757840 
1445.000000	96.753811 
1444.000000	96.752523 
1443.000000	96.750705 
1442.000000	96.747648 
1441.000000	96.746080 
1440.000000	96.746189 
1439.000000	96.744841 
1438.000000	96.743710 
1437.000000	96.747123 
1436.000000	96.751758 
1435.000000	96.750520 
1434.000000	96.746241 
1433.000000	96.745030 
1432.000000	96.748220 
1431.000000	96.751946 
1430.000000	96.754928 
1429.000000	96.759388 
1428.000000	96.763767 
1427.000000	96.765004 
1426.000000	96.764430 
1425.000000	96.768897 
1424.000000	96.780001 
1423.000000	96.788804 
1422.000000	96.790493 
1421.000000	96.790689 
1420.000000	96.794530 
1419.000000	96.798320 
1418.000000	96.800072 
1417.000000	96.801594 
1416.000000	96.801509 
1415.000000	96.797977 
1414.000000	96.792059 
1413.000000	96.787701 
1412.000000	96.786862 
1411.000000	96.787977 
1410.000000	96.791147 
1409.000000	96.797709 
1408.000000	96.806065 
1407.000000	96.814619 
1406.000000	96.825435 
1405.000000	96.843612 
1404.000000	96.869139 
1403.000000	96.895013 
1402.000000	96.917557 
1401.000000	96.939267 
1400.000000	96.962378 
1399.000000	96.983249 
1398.000000	96.996081 
1397.000000	96.998505 
1396.000000	96.992807 
1395.000000	96.986975 
1394.000000	96.992802 
1393.000000	97.017060 
1392.000000	97.053786 
1391.000000	97.090556 
1390.000000	97.119148 
1389.000000	97.138748 
1388.000000	97.152241 
1387.000000	97.162463 
1386.000000	97.171590 
1385.000000	97.181933 
1384.000000	97.194681 
1383.000000	97.208564 
1382.000000	97.222048 
1381.000000	97.235352 
1380.000000	97.249980 
1379.000000	97.266199 
1378.000000	97.282490 
1377.000000	97.298059 
1376.000000	97.314067 
1375.000000	97.331844 
1374.000000	97.351138 
1373.000000	97.370618 
1372.000000	97.388530 
1371.000000	97.403915 
1370.000000	97.417156 
1369.000000	97.431280 
1368.000000	97.448826 
1367.000000	97.467751 
1366.000000	97.484112 
1365.000000	97.497002 
1364.000000	97.508972 
1363.000000	97.522864 
1362.000000	97.538680 
1361.000000	97.554221 
1360.000000	97.568165 
1359.000000	97.580761 
1358.000000	97.592679 
1357.000000	97.605161 
1356.000000	97.619150 
1355.000000	97.633713 
1354.000000	97.646908 
1353.000000	97.658030 
1352.000000	97.668100 
1351.000000	97.678582 
1350.000000	97.688141 
1349.000000	97.695603 
1348.000000	97.701005 
1347.000000	97.704769 
1346.000000	97.708423 
1345.000000	97.714859 
1344.000000	97.725070 
1343.000000	97.735689 
1342.000000	97.742254 
1341.000000	97.744603 
1340.000000	97.746745 
1339.000000	97.751279 
1338.000000	97.757264 
1337.000000	97.763584 
1336.000000	97.770001 
1335.000000	97.775614 
1334.000000	97.779802 
1333.000000	97.784175 
1332.000000	97.790539 
1331.000000	97.797161 
1330.000000	97.800108 
1329.000000	97.798736 
1328.000000	97.796222 
1327.000000	97.794706 
1326.000000	97.793101 
1325.000000	97.791340 
1324.000000	97.791130 
1323.000000	97.792415 
1322.000000	97.793076 
1321.000000	97.792454 
1320.000000	97.792392 
1319.000000	97.794702 
1318.000000	97.799627 
1317.000000	97.806214 
1316.000000	97.812558 
1315.000000	97.816310 
1314.000000	97.816922 
1313.000000	97.816559 
1312.000000	97.817202 
1311.000000	97.818082 
1310.000000	97.817680 
1309.000000	97.816603 
1308.000000	97.816313 
1307.000000	97.816702 
1306.000000	97.816540 
1305.000000	97.816462 
1304.000000	97.817792 
1303.000000	97.819729 
1302.000000	97.820198 
1301.000000	97.818817 
1300.000000	97.816843 
1299.000000	97.815135 
1298.000000	97.814140 
1297.000000	97.814697 
1296.000000	97.816998 
1295.000000	97.819213 
1294.000000	97.819392 
1293.000000	97.818090 
1292.000000	97.817386 
1291.000000	97.818016 
1290.000000	97.818984 
1289.000000	97.819353 
1288.000000	97.818936 
1287.000000	97.817608 
1286.000000	97.815343 
1285.000000	97.812641 
1284.000000	97.810116 
1283.000000	97.808245 
1282.000000	97.807630 
1281.000000	97.808419 
1280.000000	97.809498 
1279.000000	97.809282 
1278.000000	97.808118 
1277.000000	97.808213 
1276.000000	97.810539 
1275.000000	97.813321 
1274.000000	97.814742 
1273.000000	97.815489 
1272.000000	97.817169 
1271.000000	97.819639 
1270.000000	97.821456 
1269.000000	97.821884 
1268.000000	97.821076 
1267.000000	97.819385 
1266.000000	97.817870 
1265.000000	97.817659 
1264.000000	97.817897 
1263.000000	97.816439 
1262.000000	97.813567 
1261.000000	97.812581 
1260.000000	97.815294 
1259.000000	97.818899 
1258.000000	97.819743 
1257.000000	97.817895 
1256.000000	97.815821 
1255.000000	97.814460 
1254.000000	97.812866 
1253.000000	97.810402 
1252.000000	97.807488 
1251.000000	97.805059 
1250.000000	97.804641 
1249.000000	97.807712 
1248.000000	97.813692 
1247.000000	97.819660 
1246.000000	97.823030 
1245.000000	97.822652 
1244.000000	97.817340 
1243.000000	97.806990 
1242.000000	97.796183 
1241.000000	97.792310 
1240.000000	97.797128 
1239.000000	97.803216 
1238.000000	97.801832 
1237.000000	97.791748 
1236.000000	97.777510 
1235.000000	97.761816 
1234.000000	97.743645 
1233.000000	97.722650 
1232.000000	97.701311 
1231.000000	97.682472 
1230.000000	97.666959 
1229.000000	97.653020 
1228.000000	97.636269 
1227.000000	97.611454 
1226.000000	97.576813 
1225.000000	97.536207 
1224.000000	97.494930 
1223.000000	97.453919 
1222.000000	97.409884 
1221.000000	97.360158 
1220.000000	97.304974 
1219.000000	97.245364 
1218.000000	97.181360 
1217.000000	97.112528 
1216.000000	97.038490 
1215.000000	96.958580 
1214.000000	96.872366 
1213.000000	96.780749 
1212.000000	96.685340 
1211.000000	96.586743 
1210.000000	96.484383 
1209.000000	96.378041 
1208.000000	96.268681 
1207.000000	96.157909 
1206.000000	96.047636 
1205.000000	95.939891 
1204.000000	95.835055 
1203.000000	95.729877 
1202.000000	95.619466 
1201.000000	95.502453 
1200.000000	95.382684 
1199.000000	95.264662 
1198.000000	95.149149 
1197.000000	95.034665 
1196.000000	94.920808 
1195.000000	94.807228 
1194.000000	94.691066 
1193.000000	94.569331 
1192.000000	94.443267 
1191.000000	94.316939 
1190.000000	94.191589 
1189.000000	94.064678 
1188.000000	93.934422 
1187.000000	93.801519 
1186.000000	93.665875 
1185.000000	93.525473 
1184.000000	93.380025 
1183.000000	93.232481 
1182.000000	93.085072 
1181.000000	92.936452 
1180.000000	92.784261 
1179.000000	92.627923 
1178.000000	92.467443 
1177.000000	92.301802 
1176.000000	92.129831 
1175.000000	91.950786 
1174.000000	91.763666 
1173.000000	91.568691 
1172.000000	91.369668 
1171.000000	91.171787 
1170.000000	90.976696 
1169.000000	90.783203 
1168.000000	90.593255 
1167.000000	90.413874 
1166.000000	90.253867 
1165.000000	90.123566 
1164.000000	90.037139 
1163.000000	90.007562 
1162.000000	90.035518 
1161.000000	90.105738 
1160.000000	90.193911 
1159.000000	90.273771 
1158.000000	90.321110 
1157.000000	90.320057 
1156.000000	90.268649 
1155.000000	90.175822 
1154.000000	90.053011 
1153.000000	89.910650 
1152.000000	89.759610 
1151.000000	89.608724 
1150.000000	89.459798 
1149.000000	89.310480 
1148.000000	89.162164 
1147.000000	89.019091 
1146.000000	88.879800 
1145.000000	88.736961 
1144.000000	88.587178 
1143.000000	88.434376 
1142.000000	88.282295 
1141.000000	88.130381 
1140.000000	87.978543 
1139.000000	87.828864 
1138.000000	87.680433 
1137.000000	87.528945 
1136.000000	87.373576 
1135.000000	87.218522 
1134.000000	87.066392 
1133.000000	86.915791 
1132.000000	86.765794 
1131.000000	86.616246 
1130.000000	86.463687 
1129.000000	86.304480 
1128.000000	86.141834 
1127.000000	85.981626 
1126.000000	85.821475 
1125.000000	85.653242 
1124.000000	85.476666 
1123.000000	85.300347 
1122.000000	85.128113 
1121.000000	84.955222 
1120.000000	84.780335 
1119.000000	84.609928 
1118.000000	84.447249 
1117.000000	84.287841 
1116.000000	84.129579 
1115.000000	83.976425 
1114.000000	83.828459 
1113.000000	83.678961 
1112.000000	83.525369 
1111.000000	83.372576 
1110.000000	83.222713 
1109.000000	83.072636 
1108.000000	82.922395 
1107.000000	82.775265 
1106.000000	82.628073 
1105.000000	82.473917 
1104.000000	82.315947 
1103.000000	82.165112 
1102.000000	82.022609 
1101.000000	81.878808 
1100.000000	81.730640 
1099.000000	81.587362 
1098.000000	81.453121 
1097.000000	81.320640 
1096.000000	81.185497 
1095.000000	81.052591 
1094.000000	80.924197 
1093.000000	80.795531 
1092.000000	80.666376 
1091.000000	80.543628 
1090.000000	80.428601 
1089.000000	80.315384 
1088.000000	80.204826 
1087.000000	80.105643 
1086.000000	80.018147 
1085.000000	79.931190 
1084.000000	79.838536 
1083.000000	79.744345 
1082.000000	79.650579 
1081.000000	79.554113 
1080.000000	79.458298 
1079.000000	79.371221 
1078.000000	79.289823 
1077.000000	79.201723 
1076.000000	79.104325 
1075.000000	79.004777 
1074.000000	78.899711 
1073.000000	78.773857 
1072.000000	78.620408 
1071.000000	78.442658 
1070.000000	78.233269 
1069.000000	77.974890 
1068.000000	77.669184 
1067.000000	77.346404 
1066.000000	77.035992 
1065.000000	76.741676 
1064.000000	76.453168 
1063.000000	76.163376 
1062.000000	75.864742 
1061.000000	75.547860 
1060.000000	75.216169 
1059.000000	74.888796 
1058.000000	74.579594 
1057.000000	74.284710 
1056.000000	73.995226 
1055.000000	73.706379 
1054.000000	73.410074 
1053.000000	73.096705 
1052.000000	72.771522 
1051.000000	72.451395 
1050.000000	72.138305 
1049.000000	71.816013 
1048.000000	71.478623 
1047.000000	71.139503 
1046.000000	70.807419 
1045.000000	70.477045 
1044.000000	70.146594 
1043.000000	69.822302 
1042.000000	69.501356 
1041.000000	69.172134 
1040.000000	68.836905 
1039.000000	68.514239 
1038.000000	68.214304 
1037.000000	67.931718 
1036.000000	67.665256 
1035.000000	67.422121 
1034.000000	67.199461 
1033.000000	66.984508 
1032.000000	66.776241 
1031.000000	66.584610 
1030.000000	66.407531 
1029.000000	66.234178 
1028.000000	66.072725 
1027.000000	65.946328 
1026.000000	65.856224 
1025.000000	65.775649 
1024.000000	65.685703 
1023.000000	65.590741 
1022.000000	65.494115 
1021.000000	65.387650 
1020.000000	65.272358 
1019.000000	65.162699 
1018.000000	65.061827 
1017.000000	64.956721 
1016.000000	64.844338 
1015.000000	64.738042 
1014.000000	64.642311 
1013.000000	64.546336 
1012.000000	64.448800 
1011.000000	64.363578 
1010.000000	64.294239 
1009.000000	64.227828 
1008.000000	64.160803 
1007.000000	64.106948 
1006.000000	64.073203 
1005.000000	64.051425 
1004.000000	64.039625 
1003.000000	64.047118 
1002.000000	64.072752 
1001.000000	64.102052 
1000.000000	64.131922 
999.000000	 64.175149 
998.000000	 64.235383 
997.000000	 64.300820 
996.000000	 64.367056 
995.000000	 64.442752 
994.000000	 64.528437 
993.000000	 64.613575 
992.000000	 64.699175 
991.000000	 64.799844 
990.000000	 64.918894 
989.000000	 65.044031 
988.000000	 65.171191 
987.000000	 65.309842 
986.000000	 65.461930 
985.000000	 65.619431 
984.000000	 65.785657 
983.000000	 65.974678 
982.000000	 66.186401 
981.000000	 66.405987 
980.000000	 66.631026 
979.000000	 66.875498 
978.000000	 67.143743 
977.000000	 67.424708 
976.000000	 67.715057 
975.000000	 68.023772 
974.000000	 68.350155 
973.000000	 68.681080 
972.000000	 69.014208 
971.000000	 69.361160 
970.000000	 69.723921 
969.000000	 70.090310 
968.000000	 70.455983 
967.000000	 70.828641 
966.000000	 71.207132 
965.000000	 71.578522 
964.000000	 71.939869 
963.000000	 72.301963 
962.000000	 72.667759 
961.000000	 73.027039 
960.000000	 73.375410 
959.000000	 73.718780 
958.000000	 74.056507 
957.000000	 74.380088 
956.000000	 74.691325 
955.000000	 75.001983 
954.000000	 75.312149 
953.000000	 75.607995 
952.000000	 75.884251 
951.000000	 76.150069 
950.000000	 76.409700 
949.000000	 76.655968 
948.000000	 76.886599 
947.000000	 77.109038 
946.000000	 77.324866 
945.000000	 77.525870 
944.000000	 77.709493 
943.000000	 77.882951 
942.000000	 78.049599 
941.000000	 78.206105 
940.000000	 78.354617 
939.000000	 78.502319 
938.000000	 78.647977 
937.000000	 78.784980 
936.000000	 78.918204 
935.000000	 79.061196 
934.000000	 79.215805 
933.000000	 79.371317 
932.000000	 79.523737 
931.000000	 79.678133 
930.000000	 79.832061 
929.000000	 79.975829 
928.000000	 80.110484 
927.000000	 80.246788 
926.000000	 80.384744 
925.000000	 80.512849 
924.000000	 80.629190 
923.000000	 80.743798 
922.000000	 80.857599 
921.000000	 80.958756 
920.000000	 81.043953 
919.000000	 81.124642 
918.000000	 81.207996 
917.000000	 81.290060 
916.000000	 81.372251 
915.000000	 81.466041 
914.000000	 81.575733 
913.000000	 81.694642 
912.000000	 81.824584 
911.000000	 81.981672 
910.000000	 82.175651 
909.000000	 82.399040 
908.000000	 82.642441 
907.000000	 82.905293 
906.000000	 83.185889 
905.000000	 83.476126 
904.000000	 83.772889 
903.000000	 84.082352 
902.000000	 84.407947 
901.000000	 84.744097 
900.000000	 85.083245 
899.000000	 85.418781 
898.000000	 85.741764 
897.000000	 86.047644 
896.000000	 86.344860 
895.000000	 86.644527 
894.000000	 86.943233 
893.000000	 87.228797 
892.000000	 87.499870 
891.000000	 87.764568 
890.000000	 88.021371 
889.000000	 88.257349 
888.000000	 88.465677 
887.000000	 88.650427 
886.000000	 88.814505 
885.000000	 88.957885 
884.000000	 89.088237 
883.000000	 89.217406 
882.000000	 89.345282 
881.000000	 89.462887 
880.000000	 89.574133 
879.000000	 89.698346 
878.000000	 89.847361 
877.000000	 90.015915 
876.000000	 90.198779 
875.000000	 90.401115 
874.000000	 90.627314 
873.000000	 90.874790 
872.000000	 91.142746 
871.000000	 91.432309 
870.000000	 91.734509 
869.000000	 92.032312 
868.000000	 92.318038 
867.000000	 92.596516 
866.000000	 92.869375 
865.000000	 93.129114 
864.000000	 93.371631 
863.000000	 93.602780 
862.000000	 93.828633 
861.000000	 94.049020 
860.000000	 94.263966 
859.000000	 94.476831 
858.000000	 94.686875 
857.000000	 94.886420 
856.000000	 95.069052 
855.000000	 95.235082 
854.000000	 95.387624 
853.000000	 95.528887 
852.000000	 95.660817 
851.000000	 95.783942 
850.000000	 95.896289 
849.000000	 95.998941 
848.000000	 96.099972 
847.000000	 96.205379 
846.000000	 96.308715 
845.000000	 96.398185 
844.000000	 96.471194 
843.000000	 96.532286 
842.000000	 96.579840 
841.000000	 96.606967 
840.000000	 96.615260 
839.000000	 96.615768 
838.000000	 96.614489 
837.000000	 96.606875 
836.000000	 96.588649 
835.000000	 96.562691 
834.000000	 96.533824 
833.000000	 96.506580 
832.000000	 96.490257 
831.000000	 96.495923 
830.000000	 96.524476 
829.000000	 96.566183 
828.000000	 96.614444 
827.000000	 96.670656 
826.000000	 96.734280 
825.000000	 96.800338 
824.000000	 96.869154 
823.000000	 96.944398 
822.000000	 97.017808 
821.000000	 97.070694 
820.000000	 97.094963 
819.000000	 97.100215 
818.000000	 97.097044 
817.000000	 97.083400 
816.000000	 97.049183 
815.000000	 96.983242 
814.000000	 96.871387 
813.000000	 96.696475 
812.000000	 96.446391 
811.000000	 96.116555 
810.000000	 95.701397 
809.000000	 95.190777 
808.000000	 94.579856 
807.000000	 93.876415 
806.000000	 93.094851 
805.000000	 92.252814 
804.000000	 91.381271 
803.000000	 90.527522 
802.000000	 89.737274 
801.000000	 89.040413 
800.000000	 88.459437 
799.000000	 88.016447 
798.000000	 87.720992 
797.000000	 87.563197 
796.000000	 87.526247 
795.000000	 87.592269 
794.000000	 87.731514 
793.000000	 87.902917 
792.000000	 88.073593 
791.000000	 88.226832 
790.000000	 88.349246 
789.000000	 88.424514 
788.000000	 88.442755 
787.000000	 88.401931 
786.000000	 88.296436 
785.000000	 88.118126 
784.000000	 87.873251 
783.000000	 87.585929 
782.000000	 87.281464 
781.000000	 86.980105 
780.000000	 86.711000 
779.000000	 86.514606 
778.000000	 86.421123 
777.000000	 86.437138 
776.000000	 86.555814 
775.000000	 86.763635 
774.000000	 87.033262 
773.000000	 87.328255 
772.000000	 87.623429 
771.000000	 87.910273 
770.000000	 88.181660 
769.000000	 88.425409 
768.000000	 88.634847 
767.000000	 88.812389 
766.000000	 88.960991 
765.000000	 89.084598 
764.000000	 89.197185 
763.000000	 89.316728 
762.000000	 89.447621 
761.000000	 89.581745 
760.000000	 89.717591 
759.000000	 89.864050 
758.000000	 90.024544 
757.000000	 90.192649 
756.000000	 90.364991 
755.000000	 90.543247 
754.000000	 90.721698 
753.000000	 90.888197 
752.000000	 91.040058 
751.000000	 91.185180 
750.000000	 91.325575 
749.000000	 91.453879 
748.000000	 91.568874 
747.000000	 91.681005 
746.000000	 91.799353 
745.000000	 91.925349 
744.000000	 92.061869 
743.000000	 92.216112 
742.000000	 92.390908 
741.000000	 92.584117 
740.000000	 92.796240 
739.000000	 93.025741 
738.000000	 93.257293 
737.000000	 93.469212 
736.000000	 93.654125 
735.000000	 93.819281 
734.000000	 93.966400 
733.000000	 94.085476 
732.000000	 94.170017 
731.000000	 94.226251 
730.000000	 94.265759 
729.000000	 94.299875 
728.000000	 94.341059 
727.000000	 94.397279 
726.000000	 94.463945 
725.000000	 94.531976 
724.000000	 94.603463 
723.000000	 94.688606 
722.000000	 94.789459 
721.000000	 94.899329 
720.000000	 95.015874 
719.000000	 95.139634 
718.000000	 95.260275 
717.000000	 95.361127 
716.000000	 95.439444 
715.000000	 95.509178 
714.000000	 95.583110 
713.000000	 95.664669 
712.000000	 95.756503 
711.000000	 95.861333 
710.000000	 95.971849 
709.000000	 96.073349 
708.000000	 96.157780 
707.000000	 96.222080 
706.000000	 96.254669 
705.000000	 96.239835 
704.000000	 96.175545 
703.000000	 96.069135 
702.000000	 95.912425 
701.000000	 95.678997 
700.000000	 95.352325 
699.000000	 94.942590 
698.000000	 94.477707 
697.000000	 94.001175 
696.000000	 93.583037 
695.000000	 93.304141 
694.000000	 93.208948 
693.000000	 93.282747 
692.000000	 93.477561 
691.000000	 93.744751 
690.000000	 94.042069 
689.000000	 94.333539 
688.000000	 94.600456 
687.000000	 94.843261 
686.000000	 95.061671 
685.000000	 95.246245 
684.000000	 95.397648 
683.000000	 95.535118 
682.000000	 95.674044 
681.000000	 95.809272 
680.000000	 95.932473 
679.000000	 96.052133 
678.000000	 96.180813 
677.000000	 96.311556 
676.000000	 96.426107 
675.000000	 96.516237 
674.000000	 96.592248 
673.000000	 96.671252 
672.000000	 96.760805 
671.000000	 96.856707 
670.000000	 96.958360 
669.000000	 97.081456 
668.000000	 97.235981 
667.000000	 97.383596 
666.000000	 97.481216 
665.000000	 97.538971 
664.000000	 97.590261 
663.000000	 97.657874 
662.000000	 97.737135 
661.000000	 97.806843 
660.000000	 97.860455 
659.000000	 97.906937 
658.000000	 97.946611 
657.000000	 97.967393 
656.000000	 97.964881 
655.000000	 97.941091 
654.000000	 97.891841 
653.000000	 97.814814 
652.000000	 97.730083 
651.000000	 97.678107 
650.000000	 97.687764 

