4000.000000	98.051232 
3999.000000	98.051245 
3998.000000	98.051484 
3997.000000	98.051710 
3996.000000	98.051717 
3995.000000	98.051461 
3994.000000	98.051155 
3993.000000	98.051198 
3992.000000	98.051777 
3991.000000	98.052591 
3990.000000	98.053203 
3989.000000	98.053476 
3988.000000	98.053527 
3987.000000	98.053314 
3986.000000	98.052639 
3985.000000	98.051577 
3984.000000	98.050563 
3983.000000	98.049975 
3982.000000	98.049885 
3981.000000	98.050095 
3980.000000	98.050325 
3979.000000	98.050394 
3978.000000	98.050245 
3977.000000	98.049874 
3976.000000	98.049241 
3975.000000	98.048315 
3974.000000	98.047237 
3973.000000	98.046386 
3972.000000	98.046100 
3971.000000	98.046302 
3970.000000	98.046655 
3969.000000	98.047049 
3968.000000	98.047578 
3967.000000	98.048163 
3966.000000	98.048500 
3965.000000	98.048345 
3964.000000	98.047797 
3963.000000	98.047252 
3962.000000	98.047061 
3961.000000	98.047311 
3960.000000	98.047831 
3959.000000	98.048191 
3958.000000	98.047994 
3957.000000	98.047325 
3956.000000	98.046667 
3955.000000	98.046394 
3954.000000	98.046513 
3953.000000	98.046764 
3952.000000	98.046898 
3951.000000	98.046843 
3950.000000	98.046923 
3949.000000	98.047581 
3948.000000	98.048567 
3947.000000	98.048960 
3946.000000	98.048084 
3945.000000	98.046044 
3944.000000	98.043532 
3943.000000	98.041462 
3942.000000	98.040452 
3941.000000	98.040474 
3940.000000	98.040960 
3939.000000	98.041242 
3938.000000	98.041098 
3937.000000	98.041010 
3936.000000	98.041641 
3935.000000	98.043034 
3934.000000	98.044603 
3933.000000	98.045805 
3932.000000	98.046523 
3931.000000	98.046602 
3930.000000	98.045665 
3929.000000	98.043514 
3928.000000	98.040607 
3927.000000	98.038131 
3926.000000	98.037010 
3925.000000	98.037294 
3924.000000	98.038768 
3923.000000	98.041034 
3922.000000	98.043258 
3921.000000	98.044661 
3920.000000	98.045367 
3919.000000	98.046229 
3918.000000	98.047310 
3917.000000	98.047616 
3916.000000	98.046615 
3915.000000	98.045048 
3914.000000	98.043823 
3913.000000	98.043060 
3912.000000	98.042627 
3911.000000	98.042584 
3910.000000	98.042794 
3909.000000	98.042943 
3908.000000	98.043019 
3907.000000	98.043314 
3906.000000	98.044193 
3905.000000	98.045506 
3904.000000	98.046861 
3903.000000	98.047835 
3902.000000	98.048094 
3901.000000	98.047610 
3900.000000	98.046609 
3899.000000	98.045638 
3898.000000	98.045179 
3897.000000	98.045120 
3896.000000	98.045029 
3895.000000	98.044682 
3894.000000	98.044154 
3893.000000	98.043696 
3892.000000	98.043405 
3891.000000	98.043107 
3890.000000	98.042730 
3889.000000	98.042454 
3888.000000	98.042399 
3887.000000	98.042373 
3886.000000	98.042158 
3885.000000	98.041812 
3884.000000	98.041540 
3883.000000	98.041315 
3882.000000	98.040963 
3881.000000	98.040534 
3880.000000	98.040243 
3879.000000	98.040110 
3878.000000	98.039947 
3877.000000	98.039596 
3876.000000	98.039002 
3875.000000	98.038195 
3874.000000	98.037356 
3873.000000	98.036837 
3872.000000	98.036835 
3871.000000	98.036997 
3870.000000	98.036683 
3869.000000	98.035853 
3868.000000	98.035128 
3867.000000	98.034766 
3866.000000	98.034156 
3865.000000	98.033014 
3864.000000	98.032414 
3863.000000	98.033087 
3862.000000	98.034155 
3861.000000	98.034596 
3860.000000	98.034492 
3859.000000	98.034072 
3858.000000	98.033136 
3857.000000	98.031398 
3856.000000	98.029418 
3855.000000	98.027350 
3854.000000	98.025552 
3853.000000	98.024975 
3852.000000	98.025671 
3851.000000	98.027169 
3850.000000	98.028795 
3849.000000	98.029932 
3848.000000	98.031036 
3847.000000	98.032784 
3846.000000	98.034523 
3845.000000	98.035435 
3844.000000	98.035686 
3843.000000	98.035408 
3842.000000	98.034706 
3841.000000	98.034253 
3840.000000	98.034352 
3839.000000	98.034762 
3838.000000	98.035153 
3837.000000	98.035063 
3836.000000	98.034510 
3835.000000	98.033790 
3834.000000	98.033377 
3833.000000	98.033513 
3832.000000	98.033958 
3831.000000	98.034443 
3830.000000	98.034784 
3829.000000	98.034804 
3828.000000	98.034567 
3827.000000	98.034161 
3826.000000	98.033648 
3825.000000	98.033469 
3824.000000	98.033941 
3823.000000	98.034505 
3822.000000	98.034461 
3821.000000	98.033866 
3820.000000	98.033346 
3819.000000	98.033216 
3818.000000	98.033153 
3817.000000	98.032584 
3816.000000	98.031427 
3815.000000	98.030268 
3814.000000	98.029625 
3813.000000	98.029304 
3812.000000	98.028862 
3811.000000	98.028346 
3810.000000	98.028112 
3809.000000	98.028268 
3808.000000	98.028500 
3807.000000	98.028343 
3806.000000	98.027773 
3805.000000	98.027218 
3804.000000	98.026841 
3803.000000	98.026287 
3802.000000	98.025236 
3801.000000	98.023954 
3800.000000	98.023104 
3799.000000	98.022816 
3798.000000	98.022615 
3797.000000	98.022179 
3796.000000	98.021760 
3795.000000	98.021641 
3794.000000	98.021529 
3793.000000	98.020792 
3792.000000	98.019304 
3791.000000	98.017905 
3790.000000	98.017309 
3789.000000	98.017256 
3788.000000	98.017096 
3787.000000	98.016851 
3786.000000	98.016962 
3785.000000	98.017493 
3784.000000	98.018090 
3783.000000	98.018718 
3782.000000	98.019373 
3781.000000	98.019689 
3780.000000	98.019517 
3779.000000	98.019275 
3778.000000	98.019359 
3777.000000	98.019899 
3776.000000	98.020765 
3775.000000	98.021471 
3774.000000	98.021916 
3773.000000	98.022744 
3772.000000	98.024460 
3771.000000	98.026384 
3770.000000	98.027715 
3769.000000	98.028696 
3768.000000	98.029634 
3767.000000	98.030294 
3766.000000	98.030342 
3765.000000	98.029821 
3764.000000	98.029667 
3763.000000	98.030682 
3762.000000	98.032013 
3761.000000	98.032190 
3760.000000	98.031923 
3759.000000	98.033687 
3758.000000	98.037316 
3757.000000	98.040191 
3756.000000	98.041751 
3755.000000	98.043128 
3754.000000	98.044607 
3753.000000	98.045332 
3752.000000	98.046358 
3751.000000	98.050336 
3750.000000	98.054554 
3749.000000	98.053952 
3748.000000	98.049667 
3747.000000	98.047415 
3746.000000	98.049142 
3745.000000	98.049978 
3744.000000	98.046320 
3743.000000	98.042221 
3742.000000	98.042046 
3741.000000	98.043696 
3740.000000	98.043874 
3739.000000	98.045008 
3738.000000	98.050182 
3737.000000	98.055674 
3736.000000	98.057480 
3735.000000	98.057396 
3734.000000	98.058255 
3733.000000	98.056792 
3732.000000	98.049464 
3731.000000	98.040039 
3730.000000	98.034504 
3729.000000	98.034139 
3728.000000	98.034898 
3727.000000	98.032547 
3726.000000	98.027789 
3725.000000	98.023818 
3724.000000	98.020575 
3723.000000	98.015663 
3722.000000	98.009523 
3721.000000	98.004334 
3720.000000	98.000185 
3719.000000	97.997157 
3718.000000	97.995062 
3717.000000	97.993308 
3716.000000	97.993290 
3715.000000	97.995991 
3714.000000	97.999858 
3713.000000	98.002083 
3712.000000	98.002615 
3711.000000	98.001802 
3710.000000	97.996853 
3709.000000	97.986909 
3708.000000	97.974456 
3707.000000	97.962188 
3706.000000	97.951597 
3705.000000	97.942481 
3704.000000	97.933233 
3703.000000	97.922582 
3702.000000	97.911342 
3701.000000	97.900584 
3700.000000	97.890068 
3699.000000	97.880297 
3698.000000	97.871916 
3697.000000	97.864343 
3696.000000	97.858762 
3695.000000	97.857432 
3694.000000	97.858479 
3693.000000	97.856575 
3692.000000	97.849786 
3691.000000	97.842090 
3690.000000	97.837997 
3689.000000	97.836246 
3688.000000	97.831933 
3687.000000	97.825000 
3686.000000	97.819889 
3685.000000	97.817873 
3684.000000	97.817044 
3683.000000	97.816714 
3682.000000	97.817244 
3681.000000	97.816420 
3680.000000	97.810957 
3679.000000	97.801812 
3678.000000	97.794482 
3677.000000	97.790462 
3676.000000	97.785975 
3675.000000	97.779974 
3674.000000	97.774371 
3673.000000	97.770254 
3672.000000	97.765880 
3671.000000	97.758690 
3670.000000	97.750786 
3669.000000	97.745307 
3668.000000	97.740929 
3667.000000	97.735420 
3666.000000	97.729537 
3665.000000	97.725007 
3664.000000	97.721755 
3663.000000	97.718159 
3662.000000	97.712569 
3661.000000	97.704950 
3660.000000	97.697486 
3659.000000	97.692518 
3658.000000	97.690485 
3657.000000	97.689327 
3656.000000	97.686819 
3655.000000	97.683988 
3654.000000	97.683516 
3653.000000	97.685427 
3652.000000	97.686230 
3651.000000	97.683422 
3650.000000	97.679969 
3649.000000	97.678117 
3648.000000	97.673812 
3647.000000	97.664888 
3646.000000	97.655185 
3645.000000	97.648163 
3644.000000	97.643283 
3643.000000	97.638802 
3642.000000	97.633462 
3641.000000	97.627517 
3640.000000	97.621783 
3639.000000	97.616427 
3638.000000	97.612048 
3637.000000	97.609896 
3636.000000	97.610562 
3635.000000	97.611935 
3634.000000	97.611743 
3633.000000	97.611840 
3632.000000	97.615429 
3631.000000	97.620954 
3630.000000	97.621999 
3629.000000	97.616948 
3628.000000	97.609486 
3627.000000	97.603036 
3626.000000	97.598050 
3625.000000	97.592488 
3624.000000	97.585316 
3623.000000	97.577345 
3622.000000	97.569222 
3621.000000	97.560106 
3620.000000	97.552340 
3619.000000	97.551657 
3618.000000	97.558571 
3617.000000	97.567825 
3616.000000	97.576810 
3615.000000	97.586095 
3614.000000	97.596878 
3613.000000	97.609731 
3612.000000	97.623196 
3611.000000	97.634199 
3610.000000	97.640353 
3609.000000	97.641660 
3608.000000	97.640607 
3607.000000	97.639270 
3606.000000	97.636628 
3605.000000	97.631251 
3604.000000	97.623888 
3603.000000	97.616850 
3602.000000	97.612567 
3601.000000	97.611551 
3600.000000	97.613943 
3599.000000	97.620201 
3598.000000	97.628249 
3597.000000	97.634007 
3596.000000	97.636000 
3595.000000	97.636056 
3594.000000	97.637531 
3593.000000	97.642537 
3592.000000	97.649560 
3591.000000	97.655509 
3590.000000	97.657749 
3589.000000	97.655984 
3588.000000	97.653044 
3587.000000	97.651627 
3586.000000	97.650324 
3585.000000	97.647287 
3584.000000	97.643261 
3583.000000	97.640315 
3582.000000	97.639292 
3581.000000	97.639281 
3580.000000	97.639023 
3579.000000	97.638363 
3578.000000	97.638115 
3577.000000	97.638980 
3576.000000	97.641208 
3575.000000	97.644366 
3574.000000	97.647252 
3573.000000	97.649050 
3572.000000	97.649892 
3571.000000	97.650753 
3570.000000	97.652553 
3569.000000	97.654655 
3568.000000	97.655628 
3567.000000	97.655369 
3566.000000	97.654417 
3565.000000	97.653235 
3564.000000	97.652432 
3563.000000	97.651812 
3562.000000	97.650244 
3561.000000	97.647132 
3560.000000	97.643120 
3559.000000	97.639747 
3558.000000	97.637893 
3557.000000	97.637024 
3556.000000	97.636214 
3555.000000	97.635600 
3554.000000	97.635991 
3553.000000	97.637536 
3552.000000	97.639181 
3551.000000	97.639760 
3550.000000	97.639436 
3549.000000	97.639426 
3548.000000	97.640630 
3547.000000	97.643024 
3546.000000	97.645432 
3545.000000	97.646387 
3544.000000	97.645511 
3543.000000	97.643814 
3542.000000	97.642675 
3541.000000	97.642587 
3540.000000	97.642915 
3539.000000	97.642850 
3538.000000	97.642347 
3537.000000	97.642116 
3536.000000	97.642742 
3535.000000	97.643918 
3534.000000	97.644928 
3533.000000	97.645467 
3532.000000	97.645765 
3531.000000	97.646116 
3530.000000	97.646594 
3529.000000	97.647297 
3528.000000	97.648384 
3527.000000	97.649777 
3526.000000	97.650972 
3525.000000	97.651441 
3524.000000	97.651180 
3523.000000	97.650741 
3522.000000	97.650694 
3521.000000	97.651203 
3520.000000	97.652104 
3519.000000	97.653178 
3518.000000	97.654250 
3517.000000	97.655170 
3516.000000	97.655889 
3515.000000	97.656527 
3514.000000	97.657356 
3513.000000	97.658586 
3512.000000	97.660144 
3511.000000	97.661736 
3510.000000	97.663122 
3509.000000	97.664226 
3508.000000	97.665020 
3507.000000	97.665513 
3506.000000	97.665844 
3505.000000	97.666338 
3504.000000	97.667289 
3503.000000	97.668650 
3502.000000	97.669988 
3501.000000	97.670891 
3500.000000	97.671333 
3499.000000	97.671561 
3498.000000	97.671856 
3497.000000	97.672402 
3496.000000	97.673269 
3495.000000	97.674321 
3494.000000	97.675193 
3493.000000	97.675576 
3492.000000	97.675483 
3491.000000	97.675233 
3490.000000	97.675201 
3489.000000	97.675534 
3488.000000	97.676117 
3487.000000	97.676693 
3486.000000	97.677019 
3485.000000	97.677016 
3484.000000	97.676817 
3483.000000	97.676695 
3482.000000	97.676868 
3481.000000	97.677334 
3480.000000	97.677865 
3479.000000	97.678214 
3478.000000	97.678323 
3477.000000	97.678330 
3476.000000	97.678373 
3475.000000	97.678426 
3474.000000	97.678350 
3473.000000	97.678078 
3472.000000	97.677688 
3471.000000	97.677274 
3470.000000	97.676880 
3469.000000	97.676564 
3468.000000	97.676342 
3467.000000	97.676065 
3466.000000	97.675478 
3465.000000	97.674503 
3464.000000	97.673411 
3463.000000	97.672618 
3462.000000	97.672280 
3461.000000	97.672157 
3460.000000	97.671872 
3459.000000	97.671342 
3458.000000	97.670775 
3457.000000	97.670373 
3456.000000	97.670118 
3455.000000	97.669851 
3454.000000	97.669512 
3453.000000	97.669138 
3452.000000	97.668705 
3451.000000	97.668049 
3450.000000	97.667035 
3449.000000	97.665798 
3448.000000	97.664703 
3447.000000	97.664012 
3446.000000	97.663610 
3445.000000	97.663179 
3444.000000	97.662620 
3443.000000	97.662143 
3442.000000	97.661971 
3441.000000	97.662099 
3440.000000	97.662283 
3439.000000	97.662176 
3438.000000	97.661569 
3437.000000	97.660579 
3436.000000	97.659554 
3435.000000	97.658752 
3434.000000	97.658160 
3433.000000	97.657607 
3432.000000	97.657088 
3431.000000	97.656771 
3430.000000	97.656686 
3429.000000	97.656593 
3428.000000	97.656190 
3427.000000	97.655384 
3426.000000	97.654220 
3425.000000	97.652744 
3424.000000	97.651074 
3423.000000	97.649577 
3422.000000	97.648740 
3421.000000	97.648761 
3420.000000	97.649323 
3419.000000	97.649775 
3418.000000	97.649753 
3417.000000	97.649459 
3416.000000	97.649315 
3415.000000	97.649465 
3414.000000	97.649679 
3413.000000	97.649679 
3412.000000	97.649449 
3411.000000	97.649164 
3410.000000	97.648971 
3409.000000	97.648891 
3408.000000	97.648830 
3407.000000	97.648603 
3406.000000	97.648039 
3405.000000	97.647243 
3404.000000	97.646636 
3403.000000	97.646538 
3402.000000	97.646822 
3401.000000	97.647063 
3400.000000	97.647051 
3399.000000	97.646974 
3398.000000	97.647069 
3397.000000	97.647289 
3396.000000	97.647371 
3395.000000	97.647206 
3394.000000	97.647001 
3393.000000	97.647040 
3392.000000	97.647327 
3391.000000	97.647532 
3390.000000	97.647353 
3389.000000	97.646839 
3388.000000	97.646363 
3387.000000	97.646265 
3386.000000	97.646566 
3385.000000	97.647053 
3384.000000	97.647549 
3383.000000	97.648062 
3382.000000	97.648684 
3381.000000	97.649413 
3380.000000	97.650099 
3379.000000	97.650541 
3378.000000	97.650648 
3377.000000	97.650530 
3376.000000	97.650366 
3375.000000	97.650238 
3374.000000	97.650152 
3373.000000	97.650227 
3372.000000	97.650662 
3371.000000	97.651467 
3370.000000	97.652393 
3369.000000	97.653201 
3368.000000	97.653860 
3367.000000	97.654372 
3366.000000	97.654598 
3365.000000	97.654456 
3364.000000	97.654234 
3363.000000	97.654470 
3362.000000	97.655438 
3361.000000	97.656912 
3360.000000	97.658374 
3359.000000	97.659419 
3358.000000	97.659926 
3357.000000	97.659981 
3356.000000	97.659789 
3355.000000	97.659624 
3354.000000	97.659714 
3353.000000	97.660178 
3352.000000	97.661014 
3351.000000	97.662117 
3350.000000	97.663341 
3349.000000	97.664572 
3348.000000	97.665764 
3347.000000	97.666888 
3346.000000	97.667900 
3345.000000	97.668765 
3344.000000	97.669468 
3343.000000	97.669952 
3342.000000	97.670091 
3341.000000	97.669818 
3340.000000	97.669237 
3339.000000	97.668584 
3338.000000	97.668114 
3337.000000	97.668072 
3336.000000	97.668654 
3335.000000	97.669874 
3334.000000	97.671469 
3333.000000	97.672992 
3332.000000	97.674037 
3331.000000	97.674390 
3330.000000	97.674068 
3329.000000	97.673372 
3328.000000	97.672824 
3327.000000	97.672877 
3326.000000	97.673572 
3325.000000	97.674494 
3324.000000	97.675129 
3323.000000	97.675325 
3322.000000	97.675414 
3321.000000	97.675914 
3320.000000	97.677101 
3319.000000	97.678795 
3318.000000	97.680486 
3317.000000	97.681693 
3316.000000	97.682271 
3315.000000	97.682493 
3314.000000	97.682880 
3313.000000	97.683802 
3312.000000	97.685126 
3311.000000	97.686280 
3310.000000	97.686803 
3309.000000	97.686811 
3308.000000	97.686838 
3307.000000	97.687242 
3306.000000	97.687847 
3305.000000	97.688244 
3304.000000	97.688241 
3303.000000	97.687989 
3302.000000	97.687779 
3301.000000	97.687846 
3300.000000	97.688280 
3299.000000	97.689028 
3298.000000	97.689945 
3297.000000	97.690868 
3296.000000	97.691698 
3295.000000	97.692450 
3294.000000	97.693218 
3293.000000	97.694074 
3292.000000	97.694897 
3291.000000	97.695407 
3290.000000	97.695474 
3289.000000	97.695368 
3288.000000	97.695576 
3287.000000	97.696293 
3286.000000	97.697255 
3285.000000	97.698069 
3284.000000	97.698589 
3283.000000	97.698929 
3282.000000	97.699241 
3281.000000	97.699639 
3280.000000	97.700187 
3279.000000	97.700877 
3278.000000	97.701663 
3277.000000	97.702542 
3276.000000	97.703496 
3275.000000	97.704325 
3274.000000	97.704746 
3273.000000	97.704752 
3272.000000	97.704696 
3271.000000	97.704899 
3270.000000	97.705369 
3269.000000	97.705992 
3268.000000	97.706768 
3267.000000	97.707648 
3266.000000	97.708366 
3265.000000	97.708672 
3264.000000	97.708669 
3263.000000	97.708658 
3262.000000	97.708723 
3261.000000	97.708756 
3260.000000	97.708802 
3259.000000	97.709166 
3258.000000	97.710139 
3257.000000	97.711729 
3256.000000	97.713642 
3255.000000	97.715425 
3254.000000	97.716706 
3253.000000	97.717449 
3252.000000	97.717986 
3251.000000	97.718656 
3250.000000	97.719477 
3249.000000	97.720271 
3248.000000	97.721004 
3247.000000	97.721825 
3246.000000	97.722770 
3245.000000	97.723633 
3244.000000	97.724216 
3243.000000	97.724558 
3242.000000	97.724889 
3241.000000	97.725411 
3240.000000	97.726156 
3239.000000	97.727043 
3238.000000	97.728039 
3237.000000	97.729239 
3236.000000	97.730741 
3235.000000	97.732437 
3234.000000	97.733924 
3233.000000	97.734774 
3232.000000	97.734906 
3231.000000	97.734687 
3230.000000	97.734676 
3229.000000	97.735159 
3228.000000	97.736007 
3227.000000	97.736904 
3226.000000	97.737700 
3225.000000	97.738556 
3224.000000	97.739709 
3223.000000	97.741142 
3222.000000	97.742530 
3221.000000	97.743540 
3220.000000	97.744085 
3219.000000	97.744290 
3218.000000	97.744346 
3217.000000	97.744471 
3216.000000	97.744875 
3215.000000	97.745635 
3214.000000	97.746622 
3213.000000	97.747641 
3212.000000	97.748656 
3211.000000	97.749754 
3210.000000	97.750881 
3209.000000	97.751754 
3208.000000	97.752083 
3207.000000	97.751872 
3206.000000	97.751474 
3205.000000	97.751388 
3204.000000	97.751923 
3203.000000	97.753028 
3202.000000	97.754398 
3201.000000	97.755784 
3200.000000	97.757087 
3199.000000	97.758153 
3198.000000	97.758680 
3197.000000	97.758491 
3196.000000	97.757837 
3195.000000	97.757274 
3194.000000	97.757285 
3193.000000	97.758112 
3192.000000	97.759833 
3191.000000	97.762314 
3190.000000	97.765119 
3189.000000	97.767706 
3188.000000	97.769768 
3187.000000	97.771200 
3186.000000	97.771877 
3185.000000	97.771832 
3184.000000	97.771626 
3183.000000	97.772165 
3182.000000	97.773819 
3181.000000	97.775945 
3180.000000	97.777503 
3179.000000	97.778082 
3178.000000	97.778107 
3177.000000	97.778235 
3176.000000	97.778775 
3175.000000	97.779618 
3174.000000	97.780395 
3173.000000	97.780695 
3172.000000	97.780422 
3171.000000	97.780039 
3170.000000	97.780286 
3169.000000	97.781505 
3168.000000	97.783353 
3167.000000	97.785146 
3166.000000	97.786405 
3165.000000	97.787142 
3164.000000	97.787756 
3163.000000	97.788704 
3162.000000	97.790080 
3161.000000	97.791491 
3160.000000	97.792555 
3159.000000	97.793526 
3158.000000	97.795146 
3157.000000	97.797706 
3156.000000	97.800498 
3155.000000	97.802446 
3154.000000	97.803211 
3153.000000	97.803375 
3152.000000	97.803577 
3151.000000	97.803734 
3150.000000	97.803276 
3149.000000	97.801972 
3148.000000	97.800358 
3147.000000	97.799398 
3146.000000	97.799813 
3145.000000	97.801724 
3144.000000	97.804748 
3143.000000	97.808310 
3142.000000	97.811931 
3141.000000	97.815283 
3140.000000	97.818083 
3139.000000	97.820007 
3138.000000	97.820835 
3137.000000	97.820679 
3136.000000	97.820100 
3135.000000	97.819913 
3134.000000	97.820664 
3133.000000	97.822201 
3132.000000	97.823725 
3131.000000	97.824450 
3130.000000	97.824323 
3129.000000	97.824084 
3128.000000	97.824594 
3127.000000	97.826132 
3126.000000	97.828347 
3125.000000	97.830679 
3124.000000	97.832741 
3123.000000	97.834387 
3122.000000	97.835573 
3121.000000	97.836283 
3120.000000	97.836558 
3119.000000	97.836551 
3118.000000	97.836578 
3117.000000	97.837048 
3116.000000	97.838187 
3115.000000	97.839838 
3114.000000	97.841583 
3113.000000	97.843137 
3112.000000	97.844548 
3111.000000	97.845993 
3110.000000	97.847494 
3109.000000	97.848841 
3108.000000	97.849789 
3107.000000	97.850268 
3106.000000	97.850481 
3105.000000	97.850770 
3104.000000	97.851325 
3103.000000	97.852072 
3102.000000	97.852832 
3101.000000	97.853562 
3100.000000	97.854388 
3099.000000	97.855395 
3098.000000	97.856462 
3097.000000	97.857364 
3096.000000	97.858018 
3095.000000	97.858577 
3094.000000	97.859298 
3093.000000	97.860322 
3092.000000	97.861562 
3091.000000	97.862712 
3090.000000	97.863422 
3089.000000	97.863570 
3088.000000	97.863469 
3087.000000	97.863694 
3086.000000	97.864596 
3085.000000	97.866008 
3084.000000	97.867385 
3083.000000	97.868302 
3082.000000	97.868805 
3081.000000	97.869430 
3080.000000	97.870806 
3079.000000	97.872989 
3078.000000	97.875058 
3077.000000	97.875642 
3076.000000	97.874145 
3075.000000	97.871490 
3074.000000	97.869555 
3073.000000	97.869563 
3072.000000	97.871037 
3071.000000	97.872335 
3070.000000	97.872282 
3069.000000	97.871200 
3068.000000	97.870125 
3067.000000	97.869340 
3066.000000	97.868447 
3065.000000	97.867857 
3064.000000	97.868995 
3063.000000	97.872204 
3062.000000	97.875379 
3061.000000	97.876177 
3060.000000	97.875196 
3059.000000	97.875432 
3058.000000	97.878215 
3057.000000	97.881026 
3056.000000	97.880423 
3055.000000	97.876209 
3054.000000	97.871653 
3053.000000	97.869756 
3052.000000	97.870323 
3051.000000	97.870901 
3050.000000	97.869674 
3049.000000	97.866997 
3048.000000	97.864572 
3047.000000	97.863777 
3046.000000	97.864779 
3045.000000	97.866700 
3044.000000	97.868412 
3043.000000	97.869380 
3042.000000	97.869669 
3041.000000	97.869112 
3040.000000	97.866709 
3039.000000	97.861670 
3038.000000	97.854967 
3037.000000	97.848883 
3036.000000	97.844528 
3035.000000	97.840550 
3034.000000	97.835198 
3033.000000	97.828789 
3032.000000	97.822825 
3031.000000	97.817173 
3030.000000	97.809797 
3029.000000	97.799732 
3028.000000	97.788912 
3027.000000	97.780127 
3026.000000	97.773730 
3025.000000	97.767408 
3024.000000	97.759001 
3023.000000	97.748766 
3022.000000	97.738794 
3021.000000	97.730811 
3020.000000	97.724712 
3019.000000	97.718936 
3018.000000	97.711930 
3017.000000	97.703173 
3016.000000	97.692916 
3015.000000	97.681452 
3014.000000	97.669108 
3013.000000	97.656573 
3012.000000	97.644342 
3011.000000	97.631785 
3010.000000	97.617729 
3009.000000	97.602149 
3008.000000	97.586434 
3007.000000	97.571745 
3006.000000	97.558035 
3005.000000	97.545086 
3004.000000	97.533282 
3003.000000	97.522418 
3002.000000	97.510784 
3001.000000	97.496874 
3000.000000	97.481759 
2999.000000	97.468440 
2998.000000	97.458913 
2997.000000	97.452920 
2996.000000	97.449098 
2995.000000	97.445652 
2994.000000	97.439427 
2993.000000	97.426264 
2992.000000	97.404379 
2991.000000	97.377492 
2990.000000	97.353381 
2989.000000	97.338526 
2988.000000	97.334194 
2987.000000	97.337021 
2986.000000	97.342249 
2985.000000	97.346522 
2984.000000	97.348809 
2983.000000	97.350116 
2982.000000	97.352345 
2981.000000	97.356399 
2980.000000	97.360830 
2979.000000	97.362850 
2978.000000	97.361106 
2977.000000	97.357003 
2976.000000	97.352817 
2975.000000	97.349140 
2974.000000	97.345231 
2973.000000	97.341719 
2972.000000	97.341570 
2971.000000	97.347567 
2970.000000	97.359321 
2969.000000	97.373309 
2968.000000	97.385710 
2967.000000	97.395098 
2966.000000	97.402776 
2965.000000	97.411112 
2964.000000	97.421478 
2963.000000	97.433254 
2962.000000	97.444487 
2961.000000	97.453561 
2960.000000	97.460403 
2959.000000	97.466371 
2958.000000	97.473234 
2957.000000	97.482093 
2956.000000	97.492679 
2955.000000	97.503446 
2954.000000	97.512634 
2953.000000	97.519551 
2952.000000	97.524784 
2951.000000	97.529425 
2950.000000	97.534451 
2949.000000	97.540642 
2948.000000	97.548137 
2947.000000	97.555728 
2946.000000	97.561402 
2945.000000	97.564177 
2944.000000	97.564933 
2943.000000	97.565155 
2942.000000	97.565441 
2941.000000	97.565799 
2940.000000	97.566814 
2939.000000	97.569432 
2938.000000	97.573600 
2937.000000	97.578074 
2936.000000	97.581918 
2935.000000	97.585656 
2934.000000	97.590517 
2933.000000	97.596736 
2932.000000	97.602799 
2931.000000	97.606347 
2930.000000	97.605908 
2929.000000	97.602107 
2928.000000	97.597546 
2927.000000	97.595311 
2926.000000	97.597064 
2925.000000	97.601935 
2924.000000	97.607075 
2923.000000	97.609721 
2922.000000	97.609301 
2921.000000	97.607535 
2920.000000	97.606164 
2919.000000	97.604843 
2918.000000	97.601860 
2917.000000	97.596664 
2916.000000	97.590609 
2915.000000	97.585037 
2914.000000	97.579648 
2913.000000	97.573532 
2912.000000	97.567045 
2911.000000	97.561726 
2910.000000	97.558659 
2909.000000	97.557731 
2908.000000	97.558359 
2907.000000	97.559707 
2906.000000	97.559923 
2905.000000	97.556209 
2904.000000	97.547042 
2903.000000	97.534877 
2902.000000	97.526054 
2901.000000	97.526267 
2900.000000	97.536860 
2899.000000	97.553304 
2898.000000	97.568521 
2897.000000	97.577870 
2896.000000	97.581352 
2895.000000	97.581879 
2894.000000	97.582405 
2893.000000	97.584360 
2892.000000	97.587654 
2891.000000	97.591214 
2890.000000	97.593706 
2889.000000	97.594408 
2888.000000	97.593686 
2887.000000	97.592676 
2886.000000	97.592707 
2885.000000	97.594974 
2884.000000	97.600210 
2883.000000	97.608164 
2882.000000	97.617605 
2881.000000	97.627323 
2880.000000	97.637106 
2879.000000	97.647550 
2878.000000	97.658962 
2877.000000	97.670636 
2876.000000	97.681226 
2875.000000	97.689811 
2874.000000	97.696709 
2873.000000	97.703095 
2872.000000	97.709526 
2871.000000	97.714910 
2870.000000	97.717552 
2869.000000	97.717481 
2868.000000	97.717261 
2867.000000	97.720110 
2866.000000	97.727440 
2865.000000	97.738445 
2864.000000	97.751493 
2863.000000	97.765337 
2862.000000	97.779216 
2861.000000	97.792589 
2860.000000	97.805252 
2859.000000	97.817564 
2858.000000	97.830113 
2857.000000	97.842865 
2856.000000	97.854643 
2855.000000	97.863949 
2854.000000	97.870736 
2853.000000	97.876850 
2852.000000	97.883869 
2851.000000	97.890873 
2850.000000	97.895349 
2849.000000	97.896089 
2848.000000	97.894310 
2847.000000	97.892227 
2846.000000	97.891596 
2845.000000	97.893657 
2844.000000	97.898999 
2843.000000	97.906742 
2842.000000	97.914712 
2841.000000	97.921130 
2840.000000	97.925584 
2839.000000	97.928294 
2838.000000	97.929515 
2837.000000	97.930068 
2836.000000	97.931189 
2835.000000	97.933079 
2834.000000	97.934703 
2833.000000	97.935731 
2832.000000	97.937384 
2831.000000	97.940266 
2830.000000	97.942635 
2829.000000	97.942470 
2828.000000	97.940492 
2827.000000	97.939491 
2826.000000	97.941030 
2825.000000	97.944319 
2824.000000	97.948113 
2823.000000	97.952077 
2822.000000	97.956118 
2821.000000	97.959723 
2820.000000	97.962436 
2819.000000	97.964122 
2818.000000	97.964617 
2817.000000	97.963944 
2816.000000	97.962956 
2815.000000	97.962859 
2814.000000	97.963982 
2813.000000	97.965740 
2812.000000	97.967797 
2811.000000	97.970327 
2810.000000	97.973067 
2809.000000	97.975061 
2808.000000	97.975738 
2807.000000	97.975552 
2806.000000	97.975227 
2805.000000	97.974883 
2804.000000	97.974298 
2803.000000	97.973674 
2802.000000	97.973674 
2801.000000	97.974743 
2800.000000	97.976617 
2799.000000	97.978563 
2798.000000	97.980027 
2797.000000	97.981015 
2796.000000	97.981851 
2795.000000	97.982711 
2794.000000	97.983544 
2793.000000	97.984334 
2792.000000	97.985174 
2791.000000	97.986015 
2790.000000	97.986601 
2789.000000	97.986811 
2788.000000	97.986913 
2787.000000	97.987304 
2786.000000	97.988092 
2785.000000	97.989078 
2784.000000	97.990054 
2783.000000	97.990937 
2782.000000	97.991647 
2781.000000	97.992099 
2780.000000	97.992382 
2779.000000	97.992792 
2778.000000	97.993545 
2777.000000	97.994565 
2776.000000	97.995564 
2775.000000	97.996326 
2774.000000	97.996870 
2773.000000	97.997399 
2772.000000	97.998096 
2771.000000	97.998945 
2770.000000	97.999745 
2769.000000	98.000323 
2768.000000	98.000701 
2767.000000	98.001034 
2766.000000	98.001398 
2765.000000	98.001720 
2764.000000	98.001936 
2763.000000	98.002149 
2762.000000	98.002584 
2761.000000	98.003350 
2760.000000	98.004332 
2759.000000	98.005275 
2758.000000	98.006019 
2757.000000	98.006632 
2756.000000	98.007284 
2755.000000	98.008041 
2754.000000	98.008804 
2753.000000	98.009447 
2752.000000	98.009977 
2751.000000	98.010514 
2750.000000	98.011137 
2749.000000	98.011821 
2748.000000	98.012504 
2747.000000	98.013172 
2746.000000	98.013849 
2745.000000	98.014533 
2744.000000	98.015201 
2743.000000	98.015839 
2742.000000	98.016456 
2741.000000	98.017063 
2740.000000	98.017664 
2739.000000	98.018269 
2738.000000	98.018889 
2737.000000	98.019527 
2736.000000	98.020166 
2735.000000	98.020779 
2734.000000	98.021358 
2733.000000	98.021916 
2732.000000	98.022472 
2731.000000	98.023031 
2730.000000	98.023590 
2729.000000	98.024145 
2728.000000	98.024693 
2727.000000	98.025231 
2726.000000	98.025759 
2725.000000	98.026277 
2724.000000	98.026787 
2723.000000	98.027294 
2722.000000	98.027798 
2721.000000	98.028293 
2720.000000	98.028775 
2719.000000	98.029234 
2718.000000	98.029668 
2717.000000	98.030085 
2716.000000	98.030498 
2715.000000	98.030905 
2714.000000	98.031292 
2713.000000	98.031640 
2712.000000	98.031932 
2711.000000	98.032146 
2710.000000	98.032265 
2709.000000	98.032336 
2708.000000	98.032512 
2707.000000	98.032978 
2706.000000	98.033738 
2705.000000	98.034478 
2704.000000	98.034822 
2703.000000	98.034755 
2702.000000	98.034713 
2701.000000	98.035136 
2700.000000	98.035965 
2699.000000	98.036682 
2698.000000	98.036857 
2697.000000	98.036507 
2696.000000	98.035952 
2695.000000	98.035487 
2694.000000	98.035285 
2693.000000	98.035381 
2692.000000	98.035546 
2691.000000	98.035367 
2690.000000	98.034777 
2689.000000	98.034354 
2688.000000	98.034645 
2687.000000	98.035292 
2686.000000	98.035381 
2685.000000	98.034756 
2684.000000	98.034385 
2683.000000	98.035054 
2682.000000	98.036110 
2681.000000	98.036148 
2680.000000	98.034686 
2679.000000	98.032639 
2678.000000	98.031187 
2677.000000	98.030610 
2676.000000	98.030362 
2675.000000	98.029860 
2674.000000	98.028958 
2673.000000	98.027857 
2672.000000	98.026812 
2671.000000	98.026002 
2670.000000	98.025694 
2669.000000	98.026326 
2668.000000	98.027947 
2667.000000	98.029464 
2666.000000	98.029078 
2665.000000	98.025946 
2664.000000	98.021173 
2663.000000	98.016842 
2662.000000	98.013957 
2661.000000	98.011879 
2660.000000	98.009721 
2659.000000	98.007558 
2658.000000	98.006037 
2657.000000	98.005267 
2656.000000	98.004523 
2655.000000	98.002924 
2654.000000	98.000179 
2653.000000	97.996855 
2652.000000	97.994117 
2651.000000	97.992999 
2650.000000	97.993584 
2649.000000	97.994753 
2648.000000	97.994956 
2647.000000	97.993509 
2646.000000	97.991111 
2645.000000	97.989068 
2644.000000	97.988102 
2643.000000	97.987959 
2642.000000	97.987971 
2641.000000	97.987760 
2640.000000	97.987362 
2639.000000	97.987000 
2638.000000	97.986906 
2637.000000	97.987191 
2636.000000	97.987702 
2635.000000	97.988183 
2634.000000	97.988653 
2633.000000	97.989390 
2632.000000	97.990316 
2631.000000	97.990701 
2630.000000	97.989909 
2629.000000	97.988290 
2628.000000	97.986990 
2627.000000	97.986795 
2626.000000	97.987457 
2625.000000	97.988125 
2624.000000	97.988178 
2623.000000	97.987629 
2622.000000	97.986970 
2621.000000	97.986743 
2620.000000	97.987094 
2619.000000	97.987674 
2618.000000	97.988012 
2617.000000	97.987966 
2616.000000	97.987738 
2615.000000	97.987600 
2614.000000	97.987735 
2613.000000	97.988223 
2612.000000	97.988949 
2611.000000	97.989592 
2610.000000	97.989918 
2609.000000	97.990021 
2608.000000	97.990176 
2607.000000	97.990512 
2606.000000	97.990972 
2605.000000	97.991520 
2604.000000	97.992185 
2603.000000	97.992921 
2602.000000	97.993591 
2601.000000	97.994110 
2600.000000	97.994512 
2599.000000	97.994868 
2598.000000	97.995231 
2597.000000	97.995629 
2596.000000	97.996089 
2595.000000	97.996622 
2594.000000	97.997200 
2593.000000	97.997778 
2592.000000	97.998330 
2591.000000	97.998861 
2590.000000	97.999387 
2589.000000	97.999941 
2588.000000	98.000561 
2587.000000	98.001256 
2586.000000	98.001986 
2585.000000	98.002690 
2584.000000	98.003334 
2583.000000	98.003919 
2582.000000	98.004453 
2581.000000	98.004960 
2580.000000	98.005480 
2579.000000	98.006046 
2578.000000	98.006665 
2577.000000	98.007324 
2576.000000	98.007993 
2575.000000	98.008638 
2574.000000	98.009249 
2573.000000	98.009841 
2572.000000	98.010430 
2571.000000	98.011016 
2570.000000	98.011588 
2569.000000	98.012156 
2568.000000	98.012744 
2567.000000	98.013357 
2566.000000	98.013975 
2565.000000	98.014568 
2564.000000	98.015131 
2563.000000	98.015668 
2562.000000	98.016188 
2561.000000	98.016692 
2560.000000	98.017188 
2559.000000	98.017700 
2558.000000	98.018226 
2557.000000	98.018746 
2556.000000	98.019248 
2555.000000	98.019736 
2554.000000	98.020187 
2553.000000	98.020587 
2552.000000	98.020995 
2551.000000	98.021490 
2550.000000	98.022053 
2549.000000	98.022556 
2548.000000	98.022932 
2547.000000	98.023245 
2546.000000	98.023569 
2545.000000	98.023869 
2544.000000	98.024091 
2543.000000	98.024266 
2542.000000	98.024485 
2541.000000	98.024818 
2540.000000	98.025266 
2539.000000	98.025719 
2538.000000	98.025969 
2537.000000	98.025888 
2536.000000	98.025637 
2535.000000	98.025569 
2534.000000	98.025839 
2533.000000	98.026281 
2532.000000	98.026677 
2531.000000	98.026981 
2530.000000	98.027182 
2529.000000	98.027179 
2528.000000	98.026943 
2527.000000	98.026626 
2526.000000	98.026345 
2525.000000	98.026029 
2524.000000	98.025621 
2523.000000	98.025259 
2522.000000	98.025145 
2521.000000	98.025340 
2520.000000	98.025790 
2519.000000	98.026359 
2518.000000	98.026768 
2517.000000	98.026768 
2516.000000	98.026509 
2515.000000	98.026548 
2514.000000	98.027295 
2513.000000	98.028597 
2512.000000	98.029812 
2511.000000	98.030335 
2510.000000	98.030007 
2509.000000	98.029222 
2508.000000	98.028685 
2507.000000	98.028745 
2506.000000	98.029019 
2505.000000	98.028866 
2504.000000	98.028227 
2503.000000	98.027652 
2502.000000	98.027471 
2501.000000	98.027437 
2500.000000	98.027397 
2499.000000	98.027782 
2498.000000	98.029005 
2497.000000	98.030791 
2496.000000	98.032384 
2495.000000	98.033206 
2494.000000	98.033165 
2493.000000	98.032655 
2492.000000	98.032463 
2491.000000	98.033291 
2490.000000	98.035097 
2489.000000	98.037022 
2488.000000	98.038207 
2487.000000	98.038531 
2486.000000	98.038399 
2485.000000	98.038140 
2484.000000	98.037805 
2483.000000	98.037313 
2482.000000	98.036555 
2481.000000	98.035618 
2480.000000	98.035060 
2479.000000	98.035613 
2478.000000	98.037348 
2477.000000	98.039359 
2476.000000	98.040570 
2475.000000	98.040691 
2474.000000	98.040240 
2473.000000	98.039912 
2472.000000	98.040045 
2471.000000	98.040417 
2470.000000	98.040421 
2469.000000	98.039696 
2468.000000	98.038623 
2467.000000	98.037845 
2466.000000	98.037275 
2465.000000	98.036306 
2464.000000	98.035006 
2463.000000	98.034347 
2462.000000	98.034932 
2461.000000	98.036121 
2460.000000	98.036695 
2459.000000	98.035977 
2458.000000	98.034069 
2457.000000	98.031649 
2456.000000	98.029785 
2455.000000	98.029255 
2454.000000	98.029588 
2453.000000	98.029271 
2452.000000	98.027551 
2451.000000	98.025586 
2450.000000	98.025091 
2449.000000	98.026402 
2448.000000	98.028443 
2447.000000	98.030143 
2446.000000	98.031337 
2445.000000	98.032329 
2444.000000	98.033289 
2443.000000	98.034178 
2442.000000	98.034842 
2441.000000	98.035169 
2440.000000	98.035307 
2439.000000	98.035554 
2438.000000	98.035885 
2437.000000	98.035800 
2436.000000	98.034884 
2435.000000	98.033351 
2434.000000	98.031933 
2433.000000	98.031393 
2432.000000	98.032147 
2431.000000	98.034033 
2430.000000	98.036213 
2429.000000	98.037646 
2428.000000	98.037954 
2427.000000	98.037677 
2426.000000	98.037655 
2425.000000	98.038327 
2424.000000	98.039634 
2423.000000	98.041261 
2422.000000	98.042856 
2421.000000	98.044198 
2420.000000	98.045289 
2419.000000	98.046167 
2418.000000	98.046672 
2417.000000	98.046676 
2416.000000	98.046520 
2415.000000	98.046794 
2414.000000	98.047630 
2413.000000	98.048606 
2412.000000	98.049398 
2411.000000	98.050122 
2410.000000	98.050908 
2409.000000	98.051619 
2408.000000	98.052200 
2407.000000	98.052842 
2406.000000	98.053508 
2405.000000	98.053659 
2404.000000	98.052899 
2403.000000	98.051665 
2402.000000	98.050837 
2401.000000	98.050762 
2400.000000	98.051197 
2399.000000	98.052012 
2398.000000	98.053448 
2397.000000	98.055493 
2396.000000	98.057420 
2395.000000	98.058333 
2394.000000	98.058088 
2393.000000	98.057537 
2392.000000	98.057793 
2391.000000	98.059273 
2390.000000	98.061366 
2389.000000	98.062970 
2388.000000	98.063503 
2387.000000	98.063473 
2386.000000	98.064094 
2385.000000	98.066193 
2384.000000	98.069338 
2383.000000	98.072029 
2382.000000	98.072909 
2381.000000	98.071726 
2380.000000	98.069246 
2379.000000	98.066474 
2378.000000	98.063998 
2377.000000	98.062061 
2376.000000	98.060881 
2375.000000	98.060617 
2374.000000	98.061181 
2373.000000	98.062302 
2372.000000	98.063684 
2371.000000	98.064847 
2370.000000	98.065108 
2369.000000	98.064229 
2368.000000	98.062936 
2367.000000	98.062140 
2366.000000	98.061693 
2365.000000	98.060668 
2364.000000	98.058774 
2363.000000	98.056606 
2362.000000	98.054811 
2361.000000	98.053708 
2360.000000	98.053428 
2359.000000	98.053887 
2358.000000	98.054003 
2357.000000	98.052438 
2356.000000	98.049553 
2355.000000	98.047070 
2354.000000	98.045455 
2353.000000	98.043729 
2352.000000	98.042057 
2351.000000	98.041647 
2350.000000	98.042089 
2349.000000	98.041617 
2348.000000	98.039345 
2347.000000	98.035660 
2346.000000	98.031306 
2345.000000	98.027188 
2344.000000	98.024669 
2343.000000	98.023922 
2342.000000	98.023320 
2341.000000	98.021193 
2340.000000	98.017451 
2339.000000	98.013515 
2338.000000	98.010450 
2337.000000	98.008138 
2336.000000	98.006238 
2335.000000	98.004869 
2334.000000	98.004051 
2333.000000	98.003562 
2332.000000	98.003622 
2331.000000	98.004507 
2330.000000	98.005169 
2329.000000	98.003821 
2328.000000	97.999266 
2327.000000	97.991308 
2326.000000	97.980858 
2325.000000	97.970373 
2324.000000	97.963517 
2323.000000	97.961972 
2322.000000	97.963933 
2321.000000	97.966059 
2320.000000	97.967538 
2319.000000	97.969807 
2318.000000	97.973112 
2317.000000	97.975577 
2316.000000	97.975468 
2315.000000	97.972853 
2314.000000	97.968736 
2313.000000	97.964339 
2312.000000	97.961061 
2311.000000	97.959965 
2310.000000	97.960390 
2309.000000	97.960564 
2308.000000	97.959619 
2307.000000	97.958342 
2306.000000	97.957653 
2305.000000	97.957626 
2304.000000	97.957949 
2303.000000	97.958199 
2302.000000	97.957430 
2301.000000	97.954692 
2300.000000	97.950227 
2299.000000	97.945338 
2298.000000	97.940985 
2297.000000	97.937377 
2296.000000	97.934708 
2295.000000	97.932905 
2294.000000	97.930813 
2293.000000	97.927024 
2292.000000	97.921741 
2291.000000	97.916279 
2290.000000	97.910703 
2289.000000	97.903704 
2288.000000	97.895307 
2287.000000	97.888024 
2286.000000	97.884540 
2285.000000	97.885422 
2284.000000	97.889210 
2283.000000	97.893470 
2282.000000	97.895850 
2281.000000	97.895814 
2280.000000	97.895446 
2279.000000	97.896822 
2278.000000	97.898817 
2277.000000	97.898651 
2276.000000	97.896422 
2275.000000	97.895236 
2274.000000	97.896435 
2273.000000	97.897806 
2272.000000	97.897490 
2271.000000	97.896966 
2270.000000	97.898612 
2269.000000	97.902364 
2268.000000	97.906138 
2267.000000	97.908028 
2266.000000	97.907191 
2265.000000	97.904157 
2264.000000	97.901040 
2263.000000	97.899825 
2262.000000	97.899811 
2261.000000	97.898235 
2260.000000	97.893912 
2259.000000	97.888780 
2258.000000	97.885532 
2257.000000	97.884865 
2256.000000	97.885796 
2255.000000	97.887197 
2254.000000	97.888288 
2253.000000	97.888527 
2252.000000	97.887857 
2251.000000	97.886751 
2250.000000	97.885587 
2249.000000	97.884290 
2248.000000	97.882805 
2247.000000	97.881305 
2246.000000	97.879961 
2245.000000	97.878805 
2244.000000	97.877826 
2243.000000	97.876946 
2242.000000	97.876016 
2241.000000	97.874945 
2240.000000	97.873807 
2239.000000	97.872760 
2238.000000	97.871819 
2237.000000	97.870786 
2236.000000	97.869508 
2235.000000	97.868075 
2234.000000	97.866749 
2233.000000	97.865678 
2232.000000	97.864789 
2231.000000	97.863863 
2230.000000	97.862690 
2229.000000	97.861196 
2228.000000	97.859469 
2227.000000	97.857680 
2226.000000	97.855879 
2225.000000	97.854010 
2224.000000	97.852226 
2223.000000	97.850888 
2222.000000	97.850088 
2221.000000	97.849412 
2220.000000	97.848338 
2219.000000	97.846793 
2218.000000	97.845148 
2217.000000	97.843795 
2216.000000	97.842856 
2215.000000	97.842167 
2214.000000	97.841354 
2213.000000	97.840023 
2212.000000	97.838017 
2211.000000	97.835556 
2210.000000	97.833164 
2209.000000	97.831507 
2208.000000	97.831135 
2207.000000	97.831844 
2206.000000	97.832194 
2205.000000	97.830663 
2204.000000	97.827938 
2203.000000	97.827215 
2202.000000	97.829981 
2201.000000	97.833075 
2200.000000	97.832387 
2199.000000	97.827197 
2198.000000	97.819467 
2197.000000	97.811285 
2196.000000	97.805075 
2195.000000	97.803422 
2194.000000	97.806105 
2193.000000	97.808825 
2192.000000	97.806850 
2191.000000	97.799077 
2190.000000	97.787981 
2189.000000	97.777295 
2188.000000	97.770161 
2187.000000	97.767655 
2186.000000	97.768400 
2185.000000	97.770801 
2184.000000	97.775175 
2183.000000	97.781436 
2182.000000	97.785858 
2181.000000	97.784209 
2180.000000	97.777996 
2179.000000	97.773257 
2178.000000	97.773038 
2177.000000	97.775577 
2176.000000	97.779731 
2175.000000	97.786553 
2174.000000	97.793979 
2173.000000	97.795709 
2172.000000	97.788624 
2171.000000	97.777017 
2170.000000	97.766676 
2169.000000	97.758487 
2168.000000	97.750702 
2167.000000	97.743723 
2166.000000	97.738606 
2165.000000	97.733212 
2164.000000	97.724132 
2163.000000	97.712200 
2162.000000	97.704219 
2161.000000	97.709918 
2160.000000	97.736686 
2159.000000	97.782918 
2158.000000	97.834253 
2157.000000	97.872383 
2156.000000	97.890485 
2155.000000	97.894637 
2154.000000	97.893027 
2153.000000	97.889375 
2152.000000	97.885685 
2151.000000	97.884588 
2150.000000	97.886134 
2149.000000	97.886966 
2148.000000	97.886017 
2147.000000	97.887677 
2146.000000	97.896411 
2145.000000	97.911254 
2144.000000	97.928169 
2143.000000	97.944519 
2142.000000	97.957818 
2141.000000	97.963339 
2140.000000	97.957946 
2139.000000	97.945800 
2138.000000	97.936864 
2137.000000	97.938481 
2136.000000	97.949478 
2135.000000	97.962453 
2134.000000	97.970799 
2133.000000	97.973623 
2132.000000	97.974735 
2131.000000	97.977433 
2130.000000	97.980751 
2129.000000	97.981095 
2128.000000	97.976601 
2127.000000	97.968789 
2126.000000	97.960789 
2125.000000	97.955185 
2124.000000	97.952883 
2123.000000	97.952528 
2122.000000	97.951296 
2121.000000	97.947480 
2120.000000	97.942005 
2119.000000	97.936482 
2118.000000	97.930932 
2117.000000	97.924901 
2116.000000	97.919502 
2115.000000	97.916197 
2114.000000	97.914614 
2113.000000	97.913990 
2112.000000	97.915907 
2111.000000	97.922148 
2110.000000	97.929972 
2109.000000	97.933292 
2108.000000	97.929500 
2107.000000	97.922070 
2106.000000	97.915774 
2105.000000	97.911884 
2104.000000	97.909112 
2103.000000	97.906546 
2102.000000	97.903922 
2101.000000	97.900798 
2100.000000	97.897202 
2099.000000	97.894365 
2098.000000	97.893987 
2097.000000	97.897175 
2096.000000	97.903878 
2095.000000	97.911963 
2094.000000	97.917221 
2093.000000	97.916615 
2092.000000	97.910985 
2091.000000	97.903753 
2090.000000	97.897535 
2089.000000	97.892517 
2088.000000	97.887893 
2087.000000	97.883259 
2086.000000	97.878595 
2085.000000	97.874262 
2084.000000	97.871338 
2083.000000	97.870927 
2082.000000	97.872664 
2081.000000	97.874519 
2080.000000	97.874620 
2079.000000	97.872614 
2078.000000	97.869143 
2077.000000	97.865137 
2076.000000	97.861709 
2075.000000	97.859441 
2074.000000	97.857321 
2073.000000	97.853607 
2072.000000	97.848252 
2071.000000	97.843371 
2070.000000	97.840840 
2069.000000	97.840548 
2068.000000	97.841353 
2067.000000	97.842400 
2066.000000	97.842824 
2065.000000	97.841717 
2064.000000	97.839303 
2063.000000	97.836894 
2062.000000	97.834951 
2061.000000	97.832399 
2060.000000	97.828379 
2059.000000	97.823528 
2058.000000	97.819169 
2057.000000	97.816434 
2056.000000	97.816158 
2055.000000	97.817874 
2054.000000	97.818537 
2053.000000	97.814300 
2052.000000	97.804167 
2051.000000	97.790886 
2050.000000	97.778428 
2049.000000	97.769419 
2048.000000	97.765339 
2047.000000	97.766865 
2046.000000	97.772398 
2045.000000	97.777746 
2044.000000	97.779244 
2043.000000	97.776302 
2042.000000	97.770487 
2041.000000	97.764154 
2040.000000	97.760202 
2039.000000	97.760729 
2038.000000	97.764911 
2037.000000	97.769740 
2036.000000	97.773536 
2035.000000	97.776947 
2034.000000	97.780153 
2033.000000	97.782006 
2032.000000	97.782427 
2031.000000	97.782512 
2030.000000	97.781640 
2029.000000	97.777943 
2028.000000	97.772500 
2027.000000	97.769451 
2026.000000	97.770360 
2025.000000	97.771516 
2024.000000	97.768715 
2023.000000	97.762552 
2022.000000	97.757131 
2021.000000	97.755254 
2020.000000	97.756725 
2019.000000	97.759925 
2018.000000	97.762971 
2017.000000	97.764279 
2016.000000	97.764095 
2015.000000	97.764760 
2014.000000	97.768001 
2013.000000	97.772628 
2012.000000	97.775594 
2011.000000	97.774637 
2010.000000	97.769961 
2009.000000	97.764920 
2008.000000	97.763938 
2007.000000	97.767230 
2006.000000	97.769320 
2005.000000	97.766154 
2004.000000	97.761347 
2003.000000	97.760569 
2002.000000	97.761986 
2001.000000	97.759174 
2000.000000	97.752335 
1999.000000	97.748365 
1998.000000	97.749179 
1997.000000	97.748722 
1996.000000	97.743697 
1995.000000	97.739158 
1994.000000	97.739227 
1993.000000	97.739045 
1992.000000	97.732249 
1991.000000	97.721835 
1990.000000	97.716096 
1989.000000	97.717120 
1988.000000	97.719575 
1987.000000	97.718509 
1986.000000	97.713918 
1985.000000	97.708666 
1984.000000	97.705213 
1983.000000	97.703395 
1982.000000	97.699680 
1981.000000	97.691181 
1980.000000	97.681722 
1979.000000	97.679991 
1978.000000	97.689922 
1977.000000	97.706632 
1976.000000	97.723320 
1975.000000	97.738210 
1974.000000	97.751409 
1973.000000	97.760737 
1972.000000	97.764596 
1971.000000	97.764602 
1970.000000	97.762520 
1969.000000	97.758200 
1968.000000	97.753010 
1967.000000	97.751423 
1966.000000	97.755732 
1965.000000	97.762616 
1964.000000	97.767873 
1963.000000	97.771691 
1962.000000	97.776970 
1961.000000	97.784963 
1960.000000	97.794294 
1959.000000	97.802228 
1958.000000	97.805866 
1957.000000	97.804567 
1956.000000	97.802166 
1955.000000	97.804014 
1954.000000	97.810481 
1953.000000	97.816035 
1952.000000	97.816215 
1951.000000	97.812831 
1950.000000	97.810906 
1949.000000	97.812914 
1948.000000	97.818055 
1947.000000	97.824699 
1946.000000	97.831213 
1945.000000	97.836160 
1944.000000	97.839322 
1943.000000	97.841664 
1942.000000	97.843495 
1941.000000	97.844135 
1940.000000	97.843796 
1939.000000	97.843868 
1938.000000	97.845181 
1937.000000	97.847295 
1936.000000	97.849574 
1935.000000	97.851921 
1934.000000	97.854370 
1933.000000	97.856579 
1932.000000	97.858163 
1931.000000	97.859321 
1930.000000	97.860507 
1929.000000	97.861811 
1928.000000	97.863171 
1927.000000	97.864629 
1926.000000	97.865955 
1925.000000	97.866594 
1924.000000	97.866584 
1923.000000	97.867008 
1922.000000	97.868602 
1921.000000	97.870682 
1920.000000	97.872107 
1919.000000	97.872542 
1918.000000	97.872274 
1917.000000	97.871626 
1916.000000	97.871169 
1915.000000	97.871611 
1914.000000	97.872810 
1913.000000	97.873589 
1912.000000	97.873147 
1911.000000	97.872145 
1910.000000	97.871543 
1909.000000	97.871265 
1908.000000	97.870908 
1907.000000	97.870623 
1906.000000	97.870603 
1905.000000	97.870481 
1904.000000	97.870104 
1903.000000	97.869986 
1902.000000	97.870195 
1901.000000	97.870069 
1900.000000	97.869476 
1899.000000	97.869265 
1898.000000	97.870038 
1897.000000	97.871126 
1896.000000	97.871435 
1895.000000	97.870841 
1894.000000	97.869830 
1893.000000	97.868601 
1892.000000	97.867317 
1891.000000	97.866494 
1890.000000	97.866531 
1889.000000	97.867330 
1888.000000	97.868782 
1887.000000	97.870785 
1886.000000	97.872489 
1885.000000	97.872690 
1884.000000	97.871403 
1883.000000	97.870263 
1882.000000	97.870451 
1881.000000	97.871474 
1880.000000	97.872578 
1879.000000	97.873929 
1878.000000	97.875663 
1877.000000	97.877207 
1876.000000	97.878452 
1875.000000	97.880385 
1874.000000	97.883289 
1873.000000	97.885659 
1872.000000	97.886382 
1871.000000	97.886361 
1870.000000	97.886585 
1869.000000	97.886279 
1868.000000	97.885365 
1867.000000	97.885964 
1866.000000	97.888932 
1865.000000	97.892587 
1864.000000	97.895430 
1863.000000	97.898043 
1862.000000	97.901011 
1861.000000	97.902952 
1860.000000	97.902863 
1859.000000	97.902559 
1858.000000	97.904111 
1857.000000	97.906793 
1856.000000	97.908976 
1855.000000	97.911081 
1854.000000	97.914240 
1853.000000	97.917896 
1852.000000	97.920994 
1851.000000	97.923806 
1850.000000	97.927027 
1849.000000	97.930535 
1848.000000	97.933909 
1847.000000	97.937352 
1846.000000	97.940797 
1845.000000	97.943319 
1844.000000	97.944952 
1843.000000	97.947057 
1842.000000	97.949259 
1841.000000	97.949921 
1840.000000	97.948603 
1839.000000	97.946512 
1838.000000	97.945327 
1837.000000	97.945585 
1836.000000	97.947189 
1835.000000	97.950258 
1834.000000	97.954195 
1833.000000	97.957334 
1832.000000	97.958109 
1831.000000	97.956432 
1830.000000	97.954245 
1829.000000	97.953593 
1828.000000	97.954242 
1827.000000	97.955249 
1826.000000	97.956459 
1825.000000	97.957772 
1824.000000	97.958940 
1823.000000	97.960206 
1822.000000	97.961785 
1821.000000	97.963153 
1820.000000	97.963905 
1819.000000	97.965054 
1818.000000	97.967601 
1817.000000	97.970089 
1816.000000	97.970477 
1815.000000	97.969237 
1814.000000	97.968233 
1813.000000	97.967878 
1812.000000	97.967295 
1811.000000	97.966768 
1810.000000	97.967094 
1809.000000	97.967349 
1808.000000	97.966608 
1807.000000	97.965738 
1806.000000	97.965656 
1805.000000	97.965812 
1804.000000	97.965596 
1803.000000	97.965664 
1802.000000	97.966685 
1801.000000	97.968026 
1800.000000	97.968708 
1799.000000	97.968968 
1798.000000	97.969406 
1797.000000	97.969901 
1796.000000	97.970329 
1795.000000	97.971140 
1794.000000	97.972604 
1793.000000	97.974082 
1792.000000	97.974785 
1791.000000	97.975134 
1790.000000	97.975858 
1789.000000	97.976746 
1788.000000	97.977386 
1787.000000	97.978064 
1786.000000	97.979319 
1785.000000	97.980923 
1784.000000	97.982191 
1783.000000	97.983001 
1782.000000	97.983757 
1781.000000	97.984827 
1780.000000	97.986247 
1779.000000	97.987889 
1778.000000	97.989582 
1777.000000	97.991075 
1776.000000	97.992225 
1775.000000	97.993077 
1774.000000	97.993882 
1773.000000	97.994983 
1772.000000	97.996319 
1771.000000	97.997634 
1770.000000	97.999259 
1769.000000	98.001590 
1768.000000	98.004170 
1767.000000	98.006150 
1766.000000	98.007319 
1765.000000	98.007988 
1764.000000	98.008308 
1763.000000	98.008411 
1762.000000	98.009123 
1761.000000	98.011152 
1760.000000	98.013811 
1759.000000	98.016187 
1758.000000	98.018366 
1757.000000	98.020928 
1756.000000	98.023649 
1755.000000	98.025674 
1754.000000	98.027386 
1753.000000	98.030069 
1752.000000	98.033494 
1751.000000	98.035405 
1750.000000	98.035054 
1749.000000	98.034282 
1748.000000	98.034477 
1747.000000	98.035012 
1746.000000	98.035369 
1745.000000	98.036125 
1744.000000	98.037333 
1743.000000	98.038249 
1742.000000	98.038792 
1741.000000	98.039509 
1740.000000	98.040472 
1739.000000	98.041376 
1738.000000	98.042150 
1737.000000	98.042886 
1736.000000	98.043667 
1735.000000	98.044502 
1734.000000	98.045267 
1733.000000	98.045819 
1732.000000	98.046197 
1731.000000	98.046582 
1730.000000	98.047085 
1729.000000	98.047659 
1728.000000	98.048198 
1727.000000	98.048658 
1726.000000	98.049067 
1725.000000	98.049445 
1724.000000	98.049794 
1723.000000	98.050117 
1722.000000	98.050410 
1721.000000	98.050669 
1720.000000	98.050881 
1719.000000	98.051038 
1718.000000	98.051137 
1717.000000	98.051178 
1716.000000	98.051170 
1715.000000	98.051131 
1714.000000	98.051075 
1713.000000	98.051002 
1712.000000	98.050908 
1711.000000	98.050789 
1710.000000	98.050651 
1709.000000	98.050500 
1708.000000	98.050340 
1707.000000	98.050176 
1706.000000	98.050008 
1705.000000	98.049832 
1704.000000	98.049643 
1703.000000	98.049445 
1702.000000	98.049246 
1701.000000	98.049037 
1700.000000	98.048801 
1699.000000	98.048532 
1698.000000	98.048234 
1697.000000	98.047908 
1696.000000	98.047549 
1695.000000	98.047153 
1694.000000	98.046719 
1693.000000	98.046248 
1692.000000	98.045748 
1691.000000	98.045230 
1690.000000	98.044699 
1689.000000	98.044150 
1688.000000	98.043568 
1687.000000	98.042948 
1686.000000	98.042287 
1685.000000	98.041592 
1684.000000	98.040874 
1683.000000	98.040147 
1682.000000	98.039413 
1681.000000	98.038673 
1680.000000	98.037932 
1679.000000	98.037189 
1678.000000	98.036441 
1677.000000	98.035694 
1676.000000	98.034948 
1675.000000	98.034204 
1674.000000	98.033471 
1673.000000	98.032718 
1672.000000	98.031911 
1671.000000	98.031045 
1670.000000	98.030113 
1669.000000	98.029172 
1668.000000	98.028359 
1667.000000	98.027666 
1666.000000	98.026934 
1665.000000	98.026015 
1664.000000	98.024887 
1663.000000	98.023724 
1662.000000	98.022626 
1661.000000	98.021612 
1660.000000	98.020876 
1659.000000	98.020359 
1658.000000	98.019594 
1657.000000	98.018399 
1656.000000	98.017183 
1655.000000	98.016040 
1654.000000	98.014418 
1653.000000	98.012727 
1652.000000	98.011929 
1651.000000	98.011173 
1650.000000	98.010423 
1649.000000	98.009868 
1648.000000	98.009437 
1647.000000	98.008863 
1646.000000	98.008273 
1645.000000	98.007701 
1644.000000	98.007290 
1643.000000	98.007249 
1642.000000	98.007365 
1641.000000	98.007352 
1640.000000	98.007247 
1639.000000	98.007146 
1638.000000	98.007025 
1637.000000	98.006844 
1636.000000	98.006696 
1635.000000	98.006503 
1634.000000	98.006200 
1633.000000	98.005986 
1632.000000	98.005998 
1631.000000	98.006154 
1630.000000	98.006316 
1629.000000	98.006444 
1628.000000	98.006598 
1627.000000	98.006825 
1626.000000	98.007122 
1625.000000	98.007486 
1624.000000	98.007922 
1623.000000	98.008416 
1622.000000	98.008965 
1621.000000	98.009565 
1620.000000	98.010207 
1619.000000	98.010883 
1618.000000	98.011584 
1617.000000	98.012313 
1616.000000	98.013079 
1615.000000	98.013884 
1614.000000	98.014722 
1613.000000	98.015598 
1612.000000	98.016517 
1611.000000	98.017477 
1610.000000	98.018459 
1609.000000	98.019457 
1608.000000	98.020473 
1607.000000	98.021506 
1606.000000	98.022548 
1605.000000	98.023598 
1604.000000	98.024659 
1603.000000	98.025728 
1602.000000	98.026807 
1601.000000	98.027903 
1600.000000	98.029016 
1599.000000	98.030130 
1598.000000	98.031232 
1597.000000	98.032322 
1596.000000	98.033413 
1595.000000	98.034512 
1594.000000	98.035612 
1593.000000	98.036708 
1592.000000	98.037798 
1591.000000	98.038883 
1590.000000	98.039962 
1589.000000	98.040995 
1588.000000	98.042017 
1587.000000	98.043145 
1586.000000	98.044254 
1585.000000	98.045144 
1584.000000	98.046095 
1583.000000	98.047372 
1582.000000	98.048494 
1581.000000	98.049138 
1580.000000	98.049837 
1579.000000	98.050650 
1578.000000	98.050556 
1577.000000	98.049542 
1576.000000	98.049874 
1575.000000	98.051718 
1574.000000	98.052126 
1573.000000	98.050803 
1572.000000	98.049713 
1571.000000	98.049911 
1570.000000	98.050438 
1569.000000	98.051328 
1568.000000	98.053666 
1567.000000	98.055655 
1566.000000	98.055295 
1565.000000	98.053462 
1564.000000	98.052350 
1563.000000	98.051720 
1562.000000	98.050008 
1561.000000	98.049258 
1560.000000	98.053799 
1559.000000	98.059207 
1558.000000	98.056384 
1557.000000	98.048087 
1556.000000	98.042571 
1555.000000	98.041396 
1554.000000	98.040942 
1553.000000	98.039029 
1552.000000	98.036376 
1551.000000	98.034399 
1550.000000	98.033571 
1549.000000	98.033105 
1548.000000	98.032129 
1547.000000	98.030103 
1546.000000	98.026037 
1545.000000	98.019121 
1544.000000	98.011332 
1543.000000	98.006146 
1542.000000	98.004068 
1541.000000	98.000688 
1540.000000	97.995531 
1539.000000	97.992517 
1538.000000	97.987673 
1537.000000	97.978795 
1536.000000	97.968438 
1535.000000	97.959395 
1534.000000	97.951769 
1533.000000	97.944553 
1532.000000	97.937808 
1531.000000	97.932872 
1530.000000	97.929113 
1529.000000	97.923148 
1528.000000	97.913759 
1527.000000	97.904077 
1526.000000	97.896869 
1525.000000	97.890258 
1524.000000	97.881901 
1523.000000	97.872864 
1522.000000	97.864938 
1521.000000	97.857178 
1520.000000	97.847825 
1519.000000	97.837664 
1518.000000	97.828763 
1517.000000	97.821718 
1516.000000	97.815741 
1515.000000	97.810044 
1514.000000	97.804591 
1513.000000	97.798649 
1512.000000	97.790056 
1511.000000	97.779117 
1510.000000	97.768714 
1509.000000	97.759812 
1508.000000	97.750313 
1507.000000	97.740797 
1506.000000	97.733541 
1505.000000	97.724869 
1504.000000	97.714082 
1503.000000	97.703174 
1502.000000	97.692965 
1501.000000	97.683042 
1500.000000	97.672544 
1499.000000	97.661818 
1498.000000	97.652967 
1497.000000	97.646538 
1496.000000	97.640191 
1495.000000	97.632856 
1494.000000	97.625779 
1493.000000	97.619284 
1492.000000	97.611916 
1491.000000	97.602226 
1490.000000	97.590680 
1489.000000	97.578606 
1488.000000	97.566711 
1487.000000	97.556595 
1486.000000	97.548538 
1485.000000	97.540590 
1484.000000	97.531905 
1483.000000	97.523184 
1482.000000	97.515216 
1481.000000	97.507407 
1480.000000	97.499020 
1479.000000	97.491174 
1478.000000	97.484930 
1477.000000	97.478654 
1476.000000	97.470315 
1475.000000	97.462114 
1474.000000	97.455945 
1473.000000	97.449178 
1472.000000	97.438756 
1471.000000	97.427490 
1470.000000	97.418976 
1469.000000	97.412225 
1468.000000	97.404369 
1467.000000	97.395818 
1466.000000	97.389065 
1465.000000	97.383726 
1464.000000	97.377259 
1463.000000	97.368760 
1462.000000	97.360262 
1461.000000	97.352255 
1460.000000	97.343062 
1459.000000	97.331562 
1458.000000	97.322155 
1457.000000	97.320979 
1456.000000	97.321169 
1455.000000	97.313210 
1454.000000	97.301411 
1453.000000	97.292046 
1452.000000	97.285817 
1451.000000	97.281113 
1450.000000	97.278764 
1449.000000	97.278703 
1448.000000	97.276326 
1447.000000	97.269567 
1446.000000	97.261909 
1445.000000	97.257047 
1444.000000	97.254439 
1443.000000	97.251219 
1442.000000	97.248289 
1441.000000	97.248615 
1440.000000	97.250472 
1439.000000	97.248835 
1438.000000	97.245438 
1437.000000	97.246388 
1436.000000	97.250498 
1435.000000	97.251594 
1434.000000	97.251227 
1433.000000	97.252775 
1432.000000	97.255101 
1431.000000	97.254059 
1430.000000	97.251178 
1429.000000	97.251906 
1428.000000	97.255146 
1427.000000	97.256190 
1426.000000	97.254566 
1425.000000	97.256191 
1424.000000	97.263051 
1423.000000	97.268046 
1422.000000	97.268240 
1421.000000	97.268284 
1420.000000	97.269293 
1419.000000	97.265603 
1418.000000	97.260658 
1417.000000	97.260846 
1416.000000	97.262075 
1415.000000	97.258570 
1414.000000	97.250890 
1413.000000	97.244516 
1412.000000	97.241538 
1411.000000	97.239311 
1410.000000	97.238619 
1409.000000	97.242541 
1408.000000	97.249373 
1407.000000	97.256009 
1406.000000	97.263620 
1405.000000	97.277356 
1404.000000	97.296974 
1403.000000	97.315523 
1402.000000	97.330808 
1401.000000	97.346226 
1400.000000	97.362885 
1399.000000	97.375990 
1398.000000	97.381641 
1397.000000	97.380480 
1396.000000	97.374773 
1395.000000	97.368993 
1394.000000	97.371631 
1393.000000	97.389724 
1392.000000	97.419120 
1391.000000	97.448733 
1390.000000	97.471090 
1389.000000	97.485631 
1388.000000	97.494874 
1387.000000	97.501227 
1386.000000	97.507112 
1385.000000	97.515216 
1384.000000	97.526341 
1383.000000	97.538336 
1382.000000	97.549320 
1381.000000	97.559743 
1380.000000	97.571249 
1379.000000	97.583931 
1378.000000	97.596372 
1377.000000	97.608452 
1376.000000	97.621692 
1375.000000	97.636667 
1374.000000	97.652187 
1373.000000	97.667400 
1372.000000	97.681864 
1371.000000	97.695044 
1370.000000	97.706501 
1369.000000	97.718602 
1368.000000	97.733892 
1367.000000	97.750268 
1366.000000	97.763333 
1365.000000	97.771737 
1364.000000	97.778285 
1363.000000	97.787112 
1362.000000	97.799704 
1361.000000	97.814126 
1360.000000	97.828019 
1359.000000	97.840425 
1358.000000	97.851372 
1357.000000	97.862106 
1356.000000	97.873732 
1355.000000	97.885286 
1354.000000	97.894855 
1353.000000	97.902075 
1352.000000	97.908666 
1351.000000	97.916910 
1350.000000	97.925699 
1349.000000	97.933899 
1348.000000	97.941292 
1347.000000	97.946967 
1346.000000	97.950628 
1345.000000	97.954827 
1344.000000	97.962158 
1343.000000	97.970876 
1342.000000	97.976443 
1341.000000	97.977581 
1340.000000	97.977807 
1339.000000	97.980272 
1338.000000	97.984689 
1337.000000	97.990051 
1336.000000	97.996003 
1335.000000	98.001782 
1334.000000	98.006921 
1333.000000	98.012499 
1332.000000	98.018998 
1331.000000	98.023666 
1330.000000	98.023347 
1329.000000	98.019915 
1328.000000	98.018531 
1327.000000	98.020660 
1326.000000	98.022751 
1325.000000	98.023436 
1324.000000	98.024937 
1323.000000	98.027763 
1322.000000	98.029405 
1321.000000	98.028552 
1320.000000	98.026660 
1319.000000	98.025345 
1318.000000	98.025321 
1317.000000	98.027296 
1316.000000	98.031255 
1315.000000	98.035308 
1314.000000	98.037882 
1313.000000	98.040143 
1312.000000	98.043891 
1311.000000	98.048273 
1310.000000	98.051224 
1309.000000	98.052885 
1308.000000	98.054723 
1307.000000	98.056597 
1306.000000	98.056835 
1305.000000	98.055936 
1304.000000	98.055742 
1303.000000	98.056144 
1302.000000	98.055466 
1301.000000	98.053549 
1300.000000	98.051703 
1299.000000	98.050444 
1298.000000	98.049769 
1297.000000	98.050575 
1296.000000	98.053417 
1295.000000	98.056323 
1294.000000	98.056810 
1293.000000	98.055398 
1292.000000	98.054676 
1291.000000	98.055465 
1290.000000	98.056158 
1289.000000	98.055515 
1288.000000	98.054051 
1287.000000	98.052682 
1286.000000	98.051746 
1285.000000	98.051350 
1284.000000	98.051541 
1283.000000	98.052368 
1282.000000	98.054155 
1281.000000	98.056747 
1280.000000	98.058475 
1279.000000	98.057064 
1278.000000	98.052789 
1277.000000	98.048957 
1276.000000	98.048209 
1275.000000	98.049667 
1274.000000	98.051145 
1273.000000	98.052311 
1272.000000	98.053840 
1271.000000	98.055159 
1270.000000	98.055292 
1269.000000	98.054723 
1268.000000	98.054393 
1267.000000	98.053969 
1266.000000	98.053110 
1265.000000	98.052439 
1264.000000	98.051720 
1263.000000	98.049387 
1262.000000	98.045515 
1261.000000	98.042696 
1260.000000	98.042015 
1259.000000	98.040332 
1258.000000	98.034815 
1257.000000	98.027528 
1256.000000	98.022659 
1255.000000	98.021202 
1254.000000	98.021031 
1253.000000	98.020322 
1252.000000	98.018378 
1251.000000	98.014714 
1250.000000	98.010208 
1249.000000	98.007663 
1248.000000	98.008616 
1247.000000	98.010798 
1246.000000	98.011053 
1245.000000	98.008494 
1244.000000	98.003047 
1243.000000	97.994231 
1242.000000	97.984196 
1241.000000	97.978635 
1240.000000	97.980633 
1239.000000	97.985586 
1238.000000	97.985894 
1237.000000	97.979101 
1236.000000	97.968143 
1235.000000	97.955531 
1234.000000	97.941271 
1233.000000	97.925760 
1232.000000	97.910896 
1231.000000	97.898036 
1230.000000	97.887096 
1229.000000	97.876980 
1228.000000	97.865022 
1227.000000	97.847528 
1226.000000	97.823432 
1225.000000	97.796495 
1224.000000	97.771484 
1223.000000	97.748892 
1222.000000	97.725531 
1221.000000	97.699091 
1220.000000	97.669434 
1219.000000	97.636330 
1218.000000	97.598999 
1217.000000	97.557770 
1216.000000	97.513857 
1215.000000	97.467590 
1214.000000	97.418663 
1213.000000	97.367735 
1212.000000	97.315867 
1211.000000	97.262849 
1210.000000	97.207672 
1209.000000	97.150305 
1208.000000	97.091595 
1207.000000	97.032009 
1206.000000	96.971816 
1205.000000	96.911701 
1204.000000	96.851539 
1203.000000	96.789218 
1202.000000	96.722811 
1201.000000	96.653808 
1200.000000	96.586229 
1199.000000	96.522263 
1198.000000	96.460649 
1197.000000	96.399491 
1196.000000	96.338401 
1195.000000	96.277020 
1194.000000	96.213434 
1193.000000	96.145880 
1192.000000	96.075007 
1191.000000	96.003081 
1190.000000	95.931547 
1189.000000	95.860364 
1188.000000	95.788934 
1187.000000	95.716253 
1186.000000	95.640641 
1185.000000	95.560809 
1184.000000	95.477474 
1183.000000	95.392888 
1182.000000	95.308380 
1181.000000	95.223148 
1180.000000	95.135717 
1179.000000	95.045710 
1178.000000	94.953855 
1177.000000	94.860822 
1176.000000	94.766168 
1175.000000	94.667997 
1174.000000	94.563868 
1173.000000	94.453050 
1172.000000	94.337899 
1171.000000	94.222319 
1170.000000	94.108991 
1169.000000	93.998799 
1168.000000	93.892763 
1167.000000	93.793768 
1166.000000	93.706929 
1165.000000	93.639334 
1164.000000	93.598430 
1163.000000	93.588323 
1162.000000	93.606691 
1161.000000	93.645366 
1160.000000	93.692749 
1159.000000	93.735077 
1158.000000	93.758729 
1157.000000	93.754917 
1156.000000	93.722270 
1155.000000	93.664755 
1154.000000	93.588838 
1153.000000	93.502806 
1152.000000	93.415276 
1151.000000	93.330887 
1150.000000	93.248175 
1149.000000	93.164002 
1148.000000	93.078998 
1147.000000	92.996404 
1146.000000	92.917024 
1145.000000	92.838417 
1144.000000	92.758350 
1143.000000	92.676120 
1142.000000	92.591275 
1141.000000	92.503990 
1140.000000	92.416386 
1139.000000	92.330889 
1138.000000	92.247518 
1137.000000	92.164695 
1136.000000	92.081626 
1135.000000	91.997870 
1134.000000	91.912401 
1133.000000	91.825673 
1132.000000	91.740406 
1131.000000	91.657261 
1130.000000	91.572439 
1129.000000	91.483539 
1128.000000	91.394721 
1127.000000	91.310723 
1126.000000	91.228205 
1125.000000	91.139557 
1124.000000	91.044026 
1123.000000	90.948283 
1122.000000	90.856293 
1121.000000	90.765476 
1120.000000	90.673572 
1119.000000	90.582438 
1118.000000	90.493309 
1117.000000	90.404325 
1116.000000	90.314653 
1115.000000	90.225874 
1114.000000	90.137908 
1113.000000	90.048711 
1112.000000	89.959009 
1111.000000	89.871944 
1110.000000	89.787695 
1109.000000	89.703835 
1108.000000	89.619781 
1107.000000	89.536257 
1106.000000	89.451256 
1105.000000	89.362902 
1104.000000	89.275592 
1103.000000	89.195989 
1102.000000	89.123106 
1101.000000	89.050004 
1100.000000	88.973905 
1099.000000	88.899895 
1098.000000	88.830273 
1097.000000	88.761246 
1096.000000	88.690503 
1095.000000	88.620558 
1094.000000	88.552583 
1093.000000	88.483929 
1092.000000	88.413725 
1091.000000	88.344598 
1090.000000	88.277518 
1089.000000	88.211247 
1088.000000	88.147812 
1087.000000	88.091795 
1086.000000	88.043052 
1085.000000	87.996403 
1084.000000	87.949024 
1083.000000	87.901933 
1082.000000	87.854796 
1081.000000	87.806430 
1080.000000	87.759876 
1079.000000	87.719244 
1078.000000	87.682093 
1077.000000	87.642935 
1076.000000	87.602983 
1075.000000	87.567059 
1074.000000	87.531721 
1073.000000	87.486435 
1072.000000	87.425452 
1071.000000	87.347490 
1070.000000	87.244712 
1069.000000	87.106073 
1068.000000	86.935569 
1067.000000	86.756681 
1066.000000	86.592307 
1065.000000	86.446605 
1064.000000	86.310490 
1063.000000	86.174634 
1062.000000	86.031612 
1061.000000	85.875669 
1060.000000	85.708696 
1059.000000	85.541624 
1058.000000	85.384782 
1057.000000	85.240399 
1056.000000	85.105593 
1055.000000	84.975599 
1054.000000	84.842490 
1053.000000	84.699569 
1052.000000	84.550683 
1051.000000	84.407415 
1050.000000	84.273727 
1049.000000	84.141810 
1048.000000	84.005293 
1047.000000	83.866562 
1046.000000	83.729383 
1045.000000	83.594452 
1044.000000	83.463607 
1043.000000	83.339050 
1042.000000	83.217064 
1041.000000	83.091162 
1040.000000	82.962700 
1039.000000	82.840270 
1038.000000	82.728463 
1037.000000	82.625935 
1036.000000	82.534074 
1035.000000	82.457523 
1034.000000	82.395525 
1033.000000	82.341557 
1032.000000	82.290895 
1031.000000	82.240399 
1030.000000	82.184657 
1029.000000	82.124204 
1028.000000	82.074665 
1027.000000	82.053413 
1026.000000	82.056861 
1025.000000	82.063431 
1024.000000	82.058908 
1023.000000	82.046023 
1022.000000	82.030341 
1021.000000	82.012086 
1020.000000	81.993206 
1019.000000	81.978167 
1018.000000	81.964516 
1017.000000	81.944491 
1016.000000	81.918130 
1015.000000	81.893521 
1014.000000	81.873107 
1013.000000	81.851892 
1012.000000	81.830305 
1011.000000	81.816041 
1010.000000	81.811024 
1009.000000	81.808762 
1008.000000	81.807128 
1007.000000	81.812188 
1006.000000	81.827004 
1005.000000	81.847836 
1004.000000	81.873612 
1003.000000	81.908312 
1002.000000	81.951663 
1001.000000	81.997728 
1000.000000	82.044643 
999.000000	 82.096141 
998.000000	 82.152462 
997.000000	 82.209728 
996.000000	 82.269024 
995.000000	 82.335721 
994.000000	 82.408859 
993.000000	 82.481368 
992.000000	 82.551925 
991.000000	 82.627027 
990.000000	 82.710481 
989.000000	 82.799847 
988.000000	 82.893244 
987.000000	 82.990712 
986.000000	 83.089487 
985.000000	 83.187350 
984.000000	 83.289569 
983.000000	 83.402904 
982.000000	 83.524544 
981.000000	 83.646892 
980.000000	 83.771514 
979.000000	 83.907436 
978.000000	 84.056685 
977.000000	 84.212337 
976.000000	 84.369844 
975.000000	 84.529596 
974.000000	 84.689364 
973.000000	 84.845502 
972.000000	 85.001391 
971.000000	 85.164162 
970.000000	 85.333304 
969.000000	 85.502257 
968.000000	 85.670023 
967.000000	 85.840670 
966.000000	 86.012405 
965.000000	 86.178317 
964.000000	 86.338063 
963.000000	 86.498356 
962.000000	 86.661360 
961.000000	 86.822040 
960.000000	 86.977352 
959.000000	 87.129030 
958.000000	 87.277421 
957.000000	 87.421494 
956.000000	 87.564620 
955.000000	 87.711133 
954.000000	 87.856938 
953.000000	 87.992457 
952.000000	 88.115218 
951.000000	 88.231491 
950.000000	 88.345839 
949.000000	 88.457305 
948.000000	 88.565987 
947.000000	 88.674923 
946.000000	 88.784338 
945.000000	 88.890800 
944.000000	 88.992467 
943.000000	 89.089478 
942.000000	 89.180467 
941.000000	 89.264916 
940.000000	 89.347140 
939.000000	 89.431411 
938.000000	 89.515412 
937.000000	 89.595468 
936.000000	 89.675064 
935.000000	 89.760259 
934.000000	 89.849860 
933.000000	 89.939006 
932.000000	 90.029227 
931.000000	 90.124722 
930.000000	 90.220909 
929.000000	 90.307710 
928.000000	 90.383546 
927.000000	 90.456035 
926.000000	 90.529171 
925.000000	 90.599715 
924.000000	 90.666437 
923.000000	 90.732559 
922.000000	 90.797577 
921.000000	 90.856034 
920.000000	 90.906635 
919.000000	 90.954759 
918.000000	 91.004360 
917.000000	 91.054564 
916.000000	 91.105160 
915.000000	 91.157890 
914.000000	 91.211475 
913.000000	 91.263452 
912.000000	 91.318717 
911.000000	 91.388574 
910.000000	 91.478942 
909.000000	 91.585457 
908.000000	 91.701068 
907.000000	 91.822120 
906.000000	 91.945989 
905.000000	 92.069694 
904.000000	 92.193286 
903.000000	 92.320245 
902.000000	 92.453327 
901.000000	 92.592643 
900.000000	 92.736080 
899.000000	 92.878182 
898.000000	 93.011166 
897.000000	 93.132704 
896.000000	 93.249585 
895.000000	 93.369124 
894.000000	 93.490412 
893.000000	 93.609328 
892.000000	 93.727122 
891.000000	 93.846027 
890.000000	 93.959964 
889.000000	 94.058514 
888.000000	 94.138313 
887.000000	 94.203270 
886.000000	 94.256068 
885.000000	 94.297475 
884.000000	 94.332074 
883.000000	 94.365515 
882.000000	 94.396649 
881.000000	 94.421492 
880.000000	 94.445032 
879.000000	 94.479716 
878.000000	 94.531198 
877.000000	 94.594677 
876.000000	 94.666458 
875.000000	 94.749964 
874.000000	 94.849004 
873.000000	 94.963957 
872.000000	 95.095455 
871.000000	 95.242600 
870.000000	 95.396395 
869.000000	 95.544105 
868.000000	 95.681998 
867.000000	 95.815877 
866.000000	 95.947896 
865.000000	 96.071070 
864.000000	 96.179644 
863.000000	 96.277886 
862.000000	 96.374761 
861.000000	 96.474524 
860.000000	 96.575773 
859.000000	 96.675682 
858.000000	 96.771827 
857.000000	 96.862428 
856.000000	 96.947369 
855.000000	 97.027792 
854.000000	 97.103993 
853.000000	 97.175036 
852.000000	 97.240117 
851.000000	 97.298925 
850.000000	 97.352079 
849.000000	 97.403124 
848.000000	 97.457601 
847.000000	 97.516667 
846.000000	 97.573683 
845.000000	 97.621106 
844.000000	 97.658965 
843.000000	 97.692504 
842.000000	 97.723635 
841.000000	 97.749898 
840.000000	 97.770735 
839.000000	 97.789343 
838.000000	 97.808006 
837.000000	 97.825518 
836.000000	 97.839307 
835.000000	 97.847198 
834.000000	 97.848506 
833.000000	 97.847132 
832.000000	 97.851661 
831.000000	 97.867446 
830.000000	 97.889791 
829.000000	 97.910359 
828.000000	 97.928856 
827.000000	 97.951568 
826.000000	 97.979513 
825.000000	 98.006879 
824.000000	 98.031598 
823.000000	 98.056962 
822.000000	 98.080353 
821.000000	 98.091156 
820.000000	 98.084247 
819.000000	 98.067325 
818.000000	 98.050740 
817.000000	 98.035139 
816.000000	 98.011810 
815.000000	 97.969988 
814.000000	 97.900028 
813.000000	 97.793060 
812.000000	 97.642476 
811.000000	 97.445664 
810.000000	 97.202460 
809.000000	 96.913140 
808.000000	 96.579323 
807.000000	 96.204656 
806.000000	 95.793197 
805.000000	 95.351644 
804.000000	 94.897051 
803.000000	 94.457837 
802.000000	 94.061613 
801.000000	 93.724149 
800.000000	 93.452397 
799.000000	 93.251327 
798.000000	 93.122531 
797.000000	 93.061067 
796.000000	 93.057390 
795.000000	 93.098251 
794.000000	 93.165457 
793.000000	 93.240863 
792.000000	 93.314261 
791.000000	 93.380938 
790.000000	 93.432052 
789.000000	 93.454512 
788.000000	 93.440703 
787.000000	 93.391539 
786.000000	 93.309243 
785.000000	 93.194259 
784.000000	 93.051259 
783.000000	 92.891806 
782.000000	 92.728685 
781.000000	 92.572889 
780.000000	 92.437737 
779.000000	 92.339417 
778.000000	 92.290435 
777.000000	 92.296566 
776.000000	 92.358955 
775.000000	 92.471249 
774.000000	 92.614868 
773.000000	 92.766458 
772.000000	 92.912437 
771.000000	 93.051036 
770.000000	 93.182104 
769.000000	 93.302658 
768.000000	 93.411425 
767.000000	 93.509743 
766.000000	 93.597760 
765.000000	 93.676273 
764.000000	 93.751216 
763.000000	 93.829224 
762.000000	 93.909597 
761.000000	 93.987524 
760.000000	 94.063744 
759.000000	 94.143242 
758.000000	 94.226114 
757.000000	 94.308452 
756.000000	 94.391152 
755.000000	 94.478869 
754.000000	 94.570940 
753.000000	 94.662153 
752.000000	 94.751313 
751.000000	 94.839673 
750.000000	 94.921641 
749.000000	 94.987801 
748.000000	 95.039233 
747.000000	 95.090014 
746.000000	 95.152603 
745.000000	 95.227469 
744.000000	 95.308816 
743.000000	 95.393095 
742.000000	 95.479759 
741.000000	 95.570176 
740.000000	 95.667598 
739.000000	 95.772645 
738.000000	 95.878079 
737.000000	 95.973513 
736.000000	 96.055230 
735.000000	 96.125952 
734.000000	 96.186587 
733.000000	 96.235209 
732.000000	 96.273139 
731.000000	 96.305231 
730.000000	 96.334415 
729.000000	 96.362308 
728.000000	 96.393149 
727.000000	 96.430258 
726.000000	 96.470755 
725.000000	 96.510060 
724.000000	 96.550348 
723.000000	 96.597841 
722.000000	 96.653009 
721.000000	 96.710575 
720.000000	 96.768030 
719.000000	 96.826193 
718.000000	 96.881281 
717.000000	 96.924671 
716.000000	 96.952513 
715.000000	 96.970370 
714.000000	 96.988424 
713.000000	 97.017010 
712.000000	 97.064269 
711.000000	 97.130628 
710.000000	 97.205631 
709.000000	 97.276699 
708.000000	 97.338503 
707.000000	 97.387282 
706.000000	 97.412804 
705.000000	 97.405590 
704.000000	 97.368682 
703.000000	 97.311320 
702.000000	 97.230383 
701.000000	 97.109279 
700.000000	 96.938346 
699.000000	 96.725569 
698.000000	 96.489219 
697.000000	 96.253536 
696.000000	 96.052740 
695.000000	 95.923635 
694.000000	 95.882348 
693.000000	 95.916358 
692.000000	 96.003828 
691.000000	 96.129589 
690.000000	 96.280365 
689.000000	 96.436768 
688.000000	 96.580346 
687.000000	 96.704269 
686.000000	 96.808337 
685.000000	 96.891679 
684.000000	 96.958811 
683.000000	 97.022018 
682.000000	 97.089601 
681.000000	 97.158208 
680.000000	 97.222472 
679.000000	 97.283150 
678.000000	 97.339041 
677.000000	 97.383428 
676.000000	 97.414331 
675.000000	 97.439267 
674.000000	 97.469664 
673.000000	 97.510947 
672.000000	 97.555544 
671.000000	 97.586096 
670.000000	 97.589316 
669.000000	 97.570629 
668.000000	 97.572173 
667.000000	 97.640086 
666.000000	 97.742959 
665.000000	 97.831132 
664.000000	 97.896391 
663.000000	 97.949661 
662.000000	 97.997919 
661.000000	 98.040746 
660.000000	 98.078292 
659.000000	 98.111951 
658.000000	 98.138915 
657.000000	 98.155234 
656.000000	 98.158620 
655.000000	 98.144147 
654.000000	 98.108384 
653.000000	 98.057145 
652.000000	 98.004304 
651.000000	 97.968187 
650.000000	 97.966740 

