4000.000000	97.921144 
3999.000000	97.920526 
3998.000000	97.920050 
3997.000000	97.919706 
3996.000000	97.919509 
3995.000000	97.919475 
3994.000000	97.919610 
3993.000000	97.919950 
3992.000000	97.920475 
3991.000000	97.921023 
3990.000000	97.921472 
3989.000000	97.921762 
3988.000000	97.921714 
3987.000000	97.921013 
3986.000000	97.919498 
3985.000000	97.917482 
3984.000000	97.915672 
3983.000000	97.914608 
3982.000000	97.914335 
3981.000000	97.914458 
3980.000000	97.914443 
3979.000000	97.913960 
3978.000000	97.912979 
3977.000000	97.911673 
3976.000000	97.910272 
3975.000000	97.908979 
3974.000000	97.907935 
3973.000000	97.907234 
3972.000000	97.906923 
3971.000000	97.906946 
3970.000000	97.907220 
3969.000000	97.907757 
3968.000000	97.908480 
3967.000000	97.909061 
3966.000000	97.909128 
3965.000000	97.908581 
3964.000000	97.907707 
3963.000000	97.906967 
3962.000000	97.906606 
3961.000000	97.906517 
3960.000000	97.906448 
3959.000000	97.906094 
3958.000000	97.905296 
3957.000000	97.904318 
3956.000000	97.903644 
3955.000000	97.903530 
3954.000000	97.903872 
3953.000000	97.904333 
3952.000000	97.904555 
3951.000000	97.904356 
3950.000000	97.904158 
3949.000000	97.904751 
3948.000000	97.906135 
3947.000000	97.907233 
3946.000000	97.906876 
3945.000000	97.904703 
3944.000000	97.901330 
3943.000000	97.898193 
3942.000000	97.896512 
3941.000000	97.896355 
3940.000000	97.896887 
3939.000000	97.897317 
3938.000000	97.897589 
3937.000000	97.898357 
3936.000000	97.900104 
3935.000000	97.902399 
3934.000000	97.904220 
3933.000000	97.904894 
3932.000000	97.904473 
3931.000000	97.903195 
3930.000000	97.901238 
3929.000000	97.898723 
3928.000000	97.895751 
3927.000000	97.892782 
3926.000000	97.890466 
3925.000000	97.889519 
3924.000000	97.890825 
3923.000000	97.894418 
3922.000000	97.898914 
3921.000000	97.902503 
3920.000000	97.904607 
3919.000000	97.906035 
3918.000000	97.907254 
3917.000000	97.907675 
3916.000000	97.906784 
3915.000000	97.905047 
3914.000000	97.903156 
3913.000000	97.901401 
3912.000000	97.900126 
3911.000000	97.899798 
3910.000000	97.900344 
3909.000000	97.901254 
3908.000000	97.902178 
3907.000000	97.903178 
3906.000000	97.904682 
3905.000000	97.906876 
3904.000000	97.909522 
3903.000000	97.911669 
3902.000000	97.912173 
3901.000000	97.910861 
3900.000000	97.908528 
3899.000000	97.906489 
3898.000000	97.905604 
3897.000000	97.905590 
3896.000000	97.905625 
3895.000000	97.905240 
3894.000000	97.904545 
3893.000000	97.904027 
3892.000000	97.903962 
3891.000000	97.904164 
3890.000000	97.904395 
3889.000000	97.904591 
3888.000000	97.904671 
3887.000000	97.904517 
3886.000000	97.904209 
3885.000000	97.903916 
3884.000000	97.903684 
3883.000000	97.903453 
3882.000000	97.903202 
3881.000000	97.902942 
3880.000000	97.902680 
3879.000000	97.902426 
3878.000000	97.902175 
3877.000000	97.901917 
3876.000000	97.901648 
3875.000000	97.901373 
3874.000000	97.901102 
3873.000000	97.900845 
3872.000000	97.900596 
3871.000000	97.900333 
3870.000000	97.900037 
3869.000000	97.899701 
3868.000000	97.899328 
3867.000000	97.898929 
3866.000000	97.898515 
3865.000000	97.898103 
3864.000000	97.897711 
3863.000000	97.897349 
3862.000000	97.897011 
3861.000000	97.896696 
3860.000000	97.896413 
3859.000000	97.896167 
3858.000000	97.895952 
3857.000000	97.895751 
3856.000000	97.895550 
3855.000000	97.895342 
3854.000000	97.895134 
3853.000000	97.894943 
3852.000000	97.894767 
3851.000000	97.894598 
3850.000000	97.894432 
3849.000000	97.894261 
3848.000000	97.894091 
3847.000000	97.893946 
3846.000000	97.893836 
3845.000000	97.893745 
3844.000000	97.893676 
3843.000000	97.893618 
3842.000000	97.893538 
3841.000000	97.893470 
3840.000000	97.893452 
3839.000000	97.893467 
3838.000000	97.893444 
3837.000000	97.893251 
3836.000000	97.892840 
3835.000000	97.892256 
3834.000000	97.891630 
3833.000000	97.891079 
3832.000000	97.890622 
3831.000000	97.890228 
3830.000000	97.889805 
3829.000000	97.889236 
3828.000000	97.888566 
3827.000000	97.887983 
3826.000000	97.887657 
3825.000000	97.887738 
3824.000000	97.888128 
3823.000000	97.888160 
3822.000000	97.887384 
3821.000000	97.886380 
3820.000000	97.886093 
3819.000000	97.886590 
3818.000000	97.887010 
3817.000000	97.886247 
3816.000000	97.884033 
3815.000000	97.881321 
3814.000000	97.879246 
3813.000000	97.877832 
3812.000000	97.876446 
3811.000000	97.875181 
3810.000000	97.874802 
3809.000000	97.875404 
3808.000000	97.875994 
3807.000000	97.875623 
3806.000000	97.874748 
3805.000000	97.874485 
3804.000000	97.874607 
3803.000000	97.873498 
3802.000000	97.870449 
3801.000000	97.866959 
3800.000000	97.864836 
3799.000000	97.864005 
3798.000000	97.863246 
3797.000000	97.862022 
3796.000000	97.861058 
3795.000000	97.860829 
3794.000000	97.860533 
3793.000000	97.858872 
3792.000000	97.855704 
3791.000000	97.852662 
3790.000000	97.851140 
3789.000000	97.850609 
3788.000000	97.849606 
3787.000000	97.847796 
3786.000000	97.846159 
3785.000000	97.845590 
3784.000000	97.846068 
3783.000000	97.847422 
3782.000000	97.849078 
3781.000000	97.850070 
3780.000000	97.850760 
3779.000000	97.852435 
3778.000000	97.854692 
3777.000000	97.855985 
3776.000000	97.855538 
3775.000000	97.853338 
3774.000000	97.850869 
3773.000000	97.850650 
3772.000000	97.853822 
3771.000000	97.858503 
3770.000000	97.862610 
3769.000000	97.865809 
3768.000000	97.867354 
3767.000000	97.866628 
3766.000000	97.864611 
3765.000000	97.863223 
3764.000000	97.864569 
3763.000000	97.868782 
3762.000000	97.872248 
3761.000000	97.871157 
3760.000000	97.867889 
3759.000000	97.869175 
3758.000000	97.875323 
3757.000000	97.881163 
3756.000000	97.886241 
3755.000000	97.893128 
3754.000000	97.901389 
3753.000000	97.907577 
3752.000000	97.912971 
3751.000000	97.923267 
3750.000000	97.933121 
3749.000000	97.933027 
3748.000000	97.926560 
3747.000000	97.923985 
3746.000000	97.925636 
3745.000000	97.921995 
3744.000000	97.909485 
3743.000000	97.896226 
3742.000000	97.890582 
3741.000000	97.891687 
3740.000000	97.894761 
3739.000000	97.900775 
3738.000000	97.909900 
3737.000000	97.914151 
3736.000000	97.909164 
3735.000000	97.900173 
3734.000000	97.892820 
3733.000000	97.884108 
3732.000000	97.870891 
3731.000000	97.858748 
3730.000000	97.854449 
3729.000000	97.858014 
3728.000000	97.862350 
3727.000000	97.860763 
3726.000000	97.854298 
3725.000000	97.847899 
3724.000000	97.842211 
3723.000000	97.834330 
3722.000000	97.824690 
3721.000000	97.815499 
3720.000000	97.806396 
3719.000000	97.797895 
3718.000000	97.791080 
3717.000000	97.786856 
3716.000000	97.787010 
3715.000000	97.790721 
3714.000000	97.793458 
3713.000000	97.790512 
3712.000000	97.783385 
3711.000000	97.774303 
3710.000000	97.759401 
3709.000000	97.736184 
3708.000000	97.707110 
3707.000000	97.676382 
3706.000000	97.646973 
3705.000000	97.619105 
3704.000000	97.590734 
3703.000000	97.561111 
3702.000000	97.533502 
3701.000000	97.510718 
3700.000000	97.491231 
3699.000000	97.473830 
3698.000000	97.459393 
3697.000000	97.449218 
3696.000000	97.446479 
3695.000000	97.453529 
3694.000000	97.465789 
3693.000000	97.473895 
3692.000000	97.474319 
3691.000000	97.472989 
3690.000000	97.477965 
3689.000000	97.487812 
3688.000000	97.492168 
3687.000000	97.487508 
3686.000000	97.480882 
3685.000000	97.477000 
3684.000000	97.473957 
3683.000000	97.469473 
3682.000000	97.463273 
3681.000000	97.454855 
3680.000000	97.444505 
3679.000000	97.436349 
3678.000000	97.434449 
3677.000000	97.430953 
3676.000000	97.414955 
3675.000000	97.389680 
3674.000000	97.363594 
3673.000000	97.339086 
3672.000000	97.310246 
3671.000000	97.269058 
3670.000000	97.222836 
3669.000000	97.184211 
3668.000000	97.151648 
3667.000000	97.118262 
3666.000000	97.083941 
3665.000000	97.051868 
3664.000000	97.022019 
3663.000000	96.991069 
3662.000000	96.955859 
3661.000000	96.917369 
3660.000000	96.880404 
3659.000000	96.847496 
3658.000000	96.815953 
3657.000000	96.781439 
3656.000000	96.744178 
3655.000000	96.709844 
3654.000000	96.683093 
3653.000000	96.661014 
3652.000000	96.634575 
3651.000000	96.599084 
3650.000000	96.562529 
3649.000000	96.531013 
3648.000000	96.496486 
3647.000000	96.453010 
3646.000000	96.406241 
3645.000000	96.362925 
3644.000000	96.323939 
3643.000000	96.287549 
3642.000000	96.251460 
3641.000000	96.214940 
3640.000000	96.178570 
3639.000000	96.143624 
3638.000000	96.112252 
3637.000000	96.085507 
3636.000000	96.061645 
3635.000000	96.036176 
3634.000000	96.007383 
3633.000000	95.980378 
3632.000000	95.960616 
3631.000000	95.945227 
3630.000000	95.925293 
3629.000000	95.899402 
3628.000000	95.869383 
3627.000000	95.834741 
3626.000000	95.796911 
3625.000000	95.757449 
3624.000000	95.717403 
3623.000000	95.678583 
3622.000000	95.643851 
3621.000000	95.617261 
3620.000000	95.608047 
3619.000000	95.625240 
3618.000000	95.663548 
3617.000000	95.707369 
3616.000000	95.747855 
3615.000000	95.784628 
3614.000000	95.820553 
3613.000000	95.857863 
3612.000000	95.895073 
3611.000000	95.927679 
3610.000000	95.951554 
3609.000000	95.964972 
3608.000000	95.970114 
3607.000000	95.971100 
3606.000000	95.970290 
3605.000000	95.969299 
3604.000000	95.969848 
3603.000000	95.973405 
3602.000000	95.981323 
3601.000000	95.993324 
3600.000000	96.009231 
3599.000000	96.029513 
3598.000000	96.052155 
3597.000000	96.073145 
3596.000000	96.091239 
3595.000000	96.107779 
3594.000000	96.124979 
3593.000000	96.143558 
3592.000000	96.161154 
3591.000000	96.174471 
3590.000000	96.180819 
3589.000000	96.180808 
3588.000000	96.180574 
3587.000000	96.185672 
3586.000000	96.193024 
3585.000000	96.197493 
3584.000000	96.198393 
3583.000000	96.198373 
3582.000000	96.199240 
3581.000000	96.200991 
3580.000000	96.203252 
3579.000000	96.206425 
3578.000000	96.211188 
3577.000000	96.217193 
3576.000000	96.223817 
3575.000000	96.230343 
3574.000000	96.235562 
3573.000000	96.238683 
3572.000000	96.240171 
3571.000000	96.241707 
3570.000000	96.244956 
3569.000000	96.249276 
3568.000000	96.252980 
3567.000000	96.255702 
3566.000000	96.256505 
3565.000000	96.254681 
3564.000000	96.252214 
3563.000000	96.250898 
3562.000000	96.249866 
3561.000000	96.247348 
3560.000000	96.242931 
3559.000000	96.238333 
3558.000000	96.235163 
3557.000000	96.232955 
3556.000000	96.230246 
3555.000000	96.227324 
3554.000000	96.226388 
3553.000000	96.229378 
3552.000000	96.235585 
3551.000000	96.242192 
3550.000000	96.247313 
3549.000000	96.251159 
3548.000000	96.254494 
3547.000000	96.257620 
3546.000000	96.259880 
3545.000000	96.260578 
3544.000000	96.260261 
3543.000000	96.260345 
3542.000000	96.261456 
3541.000000	96.262832 
3540.000000	96.263212 
3539.000000	96.262428 
3538.000000	96.261638 
3537.000000	96.262288 
3536.000000	96.264810 
3535.000000	96.268191 
3534.000000	96.271166 
3533.000000	96.273179 
3532.000000	96.274340 
3531.000000	96.274944 
3530.000000	96.275487 
3529.000000	96.276892 
3528.000000	96.279937 
3527.000000	96.284335 
3526.000000	96.288573 
3525.000000	96.291081 
3524.000000	96.291573 
3523.000000	96.291140 
3522.000000	96.291065 
3521.000000	96.291798 
3520.000000	96.293080 
3519.000000	96.294665 
3518.000000	96.296466 
3517.000000	96.298182 
3516.000000	96.299295 
3515.000000	96.299530 
3514.000000	96.299429 
3513.000000	96.300082 
3512.000000	96.302196 
3511.000000	96.305664 
3510.000000	96.309948 
3509.000000	96.314210 
3508.000000	96.317225 
3507.000000	96.318024 
3506.000000	96.316852 
3505.000000	96.315497 
3504.000000	96.315949 
3503.000000	96.318345 
3502.000000	96.320727 
3501.000000	96.321338 
3500.000000	96.320443 
3499.000000	96.319515 
3498.000000	96.319513 
3497.000000	96.320385 
3496.000000	96.321810 
3495.000000	96.323484 
3494.000000	96.324732 
3493.000000	96.324598 
3492.000000	96.322571 
3491.000000	96.319157 
3490.000000	96.315773 
3489.000000	96.313792 
3488.000000	96.313567 
3487.000000	96.314305 
3486.000000	96.314693 
3485.000000	96.313773 
3484.000000	96.311542 
3483.000000	96.308882 
3482.000000	96.306907 
3481.000000	96.305988 
3480.000000	96.305401 
3479.000000	96.304210 
3478.000000	96.302412 
3477.000000	96.300879 
3476.000000	96.300156 
3475.000000	96.299616 
3474.000000	96.298091 
3473.000000	96.295230 
3472.000000	96.291797 
3471.000000	96.288641 
3470.000000	96.285996 
3469.000000	96.283785 
3468.000000	96.281784 
3467.000000	96.279297 
3466.000000	96.275338 
3465.000000	96.269740 
3464.000000	96.263910 
3463.000000	96.259814 
3462.000000	96.258069 
3461.000000	96.257372 
3460.000000	96.255826 
3459.000000	96.252742 
3458.000000	96.248828 
3457.000000	96.245156 
3456.000000	96.242149 
3455.000000	96.239543 
3454.000000	96.237016 
3453.000000	96.234391 
3452.000000	96.231492 
3451.000000	96.228038 
3450.000000	96.223890 
3449.000000	96.219413 
3448.000000	96.215373 
3447.000000	96.212218 
3446.000000	96.209466 
3445.000000	96.206115 
3444.000000	96.201752 
3443.000000	96.197098 
3442.000000	96.193333 
3441.000000	96.190959 
3440.000000	96.189416 
3439.000000	96.187603 
3438.000000	96.184785 
3437.000000	96.181019 
3436.000000	96.176867 
3435.000000	96.172886 
3434.000000	96.169460 
3433.000000	96.166787 
3432.000000	96.164964 
3431.000000	96.163798 
3430.000000	96.162583 
3429.000000	96.160329 
3428.000000	96.156454 
3427.000000	96.151350 
3426.000000	96.146109 
3425.000000	96.141636 
3424.000000	96.138124 
3423.000000	96.135409 
3422.000000	96.133563 
3421.000000	96.132792 
3420.000000	96.132676 
3419.000000	96.132013 
3418.000000	96.129944 
3417.000000	96.126896 
3416.000000	96.124063 
3415.000000	96.122200 
3414.000000	96.121223 
3413.000000	96.120766 
3412.000000	96.120513 
3411.000000	96.120008 
3410.000000	96.118769 
3409.000000	96.116771 
3408.000000	96.114380 
3407.000000	96.111690 
3406.000000	96.108435 
3405.000000	96.105005 
3404.000000	96.102775 
3403.000000	96.102694 
3402.000000	96.103938 
3401.000000	96.104518 
3400.000000	96.103449 
3399.000000	96.101680 
3398.000000	96.100814 
3397.000000	96.101342 
3396.000000	96.102337 
3395.000000	96.102658 
3394.000000	96.102244 
3393.000000	96.102093 
3392.000000	96.102982 
3391.000000	96.104450 
3390.000000	96.105248 
3389.000000	96.104680 
3388.000000	96.103288 
3387.000000	96.102302 
3386.000000	96.102590 
3385.000000	96.104133 
3384.000000	96.106252 
3383.000000	96.108218 
3382.000000	96.109794 
3381.000000	96.111190 
3380.000000	96.112578 
3379.000000	96.113703 
3378.000000	96.114193 
3377.000000	96.114021 
3376.000000	96.113412 
3375.000000	96.112596 
3374.000000	96.112037 
3373.000000	96.112662 
3372.000000	96.115111 
3371.000000	96.118740 
3370.000000	96.121972 
3369.000000	96.123903 
3368.000000	96.125009 
3367.000000	96.126056 
3366.000000	96.127014 
3365.000000	96.127587 
3364.000000	96.128286 
3363.000000	96.130092 
3362.000000	96.133134 
3361.000000	96.136431 
3360.000000	96.139047 
3359.000000	96.141055 
3358.000000	96.143106 
3357.000000	96.145438 
3356.000000	96.147654 
3355.000000	96.149307 
3354.000000	96.150395 
3353.000000	96.151291 
3352.000000	96.152435 
3351.000000	96.154122 
3350.000000	96.156400 
3349.000000	96.159033 
3348.000000	96.161562 
3347.000000	96.163632 
3346.000000	96.165313 
3345.000000	96.167020 
3344.000000	96.169071 
3343.000000	96.171342 
3342.000000	96.173438 
3341.000000	96.175118 
3340.000000	96.176432 
3339.000000	96.177535 
3338.000000	96.178539 
3337.000000	96.179608 
3336.000000	96.181020 
3335.000000	96.182985 
3334.000000	96.185437 
3333.000000	96.188079 
3332.000000	96.190567 
3331.000000	96.192615 
3330.000000	96.194037 
3329.000000	96.194910 
3328.000000	96.195730 
3327.000000	96.197167 
3326.000000	96.199467 
3325.000000	96.202136 
3324.000000	96.204376 
3323.000000	96.205915 
3322.000000	96.207289 
3321.000000	96.209289 
3320.000000	96.212219 
3319.000000	96.215708 
3318.000000	96.219088 
3317.000000	96.221894 
3316.000000	96.224057 
3315.000000	96.225833 
3314.000000	96.227625 
3313.000000	96.229703 
3312.000000	96.231966 
3311.000000	96.234072 
3310.000000	96.235893 
3309.000000	96.237709 
3308.000000	96.239802 
3307.000000	96.241989 
3306.000000	96.243799 
3305.000000	96.245046 
3304.000000	96.246009 
3303.000000	96.247086 
3302.000000	96.248459 
3301.000000	96.250145 
3300.000000	96.252145 
3299.000000	96.254389 
3298.000000	96.256647 
3297.000000	96.258636 
3296.000000	96.260303 
3295.000000	96.261912 
3294.000000	96.263838 
3293.000000	96.266255 
3292.000000	96.268965 
3291.000000	96.271531 
3290.000000	96.273660 
3289.000000	96.275455 
3288.000000	96.277297 
3287.000000	96.279494 
3286.000000	96.282053 
3285.000000	96.284738 
3284.000000	96.287255 
3283.000000	96.289410 
3282.000000	96.291213 
3281.000000	96.292920 
3280.000000	96.294866 
3279.000000	96.297197 
3278.000000	96.299834 
3277.000000	96.302615 
3276.000000	96.305383 
3275.000000	96.307925 
3274.000000	96.310000 
3273.000000	96.311531 
3272.000000	96.312701 
3271.000000	96.313834 
3270.000000	96.315299 
3269.000000	96.317485 
3268.000000	96.320675 
3267.000000	96.324741 
3266.000000	96.328993 
3265.000000	96.332617 
3264.000000	96.335300 
3263.000000	96.337256 
3262.000000	96.338783 
3261.000000	96.340009 
3260.000000	96.341073 
3259.000000	96.342356 
3258.000000	96.344318 
3257.000000	96.347121 
3256.000000	96.350456 
3255.000000	96.353722 
3254.000000	96.356412 
3253.000000	96.358434 
3252.000000	96.360159 
3251.000000	96.362045 
3250.000000	96.364279 
3249.000000	96.366822 
3248.000000	96.369724 
3247.000000	96.373153 
3246.000000	96.377029 
3245.000000	96.380899 
3244.000000	96.384375 
3243.000000	96.387505 
3242.000000	96.390574 
3241.000000	96.393700 
3240.000000	96.396820 
3239.000000	96.400016 
3238.000000	96.403577 
3237.000000	96.407681 
3236.000000	96.412128 
3235.000000	96.416505 
3234.000000	96.420446 
3233.000000	96.423678 
3232.000000	96.426045 
3231.000000	96.427632 
3230.000000	96.428898 
3229.000000	96.430482 
3228.000000	96.432753 
3227.000000	96.435654 
3226.000000	96.438946 
3225.000000	96.442521 
3224.000000	96.446451 
3223.000000	96.450714 
3222.000000	96.454949 
3221.000000	96.458609 
3220.000000	96.461458 
3219.000000	96.463866 
3218.000000	96.466515 
3217.000000	96.469784 
3216.000000	96.473460 
3215.000000	96.477132 
3214.000000	96.480702 
3213.000000	96.484415 
3212.000000	96.488493 
3211.000000	96.492906 
3210.000000	96.497421 
3209.000000	96.501694 
3208.000000	96.505328 
3207.000000	96.508105 
3206.000000	96.510301 
3205.000000	96.512683 
3204.000000	96.515938 
3203.000000	96.520123 
3202.000000	96.524700 
3201.000000	96.529065 
3200.000000	96.532949 
3199.000000	96.536347 
3198.000000	96.539282 
3197.000000	96.541839 
3196.000000	96.544288 
3195.000000	96.547038 
3194.000000	96.550413 
3193.000000	96.554492 
3192.000000	96.559147 
3191.000000	96.564109 
3190.000000	96.569110 
3189.000000	96.573985 
3188.000000	96.578672 
3187.000000	96.583096 
3186.000000	96.587137 
3185.000000	96.590854 
3184.000000	96.594630 
3183.000000	96.598940 
3182.000000	96.603837 
3181.000000	96.608788 
3180.000000	96.613149 
3179.000000	96.616770 
3178.000000	96.620070 
3177.000000	96.623614 
3176.000000	96.627636 
3175.000000	96.631963 
3174.000000	96.636197 
3173.000000	96.639985 
3172.000000	96.643289 
3171.000000	96.646429 
3170.000000	96.649787 
3169.000000	96.653418 
3168.000000	96.657103 
3167.000000	96.660799 
3166.000000	96.664836 
3165.000000	96.669515 
3164.000000	96.674606 
3163.000000	96.679455 
3162.000000	96.683640 
3161.000000	96.687384 
3160.000000	96.691334 
3159.000000	96.695984 
3158.000000	96.701297 
3157.000000	96.706738 
3156.000000	96.711628 
3155.000000	96.715624 
3154.000000	96.718955 
3153.000000	96.722238 
3152.000000	96.725928 
3151.000000	96.729893 
3150.000000	96.733591 
3149.000000	96.736677 
3148.000000	96.739455 
3147.000000	96.742700 
3146.000000	96.746973 
3145.000000	96.752218 
3144.000000	96.757941 
3143.000000	96.763707 
3142.000000	96.769348 
3141.000000	96.774727 
3140.000000	96.779567 
3139.000000	96.783685 
3138.000000	96.787315 
3137.000000	96.791011 
3136.000000	96.795185 
3135.000000	96.799807 
3134.000000	96.804574 
3133.000000	96.809185 
3132.000000	96.813460 
3131.000000	96.817326 
3130.000000	96.820897 
3129.000000	96.824513 
3128.000000	96.828544 
3127.000000	96.833117 
3126.000000	96.838088 
3125.000000	96.843225 
3124.000000	96.848360 
3123.000000	96.853360 
3122.000000	96.858041 
3121.000000	96.862251 
3120.000000	96.866016 
3119.000000	96.869583 
3118.000000	96.873299 
3117.000000	96.877405 
3116.000000	96.881912 
3115.000000	96.886608 
3114.000000	96.891205 
3113.000000	96.895551 
3112.000000	96.899714 
3111.000000	96.903864 
3110.000000	96.908080 
3109.000000	96.912268 
3108.000000	96.916273 
3107.000000	96.920059 
3106.000000	96.923788 
3105.000000	96.927690 
3104.000000	96.931836 
3103.000000	96.936066 
3102.000000	96.940141 
3101.000000	96.944016 
3100.000000	96.947890 
3099.000000	96.951935 
3098.000000	96.956035 
3097.000000	96.959924 
3096.000000	96.963564 
3095.000000	96.967250 
3094.000000	96.971301 
3093.000000	96.975735 
3092.000000	96.980246 
3091.000000	96.984444 
3090.000000	96.988109 
3089.000000	96.991310 
3088.000000	96.994439 
3087.000000	96.998002 
3086.000000	97.002252 
3085.000000	97.006971 
3084.000000	97.011616 
3083.000000	97.015777 
3082.000000	97.019473 
3081.000000	97.023083 
3080.000000	97.026996 
3079.000000	97.031234 
3078.000000	97.035335 
3077.000000	97.038655 
3076.000000	97.040922 
3075.000000	97.042589 
3074.000000	97.044623 
3073.000000	97.047615 
3072.000000	97.051145 
3071.000000	97.054261 
3070.000000	97.056725 
3069.000000	97.059490 
3068.000000	97.063456 
3067.000000	97.068053 
3066.000000	97.071827 
3065.000000	97.074507 
3064.000000	97.077532 
3063.000000	97.081930 
3062.000000	97.086534 
3061.000000	97.089387 
3060.000000	97.090586 
3059.000000	97.092565 
3058.000000	97.097202 
3057.000000	97.103523 
3056.000000	97.108865 
3055.000000	97.111936 
3054.000000	97.114079 
3053.000000	97.117362 
3052.000000	97.122103 
3051.000000	97.126671 
3050.000000	97.129516 
3049.000000	97.130996 
3048.000000	97.133023 
3047.000000	97.137210 
3046.000000	97.143658 
3045.000000	97.151258 
3044.000000	97.158771 
3043.000000	97.165663 
3042.000000	97.172034 
3041.000000	97.177865 
3040.000000	97.182422 
3039.000000	97.185065 
3038.000000	97.186691 
3037.000000	97.189546 
3036.000000	97.195009 
3035.000000	97.202057 
3034.000000	97.208707 
3033.000000	97.214690 
3032.000000	97.221466 
3031.000000	97.229541 
3030.000000	97.237187 
3029.000000	97.242568 
3028.000000	97.246282 
3027.000000	97.250866 
3026.000000	97.258177 
3025.000000	97.267916 
3024.000000	97.278382 
3023.000000	97.288126 
3022.000000	97.296895 
3021.000000	97.305488 
3020.000000	97.314874 
3019.000000	97.325337 
3018.000000	97.336335 
3017.000000	97.347106 
3016.000000	97.357162 
3015.000000	97.366386 
3014.000000	97.375131 
3013.000000	97.384201 
3012.000000	97.394164 
3011.000000	97.404634 
3010.000000	97.414777 
3009.000000	97.424487 
3008.000000	97.434315 
3007.000000	97.444289 
3006.000000	97.453842 
3005.000000	97.463181 
3004.000000	97.473471 
3003.000000	97.484889 
3002.000000	97.495572 
3001.000000	97.503732 
3000.000000	97.510316 
2999.000000	97.518238 
2998.000000	97.528952 
2997.000000	97.540841 
2996.000000	97.551157 
2995.000000	97.558950 
2994.000000	97.565909 
2993.000000	97.574943 
2992.000000	97.587948 
2991.000000	97.604168 
2990.000000	97.620297 
2989.000000	97.632567 
2988.000000	97.639152 
2987.000000	97.640664 
2986.000000	97.638939 
2985.000000	97.635953 
2984.000000	97.633756 
2983.000000	97.634263 
2982.000000	97.638122 
2981.000000	97.643887 
2980.000000	97.649068 
2979.000000	97.652329 
2978.000000	97.654518 
2977.000000	97.657524 
2976.000000	97.662360 
2975.000000	97.668473 
2974.000000	97.674744 
2973.000000	97.680740 
2972.000000	97.686808 
2971.000000	97.693107 
2970.000000	97.698810 
2969.000000	97.702408 
2968.000000	97.702884 
2967.000000	97.700847 
2966.000000	97.698731 
2965.000000	97.699529 
2964.000000	97.704562 
2963.000000	97.712202 
2962.000000	97.718967 
2961.000000	97.722206 
2960.000000	97.721729 
2959.000000	97.719196 
2958.000000	97.716466 
2957.000000	97.714664 
2956.000000	97.714139 
2955.000000	97.714582 
2954.000000	97.715116 
2953.000000	97.714711 
2952.000000	97.712856 
2951.000000	97.710035 
2950.000000	97.707674 
2949.000000	97.707419 
2948.000000	97.709986 
2947.000000	97.714563 
2946.000000	97.719536 
2945.000000	97.723801 
2944.000000	97.727089 
2943.000000	97.729228 
2942.000000	97.729967 
2941.000000	97.729952 
2940.000000	97.731110 
2939.000000	97.735281 
2938.000000	97.742640 
2937.000000	97.751917 
2936.000000	97.761952 
2935.000000	97.772699 
2934.000000	97.784933 
2933.000000	97.799250 
2932.000000	97.814977 
2931.000000	97.829724 
2930.000000	97.840628 
2929.000000	97.846860 
2928.000000	97.850923 
2927.000000	97.856855 
2926.000000	97.866875 
2925.000000	97.879656 
2924.000000	97.891589 
2923.000000	97.899391 
2922.000000	97.901921 
2921.000000	97.900179 
2920.000000	97.895706 
2919.000000	97.888971 
2918.000000	97.879758 
2917.000000	97.869172 
2916.000000	97.860202 
2915.000000	97.855407 
2914.000000	97.854358 
2913.000000	97.854189 
2912.000000	97.852442 
2911.000000	97.848884 
2910.000000	97.844943 
2909.000000	97.842290 
2908.000000	97.842001 
2907.000000	97.844048 
2906.000000	97.847356 
2905.000000	97.850794 
2904.000000	97.854276 
2903.000000	97.858342 
2902.000000	97.862556 
2901.000000	97.864352 
2900.000000	97.861732 
2899.000000	97.854858 
2898.000000	97.846254 
2897.000000	97.838799 
2896.000000	97.833758 
2895.000000	97.830499 
2894.000000	97.827560 
2893.000000	97.823805 
2892.000000	97.818915 
2891.000000	97.813371 
2890.000000	97.808244 
2889.000000	97.804747 
2888.000000	97.803449 
2887.000000	97.803694 
2886.000000	97.804014 
2885.000000	97.803383 
2884.000000	97.801915 
2883.000000	97.800202 
2882.000000	97.798229 
2881.000000	97.795333 
2880.000000	97.791246 
2879.000000	97.786895 
2878.000000	97.783892 
2877.000000	97.783140 
2876.000000	97.783959 
2875.000000	97.784751 
2874.000000	97.784662 
2873.000000	97.784322 
2872.000000	97.784531 
2871.000000	97.784419 
2870.000000	97.781743 
2869.000000	97.775383 
2868.000000	97.767110 
2867.000000	97.760424 
2866.000000	97.757716 
2865.000000	97.758908 
2864.000000	97.762342 
2863.000000	97.766318 
2862.000000	97.769805 
2861.000000	97.772359 
2860.000000	97.774037 
2859.000000	97.775469 
2858.000000	97.777519 
2857.000000	97.780363 
2856.000000	97.782775 
2855.000000	97.782807 
2854.000000	97.779530 
2853.000000	97.773873 
2852.000000	97.767376 
2851.000000	97.760417 
2850.000000	97.752379 
2849.000000	97.743235 
2848.000000	97.733921 
2847.000000	97.725187 
2846.000000	97.717203 
2845.000000	97.710583 
2844.000000	97.706522 
2843.000000	97.705147 
2842.000000	97.704492 
2841.000000	97.701981 
2840.000000	97.696480 
2839.000000	97.688461 
2838.000000	97.679073 
2837.000000	97.669940 
2836.000000	97.663051 
2835.000000	97.659547 
2834.000000	97.658744 
2833.000000	97.659057 
2832.000000	97.659507 
2831.000000	97.659453 
2830.000000	97.657659 
2829.000000	97.653276 
2828.000000	97.647760 
2827.000000	97.644145 
2826.000000	97.643919 
2825.000000	97.645741 
2824.000000	97.647605 
2823.000000	97.649101 
2822.000000	97.650781 
2821.000000	97.652390 
2820.000000	97.652880 
2819.000000	97.651833 
2818.000000	97.649940 
2817.000000	97.648062 
2816.000000	97.646474 
2815.000000	97.645127 
2814.000000	97.644216 
2813.000000	97.644241 
2812.000000	97.645583 
2811.000000	97.648097 
2810.000000	97.651168 
2809.000000	97.654220 
2808.000000	97.657064 
2807.000000	97.659573 
2806.000000	97.661177 
2805.000000	97.661057 
2804.000000	97.659024 
2803.000000	97.656008 
2802.000000	97.653499 
2801.000000	97.652504 
2800.000000	97.653038 
2799.000000	97.654453 
2798.000000	97.656138 
2797.000000	97.657896 
2796.000000	97.659732 
2795.000000	97.661509 
2794.000000	97.663029 
2793.000000	97.664342 
2792.000000	97.665635 
2791.000000	97.666787 
2790.000000	97.667420 
2789.000000	97.667455 
2788.000000	97.667309 
2787.000000	97.667423 
2786.000000	97.667896 
2785.000000	97.668700 
2784.000000	97.669866 
2783.000000	97.671266 
2782.000000	97.672495 
2781.000000	97.673218 
2780.000000	97.673519 
2779.000000	97.673834 
2778.000000	97.674550 
2777.000000	97.675688 
2776.000000	97.676988 
2775.000000	97.678149 
2774.000000	97.679082 
2773.000000	97.679896 
2772.000000	97.680751 
2771.000000	97.681718 
2770.000000	97.682746 
2769.000000	97.683723 
2768.000000	97.684578 
2767.000000	97.685326 
2766.000000	97.686009 
2765.000000	97.686630 
2764.000000	97.687167 
2763.000000	97.687672 
2762.000000	97.688317 
2761.000000	97.689271 
2760.000000	97.690541 
2759.000000	97.691916 
2758.000000	97.693120 
2757.000000	97.694062 
2756.000000	97.694864 
2755.000000	97.695694 
2754.000000	97.696563 
2753.000000	97.697395 
2752.000000	97.698238 
2751.000000	97.699260 
2750.000000	97.700493 
2749.000000	97.701703 
2748.000000	97.702628 
2747.000000	97.703266 
2746.000000	97.703837 
2745.000000	97.704511 
2744.000000	97.705264 
2743.000000	97.705992 
2742.000000	97.706596 
2741.000000	97.706973 
2740.000000	97.707042 
2739.000000	97.706889 
2738.000000	97.706872 
2737.000000	97.707417 
2736.000000	97.708636 
2735.000000	97.710165 
2734.000000	97.711400 
2733.000000	97.712025 
2732.000000	97.712241 
2731.000000	97.712512 
2730.000000	97.713160 
2729.000000	97.714214 
2728.000000	97.715548 
2727.000000	97.716984 
2726.000000	97.718315 
2725.000000	97.719364 
2724.000000	97.720087 
2723.000000	97.720559 
2722.000000	97.720862 
2721.000000	97.721034 
2720.000000	97.721149 
2719.000000	97.721322 
2718.000000	97.721651 
2717.000000	97.722180 
2716.000000	97.722884 
2715.000000	97.723614 
2714.000000	97.724112 
2713.000000	97.724217 
2712.000000	97.724050 
2711.000000	97.723931 
2710.000000	97.724068 
2709.000000	97.724453 
2708.000000	97.725054 
2707.000000	97.725925 
2706.000000	97.726987 
2705.000000	97.727858 
2704.000000	97.728165 
2703.000000	97.728045 
2702.000000	97.728117 
2701.000000	97.728845 
2700.000000	97.730078 
2699.000000	97.731266 
2698.000000	97.731974 
2697.000000	97.732097 
2696.000000	97.731799 
2695.000000	97.731489 
2694.000000	97.731689 
2693.000000	97.732583 
2692.000000	97.733652 
2691.000000	97.734093 
2690.000000	97.733760 
2689.000000	97.733364 
2688.000000	97.733511 
2687.000000	97.733919 
2686.000000	97.733975 
2685.000000	97.733835 
2684.000000	97.734363 
2683.000000	97.735854 
2682.000000	97.737342 
2681.000000	97.737604 
2680.000000	97.736520 
2679.000000	97.735092 
2678.000000	97.734281 
2677.000000	97.734198 
2676.000000	97.734446 
2675.000000	97.734771 
2674.000000	97.735139 
2673.000000	97.735436 
2672.000000	97.735409 
2671.000000	97.734960 
2670.000000	97.734429 
2669.000000	97.734403 
2668.000000	97.735098 
2667.000000	97.735925 
2666.000000	97.735869 
2665.000000	97.734355 
2664.000000	97.731619 
2663.000000	97.728250 
2662.000000	97.724695 
2661.000000	97.721421 
2660.000000	97.719119 
2659.000000	97.718280 
2658.000000	97.718625 
2657.000000	97.719257 
2656.000000	97.719437 
2655.000000	97.718980 
2654.000000	97.718026 
2653.000000	97.716851 
2652.000000	97.715963 
2651.000000	97.715852 
2650.000000	97.716321 
2649.000000	97.716306 
2648.000000	97.714800 
2647.000000	97.711960 
2646.000000	97.709162 
2645.000000	97.707792 
2644.000000	97.708072 
2643.000000	97.709033 
2642.000000	97.709430 
2641.000000	97.708780 
2640.000000	97.707601 
2639.000000	97.706860 
2638.000000	97.707164 
2637.000000	97.708302 
2636.000000	97.709455 
2635.000000	97.709920 
2634.000000	97.709695 
2633.000000	97.709347 
2632.000000	97.709343 
2631.000000	97.709652 
2630.000000	97.710046 
2629.000000	97.710525 
2628.000000	97.711212 
2627.000000	97.711921 
2626.000000	97.712188 
2625.000000	97.711813 
2624.000000	97.711170 
2623.000000	97.710906 
2622.000000	97.711361 
2621.000000	97.712367 
2620.000000	97.713453 
2619.000000	97.714242 
2618.000000	97.714688 
2617.000000	97.714962 
2616.000000	97.715185 
2615.000000	97.715346 
2614.000000	97.715463 
2613.000000	97.715687 
2612.000000	97.716142 
2611.000000	97.716746 
2610.000000	97.717312 
2609.000000	97.717780 
2608.000000	97.718238 
2607.000000	97.718767 
2606.000000	97.719391 
2605.000000	97.720167 
2604.000000	97.721109 
2603.000000	97.722098 
2602.000000	97.722981 
2601.000000	97.723723 
2600.000000	97.724398 
2599.000000	97.725079 
2598.000000	97.725790 
2597.000000	97.726529 
2596.000000	97.727287 
2595.000000	97.728052 
2594.000000	97.728815 
2593.000000	97.729568 
2592.000000	97.730309 
2591.000000	97.731041 
2590.000000	97.731768 
2589.000000	97.732500 
2588.000000	97.733245 
2587.000000	97.734005 
2586.000000	97.734775 
2585.000000	97.735540 
2584.000000	97.736290 
2583.000000	97.737028 
2582.000000	97.737761 
2581.000000	97.738496 
2580.000000	97.739230 
2579.000000	97.739965 
2578.000000	97.740706 
2577.000000	97.741463 
2576.000000	97.742236 
2575.000000	97.743012 
2574.000000	97.743767 
2573.000000	97.744490 
2572.000000	97.745196 
2571.000000	97.745907 
2570.000000	97.746622 
2569.000000	97.747344 
2568.000000	97.748108 
2567.000000	97.748936 
2566.000000	97.749775 
2565.000000	97.750524 
2564.000000	97.751119 
2563.000000	97.751590 
2562.000000	97.752036 
2561.000000	97.752542 
2560.000000	97.753179 
2559.000000	97.753993 
2558.000000	97.754894 
2557.000000	97.755724 
2556.000000	97.756476 
2555.000000	97.757254 
2554.000000	97.757963 
2553.000000	97.758431 
2552.000000	97.758851 
2551.000000	97.759572 
2550.000000	97.760402 
2549.000000	97.760732 
2548.000000	97.760441 
2547.000000	97.760134 
2546.000000	97.760326 
2545.000000	97.760811 
2544.000000	97.761114 
2543.000000	97.761186 
2542.000000	97.761346 
2541.000000	97.761826 
2540.000000	97.762611 
2539.000000	97.763501 
2538.000000	97.764151 
2537.000000	97.764307 
2536.000000	97.764142 
2535.000000	97.764102 
2534.000000	97.764320 
2533.000000	97.764548 
2532.000000	97.764630 
2531.000000	97.764584 
2530.000000	97.764234 
2529.000000	97.763334 
2528.000000	97.762186 
2527.000000	97.761559 
2526.000000	97.761702 
2525.000000	97.761923 
2524.000000	97.761533 
2523.000000	97.760880 
2522.000000	97.760896 
2521.000000	97.761960 
2520.000000	97.763728 
2519.000000	97.765641 
2518.000000	97.767117 
2517.000000	97.767685 
2516.000000	97.767444 
2515.000000	97.767307 
2514.000000	97.768314 
2513.000000	97.770608 
2512.000000	97.773141 
2511.000000	97.774432 
2510.000000	97.773740 
2509.000000	97.771675 
2508.000000	97.769848 
2507.000000	97.769411 
2506.000000	97.770052 
2505.000000	97.770664 
2504.000000	97.770802 
2503.000000	97.770897 
2502.000000	97.771128 
2501.000000	97.771051 
2500.000000	97.770625 
2499.000000	97.770749 
2498.000000	97.772236 
2497.000000	97.774816 
2496.000000	97.777534 
2495.000000	97.779604 
2494.000000	97.780628 
2493.000000	97.780715 
2492.000000	97.780851 
2491.000000	97.782471 
2490.000000	97.785995 
2489.000000	97.790091 
2488.000000	97.792982 
2487.000000	97.794239 
2486.000000	97.794699 
2485.000000	97.795004 
2484.000000	97.794866 
2483.000000	97.793751 
2482.000000	97.791731 
2481.000000	97.789660 
2480.000000	97.788787 
2479.000000	97.789889 
2478.000000	97.792507 
2477.000000	97.795113 
2476.000000	97.796391 
2475.000000	97.796195 
2474.000000	97.795185 
2473.000000	97.794019 
2472.000000	97.793117 
2471.000000	97.792773 
2470.000000	97.793012 
2469.000000	97.793522 
2468.000000	97.794015 
2467.000000	97.794377 
2466.000000	97.794318 
2465.000000	97.793407 
2464.000000	97.791835 
2463.000000	97.790695 
2462.000000	97.790915 
2461.000000	97.792222 
2460.000000	97.793458 
2459.000000	97.793774 
2458.000000	97.793221 
2457.000000	97.792412 
2456.000000	97.792036 
2455.000000	97.792509 
2454.000000	97.793666 
2453.000000	97.794773 
2452.000000	97.795186 
2451.000000	97.795005 
2450.000000	97.794851 
2449.000000	97.795128 
2448.000000	97.795773 
2447.000000	97.796635 
2446.000000	97.797731 
2445.000000	97.799105 
2444.000000	97.800642 
2443.000000	97.802099 
2442.000000	97.803158 
2441.000000	97.803519 
2440.000000	97.803129 
2439.000000	97.802396 
2438.000000	97.802025 
2437.000000	97.802414 
2436.000000	97.803350 
2435.000000	97.804277 
2434.000000	97.804852 
2433.000000	97.805193 
2432.000000	97.805674 
2431.000000	97.806540 
2430.000000	97.807628 
2429.000000	97.808467 
2428.000000	97.808747 
2427.000000	97.808707 
2426.000000	97.808942 
2425.000000	97.809804 
2424.000000	97.811097 
2423.000000	97.812331 
2422.000000	97.813254 
2421.000000	97.814103 
2420.000000	97.815346 
2419.000000	97.817109 
2418.000000	97.818860 
2417.000000	97.819882 
2416.000000	97.820147 
2415.000000	97.820501 
2414.000000	97.821754 
2413.000000	97.823824 
2412.000000	97.825972 
2411.000000	97.827642 
2410.000000	97.828759 
2409.000000	97.829432 
2408.000000	97.829748 
2407.000000	97.829757 
2406.000000	97.829399 
2405.000000	97.828531 
2404.000000	97.827337 
2403.000000	97.826503 
2402.000000	97.826581 
2401.000000	97.827335 
2400.000000	97.828189 
2399.000000	97.829190 
2398.000000	97.830864 
2397.000000	97.833087 
2396.000000	97.834784 
2395.000000	97.835114 
2394.000000	97.834589 
2393.000000	97.834492 
2392.000000	97.835455 
2391.000000	97.837280 
2390.000000	97.839378 
2389.000000	97.841350 
2388.000000	97.843216 
2387.000000	97.845115 
2386.000000	97.847064 
2385.000000	97.848988 
2384.000000	97.850688 
2383.000000	97.851972 
2382.000000	97.852805 
2381.000000	97.853320 
2380.000000	97.853753 
2379.000000	97.854292 
2378.000000	97.854972 
2377.000000	97.855738 
2376.000000	97.856553 
2375.000000	97.857407 
2374.000000	97.858259 
2373.000000	97.859060 
2372.000000	97.859805 
2371.000000	97.860517 
2370.000000	97.861204 
2369.000000	97.861865 
2368.000000	97.862494 
2367.000000	97.863082 
2366.000000	97.863615 
2365.000000	97.864084 
2364.000000	97.864486 
2363.000000	97.864828 
2362.000000	97.865113 
2361.000000	97.865346 
2360.000000	97.865530 
2359.000000	97.865669 
2358.000000	97.865758 
2357.000000	97.865787 
2356.000000	97.865744 
2355.000000	97.865622 
2354.000000	97.865416 
2353.000000	97.865133 
2352.000000	97.864785 
2351.000000	97.864381 
2350.000000	97.863904 
2349.000000	97.863329 
2348.000000	97.862639 
2347.000000	97.861843 
2346.000000	97.860969 
2345.000000	97.860047 
2344.000000	97.859093 
2343.000000	97.858091 
2342.000000	97.857021 
2341.000000	97.855873 
2340.000000	97.854651 
2339.000000	97.853370 
2338.000000	97.852036 
2337.000000	97.850647 
2336.000000	97.849201 
2335.000000	97.847692 
2334.000000	97.846113 
2333.000000	97.844462 
2332.000000	97.842744 
2331.000000	97.840958 
2330.000000	97.839120 
2329.000000	97.837244 
2328.000000	97.835289 
2327.000000	97.833163 
2326.000000	97.830714 
2325.000000	97.827848 
2324.000000	97.824907 
2323.000000	97.822433 
2322.000000	97.820586 
2321.000000	97.818894 
2320.000000	97.817310 
2319.000000	97.816276 
2318.000000	97.815860 
2317.000000	97.815238 
2316.000000	97.813644 
2315.000000	97.810941 
2314.000000	97.807341 
2313.000000	97.803246 
2312.000000	97.799378 
2311.000000	97.796251 
2310.000000	97.793414 
2309.000000	97.790595 
2308.000000	97.788544 
2307.000000	97.787963 
2306.000000	97.787833 
2305.000000	97.786712 
2304.000000	97.784769 
2303.000000	97.782994 
2302.000000	97.781202 
2301.000000	97.778561 
2300.000000	97.775103 
2299.000000	97.770934 
2298.000000	97.765424 
2297.000000	97.758315 
2296.000000	97.751330 
2295.000000	97.746014 
2294.000000	97.741486 
2293.000000	97.735863 
2292.000000	97.729891 
2291.000000	97.725758 
2290.000000	97.723441 
2289.000000	97.720684 
2288.000000	97.716665 
2287.000000	97.712895 
2286.000000	97.710582 
2285.000000	97.709721 
2284.000000	97.710566 
2283.000000	97.713615 
2282.000000	97.717900 
2281.000000	97.721954 
2280.000000	97.726010 
2279.000000	97.730816 
2278.000000	97.734641 
2277.000000	97.734757 
2276.000000	97.732077 
2275.000000	97.730784 
2274.000000	97.732785 
2273.000000	97.735762 
2272.000000	97.737458 
2271.000000	97.738721 
2270.000000	97.741363 
2269.000000	97.745528 
2268.000000	97.750205 
2267.000000	97.754003 
2266.000000	97.755072 
2265.000000	97.752732 
2264.000000	97.749295 
2263.000000	97.747965 
2262.000000	97.748673 
2261.000000	97.748269 
2260.000000	97.745031 
2259.000000	97.740628 
2258.000000	97.737471 
2257.000000	97.736138 
2256.000000	97.736025 
2255.000000	97.736705 
2254.000000	97.737928 
2253.000000	97.739489 
2252.000000	97.741560 
2251.000000	97.744244 
2250.000000	97.746788 
2249.000000	97.748135 
2248.000000	97.748318 
2247.000000	97.748140 
2246.000000	97.747949 
2245.000000	97.747336 
2244.000000	97.746074 
2243.000000	97.744577 
2242.000000	97.743447 
2241.000000	97.743013 
2240.000000	97.743363 
2239.000000	97.744405 
2238.000000	97.745713 
2237.000000	97.746610 
2236.000000	97.746720 
2235.000000	97.746309 
2234.000000	97.746017 
2233.000000	97.746383 
2232.000000	97.747589 
2231.000000	97.749314 
2230.000000	97.750716 
2229.000000	97.750941 
2228.000000	97.749741 
2227.000000	97.747428 
2226.000000	97.744368 
2225.000000	97.741160 
2224.000000	97.739323 
2223.000000	97.740455 
2222.000000	97.744330 
2221.000000	97.748413 
2220.000000	97.750081 
2219.000000	97.749121 
2218.000000	97.747488 
2217.000000	97.747162 
2216.000000	97.748562 
2215.000000	97.750794 
2214.000000	97.752779 
2213.000000	97.754000 
2212.000000	97.754345 
2211.000000	97.753684 
2210.000000	97.752168 
2209.000000	97.751017 
2208.000000	97.752099 
2207.000000	97.755934 
2206.000000	97.760694 
2205.000000	97.764191 
2204.000000	97.766420 
2203.000000	97.768751 
2202.000000	97.771003 
2201.000000	97.771456 
2200.000000	97.769441 
2199.000000	97.765990 
2198.000000	97.761966 
2197.000000	97.757459 
2196.000000	97.753489 
2195.000000	97.751791 
2194.000000	97.752252 
2193.000000	97.752359 
2192.000000	97.749775 
2191.000000	97.744328 
2190.000000	97.737607 
2189.000000	97.731923 
2188.000000	97.729243 
2187.000000	97.729867 
2186.000000	97.732668 
2185.000000	97.737523 
2184.000000	97.745878 
2183.000000	97.756982 
2182.000000	97.765586 
2181.000000	97.766765 
2180.000000	97.761947 
2179.000000	97.756992 
2178.000000	97.755513 
2177.000000	97.757553 
2176.000000	97.763095 
2175.000000	97.771959 
2174.000000	97.780383 
2173.000000	97.782705 
2172.000000	97.777835 
2171.000000	97.770478 
2170.000000	97.765119 
2169.000000	97.761940 
2168.000000	97.759311 
2167.000000	97.756680 
2166.000000	97.753571 
2165.000000	97.748738 
2164.000000	97.742169 
2163.000000	97.736279 
2162.000000	97.734919 
2161.000000	97.743194 
2160.000000	97.766543 
2159.000000	97.804937 
2158.000000	97.846906 
2157.000000	97.876108 
2156.000000	97.886028 
2155.000000	97.882158 
2154.000000	97.873224 
2153.000000	97.864547 
2152.000000	97.858588 
2151.000000	97.856181 
2150.000000	97.855295 
2149.000000	97.852705 
2148.000000	97.848950 
2147.000000	97.848570 
2146.000000	97.854108 
2145.000000	97.863057 
2144.000000	97.871979 
2143.000000	97.880148 
2142.000000	97.887111 
2141.000000	97.890001 
2140.000000	97.886347 
2139.000000	97.878052 
2138.000000	97.870533 
2137.000000	97.868343 
2136.000000	97.872128 
2135.000000	97.878586 
2134.000000	97.882830 
2133.000000	97.882338 
2132.000000	97.879115 
2131.000000	97.876758 
2130.000000	97.875544 
2129.000000	97.872265 
2128.000000	97.864975 
2127.000000	97.855895 
2126.000000	97.849057 
2125.000000	97.846451 
2124.000000	97.847029 
2123.000000	97.848238 
2122.000000	97.847971 
2121.000000	97.845907 
2120.000000	97.843218 
2119.000000	97.840404 
2118.000000	97.835975 
2117.000000	97.828578 
2116.000000	97.819953 
2115.000000	97.813804 
2114.000000	97.812109 
2113.000000	97.813926 
2112.000000	97.817751 
2111.000000	97.822873 
2110.000000	97.827519 
2109.000000	97.828624 
2108.000000	97.824895 
2107.000000	97.818530 
2106.000000	97.812971 
2105.000000	97.809840 
2104.000000	97.808515 
2103.000000	97.807523 
2102.000000	97.805715 
2101.000000	97.802972 
2100.000000	97.800325 
2099.000000	97.799144 
2098.000000	97.800417 
2097.000000	97.805081 
2096.000000	97.813858 
2095.000000	97.825238 
2094.000000	97.834517 
2093.000000	97.837478 
2092.000000	97.834291 
2091.000000	97.828696 
2090.000000	97.824027 
2089.000000	97.820652 
2088.000000	97.817280 
2087.000000	97.813065 
2086.000000	97.808256 
2085.000000	97.804261 
2084.000000	97.803223 
2083.000000	97.806247 
2082.000000	97.811712 
2081.000000	97.816326 
2080.000000	97.818383 
2079.000000	97.818731 
2078.000000	97.818693 
2077.000000	97.818724 
2076.000000	97.819125 
2075.000000	97.820331 
2074.000000	97.821948 
2073.000000	97.822856 
2072.000000	97.822845 
2071.000000	97.823138 
2070.000000	97.824869 
2069.000000	97.827962 
2068.000000	97.831767 
2067.000000	97.835643 
2066.000000	97.838639 
2065.000000	97.840066 
2064.000000	97.840899 
2063.000000	97.843072 
2062.000000	97.846762 
2061.000000	97.849757 
2060.000000	97.850134 
2059.000000	97.848362 
2058.000000	97.846447 
2057.000000	97.846253 
2056.000000	97.848783 
2055.000000	97.853420 
2054.000000	97.857154 
2053.000000	97.856296 
2052.000000	97.849882 
2051.000000	97.840706 
2050.000000	97.833022 
2049.000000	97.829890 
2048.000000	97.832914 
2047.000000	97.842167 
2046.000000	97.854959 
2045.000000	97.866318 
2044.000000	97.872642 
2043.000000	97.873915 
2042.000000	97.872090 
2041.000000	97.869373 
2040.000000	97.868430 
2039.000000	97.871867 
2038.000000	97.880078 
2037.000000	97.890646 
2036.000000	97.900728 
2035.000000	97.909012 
2034.000000	97.914979 
2033.000000	97.918411 
2032.000000	97.920168 
2031.000000	97.921175 
2030.000000	97.920515 
2029.000000	97.917279 
2028.000000	97.914024 
2027.000000	97.914742 
2026.000000	97.918967 
2025.000000	97.921520 
2024.000000	97.919367 
2023.000000	97.915441 
2022.000000	97.914245 
2021.000000	97.916249 
2020.000000	97.918335 
2019.000000	97.917551 
2018.000000	97.912978 
2017.000000	97.906230 
2016.000000	97.901520 
2015.000000	97.902891 
2014.000000	97.910426 
2013.000000	97.920109 
2012.000000	97.927252 
2011.000000	97.929103 
2010.000000	97.925530 
2009.000000	97.920263 
2008.000000	97.919474 
2007.000000	97.924385 
2006.000000	97.927417 
2005.000000	97.921228 
2004.000000	97.909306 
2003.000000	97.901355 
2002.000000	97.899550 
2001.000000	97.897314 
2000.000000	97.891191 
1999.000000	97.885311 
1998.000000	97.882503 
1997.000000	97.879534 
1996.000000	97.874008 
1995.000000	97.869044 
1994.000000	97.866983 
1993.000000	97.864162 
1992.000000	97.856986 
1991.000000	97.849052 
1990.000000	97.846532 
1989.000000	97.849830 
1988.000000	97.853677 
1987.000000	97.853303 
1986.000000	97.848508 
1985.000000	97.843268 
1984.000000	97.842247 
1983.000000	97.845724 
1982.000000	97.848562 
1981.000000	97.847545 
1980.000000	97.848124 
1979.000000	97.858205 
1978.000000	97.876394 
1977.000000	97.893042 
1976.000000	97.903707 
1975.000000	97.913080 
1974.000000	97.923797 
1973.000000	97.930849 
1972.000000	97.930194 
1971.000000	97.924770 
1970.000000	97.918400 
1969.000000	97.910207 
1968.000000	97.899243 
1967.000000	97.889297 
1966.000000	97.884397 
1965.000000	97.883635 
1964.000000	97.884070 
1963.000000	97.885233 
1962.000000	97.888255 
1961.000000	97.893090 
1960.000000	97.898244 
1959.000000	97.901345 
1958.000000	97.899610 
1957.000000	97.892603 
1956.000000	97.884800 
1955.000000	97.881983 
1954.000000	97.884213 
1953.000000	97.885424 
1952.000000	97.881047 
1951.000000	97.873132 
1950.000000	97.866833 
1949.000000	97.864681 
1948.000000	97.866038 
1947.000000	97.869315 
1946.000000	97.872898 
1945.000000	97.875737 
1944.000000	97.878009 
1943.000000	97.879999 
1942.000000	97.880169 
1941.000000	97.876592 
1940.000000	97.870049 
1939.000000	97.863580 
1938.000000	97.859293 
1937.000000	97.856941 
1936.000000	97.855441 
1935.000000	97.854254 
1934.000000	97.853026 
1933.000000	97.851150 
1932.000000	97.848577 
1931.000000	97.846002 
1930.000000	97.843692 
1929.000000	97.841230 
1928.000000	97.838598 
1927.000000	97.836439 
1926.000000	97.834940 
1925.000000	97.833281 
1924.000000	97.830860 
1923.000000	97.828541 
1922.000000	97.827326 
1921.000000	97.826690 
1920.000000	97.825371 
1919.000000	97.822888 
1918.000000	97.819580 
1917.000000	97.816094 
1916.000000	97.813511 
1915.000000	97.812587 
1914.000000	97.812346 
1913.000000	97.810795 
1912.000000	97.807506 
1911.000000	97.804200 
1910.000000	97.801741 
1909.000000	97.798858 
1908.000000	97.794949 
1907.000000	97.791202 
1906.000000	97.788094 
1905.000000	97.784360 
1904.000000	97.779574 
1903.000000	97.775165 
1902.000000	97.771422 
1901.000000	97.767040 
1900.000000	97.762354 
1899.000000	97.759729 
1898.000000	97.759799 
1897.000000	97.759836 
1896.000000	97.757516 
1895.000000	97.753798 
1894.000000	97.750067 
1893.000000	97.745901 
1892.000000	97.741220 
1891.000000	97.737421 
1890.000000	97.735291 
1889.000000	97.734160 
1888.000000	97.734216 
1887.000000	97.736157 
1886.000000	97.738027 
1885.000000	97.736217 
1884.000000	97.730513 
1883.000000	97.725016 
1882.000000	97.722680 
1881.000000	97.722649 
1880.000000	97.723378 
1879.000000	97.724710 
1878.000000	97.726109 
1877.000000	97.726068 
1876.000000	97.724854 
1875.000000	97.725026 
1874.000000	97.727237 
1873.000000	97.728476 
1872.000000	97.726646 
1871.000000	97.723565 
1870.000000	97.721428 
1869.000000	97.719504 
1868.000000	97.717711 
1867.000000	97.718557 
1866.000000	97.722019 
1865.000000	97.724852 
1864.000000	97.725767 
1863.000000	97.727248 
1862.000000	97.730699 
1861.000000	97.733245 
1860.000000	97.732308 
1859.000000	97.730088 
1858.000000	97.729967 
1857.000000	97.731670 
1856.000000	97.733065 
1855.000000	97.733710 
1854.000000	97.734191 
1853.000000	97.734619 
1852.000000	97.735703 
1851.000000	97.738848 
1850.000000	97.744084 
1849.000000	97.749828 
1848.000000	97.754781 
1847.000000	97.758946 
1846.000000	97.761987 
1845.000000	97.762928 
1844.000000	97.762655 
1843.000000	97.763717 
1842.000000	97.766046 
1841.000000	97.767496 
1840.000000	97.767107 
1839.000000	97.765818 
1838.000000	97.764856 
1837.000000	97.764173 
1836.000000	97.763802 
1835.000000	97.764757 
1834.000000	97.767061 
1833.000000	97.768870 
1832.000000	97.768159 
1831.000000	97.765033 
1830.000000	97.762119 
1829.000000	97.761469 
1828.000000	97.762398 
1827.000000	97.763844 
1826.000000	97.765574 
1825.000000	97.767001 
1824.000000	97.767442 
1823.000000	97.767637 
1822.000000	97.768698 
1821.000000	97.770317 
1820.000000	97.771636 
1819.000000	97.773278 
1818.000000	97.775924 
1817.000000	97.777611 
1816.000000	97.776312 
1815.000000	97.773367 
1814.000000	97.771504 
1813.000000	97.770955 
1812.000000	97.770137 
1811.000000	97.769354 
1810.000000	97.769796 
1809.000000	97.770077 
1808.000000	97.768785 
1807.000000	97.767400 
1806.000000	97.767465 
1805.000000	97.767878 
1804.000000	97.767213 
1803.000000	97.766488 
1802.000000	97.767286 
1801.000000	97.768812 
1800.000000	97.769396 
1799.000000	97.769556 
1798.000000	97.770260 
1797.000000	97.770879 
1796.000000	97.771236 
1795.000000	97.772710 
1794.000000	97.776049 
1793.000000	97.779393 
1792.000000	97.780427 
1791.000000	97.780357 
1790.000000	97.781174 
1789.000000	97.782069 
1788.000000	97.781927 
1787.000000	97.781864 
1786.000000	97.783454 
1785.000000	97.785721 
1784.000000	97.786746 
1783.000000	97.786724 
1782.000000	97.787147 
1781.000000	97.788822 
1780.000000	97.791496 
1779.000000	97.794680 
1778.000000	97.797829 
1777.000000	97.800150 
1776.000000	97.801198 
1775.000000	97.801005 
1774.000000	97.800374 
1773.000000	97.801150 
1772.000000	97.803781 
1771.000000	97.807414 
1770.000000	97.812693 
1769.000000	97.819793 
1768.000000	97.826198 
1767.000000	97.829732 
1766.000000	97.831027 
1765.000000	97.831160 
1764.000000	97.829598 
1763.000000	97.826507 
1762.000000	97.825462 
1761.000000	97.829060 
1760.000000	97.834610 
1759.000000	97.838975 
1758.000000	97.842648 
1757.000000	97.847760 
1756.000000	97.853517 
1755.000000	97.857232 
1754.000000	97.860346 
1753.000000	97.866719 
1752.000000	97.875487 
1751.000000	97.880047 
1750.000000	97.878137 
1749.000000	97.875109 
1748.000000	97.874107 
1747.000000	97.872615 
1746.000000	97.870049 
1745.000000	97.869865 
1744.000000	97.872261 
1743.000000	97.873233 
1742.000000	97.871683 
1741.000000	97.870266 
1740.000000	97.870221 
1739.000000	97.870381 
1738.000000	97.870292 
1737.000000	97.869894 
1736.000000	97.868822 
1735.000000	97.868101 
1734.000000	97.868530 
1733.000000	97.867774 
1732.000000	97.864383 
1731.000000	97.859473 
1730.000000	97.855341 
1729.000000	97.853921 
1728.000000	97.854291 
1727.000000	97.853575 
1726.000000	97.850848 
1725.000000	97.847616 
1724.000000	97.844873 
1723.000000	97.842746 
1722.000000	97.841345 
1721.000000	97.839902 
1720.000000	97.837431 
1719.000000	97.834701 
1718.000000	97.833501 
1717.000000	97.830239 
1716.000000	97.822931 
1715.000000	97.816968 
1714.000000	97.814388 
1713.000000	97.811743 
1712.000000	97.807265 
1711.000000	97.802414 
1710.000000	97.798502 
1709.000000	97.794600 
1708.000000	97.789528 
1707.000000	97.784198 
1706.000000	97.779716 
1705.000000	97.774879 
1704.000000	97.768680 
1703.000000	97.762519 
1702.000000	97.757589 
1701.000000	97.753367 
1700.000000	97.748281 
1699.000000	97.743765 
1698.000000	97.740633 
1697.000000	97.736727 
1696.000000	97.730849 
1695.000000	97.724208 
1694.000000	97.718043 
1693.000000	97.711863 
1692.000000	97.705344 
1691.000000	97.699207 
1690.000000	97.694335 
1689.000000	97.690411 
1688.000000	97.686093 
1687.000000	97.680410 
1686.000000	97.672711 
1685.000000	97.663106 
1684.000000	97.654151 
1683.000000	97.648403 
1682.000000	97.643332 
1681.000000	97.638612 
1680.000000	97.634570 
1679.000000	97.630004 
1678.000000	97.623188 
1677.000000	97.615361 
1676.000000	97.610432 
1675.000000	97.608382 
1674.000000	97.605518 
1673.000000	97.600654 
1672.000000	97.593480 
1671.000000	97.582831 
1670.000000	97.568478 
1669.000000	97.555898 
1668.000000	97.551093 
1667.000000	97.549996 
1666.000000	97.545947 
1665.000000	97.536379 
1664.000000	97.523746 
1663.000000	97.512819 
1662.000000	97.503679 
1661.000000	97.495162 
1660.000000	97.489385 
1659.000000	97.484235 
1658.000000	97.475140 
1657.000000	97.462009 
1656.000000	97.449015 
1655.000000	97.433553 
1654.000000	97.412651 
1653.000000	97.393755 
1652.000000	97.385825 
1651.000000	97.384507 
1650.000000	97.386738 
1649.000000	97.387223 
1648.000000	97.384787 
1647.000000	97.380130 
1646.000000	97.374889 
1645.000000	97.368879 
1644.000000	97.364262 
1643.000000	97.363500 
1642.000000	97.364259 
1641.000000	97.363440 
1640.000000	97.362272 
1639.000000	97.362379 
1638.000000	97.362599 
1637.000000	97.362353 
1636.000000	97.366112 
1635.000000	97.370740 
1634.000000	97.370326 
1633.000000	97.369545 
1632.000000	97.375294 
1631.000000	97.387207 
1630.000000	97.398313 
1629.000000	97.403793 
1628.000000	97.407469 
1627.000000	97.413162 
1626.000000	97.418611 
1625.000000	97.423955 
1624.000000	97.435804 
1623.000000	97.456015 
1622.000000	97.475246 
1621.000000	97.489354 
1620.000000	97.503595 
1619.000000	97.519871 
1618.000000	97.533794 
1617.000000	97.544565 
1616.000000	97.558411 
1615.000000	97.572323 
1614.000000	97.579755 
1613.000000	97.586440 
1612.000000	97.602349 
1611.000000	97.626331 
1610.000000	97.645249 
1609.000000	97.654997 
1608.000000	97.665330 
1607.000000	97.679478 
1606.000000	97.689966 
1605.000000	97.696212 
1604.000000	97.705950 
1603.000000	97.719612 
1602.000000	97.730571 
1601.000000	97.738264 
1600.000000	97.747740 
1599.000000	97.757740 
1598.000000	97.762699 
1597.000000	97.763983 
1596.000000	97.768724 
1595.000000	97.778619 
1594.000000	97.788043 
1593.000000	97.794607 
1592.000000	97.801791 
1591.000000	97.810384 
1590.000000	97.816626 
1589.000000	97.820413 
1588.000000	97.826426 
1587.000000	97.835640 
1586.000000	97.843628 
1585.000000	97.848826 
1584.000000	97.854809 
1583.000000	97.862306 
1582.000000	97.867580 
1581.000000	97.870646 
1580.000000	97.875191 
1579.000000	97.880585 
1578.000000	97.882326 
1577.000000	97.881121 
1576.000000	97.883643 
1575.000000	97.888987 
1574.000000	97.890956 
1573.000000	97.890556 
1572.000000	97.891340 
1571.000000	97.894268 
1570.000000	97.897842 
1569.000000	97.902612 
1568.000000	97.909571 
1567.000000	97.914892 
1566.000000	97.915904 
1565.000000	97.915018 
1564.000000	97.915694 
1563.000000	97.916932 
1562.000000	97.916012 
1561.000000	97.915609 
1560.000000	97.922924 
1559.000000	97.933292 
1558.000000	97.930949 
1557.000000	97.921595 
1556.000000	97.916984 
1555.000000	97.916666 
1554.000000	97.916256 
1553.000000	97.914842 
1552.000000	97.913841 
1551.000000	97.913997 
1550.000000	97.914849 
1549.000000	97.915662 
1548.000000	97.916222 
1547.000000	97.916283 
1546.000000	97.914706 
1545.000000	97.910437 
1544.000000	97.904704 
1543.000000	97.900383 
1542.000000	97.898633 
1541.000000	97.896751 
1540.000000	97.894087 
1539.000000	97.891550 
1538.000000	97.886128 
1537.000000	97.877684 
1536.000000	97.868399 
1535.000000	97.860316 
1534.000000	97.854093 
1533.000000	97.848531 
1532.000000	97.842978 
1531.000000	97.839095 
1530.000000	97.836533 
1529.000000	97.831872 
1528.000000	97.824062 
1527.000000	97.816121 
1526.000000	97.810385 
1525.000000	97.804581 
1524.000000	97.796695 
1523.000000	97.788740 
1522.000000	97.783279 
1521.000000	97.777921 
1520.000000	97.769642 
1519.000000	97.760546 
1518.000000	97.753964 
1517.000000	97.749813 
1516.000000	97.745756 
1515.000000	97.741002 
1514.000000	97.737066 
1513.000000	97.733369 
1512.000000	97.726418 
1511.000000	97.716695 
1510.000000	97.708462 
1509.000000	97.702502 
1508.000000	97.694691 
1507.000000	97.686256 
1506.000000	97.679387 
1505.000000	97.668808 
1504.000000	97.655687 
1503.000000	97.643525 
1502.000000	97.632842 
1501.000000	97.622445 
1500.000000	97.610457 
1499.000000	97.597717 
1498.000000	97.588610 
1497.000000	97.583996 
1496.000000	97.579095 
1495.000000	97.572488 
1494.000000	97.566658 
1493.000000	97.561476 
1492.000000	97.554334 
1491.000000	97.544033 
1490.000000	97.532200 
1489.000000	97.519775 
1488.000000	97.506832 
1487.000000	97.495706 
1486.000000	97.486933 
1485.000000	97.478597 
1484.000000	97.470155 
1483.000000	97.462294 
1482.000000	97.455376 
1481.000000	97.448164 
1480.000000	97.439593 
1479.000000	97.431148 
1478.000000	97.424665 
1477.000000	97.418987 
1476.000000	97.411953 
1475.000000	97.405548 
1474.000000	97.401135 
1473.000000	97.394889 
1472.000000	97.382664 
1471.000000	97.369122 
1470.000000	97.360078 
1469.000000	97.353500 
1468.000000	97.344282 
1467.000000	97.332908 
1466.000000	97.323796 
1465.000000	97.317272 
1464.000000	97.309508 
1463.000000	97.298894 
1462.000000	97.288078 
1461.000000	97.277125 
1460.000000	97.263405 
1459.000000	97.246174 
1458.000000	97.234761 
1457.000000	97.239732 
1456.000000	97.248806 
1455.000000	97.247209 
1454.000000	97.238973 
1453.000000	97.229160 
1452.000000	97.217293 
1451.000000	97.203382 
1450.000000	97.191506 
1449.000000	97.182307 
1448.000000	97.169702 
1447.000000	97.152122 
1446.000000	97.135553 
1445.000000	97.124484 
1444.000000	97.116559 
1443.000000	97.107085 
1442.000000	97.097221 
1441.000000	97.091250 
1440.000000	97.087517 
1439.000000	97.080383 
1438.000000	97.072729 
1437.000000	97.072615 
1436.000000	97.076786 
1435.000000	97.076337 
1434.000000	97.072892 
1433.000000	97.070098 
1432.000000	97.068003 
1431.000000	97.065213 
1430.000000	97.065314 
1429.000000	97.072372 
1428.000000	97.081759 
1427.000000	97.087400 
1426.000000	97.091052 
1425.000000	97.101900 
1424.000000	97.120563 
1423.000000	97.134561 
1422.000000	97.140111 
1421.000000	97.147363 
1420.000000	97.163654 
1419.000000	97.183416 
1418.000000	97.203969 
1417.000000	97.226358 
1416.000000	97.244788 
1415.000000	97.254864 
1414.000000	97.260647 
1413.000000	97.270400 
1412.000000	97.284967 
1411.000000	97.298505 
1410.000000	97.311328 
1409.000000	97.327579 
1408.000000	97.344774 
1407.000000	97.358430 
1406.000000	97.370067 
1405.000000	97.385848 
1404.000000	97.403675 
1403.000000	97.414770 
1402.000000	97.419920 
1401.000000	97.427428 
1400.000000	97.440706 
1399.000000	97.454339 
1398.000000	97.466204 
1397.000000	97.482200 
1396.000000	97.505445 
1395.000000	97.529138 
1394.000000	97.544574 
1393.000000	97.553256 
1392.000000	97.559459 
1391.000000	97.564431 
1390.000000	97.569712 
1389.000000	97.578670 
1388.000000	97.593189 
1387.000000	97.610900 
1386.000000	97.627796 
1385.000000	97.642613 
1384.000000	97.655492 
1383.000000	97.665666 
1382.000000	97.673628 
1381.000000	97.681396 
1380.000000	97.690301 
1379.000000	97.698834 
1378.000000	97.704567 
1377.000000	97.708196 
1376.000000	97.712994 
1375.000000	97.720275 
1374.000000	97.728046 
1373.000000	97.734539 
1372.000000	97.739137 
1371.000000	97.741244 
1370.000000	97.740374 
1369.000000	97.740259 
1368.000000	97.745171 
1367.000000	97.753454 
1366.000000	97.760154 
1365.000000	97.763210 
1364.000000	97.764839 
1363.000000	97.768353 
1362.000000	97.774230 
1361.000000	97.780638 
1360.000000	97.786472 
1359.000000	97.791581 
1358.000000	97.795771 
1357.000000	97.799839 
1356.000000	97.804868 
1355.000000	97.810387 
1354.000000	97.814878 
1353.000000	97.817698 
1352.000000	97.820188 
1351.000000	97.824505 
1350.000000	97.829640 
1349.000000	97.834321 
1348.000000	97.838103 
1347.000000	97.840477 
1346.000000	97.841753 
1345.000000	97.844375 
1344.000000	97.850184 
1343.000000	97.857273 
1342.000000	97.861932 
1341.000000	97.863420 
1340.000000	97.864187 
1339.000000	97.865512 
1338.000000	97.866777 
1337.000000	97.868716 
1336.000000	97.872904 
1335.000000	97.878827 
1334.000000	97.884436 
1333.000000	97.889114 
1332.000000	97.893499 
1331.000000	97.896736 
1330.000000	97.897121 
1329.000000	97.895981 
1328.000000	97.896816 
1327.000000	97.900017 
1326.000000	97.902035 
1325.000000	97.901758 
1324.000000	97.901465 
1323.000000	97.902131 
1322.000000	97.902390 
1321.000000	97.901902 
1320.000000	97.902010 
1319.000000	97.903244 
1318.000000	97.905066 
1317.000000	97.907422 
1316.000000	97.910326 
1315.000000	97.912759 
1314.000000	97.914320 
1313.000000	97.916534 
1312.000000	97.920358 
1311.000000	97.923947 
1310.000000	97.925302 
1309.000000	97.925420 
1308.000000	97.926370 
1307.000000	97.927830 
1306.000000	97.927591 
1305.000000	97.925863 
1304.000000	97.924592 
1303.000000	97.924109 
1302.000000	97.923141 
1301.000000	97.921455 
1300.000000	97.919955 
1299.000000	97.919102 
1298.000000	97.919289 
1297.000000	97.921386 
1296.000000	97.925032 
1295.000000	97.927325 
1294.000000	97.925889 
1293.000000	97.922009 
1292.000000	97.918527 
1291.000000	97.915810 
1290.000000	97.912092 
1289.000000	97.906854 
1288.000000	97.901523 
1287.000000	97.897218 
1286.000000	97.893860 
1285.000000	97.891269 
1284.000000	97.889632 
1283.000000	97.889252 
1282.000000	97.890496 
1281.000000	97.893181 
1280.000000	97.895746 
1279.000000	97.895951 
1278.000000	97.893624 
1277.000000	97.890975 
1276.000000	97.889614 
1275.000000	97.888907 
1274.000000	97.888402 
1273.000000	97.889580 
1272.000000	97.893509 
1271.000000	97.898797 
1270.000000	97.903662 
1269.000000	97.908106 
1268.000000	97.912276 
1267.000000	97.915064 
1266.000000	97.916589 
1265.000000	97.918978 
1264.000000	97.922731 
1263.000000	97.925485 
1262.000000	97.926342 
1261.000000	97.927906 
1260.000000	97.931517 
1259.000000	97.933654 
1258.000000	97.931240 
1257.000000	97.926875 
1256.000000	97.925077 
1255.000000	97.926208 
1254.000000	97.927990 
1253.000000	97.930281 
1252.000000	97.934031 
1251.000000	97.937225 
1250.000000	97.936499 
1249.000000	97.931916 
1248.000000	97.926360 
1247.000000	97.921375 
1246.000000	97.917707 
1245.000000	97.918110 
1244.000000	97.924897 
1243.000000	97.934808 
1242.000000	97.940300 
1241.000000	97.936971 
1240.000000	97.927396 
1239.000000	97.917621 
1238.000000	97.912022 
1237.000000	97.911645 
1236.000000	97.915177 
1235.000000	97.920285 
1234.000000	97.924943 
1233.000000	97.928222 
1232.000000	97.929854 
1231.000000	97.929685 
1230.000000	97.927677 
1229.000000	97.922946 
1228.000000	97.912510 
1227.000000	97.892965 
1226.000000	97.864303 
1225.000000	97.830431 
1224.000000	97.794984 
1223.000000	97.758152 
1222.000000	97.718391 
1221.000000	97.675190 
1220.000000	97.628646 
1219.000000	97.577959 
1218.000000	97.522226 
1217.000000	97.461636 
1216.000000	97.396396 
1215.000000	97.325629 
1214.000000	97.248884 
1213.000000	97.167966 
1212.000000	97.085653 
1211.000000	97.002992 
1210.000000	96.918748 
1209.000000	96.831307 
1208.000000	96.740491 
1207.000000	96.647786 
1206.000000	96.555274 
1205.000000	96.463956 
1204.000000	96.372603 
1203.000000	96.278494 
1202.000000	96.179979 
1201.000000	96.078291 
1200.000000	95.976171 
1199.000000	95.874745 
1198.000000	95.772858 
1197.000000	95.669610 
1196.000000	95.566117 
1195.000000	95.463767 
1194.000000	95.361609 
1193.000000	95.257061 
1192.000000	95.148619 
1191.000000	95.036474 
1190.000000	94.921114 
1189.000000	94.803134 
1188.000000	94.684057 
1187.000000	94.565238 
1186.000000	94.445767 
1185.000000	94.323447 
1184.000000	94.198063 
1183.000000	94.071490 
1182.000000	93.944137 
1181.000000	93.813925 
1180.000000	93.679777 
1179.000000	93.543497 
1178.000000	93.406881 
1177.000000	93.269076 
1176.000000	93.127882 
1175.000000	92.981459 
1174.000000	92.827776 
1173.000000	92.665216 
1172.000000	92.495355 
1171.000000	92.323123 
1170.000000	92.152827 
1169.000000	91.985941 
1168.000000	91.823943 
1167.000000	91.671506 
1166.000000	91.536496 
1165.000000	91.429413 
1164.000000	91.362681 
1163.000000	91.345778 
1162.000000	91.377783 
1161.000000	91.445210 
1160.000000	91.526534 
1159.000000	91.597526 
1158.000000	91.636345 
1157.000000	91.630068 
1156.000000	91.578011 
1155.000000	91.487673 
1154.000000	91.368489 
1153.000000	91.230557 
1152.000000	91.085515 
1151.000000	90.942565 
1150.000000	90.803205 
1149.000000	90.664129 
1148.000000	90.524983 
1147.000000	90.388680 
1146.000000	90.254859 
1145.000000	90.118913 
1144.000000	89.978171 
1143.000000	89.833984 
1142.000000	89.687599 
1141.000000	89.539168 
1140.000000	89.390894 
1139.000000	89.245349 
1138.000000	89.100109 
1137.000000	88.949559 
1136.000000	88.792482 
1135.000000	88.632627 
1134.000000	88.472172 
1133.000000	88.310498 
1132.000000	88.148706 
1131.000000	87.988337 
1130.000000	87.825998 
1129.000000	87.656761 
1128.000000	87.482598 
1127.000000	87.309467 
1126.000000	87.136256 
1125.000000	86.955639 
1124.000000	86.766420 
1123.000000	86.575451 
1122.000000	86.386177 
1121.000000	86.195306 
1120.000000	86.003039 
1119.000000	85.816314 
1118.000000	85.638661 
1117.000000	85.466544 
1116.000000	85.298721 
1115.000000	85.139627 
1114.000000	84.990501 
1113.000000	84.846585 
1112.000000	84.705460 
1111.000000	84.568595 
1110.000000	84.433554 
1109.000000	84.295125 
1108.000000	84.154266 
1107.000000	84.015657 
1106.000000	83.876106 
1105.000000	83.727623 
1104.000000	83.572355 
1103.000000	83.421053 
1102.000000	83.275541 
1101.000000	83.126930 
1100.000000	82.971490 
1099.000000	82.817304 
1098.000000	82.668177 
1097.000000	82.518267 
1096.000000	82.365025 
1095.000000	82.214472 
1094.000000	82.070319 
1093.000000	81.930714 
1092.000000	81.797850 
1091.000000	81.676888 
1090.000000	81.563231 
1089.000000	81.445635 
1088.000000	81.324369 
1087.000000	81.211241 
1086.000000	81.109209 
1085.000000	81.007580 
1084.000000	80.900138 
1083.000000	80.791962 
1082.000000	80.685071 
1081.000000	80.573249 
1080.000000	80.454726 
1079.000000	80.334219 
1078.000000	80.208860 
1077.000000	80.067765 
1076.000000	79.908731 
1075.000000	79.739164 
1074.000000	79.557283 
1073.000000	79.349152 
1072.000000	79.108369 
1071.000000	78.843034 
1070.000000	78.560180 
1069.000000	78.258357 
1068.000000	77.937633 
1067.000000	77.600310 
1066.000000	77.239788 
1065.000000	76.847205 
1064.000000	76.432409 
1063.000000	76.020167 
1062.000000	75.622532 
1061.000000	75.233169 
1060.000000	74.849479 
1059.000000	74.477106 
1058.000000	74.109083 
1057.000000	73.725049 
1056.000000	73.318349 
1055.000000	72.902053 
1054.000000	72.481995 
1053.000000	72.046537 
1052.000000	71.590827 
1051.000000	71.127094 
1050.000000	70.660686 
1049.000000	70.181179 
1048.000000	69.687318 
1047.000000	69.194079 
1046.000000	68.707064 
1045.000000	68.216068 
1044.000000	67.718926 
1043.000000	67.225842 
1042.000000	66.735875 
1041.000000	66.235903 
1040.000000	65.728827 
1039.000000	65.235751 
1038.000000	64.763442 
1037.000000	64.297309 
1036.000000	63.833542 
1035.000000	63.389065 
1034.000000	62.971720 
1033.000000	62.570637 
1032.000000	62.185203 
1031.000000	61.833988 
1030.000000	61.524379 
1029.000000	61.240717 
1028.000000	60.971555 
1027.000000	60.721792 
1026.000000	60.489905 
1025.000000	60.261990 
1024.000000	60.036866 
1023.000000	59.828581 
1022.000000	59.636350 
1021.000000	59.440222 
1020.000000	59.233695 
1019.000000	59.031618 
1018.000000	58.838828 
1017.000000	58.640961 
1016.000000	58.433616 
1015.000000	58.230373 
1014.000000	58.034026 
1013.000000	57.829967 
1012.000000	57.616329 
1011.000000	57.411059 
1010.000000	57.221232 
1009.000000	57.035056 
1008.000000	56.851586 
1007.000000	56.688007 
1006.000000	56.549578 
1005.000000	56.422466 
1004.000000	56.304030 
1003.000000	56.210014 
1002.000000	56.144015 
1001.000000	56.089922 
1000.000000	56.042132 
999.000000	 56.013461 
998.000000	 56.006007 
997.000000	 56.004292 
996.000000	 56.004397 
995.000000	 56.020037 
994.000000	 56.052938 
993.000000	 56.087276 
992.000000	 56.120225 
991.000000	 56.168014 
990.000000	 56.234931 
989.000000	 56.306141 
988.000000	 56.377673 
987.000000	 56.463916 
986.000000	 56.569189 
985.000000	 56.681572 
984.000000	 56.800644 
983.000000	 56.941736 
982.000000	 57.107243 
981.000000	 57.283478 
980.000000	 57.470790 
979.000000	 57.686379 
978.000000	 57.932217 
977.000000	 58.190675 
976.000000	 58.457033 
975.000000	 58.745879 
974.000000	 59.060122 
973.000000	 59.384633 
972.000000	 59.716358 
971.000000	 60.070247 
970.000000	 60.448718 
969.000000	 60.834521 
968.000000	 61.220199 
967.000000	 61.616497 
966.000000	 62.026078 
965.000000	 62.436965 
964.000000	 62.847137 
963.000000	 63.267808 
962.000000	 63.697178 
961.000000	 64.118088 
960.000000	 64.526452 
959.000000	 64.935369 
958.000000	 65.347081 
957.000000	 65.748121 
956.000000	 66.136740 
955.000000	 66.527425 
954.000000	 66.922050 
953.000000	 67.302452 
952.000000	 67.658113 
951.000000	 67.996905 
950.000000	 68.323527 
949.000000	 68.631327 
948.000000	 68.920667 
947.000000	 69.201822 
946.000000	 69.474107 
945.000000	 69.723895 
944.000000	 69.947774 
943.000000	 70.156620 
942.000000	 70.354183 
941.000000	 70.533490 
940.000000	 70.697103 
939.000000	 70.858427 
938.000000	 71.020118 
937.000000	 71.173701 
936.000000	 71.322851 
935.000000	 71.483194 
934.000000	 71.656035 
933.000000	 71.826362 
932.000000	 71.990229 
931.000000	 72.159847 
930.000000	 72.337790 
929.000000	 72.510293 
928.000000	 72.670525 
927.000000	 72.825189 
926.000000	 72.974441 
925.000000	 73.108940 
924.000000	 73.230511 
923.000000	 73.351549 
922.000000	 73.469445 
921.000000	 73.565616 
920.000000	 73.634945 
919.000000	 73.693002 
918.000000	 73.749711 
917.000000	 73.799919 
916.000000	 73.845183 
915.000000	 73.900358 
914.000000	 73.972523 
913.000000	 74.057847 
912.000000	 74.166013 
911.000000	 74.322759 
910.000000	 74.539760 
909.000000	 74.804407 
908.000000	 75.105760 
907.000000	 75.447467 
906.000000	 75.828502 
905.000000	 76.234942 
904.000000	 76.659086 
903.000000	 77.106512 
902.000000	 77.578324 
901.000000	 78.064973 
900.000000	 78.560202 
899.000000	 79.062226 
898.000000	 79.560108 
897.000000	 80.040167 
896.000000	 80.505719 
895.000000	 80.969809 
894.000000	 81.428791 
893.000000	 81.864724 
892.000000	 82.273612 
891.000000	 82.668296 
890.000000	 83.051878 
889.000000	 83.411297 
888.000000	 83.741111 
887.000000	 84.052308 
886.000000	 84.352759 
885.000000	 84.638167 
884.000000	 84.907084 
883.000000	 85.166305 
882.000000	 85.416712 
881.000000	 85.651906 
880.000000	 85.875826 
879.000000	 86.104695 
878.000000	 86.347336 
877.000000	 86.600154 
876.000000	 86.863832 
875.000000	 87.146788 
874.000000	 87.450558 
873.000000	 87.770142 
872.000000	 88.108816 
871.000000	 88.472927 
870.000000	 88.852535 
869.000000	 89.227848 
868.000000	 89.594987 
867.000000	 89.965242 
866.000000	 90.338324 
865.000000	 90.696613 
864.000000	 91.029041 
863.000000	 91.342966 
862.000000	 91.648960 
861.000000	 91.949450 
860.000000	 92.245814 
859.000000	 92.541031 
858.000000	 92.829758 
857.000000	 93.098209 
856.000000	 93.338877 
855.000000	 93.556696 
854.000000	 93.759274 
853.000000	 93.949623 
852.000000	 94.128298 
851.000000	 94.293386 
850.000000	 94.439375 
849.000000	 94.565291 
848.000000	 94.681116 
847.000000	 94.795426 
846.000000	 94.900093 
845.000000	 94.979406 
844.000000	 95.030477 
843.000000	 95.061171 
842.000000	 95.072057 
841.000000	 95.056884 
840.000000	 95.019409 
839.000000	 94.972630 
838.000000	 94.919752 
837.000000	 94.850943 
836.000000	 94.761208 
835.000000	 94.658175 
834.000000	 94.551465 
833.000000	 94.448944 
832.000000	 94.364769 
831.000000	 94.314552 
830.000000	 94.298069 
829.000000	 94.301609 
828.000000	 94.320869 
827.000000	 94.365259 
826.000000	 94.436739 
825.000000	 94.523802 
824.000000	 94.620890 
823.000000	 94.732290 
822.000000	 94.851374 
821.000000	 94.958191 
820.000000	 95.043173 
819.000000	 95.114018 
818.000000	 95.176149 
817.000000	 95.223066 
816.000000	 95.248066 
815.000000	 95.248666 
814.000000	 95.214203 
813.000000	 95.122469 
812.000000	 94.954167 
811.000000	 94.700604 
810.000000	 94.355253 
809.000000	 93.910956 
808.000000	 93.369955 
807.000000	 92.744761 
806.000000	 92.045036 
805.000000	 91.277813 
804.000000	 90.467368 
803.000000	 89.660271 
802.000000	 88.903109 
801.000000	 88.229209 
800.000000	 87.671005 
799.000000	 87.261860 
798.000000	 87.013365 
797.000000	 86.908327 
796.000000	 86.923313 
795.000000	 87.038875 
794.000000	 87.224107 
793.000000	 87.436556 
792.000000	 87.647346 
791.000000	 87.848546 
790.000000	 88.031388 
789.000000	 88.176331 
788.000000	 88.268149 
787.000000	 88.300774 
786.000000	 88.262993 
785.000000	 88.140182 
784.000000	 87.937784 
783.000000	 87.686228 
782.000000	 87.417067 
781.000000	 87.151215 
780.000000	 86.914792 
779.000000	 86.744178 
778.000000	 86.664701 
777.000000	 86.680446 
776.000000	 86.789522 
775.000000	 86.988707 
774.000000	 87.257067 
773.000000	 87.556298 
772.000000	 87.856242 
771.000000	 88.145291 
770.000000	 88.413994 
769.000000	 88.647532 
768.000000	 88.838966 
767.000000	 88.993722 
766.000000	 89.117456 
765.000000	 89.213536 
764.000000	 89.292338 
763.000000	 89.366450 
762.000000	 89.436300 
761.000000	 89.497313 
760.000000	 89.559804 
759.000000	 89.642027 
758.000000	 89.744277 
757.000000	 89.850950 
756.000000	 89.957332 
755.000000	 90.071513 
754.000000	 90.190921 
753.000000	 90.303220 
752.000000	 90.412715 
751.000000	 90.539829 
750.000000	 90.688952 
749.000000	 90.840506 
748.000000	 90.981727 
747.000000	 91.123624 
746.000000	 91.280434 
745.000000	 91.453133 
744.000000	 91.640740 
743.000000	 91.848421 
742.000000	 92.077428 
741.000000	 92.323802 
740.000000	 92.589047 
739.000000	 92.873418 
738.000000	 93.158693 
737.000000	 93.419408 
736.000000	 93.652091 
735.000000	 93.870439 
734.000000	 94.071848 
733.000000	 94.235250 
732.000000	 94.354925 
731.000000	 94.450892 
730.000000	 94.540588 
729.000000	 94.624949 
728.000000	 94.704796 
727.000000	 94.787007 
726.000000	 94.871497 
725.000000	 94.952012 
724.000000	 95.035066 
723.000000	 95.137930 
722.000000	 95.263199 
721.000000	 95.395249 
720.000000	 95.525368 
719.000000	 95.658744 
718.000000	 95.792189 
717.000000	 95.908327 
716.000000	 95.999941 
715.000000	 96.079479 
714.000000	 96.157607 
713.000000	 96.231750 
712.000000	 96.300233 
711.000000	 96.367632 
710.000000	 96.430274 
709.000000	 96.476756 
708.000000	 96.505461 
707.000000	 96.520748 
706.000000	 96.512818 
705.000000	 96.461357 
704.000000	 96.361461 
703.000000	 96.225257 
702.000000	 96.050013 
701.000000	 95.809066 
700.000000	 95.486100 
699.000000	 95.093138 
698.000000	 94.656442 
697.000000	 94.213280 
696.000000	 93.827668 
695.000000	 93.577469 
694.000000	 93.498651 
693.000000	 93.563048 
692.000000	 93.720511 
691.000000	 93.934113 
690.000000	 94.173414 
689.000000	 94.405246 
688.000000	 94.612893 
687.000000	 94.805734 
686.000000	 94.987564 
685.000000	 95.142715 
684.000000	 95.268646 
683.000000	 95.386827 
682.000000	 95.508823 
681.000000	 95.621660 
680.000000	 95.721310 
679.000000	 95.827251 
678.000000	 95.946930 
677.000000	 96.064159 
676.000000	 96.166814 
675.000000	 96.255875 
674.000000	 96.331350 
673.000000	 96.388707 
672.000000	 96.427241 
671.000000	 96.447593 
670.000000	 96.445184 
669.000000	 96.442756 
668.000000	 96.547720 
667.000000	 96.801731 
666.000000	 97.056406 
665.000000	 97.240790 
664.000000	 97.380862 
663.000000	 97.511638 
662.000000	 97.645710 
661.000000	 97.774982 
660.000000	 97.890043 
659.000000	 97.982883 
658.000000	 98.037748 
657.000000	 98.047162 
656.000000	 98.023754 
655.000000	 97.986487 
654.000000	 97.950572 
653.000000	 97.921284 
652.000000	 97.891338 
651.000000	 97.857026 
650.000000	 97.833606 

