4000.000000	99.811556 
3999.000000	99.811611 
3998.000000	99.812335 
3997.000000	99.813054 
3996.000000	99.813493 
3995.000000	99.813730 
3994.000000	99.813815 
3993.000000	99.813657 
3992.000000	99.813207 
3991.000000	99.812672 
3990.000000	99.812566 
3989.000000	99.813344 
3988.000000	99.814821 
3987.000000	99.816005 
3986.000000	99.815834 
3985.000000	99.813984 
3984.000000	99.811114 
3983.000000	99.808462 
3982.000000	99.806891 
3981.000000	99.806443 
3980.000000	99.806634 
3979.000000	99.806945 
3978.000000	99.807104 
3977.000000	99.807060 
3976.000000	99.806825 
3975.000000	99.806390 
3974.000000	99.805786 
3973.000000	99.805178 
3972.000000	99.804812 
3971.000000	99.804806 
3970.000000	99.805100 
3969.000000	99.805599 
3968.000000	99.806228 
3967.000000	99.806851 
3966.000000	99.807230 
3965.000000	99.807110 
3964.000000	99.806395 
3963.000000	99.805266 
3962.000000	99.804073 
3961.000000	99.803141 
3960.000000	99.802607 
3959.000000	99.802311 
3958.000000	99.801935 
3957.000000	99.801334 
3956.000000	99.800659 
3955.000000	99.800174 
3954.000000	99.799987 
3953.000000	99.799948 
3952.000000	99.799772 
3951.000000	99.799306 
3950.000000	99.798801 
3949.000000	99.798741 
3948.000000	99.799269 
3947.000000	99.799918 
3946.000000	99.799975 
3945.000000	99.799041 
3944.000000	99.797223 
3943.000000	99.795158 
3942.000000	99.793606 
3941.000000	99.792853 
3940.000000	99.792614 
3939.000000	99.792382 
3938.000000	99.791926 
3937.000000	99.791533 
3936.000000	99.791681 
3935.000000	99.792563 
3934.000000	99.793847 
3933.000000	99.794864 
3932.000000	99.795078 
3931.000000	99.794403 
3930.000000	99.793178 
3929.000000	99.791759 
3928.000000	99.790270 
3927.000000	99.788858 
3926.000000	99.787805 
3925.000000	99.787424 
3924.000000	99.787921 
3923.000000	99.789091 
3922.000000	99.790372 
3921.000000	99.791229 
3920.000000	99.791558 
3919.000000	99.791623 
3918.000000	99.791587 
3917.000000	99.791327 
3916.000000	99.790736 
3915.000000	99.789994 
3914.000000	99.789348 
3913.000000	99.788878 
3912.000000	99.788599 
3911.000000	99.788470 
3910.000000	99.788417 
3909.000000	99.788423 
3908.000000	99.788535 
3907.000000	99.788803 
3906.000000	99.789237 
3905.000000	99.789787 
3904.000000	99.790382 
3903.000000	99.790814 
3902.000000	99.790826 
3901.000000	99.790435 
3900.000000	99.789905 
3899.000000	99.789530 
3898.000000	99.789386 
3897.000000	99.789339 
3896.000000	99.789256 
3895.000000	99.789101 
3894.000000	99.788912 
3893.000000	99.788744 
3892.000000	99.788625 
3891.000000	99.788539 
3890.000000	99.788466 
3889.000000	99.788399 
3888.000000	99.788341 
3887.000000	99.788286 
3886.000000	99.788227 
3885.000000	99.788162 
3884.000000	99.788089 
3883.000000	99.788006 
3882.000000	99.787913 
3881.000000	99.787820 
3880.000000	99.787740 
3879.000000	99.787679 
3878.000000	99.787631 
3877.000000	99.787585 
3876.000000	99.787532 
3875.000000	99.787475 
3874.000000	99.787423 
3873.000000	99.787385 
3872.000000	99.787356 
3871.000000	99.787322 
3870.000000	99.787264 
3869.000000	99.787175 
3868.000000	99.787053 
3867.000000	99.786904 
3866.000000	99.786737 
3865.000000	99.786563 
3864.000000	99.786399 
3863.000000	99.786255 
3862.000000	99.786137 
3861.000000	99.786044 
3860.000000	99.785979 
3859.000000	99.785944 
3858.000000	99.785935 
3857.000000	99.785937 
3856.000000	99.785938 
3855.000000	99.785935 
3854.000000	99.785931 
3853.000000	99.785983 
3852.000000	99.786079 
3851.000000	99.786101 
3850.000000	99.786013 
3849.000000	99.785844 
3848.000000	99.785674 
3847.000000	99.785584 
3846.000000	99.785547 
3845.000000	99.785494 
3844.000000	99.785407 
3843.000000	99.785267 
3842.000000	99.785238 
3841.000000	99.785716 
3840.000000	99.786872 
3839.000000	99.788271 
3838.000000	99.789101 
3837.000000	99.788802 
3836.000000	99.787502 
3835.000000	99.785733 
3834.000000	99.784095 
3833.000000	99.782936 
3832.000000	99.782294 
3831.000000	99.782062 
3830.000000	99.781864 
3829.000000	99.781197 
3828.000000	99.780021 
3827.000000	99.778840 
3826.000000	99.778364 
3825.000000	99.779114 
3824.000000	99.780836 
3823.000000	99.782006 
3822.000000	99.781487 
3821.000000	99.780519 
3820.000000	99.781351 
3819.000000	99.784211 
3818.000000	99.787118 
3817.000000	99.787335 
3816.000000	99.783569 
3815.000000	99.777388 
3814.000000	99.771670 
3813.000000	99.767639 
3812.000000	99.764781 
3811.000000	99.762832 
3810.000000	99.762547 
3809.000000	99.764404 
3808.000000	99.767354 
3807.000000	99.769615 
3806.000000	99.771012 
3805.000000	99.772743 
3804.000000	99.775093 
3803.000000	99.775987 
3802.000000	99.773437 
3801.000000	99.769095 
3800.000000	99.766067 
3799.000000	99.764679 
3798.000000	99.763104 
3797.000000	99.759941 
3796.000000	99.755721 
3795.000000	99.751954 
3794.000000	99.748997 
3793.000000	99.745493 
3792.000000	99.740404 
3791.000000	99.734833 
3790.000000	99.730932 
3789.000000	99.729538 
3788.000000	99.729422 
3787.000000	99.729000 
3786.000000	99.727970 
3785.000000	99.727119 
3784.000000	99.727181 
3783.000000	99.728416 
3782.000000	99.730203 
3781.000000	99.731375 
3780.000000	99.731739 
3779.000000	99.732102 
3778.000000	99.732848 
3777.000000	99.733812 
3776.000000	99.734886 
3775.000000	99.735466 
3774.000000	99.735401 
3773.000000	99.735835 
3772.000000	99.737762 
3771.000000	99.740261 
3770.000000	99.742384 
3769.000000	99.744555 
3768.000000	99.746370 
3767.000000	99.747036 
3766.000000	99.746531 
3765.000000	99.745486 
3764.000000	99.745155 
3763.000000	99.746439 
3762.000000	99.748186 
3761.000000	99.748231 
3760.000000	99.747915 
3759.000000	99.751623 
3758.000000	99.760002 
3757.000000	99.769256 
3756.000000	99.777479 
3755.000000	99.785695 
3754.000000	99.794539 
3753.000000	99.802761 
3752.000000	99.809967 
3751.000000	99.817799 
3750.000000	99.823993 
3749.000000	99.823953 
3748.000000	99.818897 
3747.000000	99.814466 
3746.000000	99.811465 
3745.000000	99.805926 
3744.000000	99.797341 
3743.000000	99.789903 
3742.000000	99.786897 
3741.000000	99.787509 
3740.000000	99.788463 
3739.000000	99.789260 
3738.000000	99.790998 
3737.000000	99.792631 
3736.000000	99.792491 
3735.000000	99.790351 
3734.000000	99.786859 
3733.000000	99.781570 
3732.000000	99.774812 
3731.000000	99.768994 
3730.000000	99.765870 
3729.000000	99.765096 
3728.000000	99.763781 
3727.000000	99.759392 
3726.000000	99.753569 
3725.000000	99.750241 
3724.000000	99.750145 
3723.000000	99.750303 
3722.000000	99.748660 
3721.000000	99.745013 
3720.000000	99.740141 
3719.000000	99.735966 
3718.000000	99.733682 
3717.000000	99.733449 
3716.000000	99.735671 
3715.000000	99.740688 
3714.000000	99.747566 
3713.000000	99.753453 
3712.000000	99.756049 
3711.000000	99.754570 
3710.000000	99.749349 
3709.000000	99.742247 
3708.000000	99.734930 
3707.000000	99.727969 
3706.000000	99.721452 
3705.000000	99.715384 
3704.000000	99.709594 
3703.000000	99.704034 
3702.000000	99.699699 
3701.000000	99.697175 
3700.000000	99.695189 
3699.000000	99.692329 
3698.000000	99.688490 
3697.000000	99.684840 
3696.000000	99.683428 
3695.000000	99.685428 
3694.000000	99.689215 
3693.000000	99.691460 
3692.000000	99.690716 
3691.000000	99.688540 
3690.000000	99.687587 
3689.000000	99.688425 
3688.000000	99.688498 
3687.000000	99.685821 
3686.000000	99.681952 
3685.000000	99.679276 
3684.000000	99.678307 
3683.000000	99.678070 
3682.000000	99.677380 
3681.000000	99.675642 
3680.000000	99.673354 
3679.000000	99.672782 
3678.000000	99.676001 
3677.000000	99.680360 
3676.000000	99.680705 
3675.000000	99.677138 
3674.000000	99.673824 
3673.000000	99.672906 
3672.000000	99.672617 
3671.000000	99.668304 
3670.000000	99.659348 
3669.000000	99.650336 
3668.000000	99.644015 
3667.000000	99.639622 
3666.000000	99.636191 
3665.000000	99.633378 
3664.000000	99.630670 
3663.000000	99.626967 
3662.000000	99.621246 
3661.000000	99.614241 
3660.000000	99.608454 
3659.000000	99.605882 
3658.000000	99.606009 
3657.000000	99.606591 
3656.000000	99.606536 
3655.000000	99.606796 
3654.000000	99.608734 
3653.000000	99.612051 
3652.000000	99.614492 
3651.000000	99.613805 
3650.000000	99.610658 
3649.000000	99.606832 
3648.000000	99.601687 
3647.000000	99.594548 
3646.000000	99.586844 
3645.000000	99.580071 
3644.000000	99.574281 
3643.000000	99.569058 
3642.000000	99.563830 
3641.000000	99.558712 
3640.000000	99.554344 
3639.000000	99.551415 
3638.000000	99.550117 
3637.000000	99.549637 
3636.000000	99.548560 
3635.000000	99.545893 
3634.000000	99.542701 
3633.000000	99.542070 
3632.000000	99.546003 
3631.000000	99.552467 
3630.000000	99.556311 
3629.000000	99.555663 
3628.000000	99.553646 
3627.000000	99.552521 
3626.000000	99.551774 
3625.000000	99.549429 
3624.000000	99.543780 
3623.000000	99.535035 
3622.000000	99.525570 
3621.000000	99.517957 
3620.000000	99.514820 
3619.000000	99.518341 
3618.000000	99.527347 
3617.000000	99.537447 
3616.000000	99.545477 
3615.000000	99.550935 
3614.000000	99.555562 
3613.000000	99.561898 
3612.000000	99.570677 
3611.000000	99.579839 
3610.000000	99.586198 
3609.000000	99.587536 
3608.000000	99.584337 
3607.000000	99.579136 
3606.000000	99.573913 
3605.000000	99.569197 
3604.000000	99.564695 
3603.000000	99.560315 
3602.000000	99.556988 
3601.000000	99.555887 
3600.000000	99.558062 
3599.000000	99.563683 
3598.000000	99.570781 
3597.000000	99.576205 
3596.000000	99.578381 
3595.000000	99.578419 
3594.000000	99.579232 
3593.000000	99.582650 
3592.000000	99.587563 
3591.000000	99.591465 
3590.000000	99.592345 
3589.000000	99.589875 
3588.000000	99.585922 
3587.000000	99.583300 
3586.000000	99.582825 
3585.000000	99.583485 
3584.000000	99.584188 
3583.000000	99.584649 
3582.000000	99.584851 
3581.000000	99.584748 
3580.000000	99.584356 
3579.000000	99.583984 
3578.000000	99.584215 
3577.000000	99.585520 
3576.000000	99.588000 
3575.000000	99.590987 
3574.000000	99.593214 
3573.000000	99.593903 
3572.000000	99.593588 
3571.000000	99.593932 
3570.000000	99.596350 
3569.000000	99.600240 
3568.000000	99.603184 
3567.000000	99.603618 
3566.000000	99.602180 
3565.000000	99.600461 
3564.000000	99.599414 
3563.000000	99.598648 
3562.000000	99.597135 
3561.000000	99.594479 
3560.000000	99.591258 
3559.000000	99.588478 
3558.000000	99.586554 
3557.000000	99.585075 
3556.000000	99.583644 
3555.000000	99.582793 
3554.000000	99.583507 
3553.000000	99.586106 
3552.000000	99.589562 
3551.000000	99.592321 
3550.000000	99.593675 
3549.000000	99.594013 
3548.000000	99.593915 
3547.000000	99.593667 
3546.000000	99.593108 
3545.000000	99.591942 
3544.000000	99.590229 
3543.000000	99.588644 
3542.000000	99.588013 
3541.000000	99.588496 
3540.000000	99.589228 
3539.000000	99.589217 
3538.000000	99.588494 
3537.000000	99.588226 
3536.000000	99.589508 
3535.000000	99.592159 
3534.000000	99.595090 
3533.000000	99.597361 
3532.000000	99.598794 
3531.000000	99.599672 
3530.000000	99.600425 
3529.000000	99.601510 
3528.000000	99.603102 
3527.000000	99.604701 
3526.000000	99.605301 
3525.000000	99.604250 
3524.000000	99.602044 
3523.000000	99.600153 
3522.000000	99.599710 
3521.000000	99.600656 
3520.000000	99.602102 
3519.000000	99.603327 
3518.000000	99.604206 
3517.000000	99.604890 
3516.000000	99.605534 
3515.000000	99.606368 
3514.000000	99.607829 
3513.000000	99.610216 
3512.000000	99.613280 
3511.000000	99.616306 
3510.000000	99.618698 
3509.000000	99.620225 
3508.000000	99.620880 
3507.000000	99.620863 
3506.000000	99.620658 
3505.000000	99.620925 
3504.000000	99.622036 
3503.000000	99.623721 
3502.000000	99.625221 
3501.000000	99.625957 
3500.000000	99.625968 
3499.000000	99.625763 
3498.000000	99.625905 
3497.000000	99.626695 
3496.000000	99.628134 
3495.000000	99.629983 
3494.000000	99.631810 
3493.000000	99.633141 
3492.000000	99.633703 
3491.000000	99.633622 
3490.000000	99.633391 
3489.000000	99.633518 
3488.000000	99.634128 
3487.000000	99.634958 
3486.000000	99.635658 
3485.000000	99.636072 
3484.000000	99.636277 
3483.000000	99.636467 
3482.000000	99.636788 
3481.000000	99.637245 
3480.000000	99.637727 
3479.000000	99.638154 
3478.000000	99.638549 
3477.000000	99.638952 
3476.000000	99.639322 
3475.000000	99.639563 
3474.000000	99.639649 
3473.000000	99.639659 
3472.000000	99.639708 
3471.000000	99.639833 
3470.000000	99.640001 
3469.000000	99.640155 
3468.000000	99.640261 
3467.000000	99.640307 
3466.000000	99.640301 
3465.000000	99.640271 
3464.000000	99.640260 
3463.000000	99.640286 
3462.000000	99.640336 
3461.000000	99.640374 
3460.000000	99.640385 
3459.000000	99.640380 
3458.000000	99.640366 
3457.000000	99.640343 
3456.000000	99.640307 
3455.000000	99.640253 
3454.000000	99.640177 
3453.000000	99.640080 
3452.000000	99.639964 
3451.000000	99.639833 
3450.000000	99.639692 
3449.000000	99.639545 
3448.000000	99.639398 
3447.000000	99.639252 
3446.000000	99.639105 
3445.000000	99.638951 
3444.000000	99.638788 
3443.000000	99.638616 
3442.000000	99.638439 
3441.000000	99.638256 
3440.000000	99.638066 
3439.000000	99.637863 
3438.000000	99.637645 
3437.000000	99.637413 
3436.000000	99.637173 
3435.000000	99.636932 
3434.000000	99.636695 
3433.000000	99.636464 
3432.000000	99.636241 
3431.000000	99.636024 
3430.000000	99.635816 
3429.000000	99.635614 
3428.000000	99.635403 
3427.000000	99.635168 
3426.000000	99.634926 
3425.000000	99.634720 
3424.000000	99.634580 
3423.000000	99.634492 
3422.000000	99.634416 
3421.000000	99.634325 
3420.000000	99.634184 
3419.000000	99.633927 
3418.000000	99.633525 
3417.000000	99.633069 
3416.000000	99.632716 
3415.000000	99.632516 
3414.000000	99.632352 
3413.000000	99.632103 
3412.000000	99.631813 
3411.000000	99.631649 
3410.000000	99.631728 
3409.000000	99.632031 
3408.000000	99.632412 
3407.000000	99.632644 
3406.000000	99.632515 
3405.000000	99.632001 
3404.000000	99.631357 
3403.000000	99.630930 
3402.000000	99.630823 
3401.000000	99.630864 
3400.000000	99.630913 
3399.000000	99.631079 
3398.000000	99.631487 
3397.000000	99.631953 
3396.000000	99.632130 
3395.000000	99.631974 
3394.000000	99.631878 
3393.000000	99.632249 
3392.000000	99.633063 
3391.000000	99.633896 
3390.000000	99.634362 
3389.000000	99.634369 
3388.000000	99.634059 
3387.000000	99.633694 
3386.000000	99.633567 
3385.000000	99.633854 
3384.000000	99.634468 
3383.000000	99.635108 
3382.000000	99.635542 
3381.000000	99.635783 
3380.000000	99.635955 
3379.000000	99.636032 
3378.000000	99.635854 
3377.000000	99.635349 
3376.000000	99.634665 
3375.000000	99.634096 
3374.000000	99.633908 
3373.000000	99.634198 
3372.000000	99.634809 
3371.000000	99.635396 
3370.000000	99.635644 
3369.000000	99.635506 
3368.000000	99.635169 
3367.000000	99.634809 
3366.000000	99.634426 
3365.000000	99.634025 
3364.000000	99.633853 
3363.000000	99.634239 
3362.000000	99.635125 
3361.000000	99.636010 
3360.000000	99.636499 
3359.000000	99.636755 
3358.000000	99.637245 
3357.000000	99.638087 
3356.000000	99.638843 
3355.000000	99.638977 
3354.000000	99.638373 
3353.000000	99.637375 
3352.000000	99.636508 
3351.000000	99.636165 
3350.000000	99.636486 
3349.000000	99.637356 
3348.000000	99.638516 
3347.000000	99.639748 
3346.000000	99.640944 
3345.000000	99.641995 
3344.000000	99.642729 
3343.000000	99.642984 
3342.000000	99.642717 
3341.000000	99.642001 
3340.000000	99.640971 
3339.000000	99.639817 
3338.000000	99.638801 
3337.000000	99.638194 
3336.000000	99.638155 
3335.000000	99.638640 
3334.000000	99.639393 
3333.000000	99.640059 
3332.000000	99.640359 
3331.000000	99.640200 
3330.000000	99.639627 
3329.000000	99.638773 
3328.000000	99.637906 
3327.000000	99.637396 
3326.000000	99.637418 
3325.000000	99.637708 
3324.000000	99.637740 
3323.000000	99.637259 
3322.000000	99.636561 
3321.000000	99.636191 
3320.000000	99.636406 
3319.000000	99.637031 
3318.000000	99.637685 
3317.000000	99.638083 
3316.000000	99.638164 
3315.000000	99.638059 
3314.000000	99.637985 
3313.000000	99.638062 
3312.000000	99.638158 
3311.000000	99.638006 
3310.000000	99.637496 
3309.000000	99.636814 
3308.000000	99.636258 
3307.000000	99.635951 
3306.000000	99.635763 
3305.000000	99.635518 
3304.000000	99.635204 
3303.000000	99.634980 
3302.000000	99.634975 
3301.000000	99.635150 
3300.000000	99.635319 
3299.000000	99.635302 
3298.000000	99.635041 
3297.000000	99.634605 
3296.000000	99.634146 
3295.000000	99.633830 
3294.000000	99.633772 
3293.000000	99.633984 
3292.000000	99.634336 
3291.000000	99.634613 
3290.000000	99.634653 
3289.000000	99.634446 
3288.000000	99.634110 
3287.000000	99.633797 
3286.000000	99.633617 
3285.000000	99.633641 
3284.000000	99.633908 
3283.000000	99.634362 
3282.000000	99.634805 
3281.000000	99.634983 
3280.000000	99.634810 
3279.000000	99.634477 
3278.000000	99.634285 
3277.000000	99.634336 
3276.000000	99.634410 
3275.000000	99.634175 
3274.000000	99.633501 
3273.000000	99.632545 
3272.000000	99.631610 
3271.000000	99.630940 
3270.000000	99.630669 
3269.000000	99.630847 
3268.000000	99.631445 
3267.000000	99.632285 
3266.000000	99.633039 
3265.000000	99.633391 
3264.000000	99.633232 
3263.000000	99.632715 
3262.000000	99.632096 
3261.000000	99.631535 
3260.000000	99.631058 
3259.000000	99.630657 
3258.000000	99.630370 
3257.000000	99.630277 
3256.000000	99.630413 
3255.000000	99.630672 
3254.000000	99.630832 
3253.000000	99.630740 
3252.000000	99.630487 
3251.000000	99.630301 
3250.000000	99.630270 
3249.000000	99.630244 
3248.000000	99.630091 
3247.000000	99.629906 
3246.000000	99.629861 
3245.000000	99.629931 
3244.000000	99.629937 
3243.000000	99.629816 
3242.000000	99.629704 
3241.000000	99.629712 
3240.000000	99.629762 
3239.000000	99.629712 
3238.000000	99.629541 
3237.000000	99.629346 
3236.000000	99.629206 
3235.000000	99.629124 
3234.000000	99.629057 
3233.000000	99.628959 
3232.000000	99.628789 
3231.000000	99.628529 
3230.000000	99.628215 
3229.000000	99.627907 
3228.000000	99.627636 
3227.000000	99.627399 
3226.000000	99.627213 
3225.000000	99.627135 
3224.000000	99.627194 
3223.000000	99.627296 
3222.000000	99.627238 
3221.000000	99.626888 
3220.000000	99.626301 
3219.000000	99.625703 
3218.000000	99.625310 
3217.000000	99.625143 
3216.000000	99.625065 
3215.000000	99.624937 
3214.000000	99.624756 
3213.000000	99.624594 
3212.000000	99.624486 
3211.000000	99.624391 
3210.000000	99.624231 
3209.000000	99.623920 
3208.000000	99.623384 
3207.000000	99.622630 
3206.000000	99.621815 
3205.000000	99.621182 
3204.000000	99.620884 
3203.000000	99.620887 
3202.000000	99.621012 
3201.000000	99.621068 
3200.000000	99.620967 
3199.000000	99.620737 
3198.000000	99.620440 
3197.000000	99.620095 
3196.000000	99.619677 
3195.000000	99.619178 
3194.000000	99.618651 
3193.000000	99.618186 
3192.000000	99.617870 
3191.000000	99.617758 
3190.000000	99.617862 
3189.000000	99.618144 
3188.000000	99.618490 
3187.000000	99.618707 
3186.000000	99.618585 
3185.000000	99.618043 
3184.000000	99.617266 
3183.000000	99.616661 
3182.000000	99.616518 
3181.000000	99.616758 
3180.000000	99.616980 
3179.000000	99.616841 
3178.000000	99.616347 
3177.000000	99.615787 
3176.000000	99.615443 
3175.000000	99.615361 
3174.000000	99.615333 
3173.000000	99.615035 
3172.000000	99.614310 
3171.000000	99.613340 
3170.000000	99.612492 
3169.000000	99.611935 
3168.000000	99.611545 
3167.000000	99.611204 
3166.000000	99.610995 
3165.000000	99.611022 
3164.000000	99.611155 
3163.000000	99.611112 
3162.000000	99.610742 
3161.000000	99.610114 
3160.000000	99.609439 
3159.000000	99.608989 
3158.000000	99.608983 
3157.000000	99.609355 
3156.000000	99.609622 
3155.000000	99.609215 
3154.000000	99.608010 
3153.000000	99.606487 
3152.000000	99.605272 
3151.000000	99.604491 
3150.000000	99.603714 
3149.000000	99.602505 
3148.000000	99.601026 
3147.000000	99.599958 
3146.000000	99.599789 
3145.000000	99.600354 
3144.000000	99.601129 
3143.000000	99.601850 
3142.000000	99.602608 
3141.000000	99.603381 
3140.000000	99.603828 
3139.000000	99.603642 
3138.000000	99.602951 
3137.000000	99.602192 
3136.000000	99.601728 
3135.000000	99.601685 
3134.000000	99.601982 
3133.000000	99.602320 
3132.000000	99.602247 
3131.000000	99.601486 
3130.000000	99.600255 
3129.000000	99.599204 
3128.000000	99.598896 
3127.000000	99.599381 
3126.000000	99.600251 
3125.000000	99.601005 
3124.000000	99.601361 
3123.000000	99.601238 
3122.000000	99.600589 
3121.000000	99.599422 
3120.000000	99.597988 
3119.000000	99.596785 
3118.000000	99.596230 
3117.000000	99.596337 
3116.000000	99.596763 
3115.000000	99.597166 
3114.000000	99.597492 
3113.000000	99.597860 
3112.000000	99.598321 
3111.000000	99.598767 
3110.000000	99.599038 
3109.000000	99.599026 
3108.000000	99.598719 
3107.000000	99.598208 
3106.000000	99.597661 
3105.000000	99.597229 
3104.000000	99.596911 
3103.000000	99.596569 
3102.000000	99.596094 
3101.000000	99.595569 
3100.000000	99.595217 
3099.000000	99.595151 
3098.000000	99.595221 
3097.000000	99.595145 
3096.000000	99.594810 
3095.000000	99.594358 
3094.000000	99.593968 
3093.000000	99.593640 
3092.000000	99.593253 
3091.000000	99.592770 
3090.000000	99.592286 
3089.000000	99.591892 
3088.000000	99.591577 
3087.000000	99.591271 
3086.000000	99.590924 
3085.000000	99.590531 
3084.000000	99.590102 
3083.000000	99.589640 
3082.000000	99.589144 
3081.000000	99.588623 
3080.000000	99.588111 
3079.000000	99.587666 
3078.000000	99.587337 
3077.000000	99.587070 
3076.000000	99.586701 
3075.000000	99.586129 
3074.000000	99.585473 
3073.000000	99.584904 
3072.000000	99.584339 
3071.000000	99.583497 
3070.000000	99.582336 
3069.000000	99.581284 
3068.000000	99.580810 
3067.000000	99.580841 
3066.000000	99.580756 
3065.000000	99.580097 
3064.000000	99.579165 
3063.000000	99.578663 
3062.000000	99.578758 
3061.000000	99.578841 
3060.000000	99.578408 
3059.000000	99.577794 
3058.000000	99.577564 
3057.000000	99.577348 
3056.000000	99.576014 
3055.000000	99.573120 
3054.000000	99.569647 
3053.000000	99.567055 
3052.000000	99.565970 
3051.000000	99.566089 
3050.000000	99.566789 
3049.000000	99.567421 
3048.000000	99.567366 
3047.000000	99.566376 
3046.000000	99.564799 
3045.000000	99.563201 
3044.000000	99.561961 
3043.000000	99.561494 
3042.000000	99.562305 
3041.000000	99.564191 
3040.000000	99.565677 
3039.000000	99.565245 
3038.000000	99.562988 
3037.000000	99.560320 
3036.000000	99.557987 
3035.000000	99.555242 
3034.000000	99.551399 
3033.000000	99.547287 
3032.000000	99.544352 
3031.000000	99.542755 
3030.000000	99.541240 
3029.000000	99.538891 
3028.000000	99.536257 
3027.000000	99.534492 
3026.000000	99.533800 
3025.000000	99.533166 
3024.000000	99.531443 
3023.000000	99.528295 
3022.000000	99.524129 
3021.000000	99.519610 
3020.000000	99.515317 
3019.000000	99.511564 
3018.000000	99.508144 
3017.000000	99.504423 
3016.000000	99.500043 
3015.000000	99.495617 
3014.000000	99.492291 
3013.000000	99.490393 
3012.000000	99.488826 
3011.000000	99.486201 
3010.000000	99.482423 
3009.000000	99.478644 
3008.000000	99.475594 
3007.000000	99.472542 
3006.000000	99.468327 
3005.000000	99.463100 
3004.000000	99.458309 
3003.000000	99.454846 
3002.000000	99.451877 
3001.000000	99.447974 
3000.000000	99.443045 
2999.000000	99.438463 
2998.000000	99.435388 
2997.000000	99.433718 
2996.000000	99.432686 
2995.000000	99.431678 
2994.000000	99.430032 
2993.000000	99.426767 
2992.000000	99.421478 
2991.000000	99.415302 
2990.000000	99.410242 
2989.000000	99.407423 
2988.000000	99.406493 
2987.000000	99.406526 
2986.000000	99.406848 
2985.000000	99.407093 
2984.000000	99.407377 
2983.000000	99.408675 
2982.000000	99.412155 
2981.000000	99.417531 
2980.000000	99.422541 
2979.000000	99.424764 
2978.000000	99.423876 
2977.000000	99.421743 
2976.000000	99.420526 
2975.000000	99.421024 
2974.000000	99.422786 
2973.000000	99.425398 
2972.000000	99.429462 
2971.000000	99.436145 
2970.000000	99.445598 
2969.000000	99.455951 
2968.000000	99.464416 
2967.000000	99.469759 
2966.000000	99.473443 
2965.000000	99.478141 
2964.000000	99.485355 
2963.000000	99.494481 
2962.000000	99.503555 
2961.000000	99.510560 
2960.000000	99.514559 
2959.000000	99.516382 
2958.000000	99.518179 
2957.000000	99.521673 
2956.000000	99.526569 
2955.000000	99.530831 
2954.000000	99.532511 
2953.000000	99.531258 
2952.000000	99.528328 
2951.000000	99.525638 
2950.000000	99.524825 
2949.000000	99.526683 
2948.000000	99.531012 
2947.000000	99.536894 
2946.000000	99.543292 
2945.000000	99.549584 
2944.000000	99.555636 
2943.000000	99.561405 
2942.000000	99.566609 
2941.000000	99.571085 
2940.000000	99.575544 
2939.000000	99.581654 
2938.000000	99.590869 
2937.000000	99.603059 
2936.000000	99.616574 
2935.000000	99.629761 
2934.000000	99.642242 
2933.000000	99.654634 
2932.000000	99.667270 
2931.000000	99.679251 
2930.000000	99.688699 
2929.000000	99.694148 
2928.000000	99.696137 
2927.000000	99.697380 
2926.000000	99.700732 
2925.000000	99.706459 
2924.000000	99.711751 
2923.000000	99.713210 
2922.000000	99.709542 
2921.000000	99.701766 
2920.000000	99.691198 
2919.000000	99.677892 
2918.000000	99.661312 
2917.000000	99.642274 
2916.000000	99.623626 
2915.000000	99.608619 
2914.000000	99.598390 
2913.000000	99.591239 
2912.000000	99.584396 
2911.000000	99.576464 
2910.000000	99.568137 
2909.000000	99.560897 
2908.000000	99.555479 
2907.000000	99.551352 
2906.000000	99.547175 
2905.000000	99.541585 
2904.000000	99.534225 
2903.000000	99.526568 
2902.000000	99.521549 
2901.000000	99.520977 
2900.000000	99.524302 
2899.000000	99.528247 
2898.000000	99.529406 
2897.000000	99.526850 
2896.000000	99.522465 
2895.000000	99.518922 
2894.000000	99.517459 
2893.000000	99.517406 
2892.000000	99.517352 
2891.000000	99.516301 
2890.000000	99.513930 
2889.000000	99.510501 
2888.000000	99.506924 
2887.000000	99.504452 
2886.000000	99.503763 
2885.000000	99.504408 
2884.000000	99.505464 
2883.000000	99.506568 
2882.000000	99.507983 
2881.000000	99.509947 
2880.000000	99.512548 
2879.000000	99.516136 
2878.000000	99.521090 
2877.000000	99.526855 
2876.000000	99.531860 
2875.000000	99.535060 
2874.000000	99.537381 
2873.000000	99.540869 
2872.000000	99.546148 
2871.000000	99.551082 
2870.000000	99.552545 
2869.000000	99.549663 
2868.000000	99.545152 
2867.000000	99.543361 
2866.000000	99.546976 
2865.000000	99.555536 
2864.000000	99.566542 
2863.000000	99.577527 
2862.000000	99.587311 
2861.000000	99.596198 
2860.000000	99.605528 
2859.000000	99.616637 
2858.000000	99.629422 
2857.000000	99.641864 
2856.000000	99.651349 
2855.000000	99.656604 
2854.000000	99.658213 
2853.000000	99.657373 
2852.000000	99.654519 
2851.000000	99.649175 
2850.000000	99.640733 
2849.000000	99.629156 
2848.000000	99.615340 
2847.000000	99.601316 
2846.000000	99.589875 
2845.000000	99.583156 
2844.000000	99.580956 
2843.000000	99.580624 
2842.000000	99.579113 
2841.000000	99.575277 
2840.000000	99.569982 
2839.000000	99.564430 
2838.000000	99.559278 
2837.000000	99.555367 
2836.000000	99.553882 
2835.000000	99.554770 
2834.000000	99.555901 
2833.000000	99.555115 
2832.000000	99.552800 
2831.000000	99.551090 
2830.000000	99.550737 
2829.000000	99.550388 
2828.000000	99.549169 
2827.000000	99.548245 
2826.000000	99.548823 
2825.000000	99.549994 
2824.000000	99.549942 
2823.000000	99.548503 
2822.000000	99.547151 
2821.000000	99.546836 
2820.000000	99.547079 
2819.000000	99.547046 
2818.000000	99.546393 
2817.000000	99.545032 
2816.000000	99.543030 
2815.000000	99.540979 
2814.000000	99.539741 
2813.000000	99.539639 
2812.000000	99.540307 
2811.000000	99.541323 
2810.000000	99.542482 
2809.000000	99.543487 
2808.000000	99.543885 
2807.000000	99.543406 
2806.000000	99.542107 
2805.000000	99.540237 
2804.000000	99.538227 
2803.000000	99.536692 
2802.000000	99.536020 
2801.000000	99.535935 
2800.000000	99.535796 
2799.000000	99.535393 
2798.000000	99.535168 
2797.000000	99.535604 
2796.000000	99.536592 
2795.000000	99.537493 
2794.000000	99.537734 
2793.000000	99.537296 
2792.000000	99.536619 
2791.000000	99.536064 
2790.000000	99.535540 
2789.000000	99.534769 
2788.000000	99.533799 
2787.000000	99.533056 
2786.000000	99.532864 
2785.000000	99.533145 
2784.000000	99.533603 
2783.000000	99.534012 
2782.000000	99.534208 
2781.000000	99.534023 
2780.000000	99.533469 
2779.000000	99.532920 
2778.000000	99.532837 
2777.000000	99.533313 
2776.000000	99.534015 
2775.000000	99.534543 
2774.000000	99.534810 
2773.000000	99.534996 
2772.000000	99.535271 
2771.000000	99.535613 
2770.000000	99.535832 
2769.000000	99.535763 
2768.000000	99.535452 
2767.000000	99.535128 
2766.000000	99.534920 
2765.000000	99.534690 
2764.000000	99.534259 
2763.000000	99.533744 
2762.000000	99.533535 
2761.000000	99.533860 
2760.000000	99.534559 
2759.000000	99.535227 
2758.000000	99.535583 
2757.000000	99.535675 
2756.000000	99.535730 
2755.000000	99.535913 
2754.000000	99.536188 
2753.000000	99.536408 
2752.000000	99.536530 
2751.000000	99.536652 
2750.000000	99.536847 
2749.000000	99.537056 
2748.000000	99.537200 
2747.000000	99.537313 
2746.000000	99.537469 
2745.000000	99.537656 
2744.000000	99.537807 
2743.000000	99.537912 
2742.000000	99.538015 
2741.000000	99.538128 
2740.000000	99.538218 
2739.000000	99.538283 
2738.000000	99.538362 
2737.000000	99.538474 
2736.000000	99.538596 
2735.000000	99.538697 
2734.000000	99.538765 
2733.000000	99.538810 
2732.000000	99.538846 
2731.000000	99.538883 
2730.000000	99.538933 
2729.000000	99.538997 
2728.000000	99.539069 
2727.000000	99.539143 
2726.000000	99.539216 
2725.000000	99.539285 
2724.000000	99.539350 
2723.000000	99.539409 
2722.000000	99.539463 
2721.000000	99.539507 
2720.000000	99.539535 
2719.000000	99.539539 
2718.000000	99.539519 
2717.000000	99.539481 
2716.000000	99.539430 
2715.000000	99.539371 
2714.000000	99.539302 
2713.000000	99.539224 
2712.000000	99.539141 
2711.000000	99.539057 
2710.000000	99.538980 
2709.000000	99.538909 
2708.000000	99.538842 
2707.000000	99.538773 
2706.000000	99.538701 
2705.000000	99.538618 
2704.000000	99.538515 
2703.000000	99.538394 
2702.000000	99.538278 
2701.000000	99.538209 
2700.000000	99.538206 
2699.000000	99.538216 
2698.000000	99.538161 
2697.000000	99.537997 
2696.000000	99.537746 
2695.000000	99.537465 
2694.000000	99.537217 
2693.000000	99.537032 
2692.000000	99.536861 
2691.000000	99.536596 
2690.000000	99.536218 
2689.000000	99.535867 
2688.000000	99.535685 
2687.000000	99.535637 
2686.000000	99.535547 
2685.000000	99.535351 
2684.000000	99.535181 
2683.000000	99.535143 
2682.000000	99.535110 
2681.000000	99.534821 
2680.000000	99.534157 
2679.000000	99.533251 
2678.000000	99.532385 
2677.000000	99.531806 
2676.000000	99.531608 
2675.000000	99.531711 
2674.000000	99.531898 
2673.000000	99.531949 
2672.000000	99.531794 
2671.000000	99.531548 
2670.000000	99.531375 
2669.000000	99.531315 
2668.000000	99.531232 
2667.000000	99.530927 
2666.000000	99.530299 
2665.000000	99.529426 
2664.000000	99.528483 
2663.000000	99.527575 
2662.000000	99.526665 
2661.000000	99.525730 
2660.000000	99.524934 
2659.000000	99.524514 
2658.000000	99.524489 
2657.000000	99.524580 
2656.000000	99.524470 
2655.000000	99.524080 
2654.000000	99.523529 
2653.000000	99.522950 
2652.000000	99.522441 
2651.000000	99.522098 
2650.000000	99.521934 
2649.000000	99.521788 
2648.000000	99.521455 
2647.000000	99.520945 
2646.000000	99.520524 
2645.000000	99.520420 
2644.000000	99.520596 
2643.000000	99.520797 
2642.000000	99.520783 
2641.000000	99.520496 
2640.000000	99.520021 
2639.000000	99.519570 
2638.000000	99.519360 
2637.000000	99.519451 
2636.000000	99.519701 
2635.000000	99.519909 
2634.000000	99.520034 
2633.000000	99.520164 
2632.000000	99.520353 
2631.000000	99.520553 
2630.000000	99.520694 
2629.000000	99.520765 
2628.000000	99.520819 
2627.000000	99.520921 
2626.000000	99.521110 
2625.000000	99.521366 
2624.000000	99.521634 
2623.000000	99.521896 
2622.000000	99.522209 
2621.000000	99.522636 
2620.000000	99.523140 
2619.000000	99.523608 
2618.000000	99.523990 
2617.000000	99.524359 
2616.000000	99.524793 
2615.000000	99.525261 
2614.000000	99.525676 
2613.000000	99.526023 
2612.000000	99.526374 
2611.000000	99.526787 
2610.000000	99.527268 
2609.000000	99.527801 
2608.000000	99.528329 
2607.000000	99.528756 
2606.000000	99.529092 
2605.000000	99.529562 
2604.000000	99.530378 
2603.000000	99.531489 
2602.000000	99.532619 
2601.000000	99.533525 
2600.000000	99.534200 
2599.000000	99.534760 
2598.000000	99.535323 
2597.000000	99.535941 
2596.000000	99.536626 
2595.000000	99.537376 
2594.000000	99.538186 
2593.000000	99.539034 
2592.000000	99.539873 
2591.000000	99.540641 
2590.000000	99.541339 
2589.000000	99.542052 
2588.000000	99.542862 
2587.000000	99.543753 
2586.000000	99.544624 
2585.000000	99.545401 
2584.000000	99.546082 
2583.000000	99.546691 
2582.000000	99.547243 
2581.000000	99.547777 
2580.000000	99.548369 
2579.000000	99.549083 
2578.000000	99.549922 
2577.000000	99.550830 
2576.000000	99.551716 
2575.000000	99.552505 
2574.000000	99.553199 
2573.000000	99.553871 
2572.000000	99.554555 
2571.000000	99.555144 
2570.000000	99.555541 
2569.000000	99.555842 
2568.000000	99.556273 
2567.000000	99.556915 
2566.000000	99.557620 
2565.000000	99.558178 
2564.000000	99.558555 
2563.000000	99.558877 
2562.000000	99.559259 
2561.000000	99.559718 
2560.000000	99.560254 
2559.000000	99.560875 
2558.000000	99.561525 
2557.000000	99.562072 
2556.000000	99.562447 
2555.000000	99.562698 
2554.000000	99.562867 
2553.000000	99.562976 
2552.000000	99.563100 
2551.000000	99.563322 
2550.000000	99.563599 
2549.000000	99.563774 
2548.000000	99.563769 
2547.000000	99.563668 
2546.000000	99.563610 
2545.000000	99.563643 
2544.000000	99.563740 
2543.000000	99.563874 
2542.000000	99.564048 
2541.000000	99.564268 
2540.000000	99.564505 
2539.000000	99.564683 
2538.000000	99.564716 
2537.000000	99.564581 
2536.000000	99.564372 
2535.000000	99.564249 
2534.000000	99.564293 
2533.000000	99.564436 
2532.000000	99.564540 
2531.000000	99.564514 
2530.000000	99.564345 
2529.000000	99.564092 
2528.000000	99.563891 
2527.000000	99.563889 
2526.000000	99.564083 
2525.000000	99.564245 
2524.000000	99.564133 
2523.000000	99.563758 
2522.000000	99.563376 
2521.000000	99.563209 
2520.000000	99.563260 
2519.000000	99.563390 
2518.000000	99.563436 
2517.000000	99.563306 
2516.000000	99.563119 
2515.000000	99.563215 
2514.000000	99.563875 
2513.000000	99.564986 
2512.000000	99.565992 
2511.000000	99.566353 
2510.000000	99.565994 
2509.000000	99.565379 
2508.000000	99.565098 
2507.000000	99.565265 
2506.000000	99.565417 
2505.000000	99.565062 
2504.000000	99.564325 
2503.000000	99.563860 
2502.000000	99.564085 
2501.000000	99.564769 
2500.000000	99.565493 
2499.000000	99.566246 
2498.000000	99.567307 
2497.000000	99.568689 
2496.000000	99.570014 
2495.000000	99.570832 
2494.000000	99.570971 
2493.000000	99.570696 
2492.000000	99.570668 
2491.000000	99.571525 
2490.000000	99.573324 
2489.000000	99.575382 
2488.000000	99.576828 
2487.000000	99.577408 
2486.000000	99.577553 
2485.000000	99.577765 
2484.000000	99.578057 
2483.000000	99.578080 
2482.000000	99.577618 
2481.000000	99.576916 
2480.000000	99.576593 
2479.000000	99.577141 
2478.000000	99.578491 
2477.000000	99.580027 
2476.000000	99.581121 
2475.000000	99.581609 
2474.000000	99.581679 
2473.000000	99.581522 
2472.000000	99.581271 
2471.000000	99.581111 
2470.000000	99.581170 
2469.000000	99.581344 
2468.000000	99.581457 
2467.000000	99.581499 
2466.000000	99.581528 
2465.000000	99.581468 
2464.000000	99.581260 
2463.000000	99.581116 
2462.000000	99.581344 
2461.000000	99.581938 
2460.000000	99.582531 
2459.000000	99.582766 
2458.000000	99.582606 
2457.000000	99.582282 
2456.000000	99.582104 
2455.000000	99.582258 
2454.000000	99.582636 
2453.000000	99.582803 
2452.000000	99.582320 
2451.000000	99.581191 
2450.000000	99.579982 
2449.000000	99.579383 
2448.000000	99.579697 
2447.000000	99.580744 
2446.000000	99.582106 
2445.000000	99.583383 
2444.000000	99.584303 
2443.000000	99.584791 
2442.000000	99.584942 
2441.000000	99.584920 
2440.000000	99.584876 
2439.000000	99.584845 
2438.000000	99.584638 
2437.000000	99.583925 
2436.000000	99.582679 
2435.000000	99.581475 
2434.000000	99.581031 
2433.000000	99.581517 
2432.000000	99.582499 
2431.000000	99.583521 
2430.000000	99.584463 
2429.000000	99.585267 
2428.000000	99.585746 
2427.000000	99.585874 
2426.000000	99.585978 
2425.000000	99.586395 
2424.000000	99.587107 
2423.000000	99.587873 
2422.000000	99.588615 
2421.000000	99.589488 
2420.000000	99.590568 
2419.000000	99.591581 
2418.000000	99.592059 
2417.000000	99.591825 
2416.000000	99.591262 
2415.000000	99.590935 
2414.000000	99.590962 
2413.000000	99.591119 
2412.000000	99.591497 
2411.000000	99.592553 
2410.000000	99.594277 
2409.000000	99.595753 
2408.000000	99.596032 
2407.000000	99.595028 
2406.000000	99.593281 
2405.000000	99.591359 
2404.000000	99.589675 
2403.000000	99.588574 
2402.000000	99.588123 
2401.000000	99.587934 
2400.000000	99.587613 
2399.000000	99.587292 
2398.000000	99.587349 
2397.000000	99.587780 
2396.000000	99.588176 
2395.000000	99.588240 
2394.000000	99.588021 
2393.000000	99.587718 
2392.000000	99.587462 
2391.000000	99.587268 
2390.000000	99.587026 
2389.000000	99.586592 
2388.000000	99.585974 
2387.000000	99.585360 
2386.000000	99.584922 
2385.000000	99.584617 
2384.000000	99.584253 
2383.000000	99.583691 
2382.000000	99.582976 
2381.000000	99.582222 
2380.000000	99.581496 
2379.000000	99.580792 
2378.000000	99.580082 
2377.000000	99.579360 
2376.000000	99.578627 
2375.000000	99.577891 
2374.000000	99.577158 
2373.000000	99.576431 
2372.000000	99.575708 
2371.000000	99.574985 
2370.000000	99.574261 
2369.000000	99.573537 
2368.000000	99.572819 
2367.000000	99.572113 
2366.000000	99.571422 
2365.000000	99.570747 
2364.000000	99.570087 
2363.000000	99.569439 
2362.000000	99.568802 
2361.000000	99.568180 
2360.000000	99.567581 
2359.000000	99.567014 
2358.000000	99.566480 
2357.000000	99.565970 
2356.000000	99.565472 
2355.000000	99.564980 
2354.000000	99.564494 
2353.000000	99.564024 
2352.000000	99.563582 
2351.000000	99.563183 
2350.000000	99.562826 
2349.000000	99.562502 
2348.000000	99.562199 
2347.000000	99.561908 
2346.000000	99.561636 
2345.000000	99.561394 
2344.000000	99.561191 
2343.000000	99.561024 
2342.000000	99.560888 
2341.000000	99.560767 
2340.000000	99.560627 
2339.000000	99.560462 
2338.000000	99.560320 
2337.000000	99.560245 
2336.000000	99.560250 
2335.000000	99.560299 
2334.000000	99.560378 
2333.000000	99.560495 
2332.000000	99.560817 
2331.000000	99.561380 
2330.000000	99.562062 
2329.000000	99.562457 
2328.000000	99.562449 
2327.000000	99.562030 
2326.000000	99.561375 
2325.000000	99.560764 
2324.000000	99.560729 
2323.000000	99.561674 
2322.000000	99.563269 
2321.000000	99.564741 
2320.000000	99.565967 
2319.000000	99.567369 
2318.000000	99.569291 
2317.000000	99.570835 
2316.000000	99.571351 
2315.000000	99.570540 
2314.000000	99.569199 
2313.000000	99.567430 
2312.000000	99.565585 
2311.000000	99.563605 
2310.000000	99.562168 
2309.000000	99.561589 
2308.000000	99.562479 
2307.000000	99.564539 
2306.000000	99.567176 
2305.000000	99.569269 
2304.000000	99.570643 
2303.000000	99.571497 
2302.000000	99.572275 
2301.000000	99.572375 
2300.000000	99.571554 
2299.000000	99.569951 
2298.000000	99.568707 
2297.000000	99.568227 
2296.000000	99.568484 
2295.000000	99.568690 
2294.000000	99.568222 
2293.000000	99.566545 
2292.000000	99.564076 
2291.000000	99.561846 
2290.000000	99.560488 
2289.000000	99.559491 
2288.000000	99.558047 
2287.000000	99.556543 
2286.000000	99.556278 
2285.000000	99.558023 
2284.000000	99.561219 
2283.000000	99.564929 
2282.000000	99.568497 
2281.000000	99.571561 
2280.000000	99.573843 
2279.000000	99.575407 
2278.000000	99.576618 
2277.000000	99.577923 
2276.000000	99.579865 
2275.000000	99.582792 
2274.000000	99.586256 
2273.000000	99.588872 
2272.000000	99.589545 
2271.000000	99.588638 
2270.000000	99.587755 
2269.000000	99.588239 
2268.000000	99.590096 
2267.000000	99.592261 
2266.000000	99.593699 
2265.000000	99.594324 
2264.000000	99.594958 
2263.000000	99.596310 
2262.000000	99.598055 
2261.000000	99.599214 
2260.000000	99.599328 
2259.000000	99.598958 
2258.000000	99.598934 
2257.000000	99.599487 
2256.000000	99.600367 
2255.000000	99.601395 
2254.000000	99.602583 
2253.000000	99.603886 
2252.000000	99.605179 
2251.000000	99.606446 
2250.000000	99.607798 
2249.000000	99.609264 
2248.000000	99.610725 
2247.000000	99.612014 
2246.000000	99.613093 
2245.000000	99.614058 
2244.000000	99.615026 
2243.000000	99.616056 
2242.000000	99.617141 
2241.000000	99.618263 
2240.000000	99.619440 
2239.000000	99.620746 
2238.000000	99.622213 
2237.000000	99.623673 
2236.000000	99.624868 
2235.000000	99.625770 
2234.000000	99.626701 
2233.000000	99.628015 
2232.000000	99.629759 
2231.000000	99.631720 
2230.000000	99.633649 
2229.000000	99.635330 
2228.000000	99.636528 
2227.000000	99.637081 
2226.000000	99.637077 
2225.000000	99.636894 
2224.000000	99.637117 
2223.000000	99.638285 
2222.000000	99.640396 
2221.000000	99.642595 
2220.000000	99.643743 
2219.000000	99.643675 
2218.000000	99.643673 
2217.000000	99.645260 
2216.000000	99.648634 
2215.000000	99.652568 
2214.000000	99.655677 
2213.000000	99.657476 
2212.000000	99.658089 
2211.000000	99.657781 
2210.000000	99.657145 
2209.000000	99.657255 
2208.000000	99.658928 
2207.000000	99.661897 
2206.000000	99.665155 
2205.000000	99.668144 
2204.000000	99.671103 
2203.000000	99.674241 
2202.000000	99.677194 
2201.000000	99.679547 
2200.000000	99.681190 
2199.000000	99.682000 
2198.000000	99.681633 
2197.000000	99.679940 
2196.000000	99.677641 
2195.000000	99.676141 
2194.000000	99.676364 
2193.000000	99.677952 
2192.000000	99.679490 
2191.000000	99.679581 
2190.000000	99.678021 
2189.000000	99.676095 
2188.000000	99.675347 
2187.000000	99.676071 
2186.000000	99.677613 
2185.000000	99.680000 
2184.000000	99.684161 
2183.000000	99.689904 
2182.000000	99.694751 
2181.000000	99.696199 
2180.000000	99.694667 
2179.000000	99.692859 
2178.000000	99.692296 
2177.000000	99.692280 
2176.000000	99.692440 
2175.000000	99.694120 
2174.000000	99.698134 
2173.000000	99.702765 
2172.000000	99.705621 
2171.000000	99.706551 
2170.000000	99.707324 
2169.000000	99.709105 
2168.000000	99.711430 
2167.000000	99.713264 
2166.000000	99.713801 
2165.000000	99.712353 
2164.000000	99.708713 
2163.000000	99.704159 
2162.000000	99.701536 
2161.000000	99.703853 
2160.000000	99.712601 
2159.000000	99.726414 
2158.000000	99.740485 
2157.000000	99.749229 
2156.000000	99.750605 
2155.000000	99.747188 
2154.000000	99.743431 
2153.000000	99.741631 
2152.000000	99.740880 
2151.000000	99.739124 
2150.000000	99.735270 
2149.000000	99.729955 
2148.000000	99.725391 
2147.000000	99.724211 
2146.000000	99.727650 
2145.000000	99.734626 
2144.000000	99.742722 
2143.000000	99.749750 
2142.000000	99.753888 
2141.000000	99.753322 
2140.000000	99.747442 
2139.000000	99.738500 
2138.000000	99.730856 
2137.000000	99.727420 
2136.000000	99.727194 
2135.000000	99.726796 
2134.000000	99.724075 
2133.000000	99.719869 
2132.000000	99.716533 
2131.000000	99.715283 
2130.000000	99.715072 
2129.000000	99.713605 
2128.000000	99.709326 
2127.000000	99.702734 
2126.000000	99.696091 
2125.000000	99.691586 
2124.000000	99.689392 
2123.000000	99.687676 
2122.000000	99.684827 
2121.000000	99.681359 
2120.000000	99.678833 
2119.000000	99.677136 
2118.000000	99.674213 
2117.000000	99.669057 
2116.000000	99.663691 
2115.000000	99.660978 
2114.000000	99.661550 
2113.000000	99.663917 
2112.000000	99.666969 
2111.000000	99.670461 
2110.000000	99.673130 
2109.000000	99.672826 
2108.000000	99.669184 
2107.000000	99.664647 
2106.000000	99.661986 
2105.000000	99.661496 
2104.000000	99.661403 
2103.000000	99.660367 
2102.000000	99.658813 
2101.000000	99.657928 
2100.000000	99.658069 
2099.000000	99.658454 
2098.000000	99.658408 
2097.000000	99.658645 
2096.000000	99.660700 
2095.000000	99.664748 
2094.000000	99.668616 
2093.000000	99.669943 
2092.000000	99.668623 
2091.000000	99.666412 
2090.000000	99.664785 
2089.000000	99.663645 
2088.000000	99.662054 
2087.000000	99.659506 
2086.000000	99.656474 
2085.000000	99.654267 
2084.000000	99.654295 
2083.000000	99.657037 
2082.000000	99.661541 
2081.000000	99.665994 
2080.000000	99.669125 
2079.000000	99.670792 
2078.000000	99.671321 
2077.000000	99.670956 
2076.000000	99.669996 
2075.000000	99.668928 
2074.000000	99.668140 
2073.000000	99.667794 
2072.000000	99.668097 
2071.000000	99.669418 
2070.000000	99.671862 
2069.000000	99.674852 
2068.000000	99.677381 
2067.000000	99.678651 
2066.000000	99.678574 
2065.000000	99.678127 
2064.000000	99.679010 
2063.000000	99.682096 
2062.000000	99.686070 
2061.000000	99.688351 
2060.000000	99.687757 
2059.000000	99.685776 
2058.000000	99.685120 
2057.000000	99.687609 
2056.000000	99.693390 
2055.000000	99.700777 
2054.000000	99.706354 
2053.000000	99.706645 
2052.000000	99.700752 
2051.000000	99.691260 
2050.000000	99.682447 
2049.000000	99.677535 
2048.000000	99.677779 
2047.000000	99.682945 
2046.000000	99.691611 
2045.000000	99.701447 
2044.000000	99.710408 
2043.000000	99.717302 
2042.000000	99.721232 
2041.000000	99.721947 
2040.000000	99.721219 
2039.000000	99.722218 
2038.000000	99.726744 
2037.000000	99.734120 
2036.000000	99.742869 
2035.000000	99.751944 
2034.000000	99.760044 
2033.000000	99.765736 
2032.000000	99.768878 
2031.000000	99.769959 
2030.000000	99.768077 
2029.000000	99.762418 
2028.000000	99.755795 
2027.000000	99.753067 
2026.000000	99.755087 
2025.000000	99.757292 
2024.000000	99.755670 
2023.000000	99.751437 
2022.000000	99.748349 
2021.000000	99.747670 
2020.000000	99.747821 
2019.000000	99.747304 
2018.000000	99.745947 
2017.000000	99.744266 
2016.000000	99.743220 
2015.000000	99.743997 
2014.000000	99.747020 
2013.000000	99.751030 
2012.000000	99.753220 
2011.000000	99.750827 
2010.000000	99.743823 
2009.000000	99.736360 
2008.000000	99.733136 
2007.000000	99.733324 
2006.000000	99.731436 
2005.000000	99.725390 
2004.000000	99.720088 
2003.000000	99.720204 
2002.000000	99.723072 
2001.000000	99.722328 
2000.000000	99.717039 
1999.000000	99.712363 
1998.000000	99.711481 
1997.000000	99.711923 
1996.000000	99.710737 
1995.000000	99.708893 
1994.000000	99.708184 
1993.000000	99.707404 
1992.000000	99.704607 
1991.000000	99.700984 
1990.000000	99.699481 
1989.000000	99.700937 
1988.000000	99.703521 
1987.000000	99.704952 
1986.000000	99.704404 
1985.000000	99.702737 
1984.000000	99.701638 
1983.000000	99.701972 
1982.000000	99.702712 
1981.000000	99.702270 
1980.000000	99.700912 
1979.000000	99.700594 
1978.000000	99.702141 
1977.000000	99.704167 
1976.000000	99.705489 
1975.000000	99.706908 
1974.000000	99.709241 
1973.000000	99.711249 
1972.000000	99.711091 
1971.000000	99.708552 
1970.000000	99.704519 
1969.000000	99.699554 
1968.000000	99.694348 
1967.000000	99.690538 
1966.000000	99.689373 
1965.000000	99.690227 
1964.000000	99.691299 
1963.000000	99.691622 
1962.000000	99.691581 
1961.000000	99.691629 
1960.000000	99.691384 
1959.000000	99.690160 
1958.000000	99.687863 
1957.000000	99.685248 
1956.000000	99.683339 
1955.000000	99.682488 
1954.000000	99.682063 
1953.000000	99.681007 
1952.000000	99.678943 
1951.000000	99.676395 
1950.000000	99.674220 
1949.000000	99.672775 
1948.000000	99.671847 
1947.000000	99.671033 
1946.000000	99.669999 
1945.000000	99.668615 
1944.000000	99.666961 
1943.000000	99.665259 
1942.000000	99.663638 
1941.000000	99.661992 
1940.000000	99.660171 
1939.000000	99.658189 
1938.000000	99.656179 
1937.000000	99.654222 
1936.000000	99.652310 
1935.000000	99.650417 
1934.000000	99.648534 
1933.000000	99.646635 
1932.000000	99.644706 
1931.000000	99.642772 
1930.000000	99.640877 
1929.000000	99.639050 
1928.000000	99.637298 
1927.000000	99.635603 
1926.000000	99.633918 
1925.000000	99.632182 
1924.000000	99.630396 
1923.000000	99.628688 
1922.000000	99.627195 
1921.000000	99.625913 
1920.000000	99.624641 
1919.000000	99.623127 
1918.000000	99.621227 
1917.000000	99.619025 
1916.000000	99.616852 
1915.000000	99.614989 
1914.000000	99.613335 
1913.000000	99.611516 
1912.000000	99.609481 
1911.000000	99.607739 
1910.000000	99.606621 
1909.000000	99.605629 
1908.000000	99.604000 
1907.000000	99.601531 
1906.000000	99.598602 
1905.000000	99.595848 
1904.000000	99.593824 
1903.000000	99.592619 
1902.000000	99.591484 
1901.000000	99.589669 
1900.000000	99.587557 
1899.000000	99.586190 
1898.000000	99.585773 
1897.000000	99.585257 
1896.000000	99.583584 
1895.000000	99.580750 
1894.000000	99.577343 
1893.000000	99.574035 
1892.000000	99.571626 
1891.000000	99.570685 
1890.000000	99.570931 
1889.000000	99.571487 
1888.000000	99.571988 
1887.000000	99.572340 
1886.000000	99.571675 
1885.000000	99.569024 
1884.000000	99.565081 
1883.000000	99.561931 
1882.000000	99.560567 
1881.000000	99.560373 
1880.000000	99.560787 
1879.000000	99.561799 
1878.000000	99.562911 
1877.000000	99.563337 
1876.000000	99.563575 
1875.000000	99.565044 
1874.000000	99.567563 
1873.000000	99.569050 
1872.000000	99.568535 
1871.000000	99.567411 
1870.000000	99.566895 
1869.000000	99.566225 
1868.000000	99.565177 
1867.000000	99.565183 
1866.000000	99.566332 
1865.000000	99.567281 
1864.000000	99.568019 
1863.000000	99.570098 
1862.000000	99.573514 
1861.000000	99.575522 
1860.000000	99.574325 
1859.000000	99.571824 
1858.000000	99.570898 
1857.000000	99.571834 
1856.000000	99.573183 
1855.000000	99.574086 
1854.000000	99.574550 
1853.000000	99.574902 
1852.000000	99.575808 
1851.000000	99.577864 
1850.000000	99.580769 
1849.000000	99.583877 
1848.000000	99.587204 
1847.000000	99.591161 
1846.000000	99.595104 
1845.000000	99.597571 
1844.000000	99.598567 
1843.000000	99.599492 
1842.000000	99.600045 
1841.000000	99.598886 
1840.000000	99.595908 
1839.000000	99.592776 
1838.000000	99.591305 
1837.000000	99.591551 
1836.000000	99.592488 
1835.000000	99.593571 
1834.000000	99.594678 
1833.000000	99.595310 
1832.000000	99.594463 
1831.000000	99.591980 
1830.000000	99.589517 
1829.000000	99.588774 
1828.000000	99.589463 
1827.000000	99.590581 
1826.000000	99.591557 
1825.000000	99.591895 
1824.000000	99.591462 
1823.000000	99.590959 
1822.000000	99.591007 
1821.000000	99.591279 
1820.000000	99.591281 
1819.000000	99.591485 
1818.000000	99.592330 
1817.000000	99.592831 
1816.000000	99.591989 
1815.000000	99.590408 
1814.000000	99.589289 
1813.000000	99.588773 
1812.000000	99.588317 
1811.000000	99.588117 
1810.000000	99.588464 
1809.000000	99.588511 
1808.000000	99.587646 
1807.000000	99.586450 
1806.000000	99.585496 
1805.000000	99.584605 
1804.000000	99.583791 
1803.000000	99.583734 
1802.000000	99.584761 
1801.000000	99.586056 
1800.000000	99.586694 
1799.000000	99.586863 
1798.000000	99.586914 
1797.000000	99.586610 
1796.000000	99.586161 
1795.000000	99.586561 
1794.000000	99.588244 
1793.000000	99.590015 
1792.000000	99.590571 
1791.000000	99.590740 
1790.000000	99.591431 
1789.000000	99.591705 
1788.000000	99.590811 
1787.000000	99.589790 
1786.000000	99.590083 
1785.000000	99.591360 
1784.000000	99.592331 
1783.000000	99.592642 
1782.000000	99.592849 
1781.000000	99.593389 
1780.000000	99.594506 
1779.000000	99.596355 
1778.000000	99.598421 
1777.000000	99.599559 
1776.000000	99.599112 
1775.000000	99.597594 
1774.000000	99.596460 
1773.000000	99.597134 
1772.000000	99.599310 
1771.000000	99.602453 
1770.000000	99.607353 
1769.000000	99.613589 
1768.000000	99.618131 
1767.000000	99.619092 
1766.000000	99.618118 
1765.000000	99.617360 
1764.000000	99.616717 
1763.000000	99.615531 
1762.000000	99.615485 
1761.000000	99.618291 
1760.000000	99.622742 
1759.000000	99.627168 
1758.000000	99.631458 
1757.000000	99.635846 
1756.000000	99.639281 
1755.000000	99.641478 
1754.000000	99.645156 
1753.000000	99.652587 
1752.000000	99.661253 
1751.000000	99.665915 
1750.000000	99.666189 
1749.000000	99.666184 
1748.000000	99.666759 
1747.000000	99.665733 
1746.000000	99.663983 
1745.000000	99.664576 
1744.000000	99.667117 
1743.000000	99.668726 
1742.000000	99.669271 
1741.000000	99.670281 
1740.000000	99.671075 
1739.000000	99.670244 
1738.000000	99.669029 
1737.000000	99.669098 
1736.000000	99.670097 
1735.000000	99.670901 
1734.000000	99.671066 
1733.000000	99.671224 
1732.000000	99.671454 
1731.000000	99.671465 
1730.000000	99.671657 
1729.000000	99.672844 
1728.000000	99.674537 
1727.000000	99.675386 
1726.000000	99.675171 
1725.000000	99.674791 
1724.000000	99.674792 
1723.000000	99.675040 
1722.000000	99.675430 
1721.000000	99.676003 
1720.000000	99.676787 
1719.000000	99.677834 
1718.000000	99.679040 
1717.000000	99.679391 
1716.000000	99.678910 
1715.000000	99.678920 
1714.000000	99.679626 
1713.000000	99.680415 
1712.000000	99.681153 
1711.000000	99.681982 
1710.000000	99.682819 
1709.000000	99.683460 
1708.000000	99.683922 
1707.000000	99.684426 
1706.000000	99.685050 
1705.000000	99.685655 
1704.000000	99.686280 
1703.000000	99.687228 
1702.000000	99.688571 
1701.000000	99.689998 
1700.000000	99.691046 
1699.000000	99.692089 
1698.000000	99.693473 
1697.000000	99.694946 
1696.000000	99.696196 
1695.000000	99.697362 
1694.000000	99.698624 
1693.000000	99.699866 
1692.000000	99.701080 
1691.000000	99.702434 
1690.000000	99.704023 
1689.000000	99.705669 
1688.000000	99.707137 
1687.000000	99.708509 
1686.000000	99.709936 
1685.000000	99.711439 
1684.000000	99.713068 
1683.000000	99.715040 
1682.000000	99.716992 
1681.000000	99.719025 
1680.000000	99.721006 
1679.000000	99.722720 
1678.000000	99.724262 
1677.000000	99.726093 
1676.000000	99.728425 
1675.000000	99.730708 
1674.000000	99.732687 
1673.000000	99.734688 
1672.000000	99.736584 
1671.000000	99.737827 
1670.000000	99.738375 
1669.000000	99.739328 
1668.000000	99.741453 
1667.000000	99.743918 
1666.000000	99.745898 
1665.000000	99.747225 
1664.000000	99.748138 
1663.000000	99.749007 
1662.000000	99.750066 
1661.000000	99.751547 
1660.000000	99.753500 
1659.000000	99.755221 
1658.000000	99.756160 
1657.000000	99.756594 
1656.000000	99.757352 
1655.000000	99.758221 
1654.000000	99.758706 
1653.000000	99.758929 
1652.000000	99.759867 
1651.000000	99.761200 
1650.000000	99.763083 
1649.000000	99.765065 
1648.000000	99.766861 
1647.000000	99.768250 
1646.000000	99.769334 
1645.000000	99.770272 
1644.000000	99.771325 
1643.000000	99.772608 
1642.000000	99.773950 
1641.000000	99.775184 
1640.000000	99.776341 
1639.000000	99.777473 
1638.000000	99.778532 
1637.000000	99.779475 
1636.000000	99.780364 
1635.000000	99.781206 
1634.000000	99.782041 
1633.000000	99.782955 
1632.000000	99.783936 
1631.000000	99.784925 
1630.000000	99.785882 
1629.000000	99.786814 
1628.000000	99.787744 
1627.000000	99.788679 
1626.000000	99.789614 
1625.000000	99.790554 
1624.000000	99.791520 
1623.000000	99.792539 
1622.000000	99.793564 
1621.000000	99.794544 
1620.000000	99.795566 
1619.000000	99.796688 
1618.000000	99.797710 
1617.000000	99.798532 
1616.000000	99.799528 
1615.000000	99.800560 
1614.000000	99.801076 
1613.000000	99.801451 
1612.000000	99.802550 
1611.000000	99.804332 
1610.000000	99.805553 
1609.000000	99.805855 
1608.000000	99.806322 
1607.000000	99.807139 
1606.000000	99.807267 
1605.000000	99.806872 
1604.000000	99.807330 
1603.000000	99.808724 
1602.000000	99.809942 
1601.000000	99.811035 
1600.000000	99.812731 
1599.000000	99.814128 
1598.000000	99.813810 
1597.000000	99.812421 
1596.000000	99.811972 
1595.000000	99.812898 
1594.000000	99.813690 
1593.000000	99.813686 
1592.000000	99.813703 
1591.000000	99.813797 
1590.000000	99.813049 
1589.000000	99.811939 
1588.000000	99.812160 
1587.000000	99.813643 
1586.000000	99.814514 
1585.000000	99.814420 
1584.000000	99.814837 
1583.000000	99.815832 
1582.000000	99.815720 
1581.000000	99.814408 
1580.000000	99.813250 
1579.000000	99.812069 
1578.000000	99.809415 
1577.000000	99.806045 
1576.000000	99.804758 
1575.000000	99.804780 
1574.000000	99.803304 
1573.000000	99.800812 
1572.000000	99.798557 
1571.000000	99.796671 
1570.000000	99.795004 
1569.000000	99.794880 
1568.000000	99.796510 
1567.000000	99.797080 
1566.000000	99.795081 
1565.000000	99.791843 
1564.000000	99.789129 
1563.000000	99.786618 
1562.000000	99.783447 
1561.000000	99.781117 
1560.000000	99.782171 
1559.000000	99.782881 
1558.000000	99.777372 
1557.000000	99.769645 
1556.000000	99.764890 
1555.000000	99.761696 
1554.000000	99.757689 
1553.000000	99.753173 
1552.000000	99.749449 
1551.000000	99.746752 
1550.000000	99.744331 
1549.000000	99.741746 
1548.000000	99.738963 
1547.000000	99.735677 
1546.000000	99.731050 
1545.000000	99.724580 
1544.000000	99.717441 
1543.000000	99.711785 
1542.000000	99.708241 
1541.000000	99.704916 
1540.000000	99.700994 
1539.000000	99.696528 
1538.000000	99.689858 
1537.000000	99.681681 
1536.000000	99.673591 
1535.000000	99.666169 
1534.000000	99.659230 
1533.000000	99.652344 
1532.000000	99.645849 
1531.000000	99.640564 
1530.000000	99.635891 
1529.000000	99.629924 
1528.000000	99.622213 
1527.000000	99.614133 
1526.000000	99.606801 
1525.000000	99.599445 
1524.000000	99.591683 
1523.000000	99.584618 
1522.000000	99.578584 
1521.000000	99.571323 
1520.000000	99.561969 
1519.000000	99.552915 
1518.000000	99.546480 
1517.000000	99.542180 
1516.000000	99.538387 
1515.000000	99.534649 
1514.000000	99.531526 
1513.000000	99.527716 
1512.000000	99.520409 
1511.000000	99.510638 
1510.000000	99.502521 
1509.000000	99.496994 
1508.000000	99.490554 
1507.000000	99.484385 
1506.000000	99.480375 
1505.000000	99.472714 
1504.000000	99.461824 
1503.000000	99.451604 
1502.000000	99.442592 
1501.000000	99.433509 
1500.000000	99.422873 
1499.000000	99.412812 
1498.000000	99.408569 
1497.000000	99.409631 
1496.000000	99.408636 
1495.000000	99.404295 
1494.000000	99.401090 
1493.000000	99.399326 
1492.000000	99.395090 
1491.000000	99.386303 
1490.000000	99.375799 
1489.000000	99.365796 
1488.000000	99.356386 
1487.000000	99.350117 
1486.000000	99.346936 
1485.000000	99.344305 
1484.000000	99.341854 
1483.000000	99.340285 
1482.000000	99.339551 
1481.000000	99.338099 
1480.000000	99.335417 
1479.000000	99.333410 
1478.000000	99.332990 
1477.000000	99.331972 
1476.000000	99.329105 
1475.000000	99.327720 
1474.000000	99.329508 
1473.000000	99.330971 
1472.000000	99.328370 
1471.000000	99.324548 
1470.000000	99.322719 
1469.000000	99.321454 
1468.000000	99.318248 
1467.000000	99.314311 
1466.000000	99.312692 
1465.000000	99.313122 
1464.000000	99.312591 
1463.000000	99.310018 
1462.000000	99.306999 
1461.000000	99.303793 
1460.000000	99.299712 
1459.000000	99.295659 
1458.000000	99.296675 
1457.000000	99.304831 
1456.000000	99.310436 
1455.000000	99.307910 
1454.000000	99.303149 
1453.000000	99.299373 
1452.000000	99.295157 
1451.000000	99.290494 
1450.000000	99.288541 
1449.000000	99.289588 
1448.000000	99.289168 
1447.000000	99.285661 
1446.000000	99.282814 
1445.000000	99.282913 
1444.000000	99.283949 
1443.000000	99.283770 
1442.000000	99.283868 
1441.000000	99.286343 
1440.000000	99.289480 
1439.000000	99.290454 
1438.000000	99.291105 
1437.000000	99.294936 
1436.000000	99.300237 
1435.000000	99.304588 
1434.000000	99.309920 
1433.000000	99.316395 
1432.000000	99.321275 
1431.000000	99.323020 
1430.000000	99.324860 
1429.000000	99.329758 
1428.000000	99.335128 
1427.000000	99.338270 
1426.000000	99.341218 
1425.000000	99.347963 
1424.000000	99.356958 
1423.000000	99.362575 
1422.000000	99.365122 
1421.000000	99.369449 
1420.000000	99.376452 
1419.000000	99.382476 
1418.000000	99.388785 
1417.000000	99.396855 
1416.000000	99.402695 
1415.000000	99.403925 
1414.000000	99.403254 
1413.000000	99.404574 
1412.000000	99.407593 
1411.000000	99.410150 
1410.000000	99.413673 
1409.000000	99.419902 
1408.000000	99.426625 
1407.000000	99.431570 
1406.000000	99.436480 
1405.000000	99.444783 
1404.000000	99.455426 
1403.000000	99.464642 
1402.000000	99.472425 
1401.000000	99.480757 
1400.000000	99.489350 
1399.000000	99.495928 
1398.000000	99.500386 
1397.000000	99.504255 
1396.000000	99.507684 
1395.000000	99.510397 
1394.000000	99.514653 
1393.000000	99.523480 
1392.000000	99.535613 
1391.000000	99.547309 
1390.000000	99.556859 
1389.000000	99.564965 
1388.000000	99.572212 
1387.000000	99.578075 
1386.000000	99.582565 
1385.000000	99.586844 
1384.000000	99.591404 
1383.000000	99.595742 
1382.000000	99.600113 
1381.000000	99.605477 
1380.000000	99.611996 
1379.000000	99.618422 
1378.000000	99.623608 
1377.000000	99.628045 
1376.000000	99.633047 
1375.000000	99.639174 
1374.000000	99.646265 
1373.000000	99.653974 
1372.000000	99.661167 
1371.000000	99.666526 
1370.000000	99.669945 
1369.000000	99.673754 
1368.000000	99.679760 
1367.000000	99.686546 
1366.000000	99.691763 
1365.000000	99.694945 
1364.000000	99.697349 
1363.000000	99.700524 
1362.000000	99.704871 
1361.000000	99.709608 
1360.000000	99.713993 
1359.000000	99.718093 
1358.000000	99.722570 
1357.000000	99.728106 
1356.000000	99.734061 
1355.000000	99.738664 
1354.000000	99.741137 
1353.000000	99.742491 
1352.000000	99.744483 
1351.000000	99.748171 
1350.000000	99.752568 
1349.000000	99.756771 
1348.000000	99.760048 
1347.000000	99.761658 
1346.000000	99.762251 
1345.000000	99.764242 
1344.000000	99.768866 
1343.000000	99.774155 
1342.000000	99.777256 
1341.000000	99.777980 
1340.000000	99.778495 
1339.000000	99.780017 
1338.000000	99.782035 
1337.000000	99.784208 
1336.000000	99.786446 
1335.000000	99.788240 
1334.000000	99.789594 
1333.000000	99.791633 
1332.000000	99.794856 
1331.000000	99.797603 
1330.000000	99.797906 
1329.000000	99.796379 
1328.000000	99.795260 
1327.000000	99.795364 
1326.000000	99.795960 
1325.000000	99.797512 
1324.000000	99.800506 
1323.000000	99.803259 
1322.000000	99.803655 
1321.000000	99.802013 
1320.000000	99.800373 
1319.000000	99.800206 
1318.000000	99.802033 
1317.000000	99.805577 
1316.000000	99.809195 
1315.000000	99.810811 
1314.000000	99.810571 
1313.000000	99.810755 
1312.000000	99.812264 
1311.000000	99.813399 
1310.000000	99.813198 
1309.000000	99.813299 
1308.000000	99.815139 
1307.000000	99.817501 
1306.000000	99.818228 
1305.000000	99.817532 
1304.000000	99.816792 
1303.000000	99.816291 
1302.000000	99.815625 
1301.000000	99.814845 
1300.000000	99.813793 
1299.000000	99.812054 
1298.000000	99.810592 
1297.000000	99.811374 
1296.000000	99.814392 
1295.000000	99.816801 
1294.000000	99.816573 
1293.000000	99.815037 
1292.000000	99.814506 
1291.000000	99.815136 
1290.000000	99.815480 
1289.000000	99.814680 
1288.000000	99.812794 
1287.000000	99.810106 
1286.000000	99.807325 
1285.000000	99.805594 
1284.000000	99.805574 
1283.000000	99.807239 
1282.000000	99.810242 
1281.000000	99.813253 
1280.000000	99.813725 
1279.000000	99.810214 
1278.000000	99.805226 
1277.000000	99.803187 
1276.000000	99.805357 
1275.000000	99.808883 
1274.000000	99.811244 
1273.000000	99.812904 
1272.000000	99.814823 
1271.000000	99.816236 
1270.000000	99.816271 
1269.000000	99.815483 
1268.000000	99.814473 
1267.000000	99.813156 
1266.000000	99.812332 
1265.000000	99.813060 
1264.000000	99.814104 
1263.000000	99.813197 
1262.000000	99.811209 
1261.000000	99.811448 
1260.000000	99.814032 
1259.000000	99.814554 
1258.000000	99.810334 
1257.000000	99.803917 
1256.000000	99.798702 
1255.000000	99.794740 
1254.000000	99.790944 
1253.000000	99.788117 
1252.000000	99.787192 
1251.000000	99.786631 
1250.000000	99.783938 
1249.000000	99.778176 
1248.000000	99.769714 
1247.000000	99.759632 
1246.000000	99.750612 
1245.000000	99.745249 
1244.000000	99.742135 
1243.000000	99.736512 
1242.000000	99.726269 
1241.000000	99.714459 
1240.000000	99.704425 
1239.000000	99.695343 
1238.000000	99.684462 
1237.000000	99.671205 
1236.000000	99.656987 
1235.000000	99.642834 
1234.000000	99.628909 
1233.000000	99.615096 
1232.000000	99.600896 
1231.000000	99.585996 
1230.000000	99.571107 
1229.000000	99.556133 
1228.000000	99.537661 
1227.000000	99.511257 
1226.000000	99.476747 
1225.000000	99.438523 
1224.000000	99.399974 
1223.000000	99.360359 
1222.000000	99.317989 
1221.000000	99.273252 
1220.000000	99.226811 
1219.000000	99.177289 
1218.000000	99.122760 
1217.000000	99.063023 
1216.000000	98.999096 
1215.000000	98.931878 
1214.000000	98.862385 
1213.000000	98.792045 
1212.000000	98.721779 
1211.000000	98.651558 
1210.000000	98.580864 
1209.000000	98.508812 
1208.000000	98.434438 
1207.000000	98.358406 
1206.000000	98.283789 
1205.000000	98.213124 
1204.000000	98.144959 
1203.000000	98.075144 
1202.000000	98.001616 
1201.000000	97.926251 
1200.000000	97.851792 
1199.000000	97.778764 
1198.000000	97.706437 
1197.000000	97.635312 
1196.000000	97.566974 
1195.000000	97.501690 
1194.000000	97.437302 
1193.000000	97.371124 
1192.000000	97.302381 
1191.000000	97.232157 
1190.000000	97.161280 
1189.000000	97.089230 
1188.000000	97.015348 
1187.000000	96.939979 
1186.000000	96.863632 
1185.000000	96.785951 
1184.000000	96.706733 
1183.000000	96.627003 
1182.000000	96.547324 
1181.000000	96.465755 
1180.000000	96.379653 
1179.000000	96.289337 
1178.000000	96.197863 
1177.000000	96.106766 
1176.000000	96.013872 
1175.000000	95.915906 
1174.000000	95.811804 
1173.000000	95.703133 
1172.000000	95.592740 
1171.000000	95.483604 
1170.000000	95.377612 
1169.000000	95.274646 
1168.000000	95.173998 
1167.000000	95.077645 
1166.000000	94.991851 
1165.000000	94.925372 
1164.000000	94.886149 
1163.000000	94.878443 
1162.000000	94.900803 
1161.000000	94.945322 
1160.000000	94.998699 
1159.000000	95.045033 
1158.000000	95.070184 
1157.000000	95.065779 
1156.000000	95.030360 
1155.000000	94.968056 
1154.000000	94.886750 
1153.000000	94.795995 
1152.000000	94.703952 
1151.000000	94.614276 
1150.000000	94.525816 
1149.000000	94.436367 
1148.000000	94.346678 
1147.000000	94.259775 
1146.000000	94.176570 
1145.000000	94.093903 
1144.000000	94.007622 
1143.000000	93.916517 
1142.000000	93.822894 
1141.000000	93.730331 
1140.000000	93.641239 
1139.000000	93.555467 
1138.000000	93.470610 
1137.000000	93.384148 
1136.000000	93.295410 
1135.000000	93.205358 
1134.000000	93.115656 
1133.000000	93.028754 
1132.000000	92.946875 
1131.000000	92.868643 
1130.000000	92.788525 
1129.000000	92.702805 
1128.000000	92.614624 
1127.000000	92.529352 
1126.000000	92.446273 
1125.000000	92.359709 
1124.000000	92.267991 
1123.000000	92.175758 
1122.000000	92.086559 
1121.000000	91.998620 
1120.000000	91.909979 
1119.000000	91.822768 
1118.000000	91.739454 
1117.000000	91.658627 
1116.000000	91.577183 
1115.000000	91.493766 
1114.000000	91.408302 
1113.000000	91.321269 
1112.000000	91.234957 
1111.000000	91.152350 
1110.000000	91.073870 
1109.000000	90.998132 
1108.000000	90.925114 
1107.000000	90.855223 
1106.000000	90.785744 
1105.000000	90.713535 
1104.000000	90.641276 
1103.000000	90.575186 
1102.000000	90.515920 
1101.000000	90.457944 
1100.000000	90.397727 
1099.000000	90.339324 
1098.000000	90.286485 
1097.000000	90.237659 
1096.000000	90.190050 
1095.000000	90.143807 
1094.000000	90.100074 
1093.000000	90.059390 
1092.000000	90.023409 
1091.000000	89.993714 
1090.000000	89.968004 
1089.000000	89.942406 
1088.000000	89.918142 
1087.000000	89.900508 
1086.000000	89.890651 
1085.000000	89.884055 
1084.000000	89.877752 
1083.000000	89.873189 
1082.000000	89.871313 
1081.000000	89.870830 
1080.000000	89.871949 
1079.000000	89.875686 
1078.000000	89.878921 
1077.000000	89.876770 
1076.000000	89.870379 
1075.000000	89.865122 
1074.000000	89.859696 
1073.000000	89.843976 
1072.000000	89.809040 
1071.000000	89.752382 
1070.000000	89.672370 
1069.000000	89.565920 
1068.000000	89.435408 
1067.000000	89.291561 
1066.000000	89.144783 
1065.000000	88.997691 
1064.000000	88.849350 
1063.000000	88.701164 
1062.000000	88.555099 
1061.000000	88.411862 
1060.000000	88.274636 
1059.000000	88.149428 
1058.000000	88.038239 
1057.000000	87.936473 
1056.000000	87.839365 
1055.000000	87.745646 
1054.000000	87.653259 
1053.000000	87.558489 
1052.000000	87.462388 
1051.000000	87.370909 
1050.000000	87.284463 
1049.000000	87.194584 
1048.000000	87.095318 
1047.000000	86.990890 
1046.000000	86.888516 
1045.000000	86.790341 
1044.000000	86.694857 
1043.000000	86.599640 
1042.000000	86.500510 
1041.000000	86.394420 
1040.000000	86.285748 
1039.000000	86.184235 
1038.000000	86.094820 
1037.000000	86.014880 
1036.000000	85.942203 
1035.000000	85.879003 
1034.000000	85.826766 
1033.000000	85.783807 
1032.000000	85.749134 
1031.000000	85.722538 
1030.000000	85.700731 
1029.000000	85.680372 
1028.000000	85.664866 
1027.000000	85.660320 
1026.000000	85.664496 
1025.000000	85.668084 
1024.000000	85.667391 
1023.000000	85.667008 
1022.000000	85.669281 
1021.000000	85.670195 
1020.000000	85.667192 
1019.000000	85.662598 
1018.000000	85.657398 
1017.000000	85.649613 
1016.000000	85.640638 
1015.000000	85.635334 
1014.000000	85.634002 
1013.000000	85.631637 
1012.000000	85.626565 
1011.000000	85.622490 
1010.000000	85.621151 
1009.000000	85.620972 
1008.000000	85.624053 
1007.000000	85.635959 
1006.000000	85.656767 
1005.000000	85.680380 
1004.000000	85.704594 
1003.000000	85.733853 
1002.000000	85.769933 
1001.000000	85.807971 
1000.000000	85.844417 
999.000000	 85.881639 
998.000000	 85.921898 
997.000000	 85.963487 
996.000000	 86.005444 
995.000000	 86.049942 
994.000000	 86.097799 
993.000000	 86.147550 
992.000000	 86.200859 
991.000000	 86.262999 
990.000000	 86.335820 
989.000000	 86.415138 
988.000000	 86.496369 
987.000000	 86.578417 
986.000000	 86.662023 
985.000000	 86.749449 
984.000000	 86.845507 
983.000000	 86.953224 
982.000000	 87.068655 
981.000000	 87.185588 
980.000000	 87.304952 
979.000000	 87.433522 
978.000000	 87.573989 
977.000000	 87.722687 
976.000000	 87.876560 
975.000000	 88.035578 
974.000000	 88.198059 
973.000000	 88.360259 
972.000000	 88.521717 
971.000000	 88.685801 
970.000000	 88.854414 
969.000000	 89.026594 
968.000000	 89.201743 
967.000000	 89.379165 
966.000000	 89.555007 
965.000000	 89.724991 
964.000000	 89.890141 
963.000000	 90.055067 
962.000000	 90.220728 
961.000000	 90.383238 
960.000000	 90.539555 
959.000000	 90.690142 
958.000000	 90.836374 
957.000000	 90.979350 
956.000000	 91.120928 
955.000000	 91.261889 
954.000000	 91.398964 
953.000000	 91.527076 
952.000000	 91.644708 
951.000000	 91.754672 
950.000000	 91.860311 
949.000000	 91.963356 
948.000000	 92.064648 
947.000000	 92.164521 
946.000000	 92.262777 
945.000000	 92.359437 
944.000000	 92.454178 
943.000000	 92.544562 
942.000000	 92.627907 
941.000000	 92.706197 
940.000000	 92.785387 
939.000000	 92.867693 
938.000000	 92.948796 
937.000000	 93.025675 
936.000000	 93.102476 
935.000000	 93.184596 
934.000000	 93.271305 
933.000000	 93.359089 
932.000000	 93.448049 
931.000000	 93.539008 
930.000000	 93.627728 
929.000000	 93.708904 
928.000000	 93.784144 
927.000000	 93.859845 
926.000000	 93.938136 
925.000000	 94.015501 
924.000000	 94.089419 
923.000000	 94.160430 
922.000000	 94.227692 
921.000000	 94.288273 
920.000000	 94.342278 
919.000000	 94.394636 
918.000000	 94.450489 
917.000000	 94.511297 
916.000000	 94.575323 
915.000000	 94.638782 
914.000000	 94.697218 
913.000000	 94.750185 
912.000000	 94.805292 
911.000000	 94.873761 
910.000000	 94.960392 
909.000000	 95.060075 
908.000000	 95.164448 
907.000000	 95.269236 
906.000000	 95.374125 
905.000000	 95.478574 
904.000000	 95.580999 
903.000000	 95.682362 
902.000000	 95.788560 
901.000000	 95.906355 
900.000000	 96.035178 
899.000000	 96.164678 
898.000000	 96.283196 
897.000000	 96.388994 
896.000000	 96.489721 
895.000000	 96.591786 
894.000000	 96.694440 
893.000000	 96.794430 
892.000000	 96.890705 
891.000000	 96.981773 
890.000000	 97.062979 
889.000000	 97.130418 
888.000000	 97.185203 
887.000000	 97.231226 
886.000000	 97.270873 
885.000000	 97.305259 
884.000000	 97.336270 
883.000000	 97.365460 
882.000000	 97.392839 
881.000000	 97.419803 
880.000000	 97.451667 
879.000000	 97.494039 
878.000000	 97.547392 
877.000000	 97.607823 
876.000000	 97.672257 
875.000000	 97.740839 
874.000000	 97.816113 
873.000000	 97.902298 
872.000000	 98.002964 
871.000000	 98.115784 
870.000000	 98.231070 
869.000000	 98.339016 
868.000000	 98.437584 
867.000000	 98.530950 
866.000000	 98.621813 
865.000000	 98.708166 
864.000000	 98.787151 
863.000000	 98.859336 
862.000000	 98.928521 
861.000000	 98.998918 
860.000000	 99.073004 
859.000000	 99.150640 
858.000000	 99.228745 
857.000000	 99.301877 
856.000000	 99.364569 
855.000000	 99.414913 
854.000000	 99.456260 
853.000000	 99.493935 
852.000000	 99.529822 
851.000000	 99.561926 
850.000000	 99.589742 
849.000000	 99.617248 
848.000000	 99.648435 
847.000000	 99.681882 
846.000000	 99.712518 
845.000000	 99.737504 
844.000000	 99.757443 
843.000000	 99.772690 
842.000000	 99.782038 
841.000000	 99.785647 
840.000000	 99.786416 
839.000000	 99.787077 
838.000000	 99.787296 
837.000000	 99.784502 
836.000000	 99.776738 
835.000000	 99.764516 
834.000000	 99.751137 
833.000000	 99.741708 
832.000000	 99.740546 
831.000000	 99.748078 
830.000000	 99.760055 
829.000000	 99.770603 
828.000000	 99.776861 
827.000000	 99.781294 
826.000000	 99.789806 
825.000000	 99.806636 
824.000000	 99.829593 
823.000000	 99.849707 
822.000000	 99.856149 
821.000000	 99.842862 
820.000000	 99.812130 
819.000000	 99.773086 
818.000000	 99.735406 
817.000000	 99.701416 
816.000000	 99.663028 
815.000000	 99.606706 
814.000000	 99.521020 
813.000000	 99.398634 
812.000000	 99.232908 
811.000000	 99.016517 
810.000000	 98.744342 
809.000000	 98.415498 
808.000000	 98.032119 
807.000000	 97.598295 
806.000000	 97.121127 
805.000000	 96.613351 
804.000000	 96.096101 
803.000000	 95.597579 
802.000000	 95.145400 
801.000000	 94.759872 
800.000000	 94.455392 
799.000000	 94.243339 
798.000000	 94.128366 
797.000000	 94.103854 
796.000000	 94.153751 
795.000000	 94.256889 
794.000000	 94.389717 
793.000000	 94.530311 
792.000000	 94.663074 
791.000000	 94.778570 
790.000000	 94.868515 
789.000000	 94.922384 
788.000000	 94.929229 
787.000000	 94.882355 
786.000000	 94.782910 
785.000000	 94.640166 
784.000000	 94.468295 
783.000000	 94.281644 
782.000000	 94.092493 
781.000000	 93.913771 
780.000000	 93.763173 
779.000000	 93.661585 
778.000000	 93.625725 
777.000000	 93.662883 
776.000000	 93.770616 
775.000000	 93.936582 
774.000000	 94.138809 
773.000000	 94.351975 
772.000000	 94.557187 
771.000000	 94.746506 
770.000000	 94.919996 
769.000000	 95.079653 
768.000000	 95.224826 
767.000000	 95.352430 
766.000000	 95.462082 
765.000000	 95.559915 
764.000000	 95.654745 
763.000000	 95.751062 
762.000000	 95.848557 
761.000000	 95.947437 
760.000000	 96.049548 
759.000000	 96.153917 
758.000000	 96.256350 
757.000000	 96.355163 
756.000000	 96.452711 
755.000000	 96.549550 
754.000000	 96.642111 
753.000000	 96.728705 
752.000000	 96.812860 
751.000000	 96.897156 
750.000000	 96.977358 
749.000000	 97.046530 
748.000000	 97.103247 
747.000000	 97.153334 
746.000000	 97.205077 
745.000000	 97.264400 
744.000000	 97.333299 
743.000000	 97.411447 
742.000000	 97.499748 
741.000000	 97.600971 
740.000000	 97.713878 
739.000000	 97.828351 
738.000000	 97.931638 
737.000000	 98.019711 
736.000000	 98.097146 
735.000000	 98.165618 
734.000000	 98.219404 
733.000000	 98.254309 
732.000000	 98.274606 
731.000000	 98.288533 
730.000000	 98.302094 
729.000000	 98.319942 
728.000000	 98.345097 
727.000000	 98.374663 
726.000000	 98.402523 
725.000000	 98.428412 
724.000000	 98.459210 
723.000000	 98.499394 
722.000000	 98.546221 
721.000000	 98.596941 
720.000000	 98.653824 
719.000000	 98.717412 
718.000000	 98.781018 
717.000000	 98.837558 
716.000000	 98.887559 
715.000000	 98.935628 
714.000000	 98.982960 
713.000000	 99.028552 
712.000000	 99.074187 
711.000000	 99.123243 
710.000000	 99.176153 
709.000000	 99.230542 
708.000000	 99.281865 
707.000000	 99.320416 
706.000000	 99.334521 
705.000000	 99.319738 
704.000000	 99.279993 
703.000000	 99.216543 
702.000000	 99.118626 
701.000000	 98.970725 
700.000000	 98.768775 
699.000000	 98.523753 
698.000000	 98.256566 
697.000000	 97.997633 
696.000000	 97.787477 
695.000000	 97.665835 
694.000000	 97.649759 
693.000000	 97.725250 
692.000000	 97.860927 
691.000000	 98.024399 
690.000000	 98.192084 
689.000000	 98.352123 
688.000000	 98.502283 
687.000000	 98.643165 
686.000000	 98.768707 
685.000000	 98.868919 
684.000000	 98.944407 
683.000000	 99.008951 
682.000000	 99.074680 
681.000000	 99.139958 
680.000000	 99.195905 
679.000000	 99.239009 
678.000000	 99.272986 
677.000000	 99.306272 
676.000000	 99.344130 
675.000000	 99.382869 
674.000000	 99.414600 
673.000000	 99.435703 
672.000000	 99.445299 
671.000000	 99.439213 
670.000000	 99.410757 
669.000000	 99.369354 
668.000000	 99.370826 
667.000000	 99.446336 
666.000000	 99.534771 
665.000000	 99.608258 
664.000000	 99.676628 
663.000000	 99.743048 
662.000000	 99.801728 
661.000000	 99.850506 
660.000000	 99.890069 
659.000000	 99.915897 
658.000000	 99.924618 
657.000000	 99.924971 
656.000000	 99.921088 
655.000000	 99.898932 
654.000000	 99.849375 
653.000000	 99.788911 
652.000000	 99.741500 
651.000000	 99.717128 
650.000000	 99.719077 

