4000.000000	97.706584 
3999.000000	97.705979 
3998.000000	97.705385 
3997.000000	97.704855 
3996.000000	97.704455 
3995.000000	97.704210 
3994.000000	97.704072 
3993.000000	97.703971 
3992.000000	97.703880 
3991.000000	97.703796 
3990.000000	97.703740 
3989.000000	97.703735 
3988.000000	97.703698 
3987.000000	97.703480 
3986.000000	97.703039 
3985.000000	97.702485 
3984.000000	97.702022 
3983.000000	97.701757 
3982.000000	97.701679 
3981.000000	97.701700 
3980.000000	97.701661 
3979.000000	97.701429 
3978.000000	97.700981 
3977.000000	97.700421 
3976.000000	97.699869 
3975.000000	97.699356 
3974.000000	97.698846 
3973.000000	97.698339 
3972.000000	97.697914 
3971.000000	97.697640 
3970.000000	97.697509 
3969.000000	97.697498 
3968.000000	97.697585 
3967.000000	97.697682 
3966.000000	97.697638 
3965.000000	97.697343 
3964.000000	97.696817 
3963.000000	97.696227 
3962.000000	97.695794 
3961.000000	97.695658 
3960.000000	97.695804 
3959.000000	97.696005 
3958.000000	97.695957 
3957.000000	97.695617 
3956.000000	97.695243 
3955.000000	97.695077 
3954.000000	97.695097 
3953.000000	97.695025 
3952.000000	97.694572 
3951.000000	97.693694 
3950.000000	97.692870 
3949.000000	97.692899 
3948.000000	97.694013 
3947.000000	97.695396 
3946.000000	97.695850 
3945.000000	97.694764 
3944.000000	97.692356 
3943.000000	97.689554 
3942.000000	97.687355 
3941.000000	97.686140 
3940.000000	97.685719 
3939.000000	97.685799 
3938.000000	97.686295 
3937.000000	97.687361 
3936.000000	97.689051 
3935.000000	97.690945 
3934.000000	97.692327 
3933.000000	97.692707 
3932.000000	97.692133 
3931.000000	97.690891 
3930.000000	97.689214 
3929.000000	97.687248 
3928.000000	97.685062 
3927.000000	97.682997 
3926.000000	97.681660 
3925.000000	97.681594 
3924.000000	97.683189 
3923.000000	97.686116 
3922.000000	97.689132 
3921.000000	97.691073 
3920.000000	97.691813 
3919.000000	97.692068 
3918.000000	97.692165 
3917.000000	97.691641 
3916.000000	97.690250 
3915.000000	97.688555 
3914.000000	97.687251 
3913.000000	97.686509 
3912.000000	97.686316 
3911.000000	97.686790 
3910.000000	97.687808 
3909.000000	97.688927 
3908.000000	97.689841 
3907.000000	97.690505 
3906.000000	97.691204 
3905.000000	97.692157 
3904.000000	97.693352 
3903.000000	97.694268 
3902.000000	97.694044 
3901.000000	97.692518 
3900.000000	97.690374 
3899.000000	97.688627 
3898.000000	97.687873 
3897.000000	97.687867 
3896.000000	97.687990 
3895.000000	97.687847 
3894.000000	97.687386 
3893.000000	97.686796 
3892.000000	97.686304 
3891.000000	97.685922 
3890.000000	97.685585 
3889.000000	97.685355 
3888.000000	97.685341 
3887.000000	97.685322 
3886.000000	97.685020 
3885.000000	97.684509 
3884.000000	97.683995 
3883.000000	97.683259 
3882.000000	97.682017 
3881.000000	97.680809 
3880.000000	97.680582 
3879.000000	97.681356 
3878.000000	97.682218 
3877.000000	97.682445 
3876.000000	97.681895 
3875.000000	97.680730 
3874.000000	97.679351 
3873.000000	97.678380 
3872.000000	97.678191 
3871.000000	97.678396 
3870.000000	97.678333 
3869.000000	97.678029 
3868.000000	97.677843 
3867.000000	97.677403 
3866.000000	97.675666 
3865.000000	97.672619 
3864.000000	97.670698 
3863.000000	97.671605 
3862.000000	97.674011 
3861.000000	97.676081 
3860.000000	97.677550 
3859.000000	97.678074 
3858.000000	97.676838 
3857.000000	97.673690 
3856.000000	97.670368 
3855.000000	97.667157 
3854.000000	97.662834 
3853.000000	97.659225 
3852.000000	97.658540 
3851.000000	97.660046 
3850.000000	97.662417 
3849.000000	97.665030 
3848.000000	97.668357 
3847.000000	97.672789 
3846.000000	97.676971 
3845.000000	97.679530 
3844.000000	97.680976 
3843.000000	97.681630 
3842.000000	97.680981 
3841.000000	97.679602 
3840.000000	97.678810 
3839.000000	97.679460 
3838.000000	97.681430 
3837.000000	97.683117 
3836.000000	97.683329 
3835.000000	97.681940 
3834.000000	97.680002 
3833.000000	97.678969 
3832.000000	97.679353 
3831.000000	97.680624 
3830.000000	97.681698 
3829.000000	97.681559 
3828.000000	97.680506 
3827.000000	97.679834 
3826.000000	97.680412 
3825.000000	97.682609 
3824.000000	97.686086 
3823.000000	97.688562 
3822.000000	97.687934 
3821.000000	97.685357 
3820.000000	97.683741 
3819.000000	97.683473 
3818.000000	97.683254 
3817.000000	97.682028 
3816.000000	97.679642 
3815.000000	97.677017 
3814.000000	97.675169 
3813.000000	97.674091 
3812.000000	97.673266 
3811.000000	97.673269 
3810.000000	97.675035 
3809.000000	97.678167 
3808.000000	97.680942 
3807.000000	97.681974 
3806.000000	97.681546 
3805.000000	97.680591 
3804.000000	97.679016 
3803.000000	97.676227 
3802.000000	97.672643 
3801.000000	97.669783 
3800.000000	97.668554 
3799.000000	97.668093 
3798.000000	97.667392 
3797.000000	97.666917 
3796.000000	97.667654 
3795.000000	97.669210 
3794.000000	97.669936 
3793.000000	97.668726 
3792.000000	97.666053 
3791.000000	97.663699 
3790.000000	97.662790 
3789.000000	97.662800 
3788.000000	97.662620 
3787.000000	97.662016 
3786.000000	97.661597 
3785.000000	97.661987 
3784.000000	97.663333 
3783.000000	97.665619 
3782.000000	97.668315 
3781.000000	97.670098 
3780.000000	97.670204 
3779.000000	97.669294 
3778.000000	97.668204 
3777.000000	97.667342 
3776.000000	97.667310 
3775.000000	97.668236 
3774.000000	97.669994 
3773.000000	97.672757 
3772.000000	97.676689 
3771.000000	97.680549 
3770.000000	97.682700 
3769.000000	97.682921 
3768.000000	97.681272 
3767.000000	97.678105 
3766.000000	97.675106 
3765.000000	97.673854 
3764.000000	97.674991 
3763.000000	97.677969 
3762.000000	97.680509 
3761.000000	97.680238 
3760.000000	97.678452 
3759.000000	97.680137 
3758.000000	97.685866 
3757.000000	97.690395 
3756.000000	97.692131 
3755.000000	97.693762 
3754.000000	97.696777 
3753.000000	97.699083 
3752.000000	97.700401 
3751.000000	97.706140 
3750.000000	97.715024 
3749.000000	97.717534 
3748.000000	97.711861 
3747.000000	97.706165 
3746.000000	97.705832 
3745.000000	97.704597 
3744.000000	97.696098 
3743.000000	97.685845 
3742.000000	97.681108 
3741.000000	97.680625 
3740.000000	97.681192 
3739.000000	97.686546 
3738.000000	97.698603 
3737.000000	97.707217 
3736.000000	97.704562 
3735.000000	97.695775 
3734.000000	97.688769 
3733.000000	97.681574 
3732.000000	97.670306 
3731.000000	97.659482 
3730.000000	97.654490 
3729.000000	97.654692 
3728.000000	97.654829 
3727.000000	97.650551 
3726.000000	97.642916 
3725.000000	97.635597 
3724.000000	97.629121 
3723.000000	97.621154 
3722.000000	97.611699 
3721.000000	97.602320 
3720.000000	97.592444 
3719.000000	97.583315 
3718.000000	97.577210 
3717.000000	97.573834 
3716.000000	97.573021 
3715.000000	97.574209 
3714.000000	97.574280 
3713.000000	97.567525 
3712.000000	97.551772 
3711.000000	97.530483 
3710.000000	97.505723 
3709.000000	97.477943 
3708.000000	97.448822 
3707.000000	97.420427 
3706.000000	97.394144 
3705.000000	97.369437 
3704.000000	97.343519 
3703.000000	97.313583 
3702.000000	97.280411 
3701.000000	97.246942 
3700.000000	97.214006 
3699.000000	97.181910 
3698.000000	97.152784 
3697.000000	97.128626 
3696.000000	97.111605 
3695.000000	97.103143 
3694.000000	97.099651 
3693.000000	97.093465 
3692.000000	97.080209 
3691.000000	97.063195 
3690.000000	97.049314 
3689.000000	97.040709 
3688.000000	97.032202 
3687.000000	97.020023 
3686.000000	97.007887 
3685.000000	97.000167 
3684.000000	96.997348 
3683.000000	96.997171 
3682.000000	96.995253 
3681.000000	96.985369 
3680.000000	96.963652 
3679.000000	96.933303 
3678.000000	96.903573 
3677.000000	96.879075 
3676.000000	96.856952 
3675.000000	96.837222 
3674.000000	96.818731 
3673.000000	96.797378 
3672.000000	96.771991 
3671.000000	96.743359 
3670.000000	96.715702 
3669.000000	96.692616 
3668.000000	96.670639 
3667.000000	96.645673 
3666.000000	96.620305 
3665.000000	96.598796 
3664.000000	96.580415 
3663.000000	96.560984 
3662.000000	96.537269 
3661.000000	96.509876 
3660.000000	96.483312 
3659.000000	96.461790 
3658.000000	96.445889 
3657.000000	96.432485 
3656.000000	96.418185 
3655.000000	96.403082 
3654.000000	96.388906 
3653.000000	96.376101 
3652.000000	96.362971 
3651.000000	96.347113 
3650.000000	96.329463 
3649.000000	96.311604 
3648.000000	96.290569 
3647.000000	96.264428 
3646.000000	96.237192 
3645.000000	96.213366 
3644.000000	96.193755 
3643.000000	96.177457 
3642.000000	96.161831 
3641.000000	96.144209 
3640.000000	96.124154 
3639.000000	96.103550 
3638.000000	96.085282 
3637.000000	96.070520 
3636.000000	96.058063 
3635.000000	96.044699 
3634.000000	96.027651 
3633.000000	96.008169 
3632.000000	95.990759 
3631.000000	95.979257 
3630.000000	95.972997 
3629.000000	95.969851 
3628.000000	95.964988 
3627.000000	95.951722 
3626.000000	95.929746 
3625.000000	95.904575 
3624.000000	95.880777 
3623.000000	95.858900 
3622.000000	95.838789 
3621.000000	95.822978 
3620.000000	95.818654 
3619.000000	95.832144 
3618.000000	95.858110 
3617.000000	95.883164 
3616.000000	95.902505 
3615.000000	95.921027 
3614.000000	95.944551 
3613.000000	95.974205 
3612.000000	96.005611 
3611.000000	96.032735 
3610.000000	96.052637 
3609.000000	96.065896 
3608.000000	96.075051 
3607.000000	96.082268 
3606.000000	96.086927 
3605.000000	96.088238 
3604.000000	96.087307 
3603.000000	96.085759 
3602.000000	96.085881 
3601.000000	96.089782 
3600.000000	96.099340 
3599.000000	96.114898 
3598.000000	96.132629 
3597.000000	96.146519 
3596.000000	96.154983 
3595.000000	96.161424 
3594.000000	96.170151 
3593.000000	96.182224 
3592.000000	96.193966 
3591.000000	96.201576 
3590.000000	96.204109 
3589.000000	96.203688 
3588.000000	96.204627 
3587.000000	96.209750 
3586.000000	96.214998 
3585.000000	96.215178 
3584.000000	96.210814 
3583.000000	96.206135 
3582.000000	96.203889 
3581.000000	96.203966 
3580.000000	96.205243 
3579.000000	96.207239 
3578.000000	96.210181 
3577.000000	96.214295 
3576.000000	96.219602 
3575.000000	96.225495 
3574.000000	96.229985 
3573.000000	96.231538 
3572.000000	96.230607 
3571.000000	96.229480 
3570.000000	96.230615 
3569.000000	96.233866 
3568.000000	96.236760 
3567.000000	96.238168 
3566.000000	96.237883 
3565.000000	96.235505 
3564.000000	96.232309 
3563.000000	96.230233 
3562.000000	96.229227 
3561.000000	96.227996 
3560.000000	96.225811 
3559.000000	96.223393 
3558.000000	96.221387 
3557.000000	96.219269 
3556.000000	96.216323 
3555.000000	96.213435 
3554.000000	96.212496 
3553.000000	96.214265 
3552.000000	96.217030 
3551.000000	96.217967 
3550.000000	96.216212 
3549.000000	96.213638 
3548.000000	96.212336 
3547.000000	96.212590 
3546.000000	96.212932 
3545.000000	96.212187 
3544.000000	96.210936 
3543.000000	96.210589 
3542.000000	96.211464 
3541.000000	96.212423 
3540.000000	96.212014 
3539.000000	96.209923 
3538.000000	96.207175 
3537.000000	96.205121 
3536.000000	96.204281 
3535.000000	96.204091 
3534.000000	96.203786 
3533.000000	96.203118 
3532.000000	96.202211 
3531.000000	96.201097 
3530.000000	96.199676 
3529.000000	96.198083 
3528.000000	96.196704 
3527.000000	96.195743 
3526.000000	96.194935 
3525.000000	96.193864 
3524.000000	96.192433 
3523.000000	96.190898 
3522.000000	96.189431 
3521.000000	96.187925 
3520.000000	96.186257 
3519.000000	96.184524 
3518.000000	96.182909 
3517.000000	96.181385 
3516.000000	96.179807 
3515.000000	96.178128 
3514.000000	96.176538 
3513.000000	96.175301 
3512.000000	96.174526 
3511.000000	96.174130 
3510.000000	96.173950 
3509.000000	96.173618 
3508.000000	96.172463 
3507.000000	96.169974 
3506.000000	96.166387 
3505.000000	96.162792 
3504.000000	96.160348 
3503.000000	96.159267 
3502.000000	96.158635 
3501.000000	96.157311 
3500.000000	96.154979 
3499.000000	96.152141 
3498.000000	96.149531 
3497.000000	96.147663 
3496.000000	96.146665 
3495.000000	96.146070 
3494.000000	96.144834 
3493.000000	96.142053 
3492.000000	96.137709 
3491.000000	96.132675 
3490.000000	96.128090 
3489.000000	96.124582 
3488.000000	96.121986 
3487.000000	96.119602 
3486.000000	96.116704 
3485.000000	96.113022 
3484.000000	96.108898 
3483.000000	96.105001 
3482.000000	96.101822 
3481.000000	96.099296 
3480.000000	96.096866 
3479.000000	96.093982 
3478.000000	96.090580 
3477.000000	96.087031 
3476.000000	96.083640 
3475.000000	96.080297 
3474.000000	96.076681 
3473.000000	96.072752 
3472.000000	96.068862 
3471.000000	96.065340 
3470.000000	96.062157 
3469.000000	96.059045 
3468.000000	96.055714 
3467.000000	96.051912 
3466.000000	96.047506 
3465.000000	96.042692 
3464.000000	96.038078 
3463.000000	96.034234 
3462.000000	96.031179 
3461.000000	96.028337 
3460.000000	96.025098 
3459.000000	96.021416 
3458.000000	96.017626 
3457.000000	96.013938 
3456.000000	96.010219 
3455.000000	96.006250 
3454.000000	96.002162 
3453.000000	95.998363 
3452.000000	95.995071 
3451.000000	95.992003 
3450.000000	95.988549 
3449.000000	95.984370 
3448.000000	95.979821 
3447.000000	95.975626 
3446.000000	95.972028 
3445.000000	95.968571 
3444.000000	95.964899 
3443.000000	95.961371 
3442.000000	95.958607 
3441.000000	95.956693 
3440.000000	95.955019 
3439.000000	95.952773 
3438.000000	95.949634 
3437.000000	95.946000 
3436.000000	95.942570 
3435.000000	95.939631 
3434.000000	95.936988 
3433.000000	95.934407 
3432.000000	95.932079 
3431.000000	95.930267 
3430.000000	95.928549 
3429.000000	95.925949 
3428.000000	95.921935 
3427.000000	95.917085 
3426.000000	95.912444 
3425.000000	95.908508 
3424.000000	95.905101 
3423.000000	95.902054 
3422.000000	95.899587 
3421.000000	95.897820 
3420.000000	95.896099 
3419.000000	95.893370 
3418.000000	95.889568 
3417.000000	95.886153 
3416.000000	95.884713 
3415.000000	95.885289 
3414.000000	95.886329 
3413.000000	95.886248 
3412.000000	95.884658 
3411.000000	95.882025 
3410.000000	95.878927 
3409.000000	95.875970 
3408.000000	95.873801 
3407.000000	95.872638 
3406.000000	95.872022 
3405.000000	95.871559 
3404.000000	95.871568 
3403.000000	95.872323 
3402.000000	95.873029 
3401.000000	95.872271 
3400.000000	95.869719 
3399.000000	95.866717 
3398.000000	95.864886 
3397.000000	95.864471 
3396.000000	95.864372 
3395.000000	95.863689 
3394.000000	95.862841 
3393.000000	95.862970 
3392.000000	95.864429 
3391.000000	95.866208 
3390.000000	95.866871 
3389.000000	95.865823 
3388.000000	95.863606 
3387.000000	95.861406 
3386.000000	95.860455 
3385.000000	95.861537 
3384.000000	95.864538 
3383.000000	95.868335 
3382.000000	95.871560 
3381.000000	95.873524 
3380.000000	95.874281 
3379.000000	95.874018 
3378.000000	95.872896 
3377.000000	95.871451 
3376.000000	95.870488 
3375.000000	95.870371 
3374.000000	95.870830 
3373.000000	95.871626 
3372.000000	95.872922 
3371.000000	95.874749 
3370.000000	95.876588 
3369.000000	95.877930 
3368.000000	95.878897 
3367.000000	95.879883 
3366.000000	95.880867 
3365.000000	95.881574 
3364.000000	95.882174 
3363.000000	95.883216 
3362.000000	95.884856 
3361.000000	95.886625 
3360.000000	95.888119 
3359.000000	95.889546 
3358.000000	95.891379 
3357.000000	95.893669 
3356.000000	95.895957 
3355.000000	95.897841 
3354.000000	95.899447 
3353.000000	95.901336 
3352.000000	95.903940 
3351.000000	95.907085 
3350.000000	95.910055 
3349.000000	95.912229 
3348.000000	95.913621 
3347.000000	95.914902 
3346.000000	95.916870 
3345.000000	95.919761 
3344.000000	95.923016 
3343.000000	95.925658 
3342.000000	95.927043 
3341.000000	95.927247 
3340.000000	95.926800 
3339.000000	95.926243 
3338.000000	95.926071 
3337.000000	95.926780 
3336.000000	95.928538 
3335.000000	95.930831 
3334.000000	95.932837 
3333.000000	95.934259 
3332.000000	95.935494 
3331.000000	95.936923 
3330.000000	95.938446 
3329.000000	95.939903 
3328.000000	95.941559 
3327.000000	95.943825 
3326.000000	95.946614 
3325.000000	95.949296 
3324.000000	95.951320 
3323.000000	95.952687 
3322.000000	95.953874 
3321.000000	95.955463 
3320.000000	95.957774 
3319.000000	95.960659 
3318.000000	95.963612 
3317.000000	95.966144 
3316.000000	95.968145 
3315.000000	95.969880 
3314.000000	95.971684 
3313.000000	95.973658 
3312.000000	95.975614 
3311.000000	95.977304 
3310.000000	95.978753 
3309.000000	95.980326 
3308.000000	95.982322 
3307.000000	95.984498 
3306.000000	95.986170 
3305.000000	95.986904 
3304.000000	95.986953 
3303.000000	95.987081 
3302.000000	95.987951 
3301.000000	95.989677 
3300.000000	95.991918 
3299.000000	95.994177 
3298.000000	95.996155 
3297.000000	95.997875 
3296.000000	95.999539 
3295.000000	96.001309 
3294.000000	96.003222 
3293.000000	96.005224 
3292.000000	96.007141 
3291.000000	96.008681 
3290.000000	96.009666 
3289.000000	96.010286 
3288.000000	96.011034 
3287.000000	96.012241 
3286.000000	96.013789 
3285.000000	96.015331 
3284.000000	96.016704 
3283.000000	96.018039 
3282.000000	96.019516 
3281.000000	96.021189 
3280.000000	96.023015 
3279.000000	96.024940 
3278.000000	96.026932 
3277.000000	96.028933 
3276.000000	96.030797 
3275.000000	96.032293 
3274.000000	96.033261 
3273.000000	96.033820 
3272.000000	96.034346 
3271.000000	96.035197 
3270.000000	96.036540 
3269.000000	96.038442 
3268.000000	96.040940 
3267.000000	96.043888 
3266.000000	96.046829 
3265.000000	96.049267 
3264.000000	96.051018 
3263.000000	96.052194 
3262.000000	96.052934 
3261.000000	96.053390 
3260.000000	96.053882 
3259.000000	96.054868 
3258.000000	96.056631 
3257.000000	96.059062 
3256.000000	96.061749 
3255.000000	96.064188 
3254.000000	96.065990 
3253.000000	96.067081 
3252.000000	96.067836 
3251.000000	96.068872 
3250.000000	96.070614 
3249.000000	96.073070 
3248.000000	96.075967 
3247.000000	96.078961 
3246.000000	96.081722 
3245.000000	96.084073 
3244.000000	96.086135 
3243.000000	96.088215 
3242.000000	96.090453 
3241.000000	96.092666 
3240.000000	96.094594 
3239.000000	96.096282 
3238.000000	96.098125 
3237.000000	96.100568 
3236.000000	96.103763 
3235.000000	96.107489 
3234.000000	96.111268 
3233.000000	96.114602 
3232.000000	96.117302 
3231.000000	96.119616 
3230.000000	96.122010 
3229.000000	96.124698 
3228.000000	96.127414 
3227.000000	96.129767 
3226.000000	96.131824 
3225.000000	96.134174 
3224.000000	96.137339 
3223.000000	96.141231 
3222.000000	96.145227 
3221.000000	96.148750 
3220.000000	96.151677 
3219.000000	96.154270 
3218.000000	96.156890 
3217.000000	96.159809 
3216.000000	96.163072 
3215.000000	96.166472 
3214.000000	96.169734 
3213.000000	96.172827 
3212.000000	96.176072 
3211.000000	96.179843 
3210.000000	96.184119 
3209.000000	96.188352 
3208.000000	96.191821 
3207.000000	96.194224 
3206.000000	96.196020 
3205.000000	96.198199 
3204.000000	96.201473 
3203.000000	96.205771 
3202.000000	96.210499 
3201.000000	96.215233 
3200.000000	96.219889 
3199.000000	96.224285 
3198.000000	96.227972 
3197.000000	96.230733 
3196.000000	96.233026 
3195.000000	96.235668 
3194.000000	96.239158 
3193.000000	96.243476 
3192.000000	96.248376 
3191.000000	96.253606 
3190.000000	96.258940 
3189.000000	96.264246 
3188.000000	96.269508 
3187.000000	96.274607 
3186.000000	96.279149 
3185.000000	96.282923 
3184.000000	96.286443 
3183.000000	96.290675 
3182.000000	96.295968 
3181.000000	96.301552 
3180.000000	96.306349 
3179.000000	96.310112 
3178.000000	96.313508 
3177.000000	96.317306 
3176.000000	96.321667 
3175.000000	96.326218 
3174.000000	96.330473 
3173.000000	96.334152 
3172.000000	96.337394 
3171.000000	96.340779 
3170.000000	96.344928 
3169.000000	96.349918 
3168.000000	96.355194 
3167.000000	96.360146 
3166.000000	96.364728 
3165.000000	96.369455 
3164.000000	96.374785 
3163.000000	96.380635 
3162.000000	96.386430 
3161.000000	96.391602 
3160.000000	96.396111 
3159.000000	96.400523 
3158.000000	96.405508 
3157.000000	96.411174 
3156.000000	96.416913 
3155.000000	96.421991 
3154.000000	96.426277 
3153.000000	96.430283 
3152.000000	96.434481 
3151.000000	96.438734 
3150.000000	96.442547 
3149.000000	96.445810 
3148.000000	96.449114 
3147.000000	96.453219 
3146.000000	96.458337 
3145.000000	96.464090 
3144.000000	96.470101 
3143.000000	96.476397 
3142.000000	96.483082 
3141.000000	96.489812 
3140.000000	96.495860 
3139.000000	96.500756 
3138.000000	96.504710 
3137.000000	96.508414 
3136.000000	96.512524 
3135.000000	96.517292 
3134.000000	96.522593 
3133.000000	96.528058 
3132.000000	96.533233 
3131.000000	96.537855 
3130.000000	96.542075 
3129.000000	96.546366 
3128.000000	96.551112 
3127.000000	96.556303 
3126.000000	96.561649 
3125.000000	96.566901 
3124.000000	96.572017 
3123.000000	96.577058 
3122.000000	96.582026 
3121.000000	96.586831 
3120.000000	96.591397 
3119.000000	96.595760 
3118.000000	96.600113 
3117.000000	96.604721 
3116.000000	96.609726 
3115.000000	96.614994 
3114.000000	96.620202 
3113.000000	96.625164 
3112.000000	96.630056 
3111.000000	96.635241 
3110.000000	96.640868 
3109.000000	96.646632 
3108.000000	96.651991 
3107.000000	96.656615 
3106.000000	96.660646 
3105.000000	96.664551 
3104.000000	96.668640 
3103.000000	96.672838 
3102.000000	96.676945 
3101.000000	96.681169 
3100.000000	96.686156 
3099.000000	96.692212 
3098.000000	96.698568 
3097.000000	96.703916 
3096.000000	96.707806 
3095.000000	96.711205 
3094.000000	96.715519 
3093.000000	96.721288 
3092.000000	96.727890 
3091.000000	96.734031 
3090.000000	96.738558 
3089.000000	96.741327 
3088.000000	96.743650 
3087.000000	96.747410 
3086.000000	96.753318 
3085.000000	96.760251 
3084.000000	96.766447 
3083.000000	96.771254 
3082.000000	96.775446 
3081.000000	96.780120 
3080.000000	96.785514 
3079.000000	96.790836 
3078.000000	96.795002 
3077.000000	96.797529 
3076.000000	96.798913 
3075.000000	96.800271 
3074.000000	96.802652 
3073.000000	96.806230 
3072.000000	96.810032 
3071.000000	96.812742 
3070.000000	96.814102 
3069.000000	96.815392 
3068.000000	96.817910 
3067.000000	96.821302 
3066.000000	96.824338 
3065.000000	96.827294 
3064.000000	96.832150 
3063.000000	96.839679 
3062.000000	96.847513 
3061.000000	96.852481 
3060.000000	96.854264 
3059.000000	96.855452 
3058.000000	96.858035 
3057.000000	96.861028 
3056.000000	96.862172 
3055.000000	96.860988 
3054.000000	96.859382 
3053.000000	96.859343 
3052.000000	96.860767 
3051.000000	96.861869 
3050.000000	96.861366 
3049.000000	96.859815 
3048.000000	96.858714 
3047.000000	96.858812 
3046.000000	96.859769 
3045.000000	96.861032 
3044.000000	96.862279 
3043.000000	96.863101 
3042.000000	96.862778 
3041.000000	96.860639 
3040.000000	96.856174 
3039.000000	96.849077 
3038.000000	96.839752 
3037.000000	96.829504 
3036.000000	96.819420 
3035.000000	96.809215 
3034.000000	96.798209 
3033.000000	96.787028 
3032.000000	96.777001 
3031.000000	96.767679 
3030.000000	96.756168 
3029.000000	96.740106 
3028.000000	96.720642 
3027.000000	96.701366 
3026.000000	96.684539 
3025.000000	96.669339 
3024.000000	96.653478 
3023.000000	96.635451 
3022.000000	96.615239 
3021.000000	96.593937 
3020.000000	96.572993 
3019.000000	96.553208 
3018.000000	96.534065 
3017.000000	96.514294 
3016.000000	96.493017 
3015.000000	96.470140 
3014.000000	96.445870 
3013.000000	96.420281 
3012.000000	96.393146 
3011.000000	96.363954 
3010.000000	96.332501 
3009.000000	96.299724 
3008.000000	96.267376 
3007.000000	96.236404 
3006.000000	96.206293 
3005.000000	96.176548 
3004.000000	96.147849 
3003.000000	96.120623 
3002.000000	96.093386 
3001.000000	96.064267 
3000.000000	96.034079 
2999.000000	96.006233 
2998.000000	95.983436 
2997.000000	95.966016 
2996.000000	95.953054 
2995.000000	95.942206 
2994.000000	95.926961 
2993.000000	95.897394 
2992.000000	95.848354 
2991.000000	95.787722 
2990.000000	95.733644 
2989.000000	95.701391 
2988.000000	95.693606 
2987.000000	95.702578 
2986.000000	95.718814 
2985.000000	95.736175 
2984.000000	95.751245 
2983.000000	95.762249 
2982.000000	95.769704 
2981.000000	95.775693 
2980.000000	95.780971 
2979.000000	95.783879 
2978.000000	95.783034 
2977.000000	95.779720 
2976.000000	95.776252 
2975.000000	95.773063 
2974.000000	95.769394 
2973.000000	95.766659 
2972.000000	95.769155 
2971.000000	95.780632 
2970.000000	95.801026 
2969.000000	95.826966 
2968.000000	95.854645 
2967.000000	95.881911 
2966.000000	95.908562 
2965.000000	95.935507 
2964.000000	95.963275 
2963.000000	95.990623 
2962.000000	96.014867 
2961.000000	96.034233 
2960.000000	96.049894 
2959.000000	96.065333 
2958.000000	96.083705 
2957.000000	96.105834 
2956.000000	96.130160 
2955.000000	96.154016 
2954.000000	96.175279 
2953.000000	96.193689 
2952.000000	96.210935 
2951.000000	96.229059 
2950.000000	96.248374 
2949.000000	96.266935 
2948.000000	96.282178 
2947.000000	96.293017 
2946.000000	96.300699 
2945.000000	96.307669 
2944.000000	96.315358 
2943.000000	96.323408 
2942.000000	96.331132 
2941.000000	96.338948 
2940.000000	96.347942 
2939.000000	96.358309 
2938.000000	96.368873 
2937.000000	96.378360 
2936.000000	96.386696 
2935.000000	96.394845 
2934.000000	96.403778 
2933.000000	96.413746 
2932.000000	96.423835 
2931.000000	96.431915 
2930.000000	96.435779 
2929.000000	96.435186 
2928.000000	96.432652 
2927.000000	96.431580 
2926.000000	96.433538 
2925.000000	96.437367 
2924.000000	96.440588 
2923.000000	96.441306 
2922.000000	96.439239 
2921.000000	96.435496 
2920.000000	96.431207 
2919.000000	96.426086 
2918.000000	96.418598 
2917.000000	96.407776 
2916.000000	96.394321 
2915.000000	96.379576 
2914.000000	96.364127 
2913.000000	96.348353 
2912.000000	96.333815 
2911.000000	96.322751 
2910.000000	96.315970 
2909.000000	96.312119 
2908.000000	96.309433 
2907.000000	96.306796 
2906.000000	96.302198 
2905.000000	96.291367 
2904.000000	96.270842 
2903.000000	96.244150 
2902.000000	96.223710 
2901.000000	96.222779 
2900.000000	96.245728 
2899.000000	96.283622 
2898.000000	96.320764 
2897.000000	96.345891 
2896.000000	96.357844 
2895.000000	96.362441 
2894.000000	96.366376 
2893.000000	96.373443 
2892.000000	96.383978 
2891.000000	96.395795 
2890.000000	96.405944 
2889.000000	96.412734 
2888.000000	96.416564 
2887.000000	96.419070 
2886.000000	96.422135 
2885.000000	96.427882 
2884.000000	96.438520 
2883.000000	96.454942 
2882.000000	96.475609 
2881.000000	96.497787 
2880.000000	96.520066 
2879.000000	96.543189 
2878.000000	96.568167 
2877.000000	96.594055 
2876.000000	96.617916 
2875.000000	96.637098 
2874.000000	96.651609 
2873.000000	96.664196 
2872.000000	96.677721 
2871.000000	96.692361 
2870.000000	96.705917 
2869.000000	96.717090 
2868.000000	96.727826 
2867.000000	96.741931 
2866.000000	96.761886 
2865.000000	96.787637 
2864.000000	96.817793 
2863.000000	96.850761 
2862.000000	96.884676 
2861.000000	96.917411 
2860.000000	96.947577 
2859.000000	96.975232 
2858.000000	97.001302 
2857.000000	97.026514 
2856.000000	97.050736 
2855.000000	97.073006 
2854.000000	97.092429 
2853.000000	97.109090 
2852.000000	97.123548 
2851.000000	97.135567 
2850.000000	97.144080 
2849.000000	97.148680 
2848.000000	97.150718 
2847.000000	97.152660 
2846.000000	97.156680 
2845.000000	97.163977 
2844.000000	97.174582 
2843.000000	97.187124 
2842.000000	97.199202 
2841.000000	97.208821 
2840.000000	97.215504 
2839.000000	97.219990 
2838.000000	97.223411 
2837.000000	97.227034 
2836.000000	97.231800 
2835.000000	97.237309 
2834.000000	97.242067 
2833.000000	97.245660 
2832.000000	97.249840 
2831.000000	97.256169 
2830.000000	97.263235 
2829.000000	97.268020 
2828.000000	97.269896 
2827.000000	97.271541 
2826.000000	97.275557 
2825.000000	97.281700 
2824.000000	97.288225 
2823.000000	97.294504 
2822.000000	97.301050 
2821.000000	97.307772 
2820.000000	97.313577 
2819.000000	97.317620 
2818.000000	97.320041 
2817.000000	97.321473 
2816.000000	97.322522 
2815.000000	97.323836 
2814.000000	97.326147 
2813.000000	97.329843 
2812.000000	97.334571 
2811.000000	97.339440 
2810.000000	97.343717 
2809.000000	97.347378 
2808.000000	97.350911 
2807.000000	97.354528 
2806.000000	97.357668 
2805.000000	97.359447 
2804.000000	97.359596 
2803.000000	97.358889 
2802.000000	97.358672 
2801.000000	97.359945 
2800.000000	97.362720 
2799.000000	97.366127 
2798.000000	97.369258 
2797.000000	97.371946 
2796.000000	97.374646 
2795.000000	97.377646 
2794.000000	97.380759 
2793.000000	97.383760 
2792.000000	97.386646 
2791.000000	97.389297 
2790.000000	97.391377 
2789.000000	97.392861 
2788.000000	97.394276 
2787.000000	97.396081 
2786.000000	97.398145 
2785.000000	97.400197 
2784.000000	97.402420 
2783.000000	97.405084 
2782.000000	97.407831 
2781.000000	97.409947 
2780.000000	97.411326 
2779.000000	97.412703 
2778.000000	97.414805 
2777.000000	97.417588 
2776.000000	97.420426 
2775.000000	97.422784 
2774.000000	97.424638 
2773.000000	97.426317 
2772.000000	97.428128 
2771.000000	97.430106 
2770.000000	97.432087 
2769.000000	97.433964 
2768.000000	97.435772 
2767.000000	97.437565 
2766.000000	97.439304 
2765.000000	97.440941 
2764.000000	97.442524 
2763.000000	97.444168 
2762.000000	97.445959 
2761.000000	97.447889 
2760.000000	97.449886 
2759.000000	97.451849 
2758.000000	97.453734 
2757.000000	97.455578 
2756.000000	97.457443 
2755.000000	97.459343 
2754.000000	97.461229 
2753.000000	97.463061 
2752.000000	97.464854 
2751.000000	97.466656 
2750.000000	97.468490 
2749.000000	97.470327 
2748.000000	97.472125 
2747.000000	97.473872 
2746.000000	97.475592 
2745.000000	97.477320 
2744.000000	97.479080 
2743.000000	97.480869 
2742.000000	97.482658 
2741.000000	97.484402 
2740.000000	97.486077 
2739.000000	97.487691 
2738.000000	97.489292 
2737.000000	97.490935 
2736.000000	97.492643 
2735.000000	97.494387 
2734.000000	97.496097 
2733.000000	97.497713 
2732.000000	97.499226 
2731.000000	97.500700 
2730.000000	97.502229 
2729.000000	97.503883 
2728.000000	97.505648 
2727.000000	97.507416 
2726.000000	97.509058 
2725.000000	97.510562 
2724.000000	97.512079 
2723.000000	97.513794 
2722.000000	97.515729 
2721.000000	97.517671 
2720.000000	97.519349 
2719.000000	97.520667 
2718.000000	97.521771 
2717.000000	97.522917 
2716.000000	97.524245 
2715.000000	97.525648 
2714.000000	97.526828 
2713.000000	97.527587 
2712.000000	97.528072 
2711.000000	97.528683 
2710.000000	97.529695 
2709.000000	97.531054 
2708.000000	97.532529 
2707.000000	97.533968 
2706.000000	97.535327 
2705.000000	97.536517 
2704.000000	97.537423 
2703.000000	97.538146 
2702.000000	97.539078 
2701.000000	97.540556 
2700.000000	97.542456 
2699.000000	97.544239 
2698.000000	97.545465 
2697.000000	97.546156 
2696.000000	97.546674 
2695.000000	97.547341 
2694.000000	97.548235 
2693.000000	97.549191 
2692.000000	97.549908 
2691.000000	97.550183 
2690.000000	97.550193 
2689.000000	97.550401 
2688.000000	97.551029 
2687.000000	97.551779 
2686.000000	97.552248 
2685.000000	97.552549 
2684.000000	97.553221 
2683.000000	97.554518 
2682.000000	97.556004 
2681.000000	97.556986 
2680.000000	97.557200 
2679.000000	97.556950 
2678.000000	97.556748 
2677.000000	97.556872 
2676.000000	97.557159 
2675.000000	97.557124 
2674.000000	97.556412 
2673.000000	97.555271 
2672.000000	97.554488 
2671.000000	97.554668 
2670.000000	97.555776 
2669.000000	97.557353 
2668.000000	97.558975 
2667.000000	97.560335 
2666.000000	97.561095 
2665.000000	97.561035 
2664.000000	97.560326 
2663.000000	97.559412 
2662.000000	97.558551 
2661.000000	97.557733 
2660.000000	97.557029 
2659.000000	97.556705 
2658.000000	97.556896 
2657.000000	97.557359 
2656.000000	97.557662 
2655.000000	97.557550 
2654.000000	97.557088 
2653.000000	97.556579 
2652.000000	97.556358 
2651.000000	97.556551 
2650.000000	97.556917 
2649.000000	97.556985 
2648.000000	97.556430 
2647.000000	97.555327 
2646.000000	97.554114 
2645.000000	97.553301 
2644.000000	97.553160 
2643.000000	97.553626 
2642.000000	97.554365 
2641.000000	97.554997 
2640.000000	97.555351 
2639.000000	97.555502 
2638.000000	97.555605 
2637.000000	97.555694 
2636.000000	97.555698 
2635.000000	97.555646 
2634.000000	97.555773 
2633.000000	97.556315 
2632.000000	97.557206 
2631.000000	97.558048 
2630.000000	97.558475 
2629.000000	97.558522 
2628.000000	97.558561 
2627.000000	97.558882 
2626.000000	97.559416 
2625.000000	97.559876 
2624.000000	97.560099 
2623.000000	97.560213 
2622.000000	97.560529 
2621.000000	97.561242 
2620.000000	97.562257 
2619.000000	97.563235 
2618.000000	97.563903 
2617.000000	97.564284 
2616.000000	97.564565 
2615.000000	97.564844 
2614.000000	97.565122 
2613.000000	97.565477 
2612.000000	97.566057 
2611.000000	97.566854 
2610.000000	97.567666 
2609.000000	97.568334 
2608.000000	97.568919 
2607.000000	97.569555 
2606.000000	97.570288 
2605.000000	97.571136 
2604.000000	97.572141 
2603.000000	97.573282 
2602.000000	97.574437 
2601.000000	97.575482 
2600.000000	97.576386 
2599.000000	97.577183 
2598.000000	97.577919 
2597.000000	97.578639 
2596.000000	97.579393 
2595.000000	97.580209 
2594.000000	97.581083 
2593.000000	97.581980 
2592.000000	97.582849 
2591.000000	97.583647 
2590.000000	97.584388 
2589.000000	97.585170 
2588.000000	97.586085 
2587.000000	97.587123 
2586.000000	97.588187 
2585.000000	97.589185 
2584.000000	97.590101 
2583.000000	97.590972 
2582.000000	97.591836 
2581.000000	97.592705 
2580.000000	97.593567 
2579.000000	97.594403 
2578.000000	97.595214 
2577.000000	97.596036 
2576.000000	97.596895 
2575.000000	97.597774 
2574.000000	97.598642 
2573.000000	97.599484 
2572.000000	97.600305 
2571.000000	97.601105 
2570.000000	97.601883 
2569.000000	97.602648 
2568.000000	97.603409 
2567.000000	97.604166 
2566.000000	97.604909 
2565.000000	97.605630 
2564.000000	97.606327 
2563.000000	97.607002 
2562.000000	97.607660 
2561.000000	97.608305 
2560.000000	97.608936 
2559.000000	97.609551 
2558.000000	97.610150 
2557.000000	97.610730 
2556.000000	97.611292 
2555.000000	97.611844 
2554.000000	97.612382 
2553.000000	97.612897 
2552.000000	97.613401 
2551.000000	97.613915 
2550.000000	97.614418 
2549.000000	97.614863 
2548.000000	97.615249 
2547.000000	97.615635 
2546.000000	97.616048 
2545.000000	97.616451 
2544.000000	97.616810 
2543.000000	97.617157 
2542.000000	97.617553 
2541.000000	97.618022 
2540.000000	97.618532 
2539.000000	97.619002 
2538.000000	97.619325 
2537.000000	97.619445 
2536.000000	97.619440 
2535.000000	97.619495 
2534.000000	97.619733 
2533.000000	97.620142 
2532.000000	97.620602 
2531.000000	97.620941 
2530.000000	97.621020 
2529.000000	97.620865 
2528.000000	97.620742 
2527.000000	97.620929 
2526.000000	97.621357 
2525.000000	97.621635 
2524.000000	97.621531 
2523.000000	97.621240 
2522.000000	97.621086 
2521.000000	97.621125 
2520.000000	97.621187 
2519.000000	97.621163 
2518.000000	97.621082 
2517.000000	97.621098 
2516.000000	97.621459 
2515.000000	97.622346 
2514.000000	97.623676 
2513.000000	97.625125 
2512.000000	97.626315 
2511.000000	97.626905 
2510.000000	97.626700 
2509.000000	97.625932 
2508.000000	97.625348 
2507.000000	97.625541 
2506.000000	97.626295 
2505.000000	97.626883 
2504.000000	97.626991 
2503.000000	97.626915 
2502.000000	97.626863 
2501.000000	97.626678 
2500.000000	97.626387 
2499.000000	97.626415 
2498.000000	97.627027 
2497.000000	97.627996 
2496.000000	97.629020 
2495.000000	97.629992 
2494.000000	97.630799 
2493.000000	97.631402 
2492.000000	97.632151 
2491.000000	97.633485 
2490.000000	97.635204 
2489.000000	97.636521 
2488.000000	97.637000 
2487.000000	97.636983 
2486.000000	97.636992 
2485.000000	97.637117 
2484.000000	97.637144 
2483.000000	97.636904 
2482.000000	97.636338 
2481.000000	97.635643 
2480.000000	97.635365 
2479.000000	97.635966 
2478.000000	97.637286 
2477.000000	97.638648 
2476.000000	97.639545 
2475.000000	97.639970 
2474.000000	97.640087 
2473.000000	97.640020 
2472.000000	97.639992 
2471.000000	97.640255 
2470.000000	97.640711 
2469.000000	97.640955 
2468.000000	97.640802 
2467.000000	97.640446 
2466.000000	97.640046 
2465.000000	97.639533 
2464.000000	97.638945 
2463.000000	97.638586 
2462.000000	97.638677 
2461.000000	97.639096 
2460.000000	97.639490 
2459.000000	97.639574 
2458.000000	97.639307 
2457.000000	97.638874 
2456.000000	97.638577 
2455.000000	97.638569 
2454.000000	97.638728 
2453.000000	97.638781 
2452.000000	97.638611 
2451.000000	97.638357 
2450.000000	97.638218 
2449.000000	97.638243 
2448.000000	97.638359 
2447.000000	97.638500 
2446.000000	97.638645 
2445.000000	97.638779 
2444.000000	97.638901 
2443.000000	97.639031 
2442.000000	97.639164 
2441.000000	97.639249 
2440.000000	97.639261 
2439.000000	97.639245 
2438.000000	97.639244 
2437.000000	97.639219 
2436.000000	97.639132 
2435.000000	97.639027 
2434.000000	97.638975 
2433.000000	97.639009 
2432.000000	97.639167 
2431.000000	97.639513 
2430.000000	97.640034 
2429.000000	97.640568 
2428.000000	97.640917 
2427.000000	97.641027 
2426.000000	97.640988 
2425.000000	97.640960 
2424.000000	97.641096 
2423.000000	97.641474 
2422.000000	97.642000 
2421.000000	97.642465 
2420.000000	97.642800 
2419.000000	97.643101 
2418.000000	97.643324 
2417.000000	97.643299 
2416.000000	97.643221 
2415.000000	97.643691 
2414.000000	97.644944 
2413.000000	97.646447 
2412.000000	97.647593 
2411.000000	97.648470 
2410.000000	97.649447 
2409.000000	97.650447 
2408.000000	97.651096 
2407.000000	97.651225 
2406.000000	97.650861 
2405.000000	97.650003 
2404.000000	97.648817 
2403.000000	97.647870 
2402.000000	97.647702 
2401.000000	97.648269 
2400.000000	97.649085 
2399.000000	97.649869 
2398.000000	97.650693 
2397.000000	97.651568 
2396.000000	97.652237 
2395.000000	97.652447 
2394.000000	97.652271 
2393.000000	97.652126 
2392.000000	97.652453 
2391.000000	97.653343 
2390.000000	97.654425 
2389.000000	97.655168 
2388.000000	97.655392 
2387.000000	97.655435 
2386.000000	97.655812 
2385.000000	97.656717 
2384.000000	97.657810 
2383.000000	97.658463 
2382.000000	97.658259 
2381.000000	97.657251 
2380.000000	97.655897 
2379.000000	97.654658 
2378.000000	97.653690 
2377.000000	97.652935 
2376.000000	97.652345 
2375.000000	97.651931 
2374.000000	97.651671 
2373.000000	97.651454 
2372.000000	97.651144 
2371.000000	97.650644 
2370.000000	97.649965 
2369.000000	97.649237 
2368.000000	97.648602 
2367.000000	97.648067 
2366.000000	97.647523 
2365.000000	97.646868 
2364.000000	97.646088 
2363.000000	97.645220 
2362.000000	97.644299 
2361.000000	97.643349 
2360.000000	97.642392 
2359.000000	97.641436 
2358.000000	97.640475 
2357.000000	97.639502 
2356.000000	97.638507 
2355.000000	97.637481 
2354.000000	97.636414 
2353.000000	97.635305 
2352.000000	97.634164 
2351.000000	97.633004 
2350.000000	97.631830 
2349.000000	97.630639 
2348.000000	97.629428 
2347.000000	97.628204 
2346.000000	97.626973 
2345.000000	97.625744 
2344.000000	97.624522 
2343.000000	97.623304 
2342.000000	97.622081 
2341.000000	97.620848 
2340.000000	97.619610 
2339.000000	97.618381 
2338.000000	97.617171 
2337.000000	97.615979 
2336.000000	97.614796 
2335.000000	97.613612 
2334.000000	97.612415 
2333.000000	97.611203 
2332.000000	97.609993 
2331.000000	97.608830 
2330.000000	97.607734 
2329.000000	97.606622 
2328.000000	97.605349 
2327.000000	97.603788 
2326.000000	97.601900 
2325.000000	97.599780 
2324.000000	97.597774 
2323.000000	97.596261 
2322.000000	97.595284 
2321.000000	97.594506 
2320.000000	97.593790 
2319.000000	97.593418 
2318.000000	97.593487 
2317.000000	97.593520 
2316.000000	97.592885 
2315.000000	97.591439 
2314.000000	97.589403 
2313.000000	97.587043 
2312.000000	97.584674 
2311.000000	97.582730 
2310.000000	97.581311 
2309.000000	97.580179 
2308.000000	97.579305 
2307.000000	97.579091 
2306.000000	97.579714 
2305.000000	97.580716 
2304.000000	97.581452 
2303.000000	97.581581 
2302.000000	97.580853 
2301.000000	97.578978 
2300.000000	97.576141 
2299.000000	97.573294 
2298.000000	97.571471 
2297.000000	97.570917 
2296.000000	97.571011 
2295.000000	97.570660 
2294.000000	97.568874 
2293.000000	97.565534 
2292.000000	97.561761 
2291.000000	97.558809 
2290.000000	97.556607 
2289.000000	97.554135 
2288.000000	97.551162 
2287.000000	97.548674 
2286.000000	97.547637 
2285.000000	97.548303 
2284.000000	97.550562 
2283.000000	97.553847 
2282.000000	97.556756 
2281.000000	97.558310 
2280.000000	97.559479 
2279.000000	97.561766 
2278.000000	97.564417 
2277.000000	97.565023 
2276.000000	97.563047 
2275.000000	97.560688 
2274.000000	97.559647 
2273.000000	97.559141 
2272.000000	97.558065 
2271.000000	97.557220 
2270.000000	97.558226 
2269.000000	97.561549 
2268.000000	97.566375 
2267.000000	97.571243 
2266.000000	97.574432 
2265.000000	97.575083 
2264.000000	97.574284 
2263.000000	97.573848 
2262.000000	97.573695 
2261.000000	97.571884 
2260.000000	97.567574 
2259.000000	97.562415 
2258.000000	97.558702 
2257.000000	97.557141 
2256.000000	97.557056 
2255.000000	97.557549 
2254.000000	97.557916 
2253.000000	97.557854 
2252.000000	97.557786 
2251.000000	97.558439 
2250.000000	97.559817 
2249.000000	97.561101 
2248.000000	97.561711 
2247.000000	97.561689 
2246.000000	97.561272 
2245.000000	97.560569 
2244.000000	97.559774 
2243.000000	97.559177 
2242.000000	97.558857 
2241.000000	97.558661 
2240.000000	97.558564 
2239.000000	97.558744 
2238.000000	97.559111 
2237.000000	97.559101 
2236.000000	97.558285 
2235.000000	97.557008 
2234.000000	97.556181 
2233.000000	97.556522 
2232.000000	97.558146 
2231.000000	97.560507 
2230.000000	97.562469 
2229.000000	97.562921 
2228.000000	97.561550 
2227.000000	97.558957 
2226.000000	97.555994 
2225.000000	97.553310 
2224.000000	97.551742 
2223.000000	97.552163 
2222.000000	97.554359 
2221.000000	97.556664 
2220.000000	97.557458 
2219.000000	97.556778 
2218.000000	97.555970 
2217.000000	97.556221 
2216.000000	97.557776 
2215.000000	97.560092 
2214.000000	97.562142 
2213.000000	97.562885 
2212.000000	97.561789 
2211.000000	97.558938 
2210.000000	97.555039 
2209.000000	97.551790 
2208.000000	97.551470 
2207.000000	97.554968 
2206.000000	97.560412 
2205.000000	97.565130 
2204.000000	97.569076 
2203.000000	97.574227 
2202.000000	97.580280 
2201.000000	97.583757 
2200.000000	97.582416 
2199.000000	97.577955 
2198.000000	97.573420 
2197.000000	97.569958 
2196.000000	97.567618 
2195.000000	97.566686 
2194.000000	97.566404 
2193.000000	97.564416 
2192.000000	97.559189 
2191.000000	97.551802 
2190.000000	97.544561 
2189.000000	97.539009 
2188.000000	97.535622 
2187.000000	97.534197 
2186.000000	97.534405 
2185.000000	97.536970 
2184.000000	97.543416 
2183.000000	97.552806 
2182.000000	97.560125 
2181.000000	97.561073 
2180.000000	97.557456 
2179.000000	97.554431 
2178.000000	97.553680 
2177.000000	97.553561 
2176.000000	97.554760 
2175.000000	97.560167 
2174.000000	97.568619 
2173.000000	97.574194 
2172.000000	97.573475 
2171.000000	97.568889 
2170.000000	97.563502 
2169.000000	97.557080 
2168.000000	97.549338 
2167.000000	97.542734 
2166.000000	97.539000 
2165.000000	97.536049 
2164.000000	97.531215 
2163.000000	97.525444 
2162.000000	97.522541 
2161.000000	97.526914 
2160.000000	97.542716 
2159.000000	97.570668 
2158.000000	97.603374 
2157.000000	97.628840 
2156.000000	97.641510 
2155.000000	97.644293 
2154.000000	97.641030 
2153.000000	97.632785 
2152.000000	97.621967 
2151.000000	97.614166 
2150.000000	97.612690 
2149.000000	97.614997 
2148.000000	97.617467 
2147.000000	97.620802 
2146.000000	97.627789 
2145.000000	97.638273 
2144.000000	97.649374 
2143.000000	97.658795 
2142.000000	97.665005 
2141.000000	97.665865 
2140.000000	97.660184 
2139.000000	97.650381 
2138.000000	97.641702 
2137.000000	97.638235 
2136.000000	97.639983 
2135.000000	97.643481 
2134.000000	97.645120 
2133.000000	97.644621 
2132.000000	97.645090 
2131.000000	97.648903 
2130.000000	97.654138 
2129.000000	97.656361 
2128.000000	97.653398 
2127.000000	97.646846 
2126.000000	97.639665 
2125.000000	97.634056 
2124.000000	97.631131 
2123.000000	97.630547 
2122.000000	97.630198 
2121.000000	97.627900 
2120.000000	97.623556 
2119.000000	97.618520 
2118.000000	97.613443 
2117.000000	97.608435 
2116.000000	97.604656 
2115.000000	97.603369 
2114.000000	97.603777 
2113.000000	97.604125 
2112.000000	97.604998 
2111.000000	97.608496 
2110.000000	97.613684 
2109.000000	97.616151 
2108.000000	97.613282 
2107.000000	97.607338 
2106.000000	97.602255 
2105.000000	97.599519 
2104.000000	97.598353 
2103.000000	97.597772 
2102.000000	97.596986 
2101.000000	97.595544 
2100.000000	97.594218 
2099.000000	97.594632 
2098.000000	97.597517 
2097.000000	97.602247 
2096.000000	97.607927 
2095.000000	97.613492 
2094.000000	97.617131 
2093.000000	97.617556 
2092.000000	97.615704 
2091.000000	97.613711 
2090.000000	97.612272 
2089.000000	97.610368 
2088.000000	97.607346 
2087.000000	97.603728 
2086.000000	97.600188 
2085.000000	97.597192 
2084.000000	97.595805 
2083.000000	97.597261 
2082.000000	97.601308 
2081.000000	97.606026 
2080.000000	97.609692 
2079.000000	97.611989 
2078.000000	97.613203 
2077.000000	97.613552 
2076.000000	97.613523 
2075.000000	97.613725 
2074.000000	97.614104 
2073.000000	97.614116 
2072.000000	97.613869 
2071.000000	97.614293 
2070.000000	97.615922 
2069.000000	97.618179 
2068.000000	97.620134 
2067.000000	97.621221 
2066.000000	97.621151 
2065.000000	97.620342 
2064.000000	97.620512 
2063.000000	97.623240 
2062.000000	97.627680 
2061.000000	97.631000 
2060.000000	97.631678 
2059.000000	97.631098 
2058.000000	97.631573 
2057.000000	97.634112 
2056.000000	97.638504 
2055.000000	97.643787 
2054.000000	97.647783 
2053.000000	97.647934 
2052.000000	97.643670 
2051.000000	97.637069 
2050.000000	97.630783 
2049.000000	97.626469 
2048.000000	97.625883 
2047.000000	97.630933 
2046.000000	97.640815 
2045.000000	97.650717 
2044.000000	97.656015 
2043.000000	97.656555 
2042.000000	97.655302 
2041.000000	97.654833 
2040.000000	97.656365 
2039.000000	97.660408 
2038.000000	97.666547 
2037.000000	97.673677 
2036.000000	97.681452 
2035.000000	97.690071 
2034.000000	97.698284 
2033.000000	97.704153 
2032.000000	97.708025 
2031.000000	97.711188 
2030.000000	97.711676 
2029.000000	97.706374 
2028.000000	97.697648 
2027.000000	97.692527 
2026.000000	97.693425 
2025.000000	97.694979 
2024.000000	97.692318 
2023.000000	97.687810 
2022.000000	97.686724 
2021.000000	97.690201 
2020.000000	97.695642 
2019.000000	97.700659 
2018.000000	97.703520 
2017.000000	97.702853 
2016.000000	97.700132 
2015.000000	97.699695 
2014.000000	97.703837 
2013.000000	97.710026 
2012.000000	97.714084 
2011.000000	97.713912 
2010.000000	97.709754 
2009.000000	97.703990 
2008.000000	97.700566 
2007.000000	97.700609 
2006.000000	97.699578 
2005.000000	97.693328 
2004.000000	97.685350 
2003.000000	97.682128 
2002.000000	97.682687 
2001.000000	97.679916 
2000.000000	97.672125 
1999.000000	97.665622 
1998.000000	97.664415 
1997.000000	97.664836 
1996.000000	97.662610 
1995.000000	97.658943 
1994.000000	97.656197 
1993.000000	97.653292 
1992.000000	97.649383 
1991.000000	97.647529 
1990.000000	97.650266 
1989.000000	97.655248 
1988.000000	97.658309 
1987.000000	97.658442 
1986.000000	97.657551 
1985.000000	97.657470 
1984.000000	97.658760 
1983.000000	97.660386 
1982.000000	97.659770 
1981.000000	97.655641 
1980.000000	97.651224 
1979.000000	97.651497 
1978.000000	97.656968 
1977.000000	97.663429 
1976.000000	97.668245 
1975.000000	97.672868 
1974.000000	97.677851 
1973.000000	97.680421 
1972.000000	97.678801 
1971.000000	97.674721 
1970.000000	97.670082 
1969.000000	97.664541 
1968.000000	97.658279 
1967.000000	97.653857 
1966.000000	97.653095 
1965.000000	97.654580 
1964.000000	97.655842 
1963.000000	97.656274 
1962.000000	97.656628 
1961.000000	97.657006 
1960.000000	97.656585 
1959.000000	97.654707 
1958.000000	97.651534 
1957.000000	97.648205 
1956.000000	97.646295 
1955.000000	97.646396 
1954.000000	97.647407 
1953.000000	97.647471 
1952.000000	97.645948 
1951.000000	97.643649 
1950.000000	97.641566 
1949.000000	97.639925 
1948.000000	97.638597 
1947.000000	97.637621 
1946.000000	97.636988 
1945.000000	97.636375 
1944.000000	97.635415 
1943.000000	97.634035 
1942.000000	97.632324 
1941.000000	97.630352 
1940.000000	97.628259 
1939.000000	97.626273 
1938.000000	97.624504 
1937.000000	97.622863 
1936.000000	97.621237 
1935.000000	97.619594 
1934.000000	97.617915 
1933.000000	97.616163 
1932.000000	97.614366 
1931.000000	97.612597 
1930.000000	97.610883 
1929.000000	97.609215 
1928.000000	97.607585 
1927.000000	97.605996 
1926.000000	97.604445 
1925.000000	97.602899 
1924.000000	97.601310 
1923.000000	97.599724 
1922.000000	97.598245 
1921.000000	97.596850 
1920.000000	97.595361 
1919.000000	97.593644 
1918.000000	97.591698 
1917.000000	97.589648 
1916.000000	97.587781 
1915.000000	97.586429 
1914.000000	97.585526 
1913.000000	97.584474 
1912.000000	97.582952 
1911.000000	97.581491 
1910.000000	97.580310 
1909.000000	97.578576 
1908.000000	97.575818 
1907.000000	97.572733 
1906.000000	97.570155 
1905.000000	97.567976 
1904.000000	97.565839 
1903.000000	97.564001 
1902.000000	97.562438 
1901.000000	97.560487 
1900.000000	97.558179 
1899.000000	97.556641 
1898.000000	97.556405 
1897.000000	97.556329 
1896.000000	97.555117 
1895.000000	97.553077 
1894.000000	97.551134 
1893.000000	97.549356 
1892.000000	97.547539 
1891.000000	97.546032 
1890.000000	97.545136 
1889.000000	97.544601 
1888.000000	97.544478 
1887.000000	97.545018 
1886.000000	97.545250 
1885.000000	97.543385 
1884.000000	97.539363 
1883.000000	97.535767 
1882.000000	97.534639 
1881.000000	97.535300 
1880.000000	97.536083 
1879.000000	97.536569 
1878.000000	97.536960 
1877.000000	97.536945 
1876.000000	97.536696 
1875.000000	97.537457 
1874.000000	97.539424 
1873.000000	97.540658 
1872.000000	97.540030 
1871.000000	97.539177 
1870.000000	97.539501 
1869.000000	97.539382 
1868.000000	97.537736 
1867.000000	97.536949 
1866.000000	97.538560 
1865.000000	97.541075 
1864.000000	97.543155 
1863.000000	97.545794 
1862.000000	97.549546 
1861.000000	97.552164 
1860.000000	97.551895 
1859.000000	97.550891 
1858.000000	97.552160 
1857.000000	97.555284 
1856.000000	97.557945 
1855.000000	97.559492 
1854.000000	97.560486 
1853.000000	97.560876 
1852.000000	97.561042 
1851.000000	97.562520 
1850.000000	97.566036 
1849.000000	97.570553 
1848.000000	97.574935 
1847.000000	97.579448 
1846.000000	97.584143 
1845.000000	97.587310 
1844.000000	97.587931 
1843.000000	97.587827 
1842.000000	97.588193 
1841.000000	97.588019 
1840.000000	97.586683 
1839.000000	97.585299 
1838.000000	97.585372 
1837.000000	97.586789 
1836.000000	97.588660 
1835.000000	97.590871 
1834.000000	97.593334 
1833.000000	97.595225 
1832.000000	97.595585 
1831.000000	97.594287 
1830.000000	97.592443 
1829.000000	97.591426 
1828.000000	97.591420 
1827.000000	97.592172 
1826.000000	97.593479 
1825.000000	97.594638 
1824.000000	97.595149 
1823.000000	97.595643 
1822.000000	97.596770 
1821.000000	97.598136 
1820.000000	97.599108 
1819.000000	97.600051 
1818.000000	97.601419 
1817.000000	97.602253 
1816.000000	97.601668 
1815.000000	97.600480 
1814.000000	97.599997 
1813.000000	97.600194 
1812.000000	97.600270 
1811.000000	97.600266 
1810.000000	97.600658 
1809.000000	97.601056 
1808.000000	97.601012 
1807.000000	97.600874 
1806.000000	97.601011 
1805.000000	97.601251 
1804.000000	97.601434 
1803.000000	97.601757 
1802.000000	97.602312 
1801.000000	97.602894 
1800.000000	97.603329 
1799.000000	97.603709 
1798.000000	97.604142 
1797.000000	97.604586 
1796.000000	97.605004 
1795.000000	97.605497 
1794.000000	97.606171 
1793.000000	97.606940 
1792.000000	97.607522 
1791.000000	97.607886 
1790.000000	97.608402 
1789.000000	97.609011 
1788.000000	97.609272 
1787.000000	97.609430 
1786.000000	97.610354 
1785.000000	97.611956 
1784.000000	97.613075 
1783.000000	97.613292 
1782.000000	97.613259 
1781.000000	97.613657 
1780.000000	97.614696 
1779.000000	97.616472 
1778.000000	97.618891 
1777.000000	97.621120 
1776.000000	97.622224 
1775.000000	97.622025 
1774.000000	97.621370 
1773.000000	97.621359 
1772.000000	97.621778 
1771.000000	97.622427 
1770.000000	97.624820 
1769.000000	97.629620 
1768.000000	97.634590 
1767.000000	97.637152 
1766.000000	97.637450 
1765.000000	97.636783 
1764.000000	97.635072 
1763.000000	97.631998 
1762.000000	97.629867 
1761.000000	97.631559 
1760.000000	97.635949 
1759.000000	97.640417 
1758.000000	97.644577 
1757.000000	97.649325 
1756.000000	97.653856 
1755.000000	97.656385 
1754.000000	97.658836 
1753.000000	97.665401 
1752.000000	97.675276 
1751.000000	97.680737 
1750.000000	97.678378 
1749.000000	97.673719 
1748.000000	97.670888 
1747.000000	97.667978 
1746.000000	97.664110 
1745.000000	97.662488 
1744.000000	97.663413 
1743.000000	97.662760 
1742.000000	97.659536 
1741.000000	97.657028 
1740.000000	97.656612 
1739.000000	97.656453 
1738.000000	97.655180 
1737.000000	97.652265 
1736.000000	97.648450 
1735.000000	97.645611 
1734.000000	97.643687 
1733.000000	97.641707 
1732.000000	97.639758 
1731.000000	97.637470 
1730.000000	97.635736 
1729.000000	97.635946 
1728.000000	97.637000 
1727.000000	97.635825 
1726.000000	97.631448 
1725.000000	97.625833 
1724.000000	97.620551 
1723.000000	97.616512 
1722.000000	97.614379 
1721.000000	97.612498 
1720.000000	97.608629 
1719.000000	97.603796 
1718.000000	97.601231 
1717.000000	97.596379 
1716.000000	97.585478 
1715.000000	97.576768 
1714.000000	97.574380 
1713.000000	97.572123 
1712.000000	97.565707 
1711.000000	97.558187 
1710.000000	97.553306 
1709.000000	97.548922 
1708.000000	97.540782 
1707.000000	97.530115 
1706.000000	97.520383 
1705.000000	97.509349 
1704.000000	97.494419 
1703.000000	97.480679 
1702.000000	97.475129 
1701.000000	97.475278 
1700.000000	97.467527 
1699.000000	97.454541 
1698.000000	97.446584 
1697.000000	97.439663 
1696.000000	97.428344 
1695.000000	97.415550 
1694.000000	97.405284 
1693.000000	97.395524 
1692.000000	97.385008 
1691.000000	97.375897 
1690.000000	97.369178 
1689.000000	97.361849 
1688.000000	97.350797 
1687.000000	97.336592 
1686.000000	97.322413 
1685.000000	97.308318 
1684.000000	97.293168 
1683.000000	97.281271 
1682.000000	97.270727 
1681.000000	97.260082 
1680.000000	97.250386 
1679.000000	97.240458 
1678.000000	97.228007 
1677.000000	97.215482 
1676.000000	97.208476 
1675.000000	97.204931 
1674.000000	97.197283 
1673.000000	97.184257 
1672.000000	97.168325 
1671.000000	97.150945 
1670.000000	97.131090 
1669.000000	97.112167 
1668.000000	97.101073 
1667.000000	97.095016 
1666.000000	97.086824 
1665.000000	97.073271 
1664.000000	97.056487 
1663.000000	97.040893 
1662.000000	97.026452 
1661.000000	97.012040 
1660.000000	97.000333 
1659.000000	96.990216 
1658.000000	96.975961 
1657.000000	96.955512 
1656.000000	96.933541 
1655.000000	96.914929 
1654.000000	96.898961 
1653.000000	96.883323 
1652.000000	96.873530 
1651.000000	96.869673 
1650.000000	96.867602 
1649.000000	96.863874 
1648.000000	96.859714 
1647.000000	96.855872 
1646.000000	96.852396 
1645.000000	96.847793 
1644.000000	96.843142 
1643.000000	96.841611 
1642.000000	96.843037 
1641.000000	96.844999 
1640.000000	96.846623 
1639.000000	96.847332 
1638.000000	96.847314 
1637.000000	96.848824 
1636.000000	96.854623 
1635.000000	96.859416 
1634.000000	96.858266 
1633.000000	96.857268 
1632.000000	96.863845 
1631.000000	96.878663 
1630.000000	96.894607 
1629.000000	96.904558 
1628.000000	96.910169 
1627.000000	96.916395 
1626.000000	96.923564 
1625.000000	96.933333 
1624.000000	96.952033 
1623.000000	96.980053 
1622.000000	97.005832 
1621.000000	97.022523 
1620.000000	97.035110 
1619.000000	97.048977 
1618.000000	97.064204 
1617.000000	97.079884 
1616.000000	97.099778 
1615.000000	97.120590 
1614.000000	97.135000 
1613.000000	97.147081 
1612.000000	97.166847 
1611.000000	97.194342 
1610.000000	97.216885 
1609.000000	97.229307 
1608.000000	97.240892 
1607.000000	97.256243 
1606.000000	97.268927 
1605.000000	97.277755 
1604.000000	97.289618 
1603.000000	97.304796 
1602.000000	97.316945 
1601.000000	97.325971 
1600.000000	97.337482 
1599.000000	97.350280 
1598.000000	97.357967 
1597.000000	97.361246 
1596.000000	97.367695 
1595.000000	97.379807 
1594.000000	97.391810 
1593.000000	97.400501 
1592.000000	97.409224 
1591.000000	97.419380 
1590.000000	97.427414 
1589.000000	97.432771 
1588.000000	97.439963 
1587.000000	97.450411 
1586.000000	97.459936 
1585.000000	97.466634 
1584.000000	97.474095 
1583.000000	97.483713 
1582.000000	97.491963 
1581.000000	97.497727 
1580.000000	97.503455 
1579.000000	97.508884 
1578.000000	97.511345 
1577.000000	97.512261 
1576.000000	97.517188 
1575.000000	97.525591 
1574.000000	97.531822 
1573.000000	97.535429 
1572.000000	97.539257 
1571.000000	97.544761 
1570.000000	97.550704 
1569.000000	97.556993 
1568.000000	97.564630 
1567.000000	97.571710 
1566.000000	97.576493 
1565.000000	97.579844 
1564.000000	97.583258 
1563.000000	97.586491 
1562.000000	97.588955 
1561.000000	97.592412 
1560.000000	97.599007 
1559.000000	97.605561 
1558.000000	97.608092 
1557.000000	97.609087 
1556.000000	97.611449 
1555.000000	97.615022 
1554.000000	97.618672 
1553.000000	97.622057 
1552.000000	97.625516 
1551.000000	97.629290 
1550.000000	97.633248 
1549.000000	97.636959 
1548.000000	97.640174 
1547.000000	97.642938 
1546.000000	97.645152 
1545.000000	97.646547 
1544.000000	97.647468 
1543.000000	97.648914 
1542.000000	97.651370 
1541.000000	97.653568 
1540.000000	97.654657 
1539.000000	97.655826 
1538.000000	97.656914 
1537.000000	97.657403 
1536.000000	97.657485 
1535.000000	97.657878 
1534.000000	97.658505 
1533.000000	97.658563 
1532.000000	97.658306 
1531.000000	97.659135 
1530.000000	97.661099 
1529.000000	97.662237 
1528.000000	97.661323 
1527.000000	97.659784 
1526.000000	97.659541 
1525.000000	97.659892 
1524.000000	97.659323 
1523.000000	97.658350 
1522.000000	97.658051 
1521.000000	97.657438 
1520.000000	97.655658 
1519.000000	97.654097 
1518.000000	97.654019 
1517.000000	97.654761 
1516.000000	97.655014 
1515.000000	97.655034 
1514.000000	97.656177 
1513.000000	97.658018 
1512.000000	97.657816 
1511.000000	97.655256 
1510.000000	97.653213 
1509.000000	97.652721 
1508.000000	97.650849 
1507.000000	97.646975 
1506.000000	97.644661 
1505.000000	97.642187 
1504.000000	97.638930 
1503.000000	97.635825 
1502.000000	97.633114 
1501.000000	97.630204 
1500.000000	97.625549 
1499.000000	97.619569 
1498.000000	97.616779 
1497.000000	97.619138 
1496.000000	97.622032 
1495.000000	97.623281 
1494.000000	97.625690 
1493.000000	97.629660 
1492.000000	97.632058 
1491.000000	97.630331 
1490.000000	97.625329 
1489.000000	97.618266 
1488.000000	97.609656 
1487.000000	97.603375 
1486.000000	97.600913 
1485.000000	97.599007 
1484.000000	97.596127 
1483.000000	97.593378 
1482.000000	97.591752 
1481.000000	97.589732 
1480.000000	97.586021 
1479.000000	97.583095 
1478.000000	97.583532 
1477.000000	97.585205 
1476.000000	97.584430 
1475.000000	97.583394 
1474.000000	97.584661 
1473.000000	97.584503 
1472.000000	97.578552 
1471.000000	97.571462 
1470.000000	97.568890 
1469.000000	97.568612 
1468.000000	97.565719 
1467.000000	97.560618 
1466.000000	97.557313 
1465.000000	97.555828 
1464.000000	97.552863 
1463.000000	97.547699 
1462.000000	97.542924 
1461.000000	97.538176 
1460.000000	97.530310 
1459.000000	97.518032 
1458.000000	97.506332 
1457.000000	97.500144 
1456.000000	97.492693 
1455.000000	97.479143 
1454.000000	97.465156 
1453.000000	97.454412 
1452.000000	97.445427 
1451.000000	97.436953 
1450.000000	97.432574 
1449.000000	97.434302 
1448.000000	97.435766 
1447.000000	97.431208 
1446.000000	97.423293 
1445.000000	97.417447 
1444.000000	97.413913 
1443.000000	97.408884 
1442.000000	97.402591 
1441.000000	97.398091 
1440.000000	97.393488 
1439.000000	97.384081 
1438.000000	97.374083 
1437.000000	97.371792 
1436.000000	97.374513 
1435.000000	97.373882 
1434.000000	97.370551 
1433.000000	97.366981 
1432.000000	97.362252 
1431.000000	97.353667 
1430.000000	97.343512 
1429.000000	97.336462 
1428.000000	97.330770 
1427.000000	97.322426 
1426.000000	97.311928 
1425.000000	97.304682 
1424.000000	97.301131 
1423.000000	97.293674 
1422.000000	97.280280 
1421.000000	97.266805 
1420.000000	97.255222 
1419.000000	97.239121 
1418.000000	97.219754 
1417.000000	97.202978 
1416.000000	97.185756 
1415.000000	97.163702 
1414.000000	97.138341 
1413.000000	97.115014 
1412.000000	97.095578 
1411.000000	97.077983 
1410.000000	97.063323 
1409.000000	97.054461 
1408.000000	97.050151 
1407.000000	97.048236 
1406.000000	97.050020 
1405.000000	97.059694 
1404.000000	97.076821 
1403.000000	97.095227 
1402.000000	97.112376 
1401.000000	97.130456 
1400.000000	97.149751 
1399.000000	97.163955 
1398.000000	97.165084 
1397.000000	97.149067 
1396.000000	97.118066 
1395.000000	97.085439 
1394.000000	97.072975 
1393.000000	97.092531 
1392.000000	97.133626 
1391.000000	97.175208 
1390.000000	97.203609 
1389.000000	97.217306 
1388.000000	97.220537 
1387.000000	97.217713 
1386.000000	97.212923 
1385.000000	97.210199 
1384.000000	97.211463 
1383.000000	97.215741 
1382.000000	97.221946 
1381.000000	97.230442 
1380.000000	97.242052 
1379.000000	97.255901 
1378.000000	97.269779 
1377.000000	97.283143 
1376.000000	97.297634 
1375.000000	97.314203 
1374.000000	97.331596 
1373.000000	97.348598 
1372.000000	97.365012 
1371.000000	97.380865 
1370.000000	97.395724 
1369.000000	97.410850 
1368.000000	97.427823 
1367.000000	97.445216 
1366.000000	97.460091 
1365.000000	97.471533 
1364.000000	97.481339 
1363.000000	97.492141 
1362.000000	97.505005 
1361.000000	97.519110 
1360.000000	97.533322 
1359.000000	97.546943 
1358.000000	97.559590 
1357.000000	97.571986 
1356.000000	97.585086 
1355.000000	97.598187 
1354.000000	97.609577 
1353.000000	97.618864 
1352.000000	97.627441 
1351.000000	97.636726 
1350.000000	97.644837 
1349.000000	97.650918 
1348.000000	97.655655 
1347.000000	97.659057 
1346.000000	97.661529 
1345.000000	97.665544 
1344.000000	97.672870 
1343.000000	97.681092 
1342.000000	97.685844 
1341.000000	97.686361 
1340.000000	97.685803 
1339.000000	97.685913 
1338.000000	97.685802 
1337.000000	97.686086 
1336.000000	97.688917 
1335.000000	97.694406 
1334.000000	97.700577 
1333.000000	97.706435 
1332.000000	97.711918 
1331.000000	97.715174 
1330.000000	97.713643 
1329.000000	97.708686 
1328.000000	97.704778 
1327.000000	97.703570 
1326.000000	97.702346 
1325.000000	97.700376 
1324.000000	97.700033 
1323.000000	97.701657 
1322.000000	97.702380 
1321.000000	97.700512 
1320.000000	97.697468 
1319.000000	97.695204 
1318.000000	97.694676 
1317.000000	97.696369 
1316.000000	97.699846 
1315.000000	97.702993 
1314.000000	97.704216 
1313.000000	97.704785 
1312.000000	97.706895 
1311.000000	97.710226 
1310.000000	97.712746 
1309.000000	97.713895 
1308.000000	97.714407 
1307.000000	97.714120 
1306.000000	97.711926 
1305.000000	97.708989 
1304.000000	97.707860 
1303.000000	97.708936 
1302.000000	97.710085 
1301.000000	97.709691 
1300.000000	97.708041 
1299.000000	97.706258 
1298.000000	97.705660 
1297.000000	97.707414 
1296.000000	97.711294 
1295.000000	97.714886 
1294.000000	97.715858 
1293.000000	97.714453 
1292.000000	97.712495 
1291.000000	97.710988 
1290.000000	97.709864 
1289.000000	97.709105 
1288.000000	97.708700 
1287.000000	97.708071 
1286.000000	97.706829 
1285.000000	97.705559 
1284.000000	97.705090 
1283.000000	97.705861 
1282.000000	97.707961 
1281.000000	97.710674 
1280.000000	97.712429 
1279.000000	97.711842 
1278.000000	97.709506 
1277.000000	97.707676 
1276.000000	97.707799 
1275.000000	97.709200 
1274.000000	97.710702 
1273.000000	97.712137 
1272.000000	97.713490 
1271.000000	97.713947 
1270.000000	97.712796 
1269.000000	97.710250 
1268.000000	97.706601 
1267.000000	97.701736 
1266.000000	97.696371 
1265.000000	97.691931 
1264.000000	97.688503 
1263.000000	97.684710 
1262.000000	97.680301 
1261.000000	97.676847 
1260.000000	97.674993 
1259.000000	97.672699 
1258.000000	97.668200 
1257.000000	97.662772 
1256.000000	97.658972 
1255.000000	97.657414 
1254.000000	97.656454 
1253.000000	97.653912 
1252.000000	97.648778 
1251.000000	97.642909 
1250.000000	97.641632 
1249.000000	97.650359 
1248.000000	97.669129 
1247.000000	97.691395 
1246.000000	97.708468 
1245.000000	97.713503 
1244.000000	97.703434 
1243.000000	97.683109 
1242.000000	97.667725 
1241.000000	97.673221 
1240.000000	97.699744 
1239.000000	97.728913 
1238.000000	97.741590 
1237.000000	97.734911 
1236.000000	97.718915 
1235.000000	97.701912 
1234.000000	97.684942 
1233.000000	97.667682 
1232.000000	97.652493 
1231.000000	97.641758 
1230.000000	97.635423 
1229.000000	97.631623 
1228.000000	97.627192 
1227.000000	97.618345 
1226.000000	97.603914 
1225.000000	97.587471 
1224.000000	97.573580 
1223.000000	97.562428 
1222.000000	97.550424 
1221.000000	97.534998 
1220.000000	97.515911 
1219.000000	97.492689 
1218.000000	97.464173 
1217.000000	97.430495 
1216.000000	97.392790 
1215.000000	97.350993 
1214.000000	97.304192 
1213.000000	97.253037 
1212.000000	97.199471 
1211.000000	97.144133 
1210.000000	97.085754 
1209.000000	97.023109 
1208.000000	96.956150 
1207.000000	96.885577 
1206.000000	96.812752 
1205.000000	96.739517 
1204.000000	96.666322 
1203.000000	96.590839 
1202.000000	96.510403 
1201.000000	96.425744 
1200.000000	96.340314 
1199.000000	96.255856 
1198.000000	96.171164 
1197.000000	96.085711 
1196.000000	96.001558 
1195.000000	95.920064 
1194.000000	95.838729 
1193.000000	95.753578 
1192.000000	95.663527 
1191.000000	95.570441 
1190.000000	95.475921 
1189.000000	95.380194 
1188.000000	95.283443 
1187.000000	95.185801 
1186.000000	95.086051 
1185.000000	94.982526 
1184.000000	94.875652 
1183.000000	94.767779 
1182.000000	94.660051 
1181.000000	94.551229 
1180.000000	94.440056 
1179.000000	94.326807 
1178.000000	94.211820 
1177.000000	94.094132 
1176.000000	93.972252 
1175.000000	93.845010 
1174.000000	93.711384 
1173.000000	93.571257 
1172.000000	93.426559 
1171.000000	93.279991 
1170.000000	93.132492 
1169.000000	92.984005 
1168.000000	92.837267 
1167.000000	92.699213 
1166.000000	92.578669 
1165.000000	92.484641 
1164.000000	92.426120 
1163.000000	92.409474 
1162.000000	92.433744 
1161.000000	92.488998 
1160.000000	92.558360 
1159.000000	92.620677 
1158.000000	92.655227 
1157.000000	92.649154 
1156.000000	92.601216 
1155.000000	92.518038 
1154.000000	92.408704 
1153.000000	92.283559 
1152.000000	92.153696 
1151.000000	92.026215 
1150.000000	91.900590 
1149.000000	91.773557 
1148.000000	91.646390 
1147.000000	91.523243 
1146.000000	91.403796 
1145.000000	91.282893 
1144.000000	91.157161 
1143.000000	91.027143 
1142.000000	90.893598 
1141.000000	90.756964 
1140.000000	90.620299 
1139.000000	90.487143 
1138.000000	90.355787 
1137.000000	90.220468 
1136.000000	90.078711 
1135.000000	89.933296 
1134.000000	89.787547 
1133.000000	89.643319 
1132.000000	89.502501 
1131.000000	89.364734 
1130.000000	89.224623 
1129.000000	89.077453 
1128.000000	88.926565 
1127.000000	88.778369 
1126.000000	88.631377 
1125.000000	88.478141 
1124.000000	88.317338 
1123.000000	88.155134 
1122.000000	87.994532 
1121.000000	87.832656 
1120.000000	87.669707 
1119.000000	87.511040 
1118.000000	87.358181 
1117.000000	87.206811 
1116.000000	87.055831 
1115.000000	86.909637 
1114.000000	86.769226 
1113.000000	86.629920 
1112.000000	86.490013 
1111.000000	86.352558 
1110.000000	86.217549 
1109.000000	86.081531 
1108.000000	85.944595 
1107.000000	85.809540 
1106.000000	85.674070 
1105.000000	85.533854 
1104.000000	85.393228 
1103.000000	85.261488 
1102.000000	85.138011 
1101.000000	85.013043 
1100.000000	84.882693 
1099.000000	84.753817 
1098.000000	84.629269 
1097.000000	84.503602 
1096.000000	84.374330 
1095.000000	84.244706 
1094.000000	84.112402 
1093.000000	83.968238 
1092.000000	83.810137 
1091.000000	83.647134 
1090.000000	83.486531 
1089.000000	83.328211 
1088.000000	83.173951 
1087.000000	83.029557 
1086.000000	82.894097 
1085.000000	82.758780 
1084.000000	82.619562 
1083.000000	82.479813 
1082.000000	82.339453 
1081.000000	82.194322 
1080.000000	82.047587 
1079.000000	81.908055 
1078.000000	81.775565 
1077.000000	81.642030 
1076.000000	81.507478 
1075.000000	81.379119 
1074.000000	81.253535 
1073.000000	81.116545 
1072.000000	80.960647 
1071.000000	80.783125 
1070.000000	80.566850 
1069.000000	80.288578 
1068.000000	79.955841 
1067.000000	79.616816 
1066.000000	79.319303 
1065.000000	79.070161 
1064.000000	78.843900 
1063.000000	78.612316 
1062.000000	78.353957 
1061.000000	78.054654 
1060.000000	77.718433 
1059.000000	77.370861 
1058.000000	77.038603 
1057.000000	76.728657 
1056.000000	76.431380 
1055.000000	76.132973 
1054.000000	75.820139 
1053.000000	75.486003 
1052.000000	75.139161 
1051.000000	74.795462 
1050.000000	74.455487 
1049.000000	74.104452 
1048.000000	73.737641 
1047.000000	73.367724 
1046.000000	73.004129 
1045.000000	72.644232 
1044.000000	72.287414 
1043.000000	71.938670 
1042.000000	71.594484 
1041.000000	71.243211 
1040.000000	70.884948 
1039.000000	70.535438 
1038.000000	70.206588 
1037.000000	69.898676 
1036.000000	69.613091 
1035.000000	69.354266 
1034.000000	69.116288 
1033.000000	68.884756 
1032.000000	68.653023 
1031.000000	68.421053 
1030.000000	68.183578 
1029.000000	67.942214 
1028.000000	67.725065 
1027.000000	67.565408 
1026.000000	67.458102 
1025.000000	67.362645 
1024.000000	67.251888 
1023.000000	67.131621 
1022.000000	67.011229 
1021.000000	66.885823 
1020.000000	66.753657 
1019.000000	66.623640 
1018.000000	66.496859 
1017.000000	66.363651 
1016.000000	66.225197 
1015.000000	66.095247 
1014.000000	65.975710 
1013.000000	65.853889 
1012.000000	65.728089 
1011.000000	65.611865 
1010.000000	65.508604 
1009.000000	65.406482 
1008.000000	65.303613 
1007.000000	65.214076 
1006.000000	65.144018 
1005.000000	65.085369 
1004.000000	65.037465 
1003.000000	65.010837 
1002.000000	65.005027 
1001.000000	65.006555 
1000.000000	65.013206 
999.000000	 65.036714 
998.000000	 65.077622 
997.000000	 65.121569 
996.000000	 65.164446 
995.000000	 65.217250 
994.000000	 65.282157 
993.000000	 65.348034 
992.000000	 65.413851 
991.000000	 65.492687 
990.000000	 65.588014 
989.000000	 65.688934 
988.000000	 65.792644 
987.000000	 65.909011 
986.000000	 66.039927 
985.000000	 66.177266 
984.000000	 66.323705 
983.000000	 66.491982 
982.000000	 66.681357 
981.000000	 66.878170 
980.000000	 67.081924 
979.000000	 67.307239 
978.000000	 67.557613 
977.000000	 67.821222 
976.000000	 68.094951 
975.000000	 68.388416 
974.000000	 68.701415 
973.000000	 69.021293 
972.000000	 69.345922 
971.000000	 69.686330 
970.000000	 70.043547 
969.000000	 70.405132 
968.000000	 70.767005 
967.000000	 71.136626 
966.000000	 71.512482 
965.000000	 71.882641 
964.000000	 72.245980 
963.000000	 72.613087 
962.000000	 72.983765 
961.000000	 73.344741 
960.000000	 73.691886 
959.000000	 74.033910 
958.000000	 74.372113 
957.000000	 74.697358 
956.000000	 75.009543 
955.000000	 75.319392 
954.000000	 75.627414 
953.000000	 75.920393 
952.000000	 76.192130 
951.000000	 76.449498 
950.000000	 76.695687 
949.000000	 76.925373 
948.000000	 77.138731 
947.000000	 77.342706 
946.000000	 77.536124 
945.000000	 77.710267 
944.000000	 77.865815 
943.000000	 78.012772 
942.000000	 78.152915 
941.000000	 78.279239 
940.000000	 78.393369 
939.000000	 78.506088 
938.000000	 78.620030 
937.000000	 78.729487 
936.000000	 78.837646 
935.000000	 78.955374 
934.000000	 79.081987 
933.000000	 79.205962 
932.000000	 79.325476 
931.000000	 79.449222 
930.000000	 79.576060 
929.000000	 79.693703 
928.000000	 79.799432 
927.000000	 79.902694 
926.000000	 80.005136 
925.000000	 80.097447 
924.000000	 80.178265 
923.000000	 80.256490 
922.000000	 80.331774 
921.000000	 80.392372 
920.000000	 80.436487 
919.000000	 80.477301 
918.000000	 80.522844 
917.000000	 80.568990 
916.000000	 80.615964 
915.000000	 80.673211 
914.000000	 80.744004 
913.000000	 80.824207 
912.000000	 80.921176 
911.000000	 81.055126 
910.000000	 81.235819 
909.000000	 81.454306 
908.000000	 81.701255 
907.000000	 81.975948 
906.000000	 82.273257 
905.000000	 82.580054 
904.000000	 82.890567 
903.000000	 83.210847 
902.000000	 83.544598 
901.000000	 83.887671 
900.000000	 84.236841 
899.000000	 84.590100 
898.000000	 84.938448 
897.000000	 85.272268 
896.000000	 85.593786 
895.000000	 85.909318 
894.000000	 86.213398 
893.000000	 86.497186 
892.000000	 86.768514 
891.000000	 87.044554 
890.000000	 87.325779 
889.000000	 87.595606 
888.000000	 87.845166 
887.000000	 88.080228 
886.000000	 88.304360 
885.000000	 88.514100 
884.000000	 88.711974 
883.000000	 88.906361 
882.000000	 89.097102 
881.000000	 89.279161 
880.000000	 89.461496 
879.000000	 89.662501 
878.000000	 89.883271 
877.000000	 90.104654 
876.000000	 90.314726 
875.000000	 90.520997 
874.000000	 90.733138 
873.000000	 90.952525 
872.000000	 91.181691 
871.000000	 91.425008 
870.000000	 91.676017 
869.000000	 91.921409 
868.000000	 92.160756 
867.000000	 92.406041 
866.000000	 92.659020 
865.000000	 92.905388 
864.000000	 93.135242 
863.000000	 93.354295 
862.000000	 93.570693 
861.000000	 93.784627 
860.000000	 93.995727 
859.000000	 94.207279 
858.000000	 94.416785 
857.000000	 94.613129 
856.000000	 94.789183 
855.000000	 94.949543 
854.000000	 95.102382 
853.000000	 95.250673 
852.000000	 95.393076 
851.000000	 95.525794 
850.000000	 95.642626 
849.000000	 95.741057 
848.000000	 95.828047 
847.000000	 95.911369 
846.000000	 95.986317 
845.000000	 96.041218 
844.000000	 96.075181 
843.000000	 96.098846 
842.000000	 96.117293 
841.000000	 96.124141 
840.000000	 96.114297 
839.000000	 96.091101 
838.000000	 96.058447 
837.000000	 96.016323 
836.000000	 95.967121 
835.000000	 95.917140 
834.000000	 95.869768 
833.000000	 95.826302 
832.000000	 95.794208 
831.000000	 95.783327 
830.000000	 95.791957 
829.000000	 95.808696 
828.000000	 95.830782 
827.000000	 95.868073 
826.000000	 95.926057 
825.000000	 95.998738 
824.000000	 96.080982 
823.000000	 96.171092 
822.000000	 96.257680 
821.000000	 96.322579 
820.000000	 96.361888 
819.000000	 96.389149 
818.000000	 96.414572 
817.000000	 96.433651 
816.000000	 96.437637 
815.000000	 96.421005 
814.000000	 96.373880 
813.000000	 96.279211 
812.000000	 96.123892 
811.000000	 95.903910 
810.000000	 95.614379 
809.000000	 95.244754 
808.000000	 94.789955 
807.000000	 94.257731 
806.000000	 93.660208 
805.000000	 93.009337 
804.000000	 92.328475 
803.000000	 91.656979 
802.000000	 91.033228 
801.000000	 90.481837 
800.000000	 90.023170 
799.000000	 89.679334 
798.000000	 89.459949 
797.000000	 89.354768 
796.000000	 89.347873 
795.000000	 89.425349 
794.000000	 89.563761 
793.000000	 89.728183 
792.000000	 89.890588 
791.000000	 90.038750 
790.000000	 90.163535 
789.000000	 90.251178 
788.000000	 90.292194 
787.000000	 90.284797 
786.000000	 90.225366 
785.000000	 90.108293 
784.000000	 89.939664 
783.000000	 89.739101 
782.000000	 89.524771 
781.000000	 89.309317 
780.000000	 89.113351 
779.000000	 88.966966 
778.000000	 88.891470 
777.000000	 88.892239 
776.000000	 88.971093 
775.000000	 89.127350 
774.000000	 89.341862 
773.000000	 89.578607 
772.000000	 89.810370 
771.000000	 90.030331 
770.000000	 90.236035 
769.000000	 90.418202 
768.000000	 90.570556 
767.000000	 90.696595 
766.000000	 90.801070 
765.000000	 90.886293 
764.000000	 90.960059 
763.000000	 91.034738 
762.000000	 91.114643 
761.000000	 91.195330 
760.000000	 91.276928 
759.000000	 91.365575 
758.000000	 91.460821 
757.000000	 91.555637 
756.000000	 91.650145 
755.000000	 91.751414 
754.000000	 91.859480 
753.000000	 91.968464 
752.000000	 92.080590 
751.000000	 92.201874 
750.000000	 92.323625 
749.000000	 92.427460 
748.000000	 92.512477 
747.000000	 92.599690 
746.000000	 92.704489 
745.000000	 92.821555 
744.000000	 92.942982 
743.000000	 93.074692 
742.000000	 93.227041 
741.000000	 93.402575 
740.000000	 93.598482 
739.000000	 93.807803 
738.000000	 94.013961 
737.000000	 94.197809 
736.000000	 94.355056 
735.000000	 94.495408 
734.000000	 94.623357 
733.000000	 94.733446 
732.000000	 94.825287 
731.000000	 94.907662 
730.000000	 94.984204 
729.000000	 95.049159 
728.000000	 95.099857 
727.000000	 95.140681 
726.000000	 95.174539 
725.000000	 95.203764 
724.000000	 95.240114 
723.000000	 95.298589 
722.000000	 95.379079 
721.000000	 95.468322 
720.000000	 95.561180 
719.000000	 95.663640 
718.000000	 95.772625 
717.000000	 95.871936 
716.000000	 95.953533 
715.000000	 96.026224 
714.000000	 96.097903 
713.000000	 96.164216 
712.000000	 96.220398 
711.000000	 96.270224 
710.000000	 96.316739 
709.000000	 96.355982 
708.000000	 96.384088 
707.000000	 96.398070 
706.000000	 96.388828 
705.000000	 96.346946 
704.000000	 96.276137 
703.000000	 96.185046 
702.000000	 96.062145 
701.000000	 95.876362 
700.000000	 95.609700 
699.000000	 95.274013 
698.000000	 94.896808 
697.000000	 94.512949 
696.000000	 94.174635 
695.000000	 93.943019 
694.000000	 93.850348 
693.000000	 93.882937 
692.000000	 94.007532 
691.000000	 94.196303 
690.000000	 94.422476 
689.000000	 94.653629 
688.000000	 94.865807 
687.000000	 95.054447 
686.000000	 95.219921 
685.000000	 95.357987 
684.000000	 95.474294 
683.000000	 95.587503 
682.000000	 95.706757 
681.000000	 95.821277 
680.000000	 95.921503 
679.000000	 96.014257 
678.000000	 96.107086 
677.000000	 96.197341 
676.000000	 96.284133 
675.000000	 96.374694 
674.000000	 96.471679 
673.000000	 96.564139 
672.000000	 96.638538 
671.000000	 96.693561 
670.000000	 96.743929 
669.000000	 96.818180 
668.000000	 96.949941 
667.000000	 97.118890 
666.000000	 97.246258 
665.000000	 97.317223 
664.000000	 97.376520 
663.000000	 97.459208 
662.000000	 97.558629 
661.000000	 97.644003 
660.000000	 97.705708 
659.000000	 97.756680 
658.000000	 97.797894 
657.000000	 97.816370 
656.000000	 97.812165 
655.000000	 97.799127 
654.000000	 97.779180 
653.000000	 97.738370 
652.000000	 97.675700 
651.000000	 97.619703 
650.000000	 97.603979 

