4000.000000	98.205557 
3999.000000	98.204279 
3998.000000	98.203629 
3997.000000	98.203498 
3996.000000	98.203801 
3995.000000	98.204461 
3994.000000	98.205304 
3993.000000	98.206053 
3992.000000	98.206417 
3991.000000	98.206301 
3990.000000	98.206055 
3989.000000	98.206275 
3988.000000	98.207047 
3987.000000	98.207598 
3986.000000	98.207083 
3985.000000	98.205481 
3984.000000	98.203613 
3983.000000	98.202382 
3982.000000	98.202037 
3981.000000	98.202196 
3980.000000	98.202314 
3979.000000	98.202167 
3978.000000	98.201943 
3977.000000	98.201938 
3976.000000	98.202145 
3975.000000	98.202173 
3974.000000	98.201661 
3973.000000	98.200761 
3972.000000	98.200016 
3971.000000	98.199735 
3970.000000	98.199814 
3969.000000	98.200160 
3968.000000	98.200858 
3967.000000	98.201877 
3966.000000	98.202926 
3965.000000	98.203621 
3964.000000	98.203804 
3963.000000	98.203664 
3962.000000	98.203582 
3961.000000	98.203905 
3960.000000	98.204689 
3959.000000	98.205462 
3958.000000	98.205590 
3957.000000	98.205004 
3956.000000	98.204239 
3955.000000	98.203810 
3954.000000	98.203797 
3953.000000	98.203951 
3952.000000	98.204034 
3951.000000	98.204034 
3950.000000	98.204323 
3949.000000	98.205315 
3948.000000	98.206717 
3947.000000	98.207669 
3946.000000	98.207619 
3945.000000	98.206659 
3944.000000	98.205129 
3943.000000	98.203393 
3942.000000	98.201880 
3941.000000	98.201003 
3940.000000	98.200903 
3939.000000	98.201279 
3938.000000	98.201652 
3937.000000	98.201937 
3936.000000	98.202463 
3935.000000	98.203357 
3934.000000	98.204346 
3933.000000	98.205098 
3932.000000	98.205485 
3931.000000	98.205391 
3930.000000	98.204685 
3929.000000	98.203503 
3928.000000	98.202372 
3927.000000	98.201898 
3926.000000	98.202104 
3925.000000	98.202467 
3924.000000	98.202786 
3923.000000	98.203237 
3922.000000	98.203786 
3921.000000	98.204157 
3920.000000	98.204344 
3919.000000	98.204667 
3918.000000	98.205053 
3917.000000	98.204952 
3916.000000	98.204147 
3915.000000	98.203086 
3914.000000	98.202339 
3913.000000	98.201988 
3912.000000	98.201863 
3911.000000	98.201804 
3910.000000	98.201684 
3909.000000	98.201450 
3908.000000	98.201171 
3907.000000	98.200934 
3906.000000	98.200759 
3905.000000	98.200563 
3904.000000	98.200290 
3903.000000	98.199948 
3902.000000	98.199575 
3901.000000	98.199199 
3900.000000	98.198826 
3899.000000	98.198436 
3898.000000	98.198016 
3897.000000	98.197567 
3896.000000	98.197083 
3895.000000	98.196562 
3894.000000	98.196008 
3893.000000	98.195428 
3892.000000	98.194829 
3891.000000	98.194214 
3890.000000	98.193585 
3889.000000	98.192955 
3888.000000	98.192334 
3887.000000	98.191727 
3886.000000	98.191121 
3885.000000	98.190494 
3884.000000	98.189859 
3883.000000	98.189248 
3882.000000	98.188660 
3881.000000	98.188084 
3880.000000	98.187536 
3879.000000	98.187012 
3878.000000	98.186483 
3877.000000	98.185927 
3876.000000	98.185300 
3875.000000	98.184536 
3874.000000	98.183640 
3873.000000	98.182810 
3872.000000	98.182265 
3871.000000	98.181925 
3870.000000	98.181388 
3869.000000	98.180496 
3868.000000	98.179624 
3867.000000	98.179074 
3866.000000	98.178525 
3865.000000	98.177649 
3864.000000	98.177002 
3863.000000	98.177136 
3862.000000	98.177590 
3861.000000	98.177646 
3860.000000	98.177256 
3859.000000	98.176524 
3858.000000	98.175392 
3857.000000	98.173868 
3856.000000	98.172591 
3855.000000	98.171795 
3854.000000	98.171133 
3853.000000	98.170518 
3852.000000	98.170366 
3851.000000	98.171038 
3850.000000	98.172138 
3849.000000	98.173033 
3848.000000	98.173804 
3847.000000	98.174778 
3846.000000	98.175674 
3845.000000	98.176136 
3844.000000	98.176184 
3843.000000	98.175906 
3842.000000	98.175523 
3841.000000	98.175421 
3840.000000	98.175696 
3839.000000	98.176144 
3838.000000	98.176515 
3837.000000	98.176671 
3836.000000	98.176711 
3835.000000	98.176796 
3834.000000	98.177026 
3833.000000	98.177385 
3832.000000	98.177788 
3831.000000	98.178180 
3830.000000	98.178541 
3829.000000	98.178870 
3828.000000	98.179178 
3827.000000	98.179474 
3826.000000	98.179763 
3825.000000	98.180038 
3824.000000	98.180298 
3823.000000	98.180543 
3822.000000	98.180769 
3821.000000	98.180975 
3820.000000	98.181173 
3819.000000	98.181380 
3818.000000	98.181601 
3817.000000	98.181824 
3816.000000	98.182037 
3815.000000	98.182239 
3814.000000	98.182440 
3813.000000	98.182639 
3812.000000	98.182830 
3811.000000	98.183010 
3810.000000	98.183181 
3809.000000	98.183341 
3808.000000	98.183482 
3807.000000	98.183591 
3806.000000	98.183670 
3805.000000	98.183730 
3804.000000	98.183785 
3803.000000	98.183841 
3802.000000	98.183898 
3801.000000	98.183966 
3800.000000	98.184061 
3799.000000	98.184188 
3798.000000	98.184338 
3797.000000	98.184499 
3796.000000	98.184661 
3795.000000	98.184820 
3794.000000	98.184972 
3793.000000	98.185114 
3792.000000	98.185252 
3791.000000	98.185387 
3790.000000	98.185522 
3789.000000	98.185653 
3788.000000	98.185789 
3787.000000	98.185941 
3786.000000	98.186112 
3785.000000	98.186300 
3784.000000	98.186506 
3783.000000	98.186734 
3782.000000	98.186987 
3781.000000	98.187263 
3780.000000	98.187561 
3779.000000	98.187879 
3778.000000	98.188214 
3777.000000	98.188555 
3776.000000	98.188899 
3775.000000	98.189247 
3774.000000	98.189603 
3773.000000	98.189971 
3772.000000	98.190349 
3771.000000	98.190731 
3770.000000	98.191115 
3769.000000	98.191501 
3768.000000	98.191886 
3767.000000	98.192266 
3766.000000	98.192639 
3765.000000	98.193007 
3764.000000	98.193374 
3763.000000	98.193735 
3762.000000	98.194094 
3761.000000	98.194429 
3760.000000	98.194735 
3759.000000	98.195138 
3758.000000	98.195687 
3757.000000	98.196119 
3756.000000	98.196241 
3755.000000	98.196177 
3754.000000	98.196083 
3753.000000	98.195839 
3752.000000	98.195754 
3751.000000	98.196869 
3750.000000	98.198455 
3749.000000	98.197998 
3748.000000	98.195292 
3747.000000	98.193465 
3746.000000	98.194700 
3745.000000	98.196293 
3744.000000	98.194623 
3743.000000	98.192279 
3742.000000	98.193443 
3741.000000	98.196444 
3740.000000	98.197417 
3739.000000	98.197402 
3738.000000	98.199621 
3737.000000	98.202167 
3736.000000	98.201882 
3735.000000	98.200530 
3734.000000	98.201530 
3733.000000	98.202336 
3732.000000	98.198484 
3731.000000	98.191849 
3730.000000	98.187616 
3729.000000	98.187487 
3728.000000	98.187970 
3727.000000	98.185133 
3726.000000	98.180245 
3725.000000	98.177532 
3724.000000	98.177106 
3723.000000	98.175359 
3722.000000	98.171199 
3721.000000	98.166346 
3720.000000	98.161657 
3719.000000	98.157990 
3718.000000	98.155268 
3717.000000	98.152528 
3716.000000	98.150847 
3715.000000	98.150959 
3714.000000	98.150859 
3713.000000	98.147672 
3712.000000	98.142402 
3711.000000	98.137754 
3710.000000	98.132858 
3709.000000	98.126224 
3708.000000	98.117976 
3707.000000	98.108768 
3706.000000	98.099520 
3705.000000	98.090739 
3704.000000	98.081842 
3703.000000	98.071975 
3702.000000	98.061295 
3701.000000	98.049724 
3700.000000	98.036604 
3699.000000	98.022773 
3698.000000	98.009577 
3697.000000	97.997172 
3696.000000	97.987011 
3695.000000	97.981200 
3694.000000	97.977857 
3693.000000	97.972167 
3692.000000	97.963045 
3691.000000	97.955022 
3690.000000	97.951974 
3689.000000	97.951079 
3688.000000	97.946572 
3687.000000	97.938961 
3686.000000	97.933671 
3685.000000	97.932466 
3684.000000	97.933094 
3683.000000	97.933793 
3682.000000	97.933850 
3681.000000	97.930472 
3680.000000	97.920396 
3679.000000	97.905675 
3678.000000	97.894083 
3677.000000	97.889559 
3676.000000	97.887987 
3675.000000	97.884826 
3674.000000	97.880366 
3673.000000	97.876923 
3672.000000	97.873944 
3671.000000	97.868517 
3670.000000	97.861382 
3669.000000	97.855967 
3668.000000	97.852666 
3667.000000	97.849719 
3666.000000	97.846865 
3665.000000	97.844850 
3664.000000	97.843617 
3663.000000	97.842196 
3662.000000	97.839365 
3661.000000	97.834719 
3660.000000	97.829522 
3659.000000	97.825625 
3658.000000	97.823801 
3657.000000	97.822816 
3656.000000	97.820957 
3655.000000	97.818896 
3654.000000	97.818539 
3653.000000	97.819759 
3652.000000	97.819790 
3651.000000	97.816587 
3650.000000	97.812358 
3649.000000	97.810098 
3648.000000	97.808652 
3647.000000	97.806253 
3646.000000	97.804165 
3645.000000	97.804126 
3644.000000	97.805886 
3643.000000	97.807970 
3642.000000	97.808787 
3641.000000	97.807952 
3640.000000	97.806120 
3639.000000	97.803853 
3638.000000	97.801963 
3637.000000	97.801669 
3636.000000	97.803348 
3635.000000	97.804830 
3634.000000	97.803629 
3633.000000	97.801250 
3632.000000	97.801636 
3631.000000	97.805439 
3630.000000	97.807665 
3629.000000	97.804409 
3628.000000	97.797971 
3627.000000	97.793803 
3626.000000	97.793836 
3625.000000	97.795301 
3624.000000	97.795148 
3623.000000	97.792860 
3622.000000	97.789454 
3621.000000	97.785216 
3620.000000	97.781534 
3619.000000	97.781527 
3618.000000	97.785616 
3617.000000	97.791311 
3616.000000	97.797821 
3615.000000	97.805466 
3614.000000	97.814051 
3613.000000	97.823287 
3612.000000	97.832715 
3611.000000	97.841087 
3610.000000	97.846463 
3609.000000	97.847693 
3608.000000	97.846282 
3607.000000	97.845034 
3606.000000	97.844475 
3605.000000	97.843109 
3604.000000	97.839939 
3603.000000	97.835752 
3602.000000	97.832812 
3601.000000	97.832613 
3600.000000	97.835820 
3599.000000	97.842345 
3598.000000	97.849746 
3597.000000	97.854641 
3596.000000	97.856423 
3595.000000	97.857141 
3594.000000	97.859147 
3593.000000	97.863135 
3592.000000	97.867338 
3591.000000	97.869845 
3590.000000	97.869679 
3589.000000	97.867070 
3588.000000	97.863633 
3587.000000	97.860909 
3586.000000	97.858356 
3585.000000	97.855465 
3584.000000	97.853153 
3583.000000	97.852730 
3582.000000	97.854350 
3581.000000	97.856763 
3580.000000	97.858455 
3579.000000	97.858990 
3578.000000	97.859018 
3577.000000	97.859363 
3576.000000	97.860375 
3575.000000	97.861608 
3574.000000	97.861971 
3573.000000	97.860936 
3572.000000	97.859071 
3571.000000	97.857672 
3570.000000	97.857637 
3569.000000	97.858262 
3568.000000	97.858146 
3567.000000	97.857174 
3566.000000	97.856185 
3565.000000	97.855787 
3564.000000	97.856065 
3563.000000	97.856507 
3562.000000	97.856370 
3561.000000	97.855359 
3560.000000	97.853748 
3559.000000	97.852207 
3558.000000	97.851220 
3557.000000	97.850719 
3556.000000	97.850401 
3555.000000	97.850236 
3554.000000	97.850326 
3553.000000	97.850528 
3552.000000	97.850494 
3551.000000	97.850095 
3550.000000	97.849573 
3549.000000	97.849197 
3548.000000	97.849007 
3547.000000	97.848913 
3546.000000	97.848796 
3545.000000	97.848577 
3544.000000	97.848273 
3543.000000	97.848014 
3542.000000	97.847939 
3541.000000	97.848060 
3540.000000	97.848211 
3539.000000	97.848197 
3538.000000	97.847975 
3537.000000	97.847700 
3536.000000	97.847603 
3535.000000	97.847753 
3534.000000	97.848023 
3533.000000	97.848258 
3532.000000	97.848389 
3531.000000	97.848347 
3530.000000	97.848010 
3529.000000	97.847467 
3528.000000	97.847161 
3527.000000	97.847581 
3526.000000	97.848658 
3525.000000	97.849625 
3524.000000	97.849653 
3523.000000	97.848624 
3522.000000	97.847152 
3521.000000	97.846054 
3520.000000	97.845818 
3519.000000	97.846427 
3518.000000	97.847429 
3517.000000	97.848218 
3516.000000	97.848478 
3515.000000	97.848349 
3514.000000	97.848416 
3513.000000	97.849337 
3512.000000	97.851242 
3511.000000	97.853645 
3510.000000	97.855956 
3509.000000	97.857710 
3508.000000	97.858423 
3507.000000	97.857884 
3506.000000	97.856612 
3505.000000	97.855851 
3504.000000	97.856594 
3503.000000	97.858498 
3502.000000	97.860145 
3501.000000	97.860642 
3500.000000	97.860430 
3499.000000	97.860393 
3498.000000	97.860931 
3497.000000	97.862022 
3496.000000	97.863577 
3495.000000	97.865088 
3494.000000	97.865453 
3493.000000	97.863862 
3492.000000	97.860620 
3491.000000	97.856895 
3490.000000	97.853855 
3489.000000	97.852082 
3488.000000	97.851543 
3487.000000	97.851739 
3486.000000	97.851881 
3485.000000	97.851370 
3484.000000	97.850268 
3483.000000	97.849136 
3482.000000	97.848390 
3481.000000	97.847893 
3480.000000	97.847262 
3479.000000	97.846463 
3478.000000	97.845915 
3477.000000	97.845963 
3476.000000	97.846390 
3475.000000	97.846520 
3474.000000	97.845848 
3473.000000	97.844531 
3472.000000	97.843215 
3471.000000	97.842386 
3470.000000	97.842089 
3469.000000	97.842147 
3468.000000	97.842268 
3467.000000	97.841971 
3466.000000	97.840798 
3465.000000	97.838776 
3464.000000	97.836565 
3463.000000	97.834955 
3462.000000	97.834160 
3461.000000	97.833787 
3460.000000	97.833343 
3459.000000	97.832691 
3458.000000	97.831969 
3457.000000	97.831292 
3456.000000	97.830656 
3455.000000	97.830032 
3454.000000	97.829438 
3453.000000	97.828862 
3452.000000	97.828226 
3451.000000	97.827440 
3450.000000	97.826461 
3449.000000	97.825333 
3448.000000	97.824173 
3447.000000	97.823102 
3446.000000	97.822148 
3445.000000	97.821262 
3444.000000	97.820430 
3443.000000	97.819750 
3442.000000	97.819320 
3441.000000	97.819099 
3440.000000	97.818906 
3439.000000	97.818541 
3438.000000	97.817905 
3437.000000	97.817031 
3436.000000	97.816038 
3435.000000	97.815063 
3434.000000	97.814216 
3433.000000	97.813559 
3432.000000	97.813111 
3431.000000	97.812829 
3430.000000	97.812558 
3429.000000	97.812083 
3428.000000	97.811281 
3427.000000	97.810244 
3426.000000	97.809240 
3425.000000	97.808481 
3424.000000	97.807976 
3423.000000	97.807605 
3422.000000	97.807291 
3421.000000	97.807047 
3420.000000	97.806840 
3419.000000	97.806517 
3418.000000	97.805973 
3417.000000	97.805296 
3416.000000	97.804689 
3415.000000	97.804275 
3414.000000	97.804038 
3413.000000	97.803917 
3412.000000	97.803871 
3411.000000	97.803841 
3410.000000	97.803740 
3409.000000	97.803535 
3408.000000	97.803227 
3407.000000	97.802727 
3406.000000	97.801858 
3405.000000	97.800654 
3404.000000	97.799565 
3403.000000	97.799103 
3402.000000	97.799335 
3401.000000	97.799828 
3400.000000	97.800095 
3399.000000	97.800029 
3398.000000	97.799845 
3397.000000	97.799771 
3396.000000	97.799884 
3395.000000	97.800165 
3394.000000	97.800581 
3393.000000	97.801035 
3392.000000	97.801296 
3391.000000	97.801092 
3390.000000	97.800365 
3389.000000	97.799394 
3388.000000	97.798565 
3387.000000	97.798048 
3386.000000	97.797821 
3385.000000	97.797979 
3384.000000	97.798788 
3383.000000	97.800280 
3382.000000	97.801979 
3381.000000	97.803240 
3380.000000	97.803847 
3379.000000	97.804084 
3378.000000	97.804306 
3377.000000	97.804538 
3376.000000	97.804496 
3375.000000	97.803957 
3374.000000	97.803101 
3373.000000	97.802519 
3372.000000	97.802745 
3371.000000	97.803778 
3370.000000	97.805147 
3369.000000	97.806464 
3368.000000	97.807708 
3367.000000	97.808844 
3366.000000	97.809478 
3365.000000	97.809258 
3364.000000	97.808516 
3363.000000	97.808174 
3362.000000	97.808810 
3361.000000	97.810150 
3360.000000	97.811545 
3359.000000	97.812694 
3358.000000	97.813743 
3357.000000	97.814804 
3356.000000	97.815726 
3355.000000	97.816349 
3354.000000	97.816735 
3353.000000	97.817064 
3352.000000	97.817432 
3351.000000	97.817851 
3350.000000	97.818474 
3349.000000	97.819686 
3348.000000	97.821802 
3347.000000	97.824598 
3346.000000	97.827263 
3345.000000	97.828974 
3344.000000	97.829558 
3343.000000	97.829502 
3342.000000	97.829385 
3341.000000	97.829423 
3340.000000	97.829495 
3339.000000	97.829403 
3338.000000	97.829089 
3337.000000	97.828751 
3336.000000	97.828770 
3335.000000	97.829433 
3334.000000	97.830665 
3333.000000	97.832058 
3332.000000	97.833160 
3331.000000	97.833690 
3330.000000	97.833599 
3329.000000	97.833153 
3328.000000	97.832957 
3327.000000	97.833614 
3326.000000	97.835151 
3325.000000	97.836852 
3324.000000	97.837869 
3323.000000	97.838065 
3322.000000	97.838165 
3321.000000	97.839084 
3320.000000	97.841151 
3319.000000	97.843912 
3318.000000	97.846484 
3317.000000	97.848178 
3316.000000	97.848933 
3315.000000	97.849316 
3314.000000	97.850120 
3313.000000	97.851748 
3312.000000	97.853883 
3311.000000	97.855770 
3310.000000	97.856899 
3309.000000	97.857407 
3308.000000	97.857803 
3307.000000	97.858348 
3306.000000	97.858798 
3305.000000	97.858818 
3304.000000	97.858494 
3303.000000	97.858373 
3302.000000	97.858992 
3301.000000	97.860393 
3300.000000	97.862084 
3299.000000	97.863433 
3298.000000	97.864204 
3297.000000	97.864680 
3296.000000	97.865315 
3295.000000	97.866296 
3294.000000	97.867475 
3293.000000	97.868625 
3292.000000	97.869614 
3291.000000	97.870376 
3290.000000	97.870919 
3289.000000	97.871382 
3288.000000	97.871955 
3287.000000	97.872646 
3286.000000	97.873253 
3285.000000	97.873637 
3284.000000	97.873947 
3283.000000	97.874486 
3282.000000	97.875399 
3281.000000	97.876583 
3280.000000	97.877809 
3279.000000	97.878904 
3278.000000	97.879832 
3277.000000	97.880654 
3276.000000	97.881391 
3275.000000	97.881905 
3274.000000	97.882022 
3273.000000	97.881809 
3272.000000	97.881607 
3271.000000	97.881738 
3270.000000	97.882243 
3269.000000	97.882981 
3268.000000	97.883882 
3267.000000	97.884937 
3266.000000	97.886028 
3265.000000	97.886930 
3264.000000	97.887530 
3263.000000	97.887918 
3262.000000	97.888252 
3261.000000	97.888577 
3260.000000	97.888824 
3259.000000	97.888964 
3258.000000	97.889127 
3257.000000	97.889534 
3256.000000	97.890309 
3255.000000	97.891338 
3254.000000	97.892317 
3253.000000	97.893026 
3252.000000	97.893520 
3251.000000	97.894008 
3250.000000	97.894603 
3249.000000	97.895247 
3248.000000	97.895864 
3247.000000	97.896482 
3246.000000	97.897157 
3245.000000	97.897865 
3244.000000	97.898515 
3243.000000	97.899053 
3242.000000	97.899505 
3241.000000	97.899938 
3240.000000	97.900398 
3239.000000	97.900906 
3238.000000	97.901509 
3237.000000	97.902293 
3236.000000	97.903316 
3235.000000	97.904506 
3234.000000	97.905619 
3233.000000	97.906370 
3232.000000	97.906648 
3231.000000	97.906600 
3230.000000	97.906562 
3229.000000	97.906802 
3228.000000	97.907362 
3227.000000	97.908092 
3226.000000	97.908808 
3225.000000	97.909470 
3224.000000	97.910193 
3223.000000	97.911079 
3222.000000	97.912067 
3221.000000	97.912973 
3220.000000	97.913671 
3219.000000	97.914194 
3218.000000	97.914674 
3217.000000	97.915202 
3216.000000	97.915782 
3215.000000	97.916387 
3214.000000	97.917013 
3213.000000	97.917671 
3212.000000	97.918386 
3211.000000	97.919204 
3210.000000	97.920151 
3209.000000	97.921129 
3208.000000	97.921891 
3207.000000	97.922216 
3206.000000	97.922154 
3205.000000	97.922089 
3204.000000	97.922458 
3203.000000	97.923394 
3202.000000	97.924716 
3201.000000	97.926187 
3200.000000	97.927661 
3199.000000	97.929000 
3198.000000	97.930019 
3197.000000	97.930636 
3196.000000	97.931013 
3195.000000	97.931468 
3194.000000	97.932237 
3193.000000	97.933347 
3192.000000	97.934684 
3191.000000	97.936100 
3190.000000	97.937498 
3189.000000	97.938858 
3188.000000	97.940189 
3187.000000	97.941422 
3186.000000	97.942398 
3185.000000	97.943071 
3184.000000	97.943680 
3183.000000	97.944584 
3182.000000	97.945878 
3181.000000	97.947258 
3180.000000	97.948339 
3179.000000	97.949057 
3178.000000	97.949686 
3177.000000	97.950559 
3176.000000	97.951794 
3175.000000	97.953273 
3174.000000	97.954734 
3173.000000	97.955893 
3172.000000	97.956638 
3171.000000	97.957128 
3170.000000	97.957666 
3169.000000	97.958408 
3168.000000	97.959268 
3167.000000	97.960121 
3166.000000	97.960986 
3165.000000	97.961991 
3164.000000	97.963207 
3163.000000	97.964566 
3162.000000	97.965901 
3161.000000	97.967026 
3160.000000	97.967892 
3159.000000	97.968716 
3158.000000	97.969853 
3157.000000	97.971407 
3156.000000	97.973003 
3155.000000	97.974101 
3154.000000	97.974576 
3153.000000	97.974851 
3152.000000	97.975390 
3151.000000	97.976129 
3150.000000	97.976542 
3149.000000	97.976294 
3148.000000	97.975736 
3147.000000	97.975634 
3146.000000	97.976378 
3145.000000	97.977675 
3144.000000	97.979089 
3143.000000	97.980708 
3142.000000	97.982964 
3141.000000	97.985837 
3140.000000	97.988576 
3139.000000	97.990350 
3138.000000	97.991049 
3137.000000	97.991219 
3136.000000	97.991467 
3135.000000	97.992029 
3134.000000	97.992882 
3133.000000	97.993899 
3132.000000	97.994771 
3131.000000	97.995110 
3130.000000	97.994878 
3129.000000	97.994631 
3128.000000	97.995076 
3127.000000	97.996415 
3126.000000	97.998273 
3125.000000	98.000118 
3124.000000	98.001682 
3123.000000	98.002943 
3122.000000	98.003874 
3121.000000	98.004415 
3120.000000	98.004660 
3119.000000	98.004917 
3118.000000	98.005534 
3117.000000	98.006641 
3116.000000	98.008079 
3115.000000	98.009535 
3114.000000	98.010790 
3113.000000	98.011847 
3112.000000	98.012833 
3111.000000	98.013853 
3110.000000	98.014918 
3109.000000	98.015935 
3108.000000	98.016756 
3107.000000	98.017263 
3106.000000	98.017516 
3105.000000	98.017756 
3104.000000	98.018170 
3103.000000	98.018707 
3102.000000	98.019175 
3101.000000	98.019566 
3100.000000	98.020164 
3099.000000	98.021209 
3098.000000	98.022499 
3097.000000	98.023495 
3096.000000	98.023934 
3095.000000	98.024238 
3094.000000	98.025126 
3093.000000	98.026824 
3092.000000	98.028723 
3091.000000	98.029810 
3090.000000	98.029480 
3089.000000	98.028066 
3088.000000	98.026746 
3087.000000	98.026725 
3086.000000	98.028384 
3085.000000	98.031074 
3084.000000	98.033616 
3083.000000	98.035083 
3082.000000	98.035298 
3081.000000	98.035017 
3080.000000	98.035502 
3079.000000	98.037401 
3078.000000	98.039907 
3077.000000	98.041362 
3076.000000	98.040871 
3075.000000	98.039140 
3074.000000	98.037677 
3073.000000	98.037191 
3072.000000	98.037058 
3071.000000	98.036371 
3070.000000	98.035295 
3069.000000	98.035021 
3068.000000	98.036065 
3067.000000	98.037155 
3066.000000	98.036721 
3065.000000	98.035409 
3064.000000	98.035771 
3063.000000	98.038732 
3062.000000	98.041601 
3061.000000	98.041071 
3060.000000	98.037529 
3059.000000	98.034788 
3058.000000	98.035373 
3057.000000	98.037550 
3056.000000	98.037796 
3055.000000	98.035002 
3054.000000	98.031246 
3053.000000	98.028917 
3052.000000	98.028247 
3051.000000	98.027688 
3050.000000	98.025904 
3049.000000	98.023012 
3048.000000	98.020117 
3047.000000	98.017970 
3046.000000	98.016237 
3045.000000	98.014054 
3044.000000	98.011141 
3043.000000	98.008098 
3042.000000	98.005339 
3041.000000	98.002036 
3040.000000	97.996521 
3039.000000	97.988194 
3038.000000	97.978713 
3037.000000	97.970661 
3036.000000	97.964855 
3035.000000	97.959551 
3034.000000	97.952764 
3033.000000	97.944510 
3032.000000	97.935819 
3031.000000	97.926328 
3030.000000	97.914351 
3029.000000	97.899576 
3028.000000	97.884346 
3027.000000	97.871361 
3026.000000	97.860809 
3025.000000	97.850698 
3024.000000	97.839225 
3023.000000	97.825777 
3022.000000	97.810227 
3021.000000	97.792845 
3020.000000	97.774844 
3019.000000	97.757676 
3018.000000	97.741315 
3017.000000	97.724276 
3016.000000	97.705704 
3015.000000	97.686531 
3014.000000	97.668060 
3013.000000	97.650084 
3012.000000	97.630970 
3011.000000	97.609256 
3010.000000	97.584961 
3009.000000	97.559692 
3008.000000	97.535613 
3007.000000	97.513903 
3006.000000	97.494076 
3005.000000	97.475084 
3004.000000	97.456673 
3003.000000	97.438836 
3002.000000	97.420276 
3001.000000	97.398982 
3000.000000	97.375003 
2999.000000	97.351448 
2998.000000	97.331859 
2997.000000	97.317448 
2996.000000	97.307137 
2995.000000	97.298481 
2994.000000	97.286985 
2993.000000	97.266346 
2992.000000	97.233125 
2991.000000	97.192251 
2990.000000	97.155683 
2989.000000	97.133626 
2988.000000	97.127635 
2987.000000	97.132186 
2986.000000	97.140885 
2985.000000	97.150055 
2984.000000	97.157881 
2983.000000	97.163264 
2982.000000	97.166245 
2981.000000	97.167810 
2980.000000	97.168283 
2979.000000	97.166784 
2978.000000	97.162836 
2977.000000	97.157469 
2976.000000	97.151883 
2975.000000	97.145865 
2974.000000	97.138880 
2973.000000	97.132556 
2972.000000	97.130744 
2971.000000	97.136442 
2970.000000	97.149041 
2969.000000	97.164887 
2968.000000	97.180351 
2967.000000	97.194326 
2966.000000	97.208101 
2965.000000	97.223233 
2964.000000	97.239569 
2963.000000	97.255118 
2962.000000	97.267748 
2961.000000	97.277075 
2960.000000	97.284785 
2959.000000	97.293311 
2958.000000	97.304269 
2957.000000	97.317849 
2956.000000	97.333074 
2955.000000	97.348287 
2954.000000	97.361815 
2953.000000	97.372907 
2952.000000	97.382288 
2951.000000	97.391517 
2950.000000	97.401420 
2949.000000	97.411173 
2948.000000	97.419092 
2947.000000	97.424256 
2946.000000	97.427363 
2945.000000	97.429967 
2944.000000	97.432778 
2943.000000	97.435029 
2942.000000	97.435598 
2941.000000	97.434312 
2940.000000	97.432148 
2939.000000	97.430380 
2938.000000	97.429467 
2937.000000	97.428842 
2936.000000	97.427793 
2935.000000	97.426438 
2934.000000	97.425687 
2933.000000	97.426139 
2932.000000	97.426932 
2931.000000	97.425752 
2930.000000	97.420349 
2929.000000	97.410502 
2928.000000	97.398785 
2927.000000	97.389002 
2926.000000	97.383266 
2925.000000	97.380289 
2924.000000	97.376846 
2923.000000	97.371146 
2922.000000	97.364559 
2921.000000	97.359781 
2920.000000	97.357680 
2919.000000	97.356631 
2918.000000	97.354793 
2917.000000	97.352143 
2916.000000	97.349847 
2915.000000	97.348402 
2914.000000	97.347342 
2913.000000	97.346627 
2912.000000	97.347312 
2911.000000	97.350306 
2910.000000	97.354945 
2909.000000	97.359384 
2908.000000	97.362411 
2907.000000	97.364061 
2906.000000	97.364130 
2905.000000	97.360664 
2904.000000	97.351438 
2903.000000	97.337955 
2902.000000	97.327404 
2901.000000	97.328140 
2900.000000	97.343354 
2899.000000	97.367787 
2898.000000	97.391550 
2897.000000	97.407643 
2896.000000	97.415893 
2895.000000	97.420492 
2894.000000	97.425376 
2893.000000	97.431774 
2892.000000	97.438885 
2891.000000	97.445544 
2890.000000	97.451173 
2889.000000	97.455786 
2888.000000	97.459683 
2887.000000	97.463326 
2886.000000	97.467456 
2885.000000	97.473075 
2884.000000	97.481038 
2883.000000	97.491527 
2882.000000	97.503951 
2881.000000	97.517373 
2880.000000	97.531073 
2879.000000	97.544882 
2878.000000	97.558952 
2877.000000	97.573015 
2876.000000	97.585928 
2875.000000	97.596524 
2874.000000	97.605139 
2873.000000	97.613677 
2872.000000	97.623513 
2871.000000	97.633615 
2870.000000	97.641605 
2869.000000	97.646718 
2868.000000	97.651109 
2867.000000	97.658088 
2866.000000	97.669512 
2865.000000	97.684889 
2864.000000	97.702215 
2863.000000	97.719367 
2862.000000	97.735191 
2861.000000	97.749763 
2860.000000	97.763668 
2859.000000	97.777082 
2858.000000	97.789633 
2857.000000	97.800864 
2856.000000	97.810164 
2855.000000	97.816554 
2854.000000	97.819890 
2853.000000	97.822218 
2852.000000	97.826605 
2851.000000	97.834334 
2850.000000	97.844114 
2849.000000	97.854094 
2848.000000	97.863825 
2847.000000	97.874081 
2846.000000	97.885876 
2845.000000	97.900027 
2844.000000	97.916486 
2843.000000	97.933369 
2842.000000	97.947703 
2841.000000	97.957989 
2840.000000	97.965270 
2839.000000	97.971205 
2838.000000	97.976194 
2837.000000	97.980290 
2836.000000	97.984621 
2835.000000	97.990282 
2834.000000	97.996676 
2833.000000	98.002547 
2832.000000	98.007976 
2831.000000	98.013648 
2830.000000	98.018653 
2829.000000	98.021150 
2828.000000	98.021331 
2827.000000	98.021793 
2826.000000	98.024427 
2825.000000	98.028470 
2824.000000	98.032427 
2823.000000	98.036405 
2822.000000	98.041452 
2821.000000	98.047572 
2820.000000	98.053534 
2819.000000	98.058156 
2818.000000	98.060977 
2817.000000	98.062175 
2816.000000	98.062564 
2815.000000	98.063276 
2814.000000	98.064797 
2813.000000	98.066533 
2812.000000	98.067733 
2811.000000	98.068499 
2810.000000	98.069465 
2809.000000	98.070860 
2808.000000	98.072471 
2807.000000	98.074228 
2806.000000	98.076232 
2805.000000	98.078265 
2804.000000	98.079755 
2803.000000	98.080306 
2802.000000	98.080058 
2801.000000	98.079569 
2800.000000	98.079560 
2799.000000	98.080675 
2798.000000	98.083127 
2797.000000	98.086381 
2796.000000	98.089337 
2795.000000	98.091133 
2794.000000	98.091957 
2793.000000	98.092954 
2792.000000	98.095007 
2791.000000	98.097592 
2790.000000	98.099222 
2789.000000	98.099125 
2788.000000	98.098059 
2787.000000	98.097345 
2786.000000	98.097511 
2785.000000	98.098253 
2784.000000	98.099283 
2783.000000	98.100574 
2782.000000	98.101924 
2781.000000	98.102952 
2780.000000	98.103670 
2779.000000	98.104611 
2778.000000	98.106155 
2777.000000	98.108026 
2776.000000	98.109586 
2775.000000	98.110500 
2774.000000	98.110955 
2773.000000	98.111401 
2772.000000	98.112162 
2771.000000	98.113215 
2770.000000	98.114290 
2769.000000	98.115162 
2768.000000	98.115832 
2767.000000	98.116452 
2766.000000	98.117127 
2765.000000	98.117816 
2764.000000	98.118449 
2763.000000	98.119078 
2762.000000	98.119878 
2761.000000	98.120977 
2760.000000	98.122325 
2759.000000	98.123678 
2758.000000	98.124792 
2757.000000	98.125652 
2756.000000	98.126465 
2755.000000	98.127429 
2754.000000	98.128501 
2753.000000	98.129496 
2752.000000	98.130374 
2751.000000	98.131294 
2750.000000	98.132357 
2749.000000	98.133430 
2748.000000	98.134316 
2747.000000	98.135003 
2746.000000	98.135640 
2745.000000	98.136326 
2744.000000	98.137070 
2743.000000	98.137922 
2742.000000	98.138929 
2741.000000	98.139963 
2740.000000	98.140767 
2739.000000	98.141253 
2738.000000	98.141645 
2737.000000	98.142251 
2736.000000	98.143134 
2735.000000	98.144101 
2734.000000	98.144952 
2733.000000	98.145683 
2732.000000	98.146417 
2731.000000	98.147260 
2730.000000	98.148253 
2729.000000	98.149385 
2728.000000	98.150584 
2727.000000	98.151744 
2726.000000	98.152795 
2725.000000	98.153746 
2724.000000	98.154664 
2723.000000	98.155630 
2722.000000	98.156673 
2721.000000	98.157646 
2720.000000	98.158236 
2719.000000	98.158249 
2718.000000	98.157933 
2717.000000	98.157877 
2716.000000	98.158458 
2715.000000	98.159409 
2714.000000	98.160027 
2713.000000	98.159871 
2712.000000	98.159232 
2711.000000	98.158855 
2710.000000	98.159186 
2709.000000	98.160049 
2708.000000	98.161054 
2707.000000	98.162138 
2706.000000	98.163417 
2705.000000	98.164585 
2704.000000	98.164984 
2703.000000	98.164539 
2702.000000	98.164256 
2701.000000	98.165294 
2700.000000	98.167654 
2699.000000	98.170186 
2698.000000	98.171864 
2697.000000	98.172667 
2696.000000	98.173181 
2695.000000	98.173806 
2694.000000	98.174473 
2693.000000	98.174761 
2692.000000	98.174079 
2691.000000	98.172192 
2690.000000	98.169854 
2689.000000	98.168440 
2688.000000	98.168468 
2687.000000	98.168948 
2686.000000	98.168733 
2685.000000	98.168230 
2684.000000	98.168968 
2683.000000	98.171501 
2682.000000	98.174479 
2681.000000	98.176037 
2680.000000	98.175500 
2679.000000	98.173498 
2678.000000	98.171083 
2677.000000	98.169140 
2676.000000	98.168183 
2675.000000	98.168078 
2674.000000	98.168029 
2673.000000	98.167321 
2672.000000	98.166174 
2671.000000	98.165587 
2670.000000	98.166235 
2669.000000	98.167663 
2668.000000	98.168640 
2667.000000	98.168253 
2666.000000	98.166619 
2665.000000	98.164542 
2664.000000	98.162435 
2663.000000	98.159710 
2662.000000	98.155456 
2661.000000	98.149716 
2660.000000	98.143879 
2659.000000	98.139660 
2658.000000	98.137823 
2657.000000	98.137919 
2656.000000	98.138898 
2655.000000	98.139727 
2654.000000	98.139663 
2653.000000	98.138467 
2652.000000	98.136614 
2651.000000	98.135045 
2650.000000	98.134319 
2649.000000	98.133950 
2648.000000	98.132855 
2647.000000	98.130707 
2646.000000	98.128698 
2645.000000	98.128502 
2644.000000	98.130474 
2643.000000	98.133127 
2642.000000	98.134449 
2641.000000	98.133673 
2640.000000	98.131574 
2639.000000	98.129502 
2638.000000	98.128469 
2637.000000	98.128824 
2636.000000	98.130277 
2635.000000	98.132128 
2634.000000	98.133749 
2633.000000	98.134935 
2632.000000	98.135729 
2631.000000	98.136099 
2630.000000	98.136026 
2629.000000	98.135701 
2628.000000	98.135301 
2627.000000	98.134730 
2626.000000	98.133951 
2625.000000	98.133445 
2624.000000	98.133925 
2623.000000	98.135564 
2622.000000	98.137762 
2621.000000	98.139667 
2620.000000	98.140809 
2619.000000	98.141270 
2618.000000	98.141451 
2617.000000	98.141676 
2616.000000	98.141924 
2615.000000	98.141997 
2614.000000	98.141920 
2613.000000	98.141964 
2612.000000	98.142252 
2611.000000	98.142616 
2610.000000	98.142960 
2609.000000	98.143463 
2608.000000	98.144250 
2607.000000	98.145111 
2606.000000	98.145802 
2605.000000	98.146413 
2604.000000	98.147187 
2603.000000	98.148140 
2602.000000	98.149078 
2601.000000	98.149831 
2600.000000	98.150401 
2599.000000	98.150877 
2598.000000	98.151352 
2597.000000	98.151882 
2596.000000	98.152476 
2595.000000	98.153117 
2594.000000	98.153778 
2593.000000	98.154433 
2592.000000	98.155059 
2591.000000	98.155629 
2590.000000	98.156151 
2589.000000	98.156695 
2588.000000	98.157331 
2587.000000	98.158063 
2586.000000	98.158814 
2585.000000	98.159505 
2584.000000	98.160103 
2583.000000	98.160611 
2582.000000	98.161048 
2581.000000	98.161475 
2580.000000	98.161978 
2579.000000	98.162579 
2578.000000	98.163240 
2577.000000	98.163971 
2576.000000	98.164841 
2575.000000	98.165803 
2574.000000	98.166660 
2573.000000	98.167282 
2572.000000	98.167728 
2571.000000	98.168075 
2570.000000	98.168294 
2569.000000	98.168457 
2568.000000	98.168818 
2567.000000	98.169501 
2566.000000	98.170263 
2565.000000	98.170750 
2564.000000	98.170947 
2563.000000	98.171160 
2562.000000	98.171608 
2561.000000	98.172266 
2560.000000	98.173045 
2559.000000	98.173860 
2558.000000	98.174573 
2557.000000	98.175086 
2556.000000	98.175488 
2555.000000	98.175822 
2554.000000	98.175896 
2553.000000	98.175649 
2552.000000	98.175469 
2551.000000	98.175734 
2550.000000	98.176213 
2549.000000	98.176329 
2548.000000	98.175917 
2547.000000	98.175332 
2546.000000	98.174928 
2545.000000	98.174752 
2544.000000	98.174800 
2543.000000	98.175181 
2542.000000	98.175926 
2541.000000	98.176862 
2540.000000	98.177742 
2539.000000	98.178334 
2538.000000	98.178384 
2537.000000	98.177799 
2536.000000	98.176912 
2535.000000	98.176277 
2534.000000	98.176157 
2533.000000	98.176415 
2532.000000	98.176796 
2531.000000	98.177023 
2530.000000	98.176736 
2529.000000	98.175758 
2528.000000	98.174464 
2527.000000	98.173576 
2526.000000	98.173413 
2525.000000	98.173647 
2524.000000	98.173840 
2523.000000	98.173919 
2522.000000	98.173970 
2521.000000	98.173962 
2520.000000	98.173916 
2519.000000	98.173934 
2518.000000	98.173896 
2517.000000	98.173524 
2516.000000	98.172971 
2515.000000	98.172973 
2514.000000	98.174135 
2513.000000	98.176283 
2512.000000	98.178531 
2511.000000	98.179902 
2510.000000	98.179853 
2509.000000	98.178511 
2508.000000	98.176648 
2507.000000	98.175100 
2506.000000	98.174092 
2505.000000	98.173417 
2504.000000	98.173113 
2503.000000	98.173438 
2502.000000	98.174128 
2501.000000	98.174374 
2500.000000	98.173900 
2499.000000	98.173535 
2498.000000	98.174282 
2497.000000	98.176182 
2496.000000	98.178319 
2495.000000	98.179683 
2494.000000	98.179919 
2493.000000	98.179531 
2492.000000	98.179580 
2491.000000	98.180841 
2490.000000	98.183043 
2489.000000	98.185133 
2488.000000	98.186431 
2487.000000	98.187231 
2486.000000	98.188136 
2485.000000	98.189114 
2484.000000	98.189470 
2483.000000	98.188589 
2482.000000	98.186546 
2481.000000	98.184231 
2480.000000	98.182917 
2479.000000	98.183357 
2478.000000	98.185219 
2477.000000	98.187399 
2476.000000	98.188940 
2475.000000	98.189501 
2474.000000	98.189108 
2473.000000	98.187998 
2472.000000	98.186711 
2471.000000	98.185848 
2470.000000	98.185531 
2469.000000	98.185472 
2468.000000	98.185573 
2467.000000	98.185973 
2466.000000	98.186439 
2465.000000	98.186290 
2464.000000	98.185215 
2463.000000	98.183793 
2462.000000	98.182926 
2461.000000	98.182941 
2460.000000	98.183419 
2459.000000	98.183646 
2458.000000	98.183169 
2457.000000	98.182174 
2456.000000	98.181381 
2455.000000	98.181284 
2454.000000	98.181410 
2453.000000	98.180731 
2452.000000	98.179021 
2451.000000	98.177404 
2450.000000	98.177134 
2449.000000	98.178318 
2448.000000	98.180032 
2447.000000	98.181343 
2446.000000	98.182024 
2445.000000	98.182375 
2444.000000	98.182803 
2443.000000	98.183486 
2442.000000	98.184196 
2441.000000	98.184542 
2440.000000	98.184535 
2439.000000	98.184697 
2438.000000	98.185372 
2437.000000	98.186175 
2436.000000	98.186396 
2435.000000	98.185827 
2434.000000	98.184893 
2433.000000	98.184217 
2432.000000	98.184284 
2431.000000	98.185275 
2430.000000	98.186875 
2429.000000	98.188324 
2428.000000	98.189011 
2427.000000	98.189067 
2426.000000	98.189179 
2425.000000	98.189833 
2424.000000	98.190894 
2423.000000	98.191915 
2422.000000	98.192746 
2421.000000	98.193740 
2420.000000	98.195315 
2419.000000	98.197330 
2418.000000	98.199033 
2417.000000	98.199828 
2416.000000	98.199886 
2415.000000	98.199820 
2414.000000	98.199940 
2413.000000	98.200175 
2412.000000	98.200636 
2411.000000	98.201687 
2410.000000	98.203379 
2409.000000	98.205253 
2408.000000	98.206813 
2407.000000	98.207837 
2406.000000	98.208159 
2405.000000	98.207539 
2404.000000	98.206091 
2403.000000	98.204565 
2402.000000	98.203766 
2401.000000	98.203889 
2400.000000	98.204637 
2399.000000	98.205710 
2398.000000	98.206877 
2397.000000	98.207811 
2396.000000	98.208239 
2395.000000	98.208217 
2394.000000	98.208041 
2393.000000	98.207995 
2392.000000	98.208289 
2391.000000	98.209003 
2390.000000	98.209863 
2389.000000	98.210288 
2388.000000	98.210007 
2387.000000	98.209606 
2386.000000	98.210095 
2385.000000	98.211823 
2384.000000	98.213933 
2383.000000	98.215034 
2382.000000	98.214472 
2381.000000	98.212756 
2380.000000	98.211050 
2379.000000	98.210179 
2378.000000	98.210054 
2377.000000	98.209985 
2376.000000	98.209421 
2375.000000	98.208412 
2374.000000	98.207528 
2373.000000	98.207277 
2372.000000	98.207600 
2371.000000	98.207878 
2370.000000	98.207571 
2369.000000	98.206793 
2368.000000	98.206063 
2367.000000	98.205533 
2366.000000	98.204745 
2365.000000	98.203229 
2364.000000	98.201057 
2363.000000	98.198515 
2362.000000	98.195694 
2361.000000	98.192817 
2360.000000	98.190361 
2359.000000	98.188794 
2358.000000	98.188120 
2357.000000	98.187825 
2356.000000	98.187651 
2355.000000	98.187376 
2354.000000	98.186438 
2353.000000	98.184447 
2352.000000	98.182013 
2351.000000	98.180222 
2350.000000	98.178882 
2349.000000	98.177002 
2348.000000	98.174226 
2347.000000	98.171105 
2346.000000	98.168581 
2345.000000	98.167029 
2344.000000	98.166555 
2343.000000	98.166560 
2342.000000	98.165970 
2341.000000	98.164086 
2340.000000	98.160930 
2339.000000	98.157508 
2338.000000	98.154766 
2337.000000	98.152985 
2336.000000	98.151643 
2335.000000	98.150199 
2334.000000	98.148404 
2333.000000	98.146808 
2332.000000	98.146197 
2331.000000	98.147015 
2330.000000	98.147907 
2329.000000	98.146938 
2328.000000	98.142896 
2327.000000	98.135885 
2326.000000	98.127356 
2325.000000	98.119440 
2324.000000	98.114523 
2323.000000	98.113393 
2322.000000	98.114707 
2321.000000	98.116321 
2320.000000	98.117396 
2319.000000	98.118662 
2318.000000	98.119992 
2317.000000	98.120487 
2316.000000	98.119182 
2315.000000	98.116493 
2314.000000	98.113123 
2313.000000	98.110060 
2312.000000	98.108081 
2311.000000	98.107749 
2310.000000	98.108350 
2309.000000	98.108772 
2308.000000	98.108774 
2307.000000	98.109317 
2306.000000	98.110843 
2305.000000	98.112616 
2304.000000	98.113581 
2303.000000	98.113580 
2302.000000	98.112739 
2301.000000	98.111181 
2300.000000	98.109056 
2299.000000	98.106987 
2298.000000	98.105347 
2297.000000	98.104104 
2296.000000	98.102899 
2295.000000	98.101106 
2294.000000	98.097833 
2293.000000	98.092927 
2292.000000	98.087989 
2291.000000	98.084757 
2290.000000	98.082556 
2289.000000	98.078593 
2288.000000	98.071767 
2287.000000	98.064581 
2286.000000	98.060738 
2285.000000	98.061639 
2284.000000	98.066091 
2283.000000	98.072109 
2282.000000	98.078178 
2281.000000	98.083576 
2280.000000	98.088451 
2279.000000	98.092933 
2278.000000	98.096003 
2277.000000	98.096652 
2276.000000	98.095917 
2275.000000	98.096060 
2274.000000	98.097288 
2273.000000	98.097429 
2272.000000	98.095445 
2271.000000	98.093448 
2270.000000	98.094327 
2269.000000	98.098765 
2268.000000	98.105175 
2267.000000	98.111121 
2266.000000	98.114321 
2265.000000	98.113835 
2264.000000	98.111013 
2263.000000	98.108072 
2262.000000	98.105318 
2261.000000	98.101120 
2260.000000	98.095061 
2259.000000	98.089414 
2258.000000	98.086746 
2257.000000	98.087205 
2256.000000	98.088996 
2255.000000	98.090565 
2254.000000	98.091596 
2253.000000	98.092529 
2252.000000	98.093773 
2251.000000	98.095181 
2250.000000	98.095994 
2249.000000	98.095577 
2248.000000	98.094235 
2247.000000	98.092723 
2246.000000	98.091389 
2245.000000	98.090240 
2244.000000	98.089489 
2243.000000	98.089202 
2242.000000	98.088666 
2241.000000	98.087097 
2240.000000	98.085036 
2239.000000	98.083988 
2238.000000	98.084178 
2237.000000	98.083723 
2236.000000	98.081011 
2235.000000	98.077061 
2234.000000	98.074568 
2233.000000	98.074972 
2232.000000	98.077490 
2231.000000	98.080342 
2230.000000	98.082026 
2229.000000	98.081686 
2228.000000	98.079192 
2227.000000	98.075017 
2226.000000	98.069725 
2225.000000	98.063844 
2224.000000	98.058651 
2223.000000	98.056026 
2222.000000	98.056561 
2221.000000	98.058583 
2220.000000	98.059663 
2219.000000	98.059077 
2218.000000	98.058098 
2217.000000	98.058166 
2216.000000	98.059499 
2215.000000	98.061261 
2214.000000	98.062359 
2213.000000	98.062106 
2212.000000	98.060445 
2211.000000	98.057842 
2210.000000	98.055070 
2209.000000	98.053062 
2208.000000	98.052637 
2207.000000	98.053931 
2206.000000	98.056143 
2205.000000	98.058253 
2204.000000	98.059797 
2203.000000	98.060467 
2202.000000	98.059598 
2201.000000	98.056975 
2200.000000	98.053447 
2199.000000	98.049812 
2198.000000	98.045365 
2197.000000	98.039142 
2196.000000	98.032534 
2195.000000	98.028696 
2194.000000	98.028856 
2193.000000	98.030498 
2192.000000	98.029545 
2191.000000	98.023506 
2190.000000	98.012917 
2189.000000	98.001130 
2188.000000	97.992352 
2187.000000	97.988638 
2186.000000	97.989252 
2185.000000	97.993458 
2184.000000	98.001954 
2183.000000	98.013448 
2182.000000	98.021916 
2181.000000	98.021314 
2180.000000	98.012340 
2179.000000	98.001075 
2178.000000	97.991812 
2177.000000	97.985397 
2176.000000	97.983583 
2175.000000	97.989097 
2174.000000	97.999865 
2173.000000	98.008147 
2172.000000	98.008471 
2171.000000	98.002987 
2170.000000	97.996690 
2169.000000	97.990823 
2168.000000	97.983744 
2167.000000	97.975439 
2166.000000	97.967432 
2165.000000	97.959434 
2164.000000	97.949511 
2163.000000	97.938207 
2162.000000	97.931394 
2161.000000	97.938680 
2160.000000	97.967705 
2159.000000	98.016630 
2158.000000	98.070389 
2157.000000	98.109673 
2156.000000	98.126250 
2155.000000	98.125107 
2154.000000	98.115490 
2153.000000	98.104050 
2152.000000	98.095021 
2151.000000	98.091549 
2150.000000	98.093983 
2149.000000	98.099404 
2148.000000	98.105278 
2147.000000	98.112036 
2146.000000	98.120728 
2145.000000	98.130484 
2144.000000	98.140053 
2143.000000	98.149433 
2142.000000	98.157686 
2141.000000	98.161265 
2140.000000	98.157503 
2139.000000	98.149114 
2138.000000	98.143054 
2137.000000	98.144559 
2136.000000	98.153092 
2135.000000	98.163872 
2134.000000	98.172425 
2133.000000	98.177643 
2132.000000	98.180941 
2131.000000	98.182763 
2130.000000	98.180773 
2129.000000	98.172454 
2128.000000	98.159064 
2127.000000	98.145692 
2126.000000	98.137177 
2125.000000	98.134479 
2124.000000	98.134809 
2123.000000	98.134585 
2122.000000	98.132384 
2121.000000	98.129604 
2120.000000	98.128085 
2119.000000	98.126970 
2118.000000	98.122915 
2117.000000	98.114258 
2116.000000	98.103784 
2115.000000	98.095813 
2114.000000	98.092326 
2113.000000	98.093244 
2112.000000	98.098586 
2111.000000	98.107434 
2110.000000	98.115287 
2109.000000	98.116670 
2108.000000	98.111287 
2107.000000	98.104466 
2106.000000	98.100843 
2105.000000	98.100146 
2104.000000	98.099744 
2103.000000	98.098447 
2102.000000	98.096444 
2101.000000	98.093763 
2100.000000	98.090635 
2099.000000	98.088424 
2098.000000	98.088898 
2097.000000	98.092799 
2096.000000	98.099134 
2095.000000	98.105156 
2094.000000	98.107677 
2093.000000	98.105522 
2092.000000	98.100388 
2091.000000	98.094995 
2090.000000	98.090667 
2089.000000	98.087112 
2088.000000	98.083788 
2087.000000	98.080478 
2086.000000	98.077014 
2085.000000	98.073529 
2084.000000	98.070984 
2083.000000	98.070431 
2082.000000	98.071565 
2081.000000	98.072780 
2080.000000	98.072887 
2079.000000	98.071970 
2078.000000	98.070486 
2077.000000	98.068621 
2076.000000	98.066709 
2075.000000	98.065144 
2074.000000	98.063487 
2073.000000	98.060692 
2072.000000	98.056712 
2071.000000	98.053071 
2070.000000	98.051334 
2069.000000	98.051571 
2068.000000	98.052547 
2067.000000	98.052795 
2066.000000	98.051323 
2065.000000	98.048249 
2064.000000	98.045110 
2063.000000	98.043606 
2062.000000	98.043603 
2061.000000	98.043119 
2060.000000	98.040614 
2059.000000	98.036610 
2058.000000	98.032932 
2057.000000	98.031143 
2056.000000	98.031682 
2055.000000	98.033288 
2054.000000	98.032966 
2053.000000	98.027995 
2052.000000	98.018440 
2051.000000	98.007403 
2050.000000	97.998527 
2049.000000	97.993579 
2048.000000	97.992820 
2047.000000	97.995917 
2046.000000	98.001435 
2045.000000	98.006603 
2044.000000	98.009002 
2043.000000	98.008051 
2042.000000	98.004520 
2041.000000	97.999857 
2040.000000	97.996198 
2039.000000	97.995514 
2038.000000	97.998047 
2037.000000	98.002253 
2036.000000	98.006394 
2035.000000	98.009481 
2034.000000	98.010839 
2033.000000	98.010399 
2032.000000	98.009436 
2031.000000	98.009165 
2030.000000	98.008615 
2029.000000	98.005966 
2028.000000	98.001963 
2027.000000	97.999687 
2026.000000	98.000457 
2025.000000	98.002127 
2024.000000	98.002146 
2023.000000	98.000628 
2022.000000	97.999269 
2021.000000	97.998782 
2020.000000	97.998594 
2019.000000	97.998009 
2018.000000	97.996422 
2017.000000	97.993434 
2016.000000	97.990133 
2015.000000	97.989198 
2014.000000	97.992249 
2013.000000	97.997494 
2012.000000	98.000847 
2011.000000	97.999330 
2010.000000	97.993232 
2009.000000	97.986239 
2008.000000	97.982739 
2007.000000	97.983436 
2006.000000	97.984254 
2005.000000	97.981262 
2004.000000	97.975789 
2003.000000	97.971909 
2002.000000	97.970125 
2001.000000	97.967660 
2000.000000	97.964474 
1999.000000	97.963752 
1998.000000	97.965616 
1997.000000	97.965771 
1996.000000	97.962166 
1995.000000	97.958146 
1994.000000	97.956546 
1993.000000	97.954964 
1992.000000	97.950273 
1991.000000	97.944493 
1990.000000	97.941856 
1989.000000	97.942679 
1988.000000	97.943516 
1987.000000	97.941585 
1986.000000	97.936940 
1985.000000	97.931613 
1984.000000	97.927837 
1983.000000	97.925439 
1982.000000	97.920769 
1981.000000	97.911444 
1980.000000	97.902383 
1979.000000	97.902403 
1978.000000	97.913991 
1977.000000	97.930695 
1976.000000	97.945825 
1975.000000	97.959383 
1974.000000	97.972620 
1973.000000	97.982303 
1972.000000	97.984807 
1971.000000	97.981539 
1970.000000	97.976625 
1969.000000	97.971978 
1968.000000	97.967763 
1967.000000	97.965291 
1966.000000	97.966030 
1965.000000	97.969280 
1964.000000	97.973432 
1963.000000	97.978400 
1962.000000	97.985091 
1961.000000	97.993323 
1960.000000	98.001281 
1959.000000	98.006333 
1958.000000	98.006489 
1957.000000	98.002589 
1956.000000	97.999136 
1955.000000	98.000605 
1954.000000	98.006467 
1953.000000	98.011640 
1952.000000	98.012467 
1951.000000	98.010432 
1950.000000	98.009435 
1949.000000	98.011285 
1948.000000	98.015145 
1947.000000	98.019554 
1946.000000	98.023463 
1945.000000	98.026404 
1944.000000	98.028707 
1943.000000	98.031004 
1942.000000	98.033068 
1941.000000	98.034103 
1940.000000	98.034246 
1939.000000	98.034530 
1938.000000	98.035554 
1937.000000	98.037031 
1936.000000	98.038521 
1935.000000	98.039891 
1934.000000	98.041140 
1933.000000	98.042172 
1932.000000	98.042912 
1931.000000	98.043487 
1930.000000	98.044072 
1929.000000	98.044667 
1928.000000	98.045266 
1927.000000	98.046002 
1926.000000	98.046909 
1925.000000	98.047715 
1924.000000	98.048226 
1923.000000	98.048798 
1922.000000	98.049906 
1921.000000	98.051410 
1920.000000	98.052664 
1919.000000	98.053169 
1918.000000	98.052845 
1917.000000	98.052010 
1916.000000	98.051408 
1915.000000	98.051707 
1914.000000	98.052654 
1913.000000	98.053211 
1912.000000	98.052928 
1911.000000	98.052621 
1910.000000	98.052724 
1909.000000	98.052273 
1908.000000	98.050587 
1907.000000	98.048427 
1906.000000	98.046902 
1905.000000	98.046144 
1904.000000	98.045810 
1903.000000	98.045933 
1902.000000	98.046219 
1901.000000	98.045870 
1900.000000	98.044870 
1899.000000	98.044398 
1898.000000	98.045281 
1897.000000	98.046701 
1896.000000	98.047145 
1895.000000	98.046189 
1894.000000	98.044374 
1893.000000	98.042271 
1892.000000	98.040504 
1891.000000	98.039874 
1890.000000	98.040661 
1889.000000	98.042206 
1888.000000	98.043885 
1887.000000	98.045564 
1886.000000	98.046580 
1885.000000	98.045776 
1884.000000	98.043331 
1883.000000	98.041373 
1882.000000	98.041450 
1881.000000	98.042848 
1880.000000	98.044171 
1879.000000	98.045200 
1878.000000	98.046171 
1877.000000	98.046753 
1876.000000	98.047100 
1875.000000	98.048554 
1874.000000	98.051559 
1873.000000	98.054229 
1872.000000	98.054924 
1871.000000	98.054638 
1870.000000	98.054810 
1869.000000	98.054623 
1868.000000	98.053614 
1867.000000	98.054048 
1866.000000	98.057088 
1865.000000	98.060970 
1864.000000	98.064346 
1863.000000	98.068497 
1862.000000	98.074115 
1861.000000	98.078364 
1860.000000	98.078578 
1859.000000	98.076695 
1858.000000	98.076340 
1857.000000	98.077650 
1856.000000	98.078843 
1855.000000	98.080506 
1854.000000	98.084443 
1853.000000	98.090018 
1852.000000	98.095076 
1851.000000	98.099164 
1850.000000	98.103166 
1849.000000	98.107479 
1848.000000	98.111911 
1847.000000	98.116841 
1846.000000	98.122439 
1845.000000	98.127595 
1844.000000	98.131497 
1843.000000	98.134628 
1842.000000	98.136414 
1841.000000	98.135616 
1840.000000	98.132527 
1839.000000	98.129367 
1838.000000	98.128429 
1837.000000	98.129656 
1836.000000	98.131688 
1835.000000	98.134116 
1834.000000	98.136664 
1833.000000	98.138071 
1832.000000	98.136845 
1831.000000	98.133046 
1830.000000	98.129030 
1829.000000	98.127080 
1828.000000	98.126856 
1827.000000	98.127500 
1826.000000	98.129105 
1825.000000	98.131353 
1824.000000	98.133503 
1823.000000	98.135963 
1822.000000	98.139474 
1821.000000	98.143364 
1820.000000	98.146533 
1819.000000	98.149658 
1818.000000	98.153516 
1817.000000	98.155768 
1816.000000	98.153847 
1815.000000	98.149295 
1814.000000	98.145530 
1813.000000	98.143247 
1812.000000	98.141095 
1811.000000	98.139740 
1810.000000	98.140708 
1809.000000	98.142294 
1808.000000	98.142079 
1807.000000	98.140677 
1806.000000	98.139701 
1805.000000	98.138964 
1804.000000	98.137881 
1803.000000	98.137397 
1802.000000	98.138408 
1801.000000	98.139772 
1800.000000	98.140009 
1799.000000	98.139698 
1798.000000	98.139909 
1797.000000	98.140375 
1796.000000	98.140937 
1795.000000	98.142507 
1794.000000	98.145549 
1793.000000	98.148644 
1792.000000	98.149989 
1791.000000	98.150100 
1790.000000	98.150295 
1789.000000	98.150475 
1788.000000	98.150273 
1787.000000	98.150372 
1786.000000	98.151620 
1785.000000	98.153457 
1784.000000	98.154569 
1783.000000	98.154740 
1782.000000	98.154823 
1781.000000	98.155601 
1780.000000	98.157201 
1779.000000	98.159275 
1778.000000	98.161357 
1777.000000	98.162929 
1776.000000	98.163690 
1775.000000	98.163760 
1774.000000	98.163716 
1773.000000	98.164353 
1772.000000	98.165800 
1771.000000	98.167625 
1770.000000	98.170000 
1769.000000	98.173167 
1768.000000	98.176262 
1767.000000	98.178092 
1766.000000	98.178623 
1765.000000	98.178671 
1764.000000	98.178642 
1763.000000	98.178487 
1762.000000	98.178796 
1761.000000	98.180399 
1760.000000	98.182993 
1759.000000	98.185802 
1758.000000	98.188637 
1757.000000	98.191583 
1756.000000	98.194113 
1755.000000	98.195491 
1754.000000	98.196393 
1753.000000	98.198326 
1752.000000	98.201165 
1751.000000	98.202582 
1750.000000	98.201506 
1749.000000	98.199569 
1748.000000	98.198160 
1747.000000	98.197009 
1746.000000	98.196163 
1745.000000	98.196634 
1744.000000	98.198230 
1743.000000	98.199283 
1742.000000	98.199252 
1741.000000	98.199326 
1740.000000	98.200299 
1739.000000	98.201511 
1738.000000	98.202085 
1737.000000	98.201953 
1736.000000	98.201746 
1735.000000	98.202274 
1734.000000	98.203624 
1733.000000	98.204707 
1732.000000	98.204976 
1731.000000	98.204969 
1730.000000	98.205313 
1729.000000	98.206030 
1728.000000	98.206595 
1727.000000	98.206579 
1726.000000	98.206141 
1725.000000	98.205744 
1724.000000	98.205516 
1723.000000	98.205313 
1722.000000	98.205075 
1721.000000	98.204740 
1720.000000	98.204281 
1719.000000	98.203889 
1718.000000	98.203810 
1717.000000	98.203418 
1716.000000	98.202288 
1715.000000	98.201210 
1714.000000	98.200671 
1713.000000	98.200269 
1712.000000	98.199664 
1711.000000	98.198983 
1710.000000	98.198416 
1709.000000	98.197790 
1708.000000	98.196856 
1707.000000	98.195771 
1706.000000	98.194852 
1705.000000	98.193925 
1704.000000	98.192684 
1703.000000	98.191429 
1702.000000	98.190678 
1701.000000	98.190408 
1700.000000	98.189699 
1699.000000	98.188468 
1698.000000	98.187475 
1697.000000	98.186656 
1696.000000	98.185645 
1695.000000	98.184518 
1694.000000	98.183299 
1693.000000	98.181752 
1692.000000	98.180098 
1691.000000	98.178896 
1690.000000	98.178330 
1689.000000	98.177837 
1688.000000	98.176740 
1687.000000	98.174947 
1686.000000	98.172737 
1685.000000	98.170434 
1684.000000	98.168707 
1683.000000	98.167994 
1682.000000	98.167359 
1681.000000	98.166839 
1680.000000	98.166848 
1679.000000	98.166949 
1678.000000	98.166475 
1677.000000	98.165810 
1676.000000	98.166037 
1675.000000	98.166954 
1674.000000	98.167164 
1673.000000	98.166366 
1672.000000	98.165187 
1671.000000	98.163965 
1670.000000	98.162478 
1669.000000	98.161180 
1668.000000	98.161045 
1667.000000	98.161666 
1666.000000	98.162018 
1665.000000	98.161640 
1664.000000	98.160867 
1663.000000	98.160371 
1662.000000	98.160051 
1661.000000	98.159659 
1660.000000	98.159837 
1659.000000	98.160559 
1658.000000	98.160744 
1657.000000	98.159890 
1656.000000	98.158743 
1655.000000	98.157638 
1654.000000	98.156139 
1653.000000	98.154677 
1652.000000	98.153805 
1651.000000	98.152874 
1650.000000	98.152118 
1649.000000	98.151771 
1648.000000	98.151793 
1647.000000	98.151771 
1646.000000	98.151388 
1645.000000	98.150529 
1644.000000	98.149520 
1643.000000	98.148743 
1642.000000	98.148072 
1641.000000	98.147217 
1640.000000	98.146253 
1639.000000	98.145335 
1638.000000	98.144406 
1637.000000	98.143319 
1636.000000	98.142181 
1635.000000	98.140827 
1634.000000	98.139031 
1633.000000	98.137369 
1632.000000	98.136567 
1631.000000	98.136644 
1630.000000	98.136662 
1629.000000	98.135714 
1628.000000	98.134064 
1627.000000	98.132402 
1626.000000	98.130584 
1625.000000	98.128507 
1624.000000	98.127165 
1623.000000	98.127257 
1622.000000	98.127540 
1621.000000	98.126894 
1620.000000	98.126018 
1619.000000	98.125684 
1618.000000	98.125448 
1617.000000	98.124751 
1616.000000	98.124295 
1615.000000	98.123624 
1614.000000	98.121688 
1613.000000	98.119777 
1612.000000	98.120084 
1611.000000	98.122575 
1610.000000	98.124341 
1609.000000	98.123916 
1608.000000	98.123290 
1607.000000	98.123734 
1606.000000	98.123716 
1605.000000	98.122542 
1604.000000	98.121955 
1603.000000	98.122683 
1602.000000	98.123322 
1601.000000	98.123599 
1600.000000	98.124693 
1599.000000	98.126179 
1598.000000	98.126347 
1597.000000	98.125620 
1596.000000	98.126536 
1595.000000	98.129728 
1594.000000	98.132669 
1593.000000	98.133857 
1592.000000	98.134971 
1591.000000	98.137267 
1590.000000	98.139323 
1589.000000	98.140238 
1588.000000	98.141754 
1587.000000	98.145039 
1586.000000	98.148403 
1585.000000	98.150519 
1584.000000	98.153095 
1583.000000	98.157292 
1582.000000	98.161059 
1581.000000	98.163312 
1580.000000	98.165758 
1579.000000	98.168612 
1578.000000	98.169460 
1577.000000	98.168802 
1576.000000	98.171694 
1575.000000	98.177186 
1574.000000	98.178602 
1573.000000	98.175940 
1572.000000	98.173824 
1571.000000	98.175398 
1570.000000	98.179959 
1569.000000	98.186424 
1568.000000	98.194373 
1567.000000	98.200188 
1566.000000	98.201267 
1565.000000	98.199895 
1564.000000	98.199884 
1563.000000	98.200793 
1562.000000	98.199789 
1561.000000	98.199925 
1560.000000	98.209513 
1559.000000	98.222478 
1558.000000	98.219218 
1557.000000	98.205731 
1556.000000	98.197189 
1555.000000	98.195290 
1554.000000	98.194247 
1553.000000	98.191577 
1552.000000	98.189738 
1551.000000	98.191178 
1550.000000	98.194999 
1549.000000	98.197922 
1548.000000	98.198219 
1547.000000	98.196523 
1546.000000	98.192754 
1545.000000	98.186026 
1544.000000	98.178176 
1543.000000	98.173341 
1542.000000	98.172856 
1541.000000	98.171830 
1540.000000	98.167447 
1539.000000	98.161678 
1538.000000	98.151476 
1537.000000	98.136586 
1536.000000	98.120917 
1535.000000	98.108251 
1534.000000	98.098850 
1533.000000	98.090330 
1532.000000	98.081927 
1531.000000	98.075862 
1530.000000	98.071681 
1529.000000	98.064794 
1528.000000	98.053059 
1527.000000	98.040090 
1526.000000	98.029695 
1525.000000	98.020344 
1524.000000	98.009988 
1523.000000	97.999806 
1522.000000	97.990007 
1521.000000	97.976914 
1520.000000	97.959716 
1519.000000	97.943446 
1518.000000	97.931874 
1517.000000	97.923618 
1516.000000	97.915288 
1515.000000	97.906409 
1514.000000	97.899161 
1513.000000	97.893100 
1512.000000	97.883947 
1511.000000	97.871010 
1510.000000	97.858396 
1509.000000	97.846932 
1508.000000	97.831342 
1507.000000	97.811634 
1506.000000	97.794729 
1505.000000	97.778607 
1504.000000	97.762368 
1503.000000	97.747761 
1502.000000	97.734684 
1501.000000	97.721310 
1500.000000	97.705591 
1499.000000	97.688760 
1498.000000	97.675819 
1497.000000	97.667546 
1496.000000	97.658051 
1495.000000	97.646304 
1494.000000	97.637131 
1493.000000	97.631449 
1492.000000	97.624790 
1491.000000	97.612631 
1490.000000	97.595110 
1489.000000	97.574116 
1488.000000	97.551461 
1487.000000	97.532369 
1486.000000	97.518903 
1485.000000	97.507639 
1484.000000	97.496723 
1483.000000	97.486603 
1482.000000	97.477316 
1481.000000	97.467033 
1480.000000	97.454943 
1479.000000	97.443795 
1478.000000	97.435504 
1477.000000	97.427619 
1476.000000	97.417538 
1475.000000	97.408185 
1474.000000	97.400080 
1473.000000	97.387258 
1472.000000	97.366992 
1471.000000	97.347618 
1470.000000	97.335829 
1469.000000	97.328772 
1468.000000	97.320936 
1467.000000	97.311841 
1466.000000	97.303967 
1465.000000	97.296640 
1464.000000	97.288332 
1463.000000	97.280415 
1462.000000	97.275763 
1461.000000	97.273489 
1460.000000	97.269663 
1459.000000	97.260333 
1458.000000	97.246307 
1457.000000	97.232736 
1456.000000	97.219493 
1455.000000	97.206076 
1454.000000	97.197015 
1453.000000	97.193266 
1452.000000	97.191215 
1451.000000	97.188744 
1450.000000	97.189077 
1449.000000	97.193819 
1448.000000	97.197714 
1447.000000	97.197254 
1446.000000	97.195761 
1445.000000	97.196974 
1444.000000	97.199770 
1443.000000	97.200360 
1442.000000	97.199584 
1441.000000	97.201639 
1440.000000	97.206213 
1439.000000	97.208267 
1438.000000	97.207509 
1437.000000	97.208768 
1436.000000	97.212863 
1435.000000	97.216792 
1434.000000	97.221451 
1433.000000	97.227283 
1432.000000	97.231714 
1431.000000	97.231830 
1430.000000	97.230174 
1429.000000	97.231534 
1428.000000	97.234757 
1427.000000	97.236199 
1426.000000	97.235684 
1425.000000	97.237104 
1424.000000	97.241293 
1423.000000	97.243354 
1422.000000	97.242138 
1421.000000	97.241179 
1420.000000	97.240589 
1419.000000	97.235940 
1418.000000	97.229969 
1417.000000	97.227810 
1416.000000	97.226452 
1415.000000	97.221362 
1414.000000	97.213114 
1413.000000	97.206335 
1412.000000	97.203182 
1411.000000	97.201996 
1410.000000	97.203001 
1409.000000	97.208033 
1408.000000	97.215873 
1407.000000	97.224322 
1406.000000	97.234098 
1405.000000	97.248968 
1404.000000	97.269642 
1403.000000	97.291976 
1402.000000	97.313879 
1401.000000	97.336523 
1400.000000	97.359661 
1399.000000	97.378596 
1398.000000	97.388216 
1397.000000	97.386704 
1396.000000	97.375992 
1395.000000	97.364663 
1394.000000	97.366787 
1393.000000	97.390284 
1392.000000	97.428187 
1391.000000	97.466333 
1390.000000	97.495604 
1389.000000	97.515024 
1388.000000	97.527111 
1387.000000	97.534169 
1386.000000	97.538865 
1385.000000	97.544863 
1384.000000	97.554251 
1383.000000	97.565931 
1382.000000	97.578156 
1381.000000	97.590854 
1380.000000	97.605136 
1379.000000	97.621098 
1378.000000	97.637591 
1377.000000	97.654351 
1376.000000	97.672433 
1375.000000	97.692206 
1374.000000	97.712327 
1373.000000	97.731429 
1372.000000	97.748999 
1371.000000	97.765071 
1370.000000	97.779884 
1369.000000	97.795257 
1368.000000	97.812974 
1367.000000	97.831886 
1366.000000	97.849454 
1365.000000	97.864794 
1364.000000	97.878939 
1363.000000	97.893284 
1362.000000	97.908255 
1361.000000	97.923552 
1360.000000	97.938907 
1359.000000	97.954024 
1358.000000	97.968558 
1357.000000	97.982907 
1356.000000	97.997313 
1355.000000	98.010700 
1354.000000	98.022144 
1353.000000	98.032621 
1352.000000	98.043987 
1351.000000	98.056857 
1350.000000	98.068851 
1349.000000	98.078751 
1348.000000	98.086923 
1347.000000	98.093121 
1346.000000	98.097579 
1345.000000	98.102703 
1344.000000	98.110644 
1343.000000	98.120101 
1342.000000	98.127930 
1341.000000	98.133269 
1340.000000	98.137543 
1339.000000	98.141031 
1338.000000	98.143215 
1337.000000	98.145622 
1336.000000	98.150162 
1335.000000	98.156218 
1334.000000	98.162276 
1333.000000	98.168837 
1332.000000	98.176662 
1331.000000	98.183314 
1330.000000	98.185203 
1329.000000	98.183028 
1328.000000	98.181058 
1327.000000	98.181091 
1326.000000	98.180834 
1325.000000	98.179578 
1324.000000	98.179585 
1323.000000	98.181692 
1322.000000	98.183856 
1321.000000	98.184473 
1320.000000	98.184099 
1319.000000	98.183826 
1318.000000	98.184479 
1317.000000	98.187018 
1316.000000	98.191583 
1315.000000	98.196338 
1314.000000	98.199263 
1313.000000	98.200632 
1312.000000	98.202128 
1311.000000	98.204272 
1310.000000	98.206459 
1309.000000	98.208558 
1308.000000	98.210572 
1307.000000	98.211671 
1306.000000	98.210933 
1305.000000	98.209442 
1304.000000	98.208811 
1303.000000	98.208717 
1302.000000	98.207842 
1301.000000	98.206348 
1300.000000	98.205491 
1299.000000	98.205626 
1298.000000	98.206370 
1297.000000	98.207771 
1296.000000	98.209788 
1295.000000	98.211225 
1294.000000	98.211159 
1293.000000	98.210643 
1292.000000	98.211174 
1291.000000	98.212065 
1290.000000	98.211014 
1289.000000	98.206989 
1288.000000	98.201385 
1287.000000	98.196585 
1286.000000	98.194255 
1285.000000	98.194636 
1284.000000	98.196534 
1283.000000	98.198270 
1282.000000	98.198951 
1281.000000	98.198389 
1280.000000	98.196317 
1279.000000	98.192526 
1278.000000	98.188070 
1277.000000	98.184880 
1276.000000	98.183578 
1275.000000	98.182688 
1274.000000	98.180747 
1273.000000	98.178041 
1272.000000	98.175419 
1271.000000	98.172487 
1270.000000	98.167944 
1269.000000	98.160978 
1268.000000	98.151751 
1267.000000	98.141479 
1266.000000	98.132467 
1265.000000	98.126172 
1264.000000	98.120905 
1263.000000	98.113419 
1262.000000	98.103165 
1261.000000	98.092836 
1260.000000	98.084254 
1259.000000	98.075858 
1258.000000	98.065749 
1257.000000	98.054658 
1256.000000	98.044354 
1255.000000	98.035064 
1254.000000	98.025879 
1253.000000	98.016199 
1252.000000	98.005903 
1251.000000	97.995616 
1250.000000	97.987591 
1249.000000	97.984436 
1248.000000	97.986034 
1247.000000	97.989097 
1246.000000	97.990052 
1245.000000	97.986018 
1244.000000	97.973890 
1243.000000	97.953322 
1242.000000	97.931518 
1241.000000	97.919554 
1240.000000	97.920587 
1239.000000	97.925238 
1238.000000	97.921670 
1237.000000	97.906980 
1236.000000	97.885896 
1235.000000	97.862266 
1234.000000	97.836467 
1233.000000	97.809207 
1232.000000	97.782933 
1231.000000	97.759287 
1230.000000	97.737875 
1229.000000	97.716997 
1228.000000	97.693522 
1227.000000	97.663515 
1226.000000	97.625804 
1225.000000	97.584108 
1224.000000	97.543003 
1223.000000	97.502383 
1222.000000	97.458277 
1221.000000	97.408322 
1220.000000	97.353607 
1219.000000	97.295452 
1218.000000	97.233295 
1217.000000	97.166219 
1216.000000	97.094320 
1215.000000	97.017847 
1214.000000	96.936663 
1213.000000	96.851375 
1212.000000	96.763653 
1211.000000	96.674705 
1210.000000	96.584169 
1209.000000	96.491227 
1208.000000	96.396458 
1207.000000	96.302116 
1206.000000	96.210632 
1205.000000	96.122716 
1204.000000	96.036499 
1203.000000	95.948580 
1202.000000	95.856725 
1201.000000	95.761739 
1200.000000	95.666032 
1199.000000	95.570626 
1198.000000	95.475070 
1197.000000	95.380196 
1196.000000	95.288561 
1195.000000	95.200867 
1194.000000	95.113756 
1193.000000	95.023135 
1192.000000	94.928427 
1191.000000	94.831734 
1190.000000	94.734197 
1189.000000	94.635535 
1188.000000	94.536109 
1187.000000	94.436515 
1186.000000	94.335330 
1185.000000	94.230001 
1184.000000	94.120229 
1183.000000	94.008210 
1182.000000	93.895354 
1181.000000	93.781157 
1180.000000	93.665420 
1179.000000	93.548685 
1178.000000	93.429874 
1177.000000	93.306196 
1176.000000	93.176255 
1175.000000	93.041002 
1174.000000	92.901143 
1173.000000	92.756422 
1172.000000	92.608162 
1171.000000	92.459623 
1170.000000	92.312701 
1169.000000	92.166980 
1168.000000	92.023386 
1167.000000	91.886686 
1166.000000	91.763999 
1165.000000	91.663726 
1164.000000	91.596003 
1163.000000	91.569527 
1162.000000	91.584891 
1161.000000	91.632005 
1160.000000	91.693772 
1159.000000	91.750431 
1158.000000	91.783135 
1157.000000	91.779366 
1156.000000	91.737210 
1155.000000	91.663457 
1154.000000	91.567728 
1153.000000	91.458994 
1152.000000	91.345094 
1151.000000	91.231049 
1150.000000	91.117238 
1149.000000	91.002382 
1148.000000	90.888255 
1147.000000	90.778200 
1146.000000	90.671512 
1145.000000	90.563429 
1144.000000	90.450964 
1143.000000	90.334992 
1142.000000	90.216855 
1141.000000	90.097127 
1140.000000	89.977908 
1139.000000	89.861978 
1138.000000	89.748979 
1137.000000	89.635910 
1136.000000	89.521311 
1135.000000	89.405507 
1134.000000	89.287939 
1133.000000	89.168680 
1132.000000	89.051199 
1131.000000	88.938254 
1130.000000	88.826174 
1129.000000	88.709149 
1128.000000	88.588034 
1127.000000	88.468361 
1126.000000	88.350717 
1125.000000	88.230618 
1124.000000	88.107618 
1123.000000	87.986322 
1122.000000	87.867738 
1121.000000	87.747858 
1120.000000	87.626159 
1119.000000	87.507233 
1118.000000	87.392065 
1117.000000	87.275661 
1116.000000	87.155245 
1115.000000	87.033342 
1114.000000	86.911406 
1113.000000	86.788218 
1112.000000	86.665726 
1111.000000	86.547923 
1110.000000	86.433222 
1109.000000	86.316585 
1108.000000	86.198541 
1107.000000	86.084004 
1106.000000	85.972601 
1105.000000	85.859838 
1104.000000	85.747771 
1103.000000	85.643651 
1102.000000	85.547139 
1101.000000	85.450067 
1100.000000	85.349494 
1099.000000	85.252340 
1098.000000	85.162355 
1097.000000	85.075049 
1096.000000	84.987207 
1095.000000	84.901244 
1094.000000	84.817321 
1093.000000	84.731042 
1092.000000	84.641981 
1091.000000	84.555526 
1090.000000	84.474166 
1089.000000	84.396085 
1088.000000	84.323723 
1087.000000	84.263548 
1086.000000	84.215274 
1085.000000	84.171053 
1084.000000	84.126996 
1083.000000	84.085985 
1082.000000	84.048466 
1081.000000	84.011103 
1080.000000	83.975616 
1079.000000	83.948234 
1078.000000	83.929302 
1077.000000	83.913790 
1076.000000	83.901739 
1075.000000	83.895996 
1074.000000	83.889752 
1073.000000	83.869390 
1072.000000	83.829247 
1071.000000	83.769247 
1070.000000	83.678547 
1069.000000	83.539864 
1068.000000	83.355789 
1067.000000	83.157338 
1066.000000	82.977671 
1065.000000	82.825413 
1064.000000	82.689377 
1063.000000	82.555566 
1062.000000	82.411467 
1061.000000	82.247765 
1060.000000	82.068280 
1059.000000	81.892093 
1058.000000	81.737635 
1057.000000	81.608636 
1056.000000	81.497859 
1055.000000	81.395594 
1054.000000	81.291321 
1053.000000	81.177967 
1052.000000	81.060408 
1051.000000	80.950841 
1050.000000	80.851232 
1049.000000	80.750634 
1048.000000	80.643044 
1047.000000	80.535382 
1046.000000	80.434796 
1045.000000	80.340538 
1044.000000	80.250824 
1043.000000	80.165820 
1042.000000	80.081070 
1041.000000	79.988950 
1040.000000	79.890458 
1039.000000	79.796857 
1038.000000	79.717410 
1037.000000	79.653716 
1036.000000	79.606061 
1035.000000	79.574844 
1034.000000	79.554656 
1033.000000	79.536328 
1032.000000	79.514937 
1031.000000	79.488026 
1030.000000	79.450813 
1029.000000	79.405981 
1028.000000	79.374138 
1027.000000	79.377662 
1026.000000	79.413195 
1025.000000	79.454168 
1024.000000	79.480860 
1023.000000	79.493563 
1022.000000	79.497597 
1021.000000	79.493467 
1020.000000	79.484454 
1019.000000	79.477915 
1018.000000	79.474158 
1017.000000	79.466296 
1016.000000	79.453875 
1015.000000	79.444488 
1014.000000	79.440305 
1013.000000	79.436037 
1012.000000	79.431880 
1011.000000	79.435102 
1010.000000	79.446620 
1009.000000	79.458986 
1008.000000	79.470071 
1007.000000	79.486463 
1006.000000	79.511455 
1005.000000	79.541854 
1004.000000	79.578050 
1003.000000	79.624803 
1002.000000	79.680418 
1001.000000	79.737263 
1000.000000	79.794249 
999.000000	 79.856891 
998.000000	 79.924476 
997.000000	 79.989883 
996.000000	 80.053067 
995.000000	 80.121925 
994.000000	 80.198486 
993.000000	 80.276757 
992.000000	 80.355554 
991.000000	 80.441159 
990.000000	 80.535767 
989.000000	 80.634925 
988.000000	 80.737324 
987.000000	 80.845692 
986.000000	 80.957911 
985.000000	 81.069472 
984.000000	 81.184754 
983.000000	 81.313199 
982.000000	 81.454471 
981.000000	 81.599677 
980.000000	 81.747182 
979.000000	 81.904309 
978.000000	 82.072512 
977.000000	 82.244157 
976.000000	 82.415621 
975.000000	 82.591292 
974.000000	 82.772905 
973.000000	 82.956673 
972.000000	 83.142417 
971.000000	 83.334340 
970.000000	 83.531445 
969.000000	 83.727889 
968.000000	 83.923463 
967.000000	 84.123032 
966.000000	 84.325381 
965.000000	 84.523796 
964.000000	 84.718063 
963.000000	 84.914346 
962.000000	 85.112119 
961.000000	 85.302532 
960.000000	 85.481655 
959.000000	 85.655057 
958.000000	 85.827647 
957.000000	 85.998840 
956.000000	 86.169451 
955.000000	 86.343178 
954.000000	 86.518202 
953.000000	 86.686014 
952.000000	 86.841594 
951.000000	 86.987948 
950.000000	 87.129369 
949.000000	 87.267257 
948.000000	 87.403663 
947.000000	 87.541710 
946.000000	 87.680628 
945.000000	 87.815959 
944.000000	 87.945269 
943.000000	 88.068710 
942.000000	 88.185346 
941.000000	 88.294880 
940.000000	 88.401506 
939.000000	 88.509882 
938.000000	 88.619093 
937.000000	 88.727048 
936.000000	 88.837767 
935.000000	 88.956331 
934.000000	 89.079312 
933.000000	 89.199111 
932.000000	 89.315520 
931.000000	 89.433767 
930.000000	 89.552953 
929.000000	 89.666305 
928.000000	 89.772272 
927.000000	 89.875799 
926.000000	 89.978714 
925.000000	 90.077960 
924.000000	 90.173598 
923.000000	 90.269389 
922.000000	 90.364376 
921.000000	 90.452394 
920.000000	 90.531457 
919.000000	 90.606285 
918.000000	 90.680615 
917.000000	 90.754202 
916.000000	 90.828177 
915.000000	 90.905895 
914.000000	 90.987138 
913.000000	 91.068642 
912.000000	 91.152049 
911.000000	 91.244729 
910.000000	 91.350917 
909.000000	 91.467772 
908.000000	 91.591324 
907.000000	 91.720510 
906.000000	 91.853992 
905.000000	 91.988474 
904.000000	 92.122228 
903.000000	 92.257020 
902.000000	 92.396135 
901.000000	 92.542687 
900.000000	 92.697655 
899.000000	 92.856170 
898.000000	 93.008151 
897.000000	 93.147532 
896.000000	 93.277728 
895.000000	 93.404364 
894.000000	 93.526966 
893.000000	 93.643482 
892.000000	 93.758274 
891.000000	 93.877117 
890.000000	 93.995899 
889.000000	 94.101958 
888.000000	 94.186148 
887.000000	 94.248236 
886.000000	 94.292854 
885.000000	 94.326480 
884.000000	 94.356691 
883.000000	 94.387193 
882.000000	 94.414166 
881.000000	 94.434387 
880.000000	 94.456175 
879.000000	 94.494461 
878.000000	 94.554730 
877.000000	 94.629660 
876.000000	 94.712169 
875.000000	 94.803960 
874.000000	 94.910296 
873.000000	 95.033806 
872.000000	 95.174182 
871.000000	 95.326800 
870.000000	 95.481196 
869.000000	 95.628141 
868.000000	 95.768946 
867.000000	 95.911664 
866.000000	 96.057720 
865.000000	 96.198380 
864.000000	 96.325576 
863.000000	 96.440805 
862.000000	 96.551578 
861.000000	 96.663318 
860.000000	 96.776744 
859.000000	 96.889820 
858.000000	 96.999562 
857.000000	 97.103026 
856.000000	 97.197924 
855.000000	 97.282958 
854.000000	 97.358862 
853.000000	 97.429023 
852.000000	 97.496599 
851.000000	 97.560529 
850.000000	 97.617795 
849.000000	 97.670724 
848.000000	 97.727343 
847.000000	 97.791286 
846.000000	 97.855328 
845.000000	 97.908943 
844.000000	 97.948979 
843.000000	 97.979063 
842.000000	 98.002415 
841.000000	 98.020634 
840.000000	 98.036923 
839.000000	 98.054389 
838.000000	 98.071587 
837.000000	 98.084167 
836.000000	 98.090520 
835.000000	 98.092557 
834.000000	 98.092676 
833.000000	 98.094042 
832.000000	 98.101914 
831.000000	 98.119072 
830.000000	 98.140232 
829.000000	 98.156399 
828.000000	 98.165241 
827.000000	 98.172627 
826.000000	 98.184220 
825.000000	 98.200771 
824.000000	 98.221066 
823.000000	 98.241929 
822.000000	 98.254214 
821.000000	 98.246791 
820.000000	 98.217594 
819.000000	 98.176050 
818.000000	 98.132559 
817.000000	 98.088110 
816.000000	 98.033907 
815.000000	 97.956439 
814.000000	 97.841096 
813.000000	 97.674582 
812.000000	 97.447566 
811.000000	 97.155068 
810.000000	 96.793899 
809.000000	 96.361972 
808.000000	 95.861830 
807.000000	 95.302487 
806.000000	 94.695645 
805.000000	 94.054274 
804.000000	 93.399518 
803.000000	 92.764625 
802.000000	 92.185424 
801.000000	 91.688790 
800.000000	 91.292648 
799.000000	 91.008935 
798.000000	 90.839827 
797.000000	 90.776405 
796.000000	 90.804412 
795.000000	 90.905156 
794.000000	 91.050619 
793.000000	 91.208141 
792.000000	 91.354176 
791.000000	 91.478128 
790.000000	 91.572490 
789.000000	 91.625871 
788.000000	 91.626430 
787.000000	 91.566256 
786.000000	 91.441957 
785.000000	 91.257306 
784.000000	 91.027202 
783.000000	 90.774280 
782.000000	 90.520177 
781.000000	 90.284170 
780.000000	 90.089299 
779.000000	 89.961206 
778.000000	 89.917653 
777.000000	 89.963646 
776.000000	 90.094923 
775.000000	 90.297441 
774.000000	 90.544957 
773.000000	 90.808266 
772.000000	 91.069103 
771.000000	 91.319993 
770.000000	 91.554134 
769.000000	 91.763665 
768.000000	 91.945756 
767.000000	 92.103011 
766.000000	 92.239721 
765.000000	 92.363612 
764.000000	 92.487273 
763.000000	 92.619643 
762.000000	 92.758128 
761.000000	 92.896019 
760.000000	 93.034329 
759.000000	 93.178594 
758.000000	 93.327821 
757.000000	 93.475562 
756.000000	 93.618798 
755.000000	 93.757083 
754.000000	 93.886465 
753.000000	 94.003762 
752.000000	 94.113690 
751.000000	 94.221905 
750.000000	 94.323121 
749.000000	 94.406368 
748.000000	 94.471335 
747.000000	 94.530261 
746.000000	 94.593956 
745.000000	 94.664933 
744.000000	 94.744590 
743.000000	 94.837453 
742.000000	 94.945716 
741.000000	 95.066180 
740.000000	 95.193702 
739.000000	 95.322144 
738.000000	 95.442896 
737.000000	 95.549216 
736.000000	 95.641671 
735.000000	 95.723850 
734.000000	 95.794353 
733.000000	 95.848241 
732.000000	 95.884297 
731.000000	 95.906307 
730.000000	 95.919732 
729.000000	 95.931892 
728.000000	 95.951488 
727.000000	 95.981949 
726.000000	 96.018605 
725.000000	 96.057661 
724.000000	 96.103947 
723.000000	 96.163990 
722.000000	 96.236354 
721.000000	 96.315876 
720.000000	 96.402346 
719.000000	 96.495835 
718.000000	 96.587274 
717.000000	 96.664241 
716.000000	 96.724635 
715.000000	 96.776895 
714.000000	 96.828801 
713.000000	 96.883465 
712.000000	 96.943780 
711.000000	 97.012141 
710.000000	 97.086042 
709.000000	 97.160337 
708.000000	 97.231154 
707.000000	 97.290671 
706.000000	 97.323482 
705.000000	 97.317308 
704.000000	 97.273680 
703.000000	 97.198172 
702.000000	 97.081923 
701.000000	 96.903794 
700.000000	 96.652287 
699.000000	 96.338061 
698.000000	 95.990765 
697.000000	 95.656920 
696.000000	 95.396615 
695.000000	 95.261192 
694.000000	 95.262956 
693.000000	 95.372779 
692.000000	 95.548540 
691.000000	 95.758419 
690.000000	 95.981323 
689.000000	 96.201348 
688.000000	 96.408940 
687.000000	 96.599183 
686.000000	 96.763952 
685.000000	 96.895509 
684.000000	 97.000826 
683.000000	 97.098867 
682.000000	 97.198589 
681.000000	 97.289990 
680.000000	 97.362723 
679.000000	 97.423261 
678.000000	 97.485137 
677.000000	 97.551044 
676.000000	 97.612217 
675.000000	 97.659163 
674.000000	 97.691387 
673.000000	 97.719281 
672.000000	 97.755900 
671.000000	 97.804171 
670.000000	 97.853709 
669.000000	 97.888568 
668.000000	 97.911085 
667.000000	 97.948705 
666.000000	 98.001309 
665.000000	 98.053680 
664.000000	 98.107227 
663.000000	 98.166365 
662.000000	 98.225407 
661.000000	 98.272695 
660.000000	 98.304064 
659.000000	 98.322920 
658.000000	 98.330747 
657.000000	 98.326629 
656.000000	 98.312656 
655.000000	 98.290925 
654.000000	 98.257954 
653.000000	 98.208254 
652.000000	 98.145852 
651.000000	 98.091276 
650.000000	 98.072051 

