4000.000000	98.611743 
3999.000000	98.611363 
3998.000000	98.611349 
3997.000000	98.611697 
3996.000000	98.612282 
3995.000000	98.612913 
3994.000000	98.613356 
3993.000000	98.613438 
3992.000000	98.613086 
3991.000000	98.612342 
3990.000000	98.611458 
3989.000000	98.610913 
3988.000000	98.611055 
3987.000000	98.611743 
3986.000000	98.612482 
3985.000000	98.612911 
3984.000000	98.613044 
3983.000000	98.613085 
3982.000000	98.613170 
3981.000000	98.613254 
3980.000000	98.613171 
3979.000000	98.612760 
3978.000000	98.611992 
3977.000000	98.611042 
3976.000000	98.610189 
3975.000000	98.609620 
3974.000000	98.609341 
3973.000000	98.609320 
3972.000000	98.609545 
3971.000000	98.609924 
3970.000000	98.610348 
3969.000000	98.610860 
3968.000000	98.611544 
3967.000000	98.612277 
3966.000000	98.612750 
3965.000000	98.612723 
3964.000000	98.612244 
3963.000000	98.611607 
3962.000000	98.611136 
3961.000000	98.611078 
3960.000000	98.611487 
3959.000000	98.611970 
3958.000000	98.611885 
3957.000000	98.611082 
3956.000000	98.610144 
3955.000000	98.609810 
3954.000000	98.610313 
3953.000000	98.611244 
3952.000000	98.611971 
3951.000000	98.612180 
3950.000000	98.612276 
3949.000000	98.612922 
3948.000000	98.613948 
3947.000000	98.614419 
3946.000000	98.613703 
3945.000000	98.611958 
3944.000000	98.609719 
3943.000000	98.607643 
3942.000000	98.606322 
3941.000000	98.605974 
3940.000000	98.606279 
3939.000000	98.606553 
3938.000000	98.606428 
3937.000000	98.606477 
3936.000000	98.607631 
3935.000000	98.609883 
3934.000000	98.612159 
3933.000000	98.613435 
3932.000000	98.613507 
3931.000000	98.612406 
3930.000000	98.610012 
3929.000000	98.606538 
3928.000000	98.602995 
3927.000000	98.600765 
3926.000000	98.600172 
3925.000000	98.600475 
3924.000000	98.601626 
3923.000000	98.604095 
3922.000000	98.607374 
3921.000000	98.610105 
3920.000000	98.611859 
3919.000000	98.613573 
3918.000000	98.615405 
3917.000000	98.616018 
3916.000000	98.614620 
3915.000000	98.612245 
3914.000000	98.610251 
3913.000000	98.608843 
3912.000000	98.607755 
3911.000000	98.607034 
3910.000000	98.606659 
3909.000000	98.606491 
3908.000000	98.606649 
3907.000000	98.607324 
3906.000000	98.608584 
3905.000000	98.609972 
3904.000000	98.611113 
3903.000000	98.611875 
3902.000000	98.612075 
3901.000000	98.611520 
3900.000000	98.610208 
3899.000000	98.608730 
3898.000000	98.607791 
3897.000000	98.607369 
3896.000000	98.606991 
3895.000000	98.606419 
3894.000000	98.605768 
3893.000000	98.605305 
3892.000000	98.605041 
3891.000000	98.604672 
3890.000000	98.604124 
3889.000000	98.603656 
3888.000000	98.603405 
3887.000000	98.603148 
3886.000000	98.602661 
3885.000000	98.602043 
3884.000000	98.601545 
3883.000000	98.601172 
3882.000000	98.600729 
3881.000000	98.600161 
3880.000000	98.599585 
3879.000000	98.599078 
3878.000000	98.598619 
3877.000000	98.598145 
3876.000000	98.597550 
3875.000000	98.596743 
3874.000000	98.595805 
3873.000000	98.595080 
3872.000000	98.594824 
3871.000000	98.594776 
3870.000000	98.594335 
3869.000000	98.593446 
3868.000000	98.592734 
3867.000000	98.592461 
3866.000000	98.591954 
3865.000000	98.590775 
3864.000000	98.589819 
3863.000000	98.589894 
3862.000000	98.590382 
3861.000000	98.590434 
3860.000000	98.590083 
3859.000000	98.589502 
3858.000000	98.588474 
3857.000000	98.586674 
3856.000000	98.584465 
3855.000000	98.582041 
3854.000000	98.580123 
3853.000000	98.579888 
3852.000000	98.581353 
3851.000000	98.583712 
3850.000000	98.585804 
3849.000000	98.586827 
3848.000000	98.587270 
3847.000000	98.587972 
3846.000000	98.588745 
3845.000000	98.589126 
3844.000000	98.589142 
3843.000000	98.588857 
3842.000000	98.588457 
3841.000000	98.588397 
3840.000000	98.588730 
3839.000000	98.589190 
3838.000000	98.589577 
3837.000000	98.589747 
3836.000000	98.589789 
3835.000000	98.589822 
3834.000000	98.589956 
3833.000000	98.590184 
3832.000000	98.590411 
3831.000000	98.590630 
3830.000000	98.590855 
3829.000000	98.591049 
3828.000000	98.591187 
3827.000000	98.591264 
3826.000000	98.591318 
3825.000000	98.591409 
3824.000000	98.591522 
3823.000000	98.591614 
3822.000000	98.591690 
3821.000000	98.591742 
3820.000000	98.591775 
3819.000000	98.591798 
3818.000000	98.591810 
3817.000000	98.591799 
3816.000000	98.591754 
3815.000000	98.591685 
3814.000000	98.591606 
3813.000000	98.591519 
3812.000000	98.591417 
3811.000000	98.591297 
3810.000000	98.591161 
3809.000000	98.591015 
3808.000000	98.590854 
3807.000000	98.590669 
3806.000000	98.590464 
3805.000000	98.590248 
3804.000000	98.590027 
3803.000000	98.589803 
3802.000000	98.589575 
3801.000000	98.589357 
3800.000000	98.589168 
3799.000000	98.589014 
3798.000000	98.588884 
3797.000000	98.588768 
3796.000000	98.588662 
3795.000000	98.588567 
3794.000000	98.588483 
3793.000000	98.588412 
3792.000000	98.588363 
3791.000000	98.588342 
3790.000000	98.588351 
3789.000000	98.588384 
3788.000000	98.588446 
3787.000000	98.588540 
3786.000000	98.588667 
3785.000000	98.588823 
3784.000000	98.589006 
3783.000000	98.589218 
3782.000000	98.589460 
3781.000000	98.589730 
3780.000000	98.590032 
3779.000000	98.590372 
3778.000000	98.590752 
3777.000000	98.591169 
3776.000000	98.591625 
3775.000000	98.592126 
3774.000000	98.592675 
3773.000000	98.593271 
3772.000000	98.593901 
3771.000000	98.594547 
3770.000000	98.595208 
3769.000000	98.595872 
3768.000000	98.596537 
3767.000000	98.597203 
3766.000000	98.597798 
3765.000000	98.598222 
3764.000000	98.598595 
3763.000000	98.599211 
3762.000000	98.600018 
3761.000000	98.600590 
3760.000000	98.600966 
3759.000000	98.601876 
3758.000000	98.603308 
3757.000000	98.604274 
3756.000000	98.604563 
3755.000000	98.604816 
3754.000000	98.605269 
3753.000000	98.605409 
3752.000000	98.605831 
3751.000000	98.608190 
3750.000000	98.610544 
3749.000000	98.609321 
3748.000000	98.605688 
3747.000000	98.604479 
3746.000000	98.607228 
3745.000000	98.609135 
3744.000000	98.606494 
3743.000000	98.603442 
3742.000000	98.604334 
3741.000000	98.606372 
3740.000000	98.605437 
3739.000000	98.603872 
3738.000000	98.605894 
3737.000000	98.609421 
3736.000000	98.611195 
3735.000000	98.612869 
3734.000000	98.616569 
3733.000000	98.617940 
3732.000000	98.612388 
3731.000000	98.603282 
3730.000000	98.597085 
3729.000000	98.595373 
3728.000000	98.593790 
3727.000000	98.588276 
3726.000000	98.581006 
3725.000000	98.576802 
3724.000000	98.575535 
3723.000000	98.573278 
3722.000000	98.569006 
3721.000000	98.564612 
3720.000000	98.560961 
3719.000000	98.558565 
3718.000000	98.556624 
3717.000000	98.553887 
3716.000000	98.551627 
3715.000000	98.550721 
3714.000000	98.549014 
3713.000000	98.543767 
3712.000000	98.536741 
3711.000000	98.530991 
3710.000000	98.525222 
3709.000000	98.517723 
3708.000000	98.508715 
3707.000000	98.498793 
3706.000000	98.488683 
3705.000000	98.478535 
3704.000000	98.467627 
3703.000000	98.455532 
3702.000000	98.443254 
3701.000000	98.431319 
3700.000000	98.419056 
3699.000000	98.406841 
3698.000000	98.395132 
3697.000000	98.383467 
3696.000000	98.373561 
3695.000000	98.368154 
3694.000000	98.365517 
3693.000000	98.360597 
3692.000000	98.351926 
3691.000000	98.343590 
3690.000000	98.338967 
3689.000000	98.334832 
3688.000000	98.325907 
3687.000000	98.314125 
3686.000000	98.305861 
3685.000000	98.302691 
3684.000000	98.302008 
3683.000000	98.302120 
3682.000000	98.302522 
3681.000000	98.300255 
3680.000000	98.291693 
3679.000000	98.278196 
3678.000000	98.266078 
3677.000000	98.257519 
3676.000000	98.249214 
3675.000000	98.240542 
3674.000000	98.234388 
3673.000000	98.232403 
3672.000000	98.231425 
3671.000000	98.226303 
3670.000000	98.218120 
3669.000000	98.211430 
3668.000000	98.206616 
3667.000000	98.201967 
3666.000000	98.197839 
3665.000000	98.195339 
3664.000000	98.193948 
3663.000000	98.191799 
3662.000000	98.187292 
3661.000000	98.180810 
3660.000000	98.174950 
3659.000000	98.171840 
3658.000000	98.171016 
3657.000000	98.169670 
3656.000000	98.166301 
3655.000000	98.163635 
3654.000000	98.165066 
3653.000000	98.169608 
3652.000000	98.172006 
3651.000000	98.168775 
3650.000000	98.163418 
3649.000000	98.160608 
3648.000000	98.158871 
3647.000000	98.155898 
3646.000000	98.153310 
3645.000000	98.153108 
3644.000000	98.154746 
3643.000000	98.156512 
3642.000000	98.157093 
3641.000000	98.156592 
3640.000000	98.155592 
3639.000000	98.154045 
3638.000000	98.152283 
3637.000000	98.151411 
3636.000000	98.152022 
3635.000000	98.152734 
3634.000000	98.152580 
3633.000000	98.153906 
3632.000000	98.159144 
3631.000000	98.165501 
3630.000000	98.165889 
3629.000000	98.158694 
3628.000000	98.150107 
3627.000000	98.146612 
3626.000000	98.148930 
3625.000000	98.153277 
3624.000000	98.156620 
3623.000000	98.158801 
3622.000000	98.160136 
3621.000000	98.159128 
3620.000000	98.156004 
3619.000000	98.154646 
3618.000000	98.157437 
3617.000000	98.163434 
3616.000000	98.171765 
3615.000000	98.181445 
3614.000000	98.191508 
3613.000000	98.202291 
3612.000000	98.214309 
3611.000000	98.226228 
3610.000000	98.234912 
3609.000000	98.238289 
3608.000000	98.238228 
3607.000000	98.238507 
3606.000000	98.240254 
3605.000000	98.241998 
3604.000000	98.242363 
3603.000000	98.241391 
3602.000000	98.240416 
3601.000000	98.240435 
3600.000000	98.242685 
3599.000000	98.248338 
3598.000000	98.255824 
3597.000000	98.261784 
3596.000000	98.265270 
3595.000000	98.268228 
3594.000000	98.273304 
3593.000000	98.281394 
3592.000000	98.290440 
3591.000000	98.297804 
3590.000000	98.301553 
3589.000000	98.301462 
3588.000000	98.299835 
3587.000000	98.299063 
3586.000000	98.298579 
3585.000000	98.297444 
3584.000000	98.296195 
3583.000000	98.295883 
3582.000000	98.296704 
3581.000000	98.297962 
3580.000000	98.299028 
3579.000000	98.300120 
3578.000000	98.301855 
3577.000000	98.304502 
3576.000000	98.307957 
3575.000000	98.311762 
3574.000000	98.314967 
3573.000000	98.317101 
3572.000000	98.318559 
3571.000000	98.320432 
3570.000000	98.323375 
3569.000000	98.326111 
3568.000000	98.326701 
3567.000000	98.324971 
3566.000000	98.321921 
3565.000000	98.319007 
3564.000000	98.317872 
3563.000000	98.318924 
3562.000000	98.320940 
3561.000000	98.322361 
3560.000000	98.322439 
3559.000000	98.321740 
3558.000000	98.321077 
3557.000000	98.320394 
3556.000000	98.319209 
3555.000000	98.317933 
3554.000000	98.317685 
3553.000000	98.318940 
3552.000000	98.320770 
3551.000000	98.321872 
3550.000000	98.322154 
3549.000000	98.322508 
3548.000000	98.323552 
3547.000000	98.325216 
3546.000000	98.326815 
3545.000000	98.327700 
3544.000000	98.327939 
3543.000000	98.328176 
3542.000000	98.328867 
3541.000000	98.329820 
3540.000000	98.330426 
3539.000000	98.330375 
3538.000000	98.329956 
3537.000000	98.329768 
3536.000000	98.330164 
3535.000000	98.330939 
3534.000000	98.331718 
3533.000000	98.332368 
3532.000000	98.333003 
3531.000000	98.333727 
3530.000000	98.334562 
3529.000000	98.335648 
3528.000000	98.337189 
3527.000000	98.339141 
3526.000000	98.340973 
3525.000000	98.341967 
3524.000000	98.341833 
3523.000000	98.340989 
3522.000000	98.340197 
3521.000000	98.340000 
3520.000000	98.340473 
3519.000000	98.341345 
3518.000000	98.342211 
3517.000000	98.342763 
3516.000000	98.343011 
3515.000000	98.343269 
3514.000000	98.344047 
3513.000000	98.345746 
3512.000000	98.348289 
3511.000000	98.351135 
3510.000000	98.353693 
3509.000000	98.355535 
3508.000000	98.356337 
3507.000000	98.356013 
3506.000000	98.354984 
3505.000000	98.354277 
3504.000000	98.354886 
3503.000000	98.356860 
3502.000000	98.359166 
3501.000000	98.360745 
3500.000000	98.361532 
3499.000000	98.362150 
3498.000000	98.363078 
3497.000000	98.364378 
3496.000000	98.365991 
3495.000000	98.367730 
3494.000000	98.369032 
3493.000000	98.369233 
3492.000000	98.368203 
3491.000000	98.366559 
3490.000000	98.365247 
3489.000000	98.364828 
3488.000000	98.365186 
3487.000000	98.365786 
3486.000000	98.366092 
3485.000000	98.365908 
3484.000000	98.365470 
3483.000000	98.365230 
3482.000000	98.365462 
3481.000000	98.365975 
3480.000000	98.366285 
3479.000000	98.366151 
3478.000000	98.365850 
3477.000000	98.365862 
3476.000000	98.366321 
3475.000000	98.366873 
3474.000000	98.367073 
3473.000000	98.366879 
3472.000000	98.366637 
3471.000000	98.366640 
3470.000000	98.366881 
3469.000000	98.367183 
3468.000000	98.367339 
3467.000000	98.367134 
3466.000000	98.366428 
3465.000000	98.365343 
3464.000000	98.364294 
3463.000000	98.363676 
3462.000000	98.363531 
3461.000000	98.363606 
3460.000000	98.363626 
3459.000000	98.363526 
3458.000000	98.363340 
3457.000000	98.363075 
3456.000000	98.362739 
3455.000000	98.362392 
3454.000000	98.362097 
3453.000000	98.361842 
3452.000000	98.361585 
3451.000000	98.361313 
3450.000000	98.361040 
3449.000000	98.360774 
3448.000000	98.360519 
3447.000000	98.360276 
3446.000000	98.360043 
3445.000000	98.359805 
3444.000000	98.359558 
3443.000000	98.359309 
3442.000000	98.359078 
3441.000000	98.358875 
3440.000000	98.358692 
3439.000000	98.358507 
3438.000000	98.358303 
3437.000000	98.358080 
3436.000000	98.357856 
3435.000000	98.357648 
3434.000000	98.357460 
3433.000000	98.357288 
3432.000000	98.357129 
3431.000000	98.356978 
3430.000000	98.356821 
3429.000000	98.356634 
3428.000000	98.356408 
3427.000000	98.356160 
3426.000000	98.355924 
3425.000000	98.355720 
3424.000000	98.355548 
3423.000000	98.355397 
3422.000000	98.355274 
3421.000000	98.355204 
3420.000000	98.355187 
3419.000000	98.355169 
3418.000000	98.355097 
3417.000000	98.354978 
3416.000000	98.354884 
3415.000000	98.354879 
3414.000000	98.354952 
3413.000000	98.355037 
3412.000000	98.355096 
3411.000000	98.355153 
3410.000000	98.355258 
3409.000000	98.355424 
3408.000000	98.355606 
3407.000000	98.355730 
3406.000000	98.355744 
3405.000000	98.355672 
3404.000000	98.355623 
3403.000000	98.355694 
3402.000000	98.355879 
3401.000000	98.356086 
3400.000000	98.356273 
3399.000000	98.356509 
3398.000000	98.356858 
3397.000000	98.357272 
3396.000000	98.357615 
3395.000000	98.357825 
3394.000000	98.358006 
3393.000000	98.358343 
3392.000000	98.358910 
3391.000000	98.359588 
3390.000000	98.360161 
3389.000000	98.360501 
3388.000000	98.360615 
3387.000000	98.360636 
3386.000000	98.360772 
3385.000000	98.361229 
3384.000000	98.362121 
3383.000000	98.363377 
3382.000000	98.364741 
3381.000000	98.365944 
3380.000000	98.366857 
3379.000000	98.367484 
3378.000000	98.367909 
3377.000000	98.368266 
3376.000000	98.368663 
3375.000000	98.369105 
3374.000000	98.369547 
3373.000000	98.370061 
3372.000000	98.370829 
3371.000000	98.371870 
3370.000000	98.372908 
3369.000000	98.373664 
3368.000000	98.374171 
3367.000000	98.374639 
3366.000000	98.375102 
3365.000000	98.375448 
3364.000000	98.375788 
3363.000000	98.376500 
3362.000000	98.377781 
3361.000000	98.379355 
3360.000000	98.380726 
3359.000000	98.381639 
3358.000000	98.382275 
3357.000000	98.383043 
3356.000000	98.384200 
3355.000000	98.385617 
3354.000000	98.386921 
3353.000000	98.387963 
3352.000000	98.389056 
3351.000000	98.390619 
3350.000000	98.392638 
3349.000000	98.394679 
3348.000000	98.396377 
3347.000000	98.397700 
3346.000000	98.398729 
3345.000000	98.399388 
3344.000000	98.399527 
3343.000000	98.399128 
3342.000000	98.398386 
3341.000000	98.397651 
3340.000000	98.397246 
3339.000000	98.397292 
3338.000000	98.397686 
3337.000000	98.398300 
3336.000000	98.399151 
3335.000000	98.400315 
3334.000000	98.401719 
3333.000000	98.403139 
3332.000000	98.404331 
3331.000000	98.405071 
3330.000000	98.405186 
3329.000000	98.404818 
3328.000000	98.404614 
3327.000000	98.405337 
3326.000000	98.407048 
3325.000000	98.408820 
3324.000000	98.409532 
3323.000000	98.408983 
3322.000000	98.408158 
3321.000000	98.408360 
3320.000000	98.410092 
3319.000000	98.412806 
3318.000000	98.415479 
3317.000000	98.417463 
3316.000000	98.418837 
3315.000000	98.420108 
3314.000000	98.421701 
3313.000000	98.423586 
3312.000000	98.425256 
3311.000000	98.426124 
3310.000000	98.426092 
3309.000000	98.425763 
3308.000000	98.425910 
3307.000000	98.426655 
3306.000000	98.427337 
3305.000000	98.427274 
3304.000000	98.426498 
3303.000000	98.425700 
3302.000000	98.425533 
3301.000000	98.426086 
3300.000000	98.426990 
3299.000000	98.427839 
3298.000000	98.428504 
3297.000000	98.429117 
3296.000000	98.429904 
3295.000000	98.431015 
3294.000000	98.432410 
3293.000000	98.433841 
3292.000000	98.434936 
3291.000000	98.435460 
3290.000000	98.435556 
3289.000000	98.435687 
3288.000000	98.436242 
3287.000000	98.437207 
3286.000000	98.438262 
3285.000000	98.439154 
3284.000000	98.439907 
3283.000000	98.440673 
3282.000000	98.441495 
3281.000000	98.442299 
3280.000000	98.443012 
3279.000000	98.443669 
3278.000000	98.444380 
3277.000000	98.445200 
3276.000000	98.446067 
3275.000000	98.446859 
3274.000000	98.447525 
3273.000000	98.448121 
3272.000000	98.448718 
3271.000000	98.449328 
3270.000000	98.449945 
3269.000000	98.450606 
3268.000000	98.451369 
3267.000000	98.452250 
3266.000000	98.453193 
3265.000000	98.454115 
3264.000000	98.454964 
3263.000000	98.455735 
3262.000000	98.456439 
3261.000000	98.457095 
3260.000000	98.457746 
3259.000000	98.458452 
3258.000000	98.459251 
3257.000000	98.460137 
3256.000000	98.461074 
3255.000000	98.462017 
3254.000000	98.462924 
3253.000000	98.463769 
3252.000000	98.464549 
3251.000000	98.465290 
3250.000000	98.466041 
3249.000000	98.466849 
3248.000000	98.467727 
3247.000000	98.468631 
3246.000000	98.469480 
3245.000000	98.470209 
3244.000000	98.470830 
3243.000000	98.471440 
3242.000000	98.472148 
3241.000000	98.472980 
3240.000000	98.473859 
3239.000000	98.474705 
3238.000000	98.475541 
3237.000000	98.476482 
3236.000000	98.477609 
3235.000000	98.478839 
3234.000000	98.479916 
3233.000000	98.480612 
3232.000000	98.480921 
3231.000000	98.481094 
3230.000000	98.481411 
3229.000000	98.481947 
3228.000000	98.482560 
3227.000000	98.483100 
3226.000000	98.483625 
3225.000000	98.484395 
3224.000000	98.485593 
3223.000000	98.487061 
3222.000000	98.488326 
3221.000000	98.488994 
3220.000000	98.489052 
3219.000000	98.488880 
3218.000000	98.488965 
3217.000000	98.489568 
3216.000000	98.490644 
3215.000000	98.491943 
3214.000000	98.493209 
3213.000000	98.494316 
3212.000000	98.495263 
3211.000000	98.496083 
3210.000000	98.496771 
3209.000000	98.497248 
3208.000000	98.497346 
3207.000000	98.496948 
3206.000000	98.496242 
3205.000000	98.495752 
3204.000000	98.495928 
3203.000000	98.496711 
3202.000000	98.497649 
3201.000000	98.498487 
3200.000000	98.499372 
3199.000000	98.500368 
3198.000000	98.501022 
3197.000000	98.500734 
3196.000000	98.499496 
3195.000000	98.498117 
3194.000000	98.497647 
3193.000000	98.498652 
3192.000000	98.500987 
3191.000000	98.503986 
3190.000000	98.506886 
3189.000000	98.509291 
3188.000000	98.511234 
3187.000000	98.512754 
3186.000000	98.513618 
3185.000000	98.513679 
3184.000000	98.513368 
3183.000000	98.513500 
3182.000000	98.514432 
3181.000000	98.515693 
3180.000000	98.516649 
3179.000000	98.517258 
3178.000000	98.517945 
3177.000000	98.518897 
3176.000000	98.519783 
3175.000000	98.520157 
3174.000000	98.519897 
3173.000000	98.519307 
3172.000000	98.519009 
3171.000000	98.519625 
3170.000000	98.521250 
3169.000000	98.523126 
3168.000000	98.524145 
3167.000000	98.523835 
3166.000000	98.522744 
3165.000000	98.521856 
3164.000000	98.521713 
3163.000000	98.522247 
3162.000000	98.523134 
3161.000000	98.524054 
3160.000000	98.524821 
3159.000000	98.525624 
3158.000000	98.527037 
3157.000000	98.529375 
3156.000000	98.531981 
3155.000000	98.533555 
3154.000000	98.533420 
3153.000000	98.532188 
3152.000000	98.531007 
3151.000000	98.530260 
3150.000000	98.529377 
3149.000000	98.527836 
3148.000000	98.525993 
3147.000000	98.524802 
3146.000000	98.524935 
3145.000000	98.526402 
3144.000000	98.528845 
3143.000000	98.531912 
3142.000000	98.535256 
3141.000000	98.538394 
3140.000000	98.540821 
3139.000000	98.542315 
3138.000000	98.543094 
3137.000000	98.543577 
3136.000000	98.544018 
3135.000000	98.544418 
3134.000000	98.544683 
3133.000000	98.544673 
3132.000000	98.544142 
3131.000000	98.542938 
3130.000000	98.541411 
3129.000000	98.540421 
3128.000000	98.540672 
3127.000000	98.542097 
3126.000000	98.544029 
3125.000000	98.545853 
3124.000000	98.547347 
3123.000000	98.548427 
3122.000000	98.548829 
3121.000000	98.548316 
3120.000000	98.547118 
3119.000000	98.545986 
3118.000000	98.545712 
3117.000000	98.546582 
3116.000000	98.548244 
3115.000000	98.550003 
3114.000000	98.551312 
3113.000000	98.552090 
3112.000000	98.552649 
3111.000000	98.553403 
3110.000000	98.554541 
3109.000000	98.555801 
3108.000000	98.556590 
3107.000000	98.556471 
3106.000000	98.555601 
3105.000000	98.554636 
3104.000000	98.554114 
3103.000000	98.554035 
3102.000000	98.554083 
3101.000000	98.554128 
3100.000000	98.554341 
3099.000000	98.554815 
3098.000000	98.555269 
3097.000000	98.555328 
3096.000000	98.555010 
3095.000000	98.554779 
3094.000000	98.555093 
3093.000000	98.556077 
3092.000000	98.557497 
3091.000000	98.558784 
3090.000000	98.559183 
3089.000000	98.558261 
3088.000000	98.556570 
3087.000000	98.555465 
3086.000000	98.555924 
3085.000000	98.557646 
3084.000000	98.559382 
3083.000000	98.560140 
3082.000000	98.559901 
3081.000000	98.559513 
3080.000000	98.560083 
3079.000000	98.562154 
3078.000000	98.564995 
3077.000000	98.566776 
3076.000000	98.566007 
3075.000000	98.563054 
3074.000000	98.559998 
3073.000000	98.558467 
3072.000000	98.557890 
3071.000000	98.556446 
3070.000000	98.553655 
3069.000000	98.551235 
3068.000000	98.550847 
3067.000000	98.551804 
3066.000000	98.552156 
3065.000000	98.551694 
3064.000000	98.552299 
3063.000000	98.554818 
3062.000000	98.557073 
3061.000000	98.556380 
3060.000000	98.553189 
3059.000000	98.550678 
3058.000000	98.550641 
3057.000000	98.551156 
3056.000000	98.549098 
3055.000000	98.544115 
3054.000000	98.539237 
3053.000000	98.537595 
3052.000000	98.539272 
3051.000000	98.541443 
3050.000000	98.541091 
3049.000000	98.537381 
3048.000000	98.531863 
3047.000000	98.526999 
3046.000000	98.524511 
3045.000000	98.524397 
3044.000000	98.524982 
3043.000000	98.524130 
3042.000000	98.520704 
3041.000000	98.514979 
3040.000000	98.507685 
3039.000000	98.499351 
3038.000000	98.490684 
3037.000000	98.482600 
3036.000000	98.474989 
3035.000000	98.466098 
3034.000000	98.454514 
3033.000000	98.441364 
3032.000000	98.429212 
3031.000000	98.418762 
3030.000000	98.407926 
3029.000000	98.394765 
3028.000000	98.380102 
3027.000000	98.366287 
3026.000000	98.354211 
3025.000000	98.342661 
3024.000000	98.330069 
3023.000000	98.315734 
3022.000000	98.299568 
3021.000000	98.281889 
3020.000000	98.263637 
3019.000000	98.245887 
3018.000000	98.228734 
3017.000000	98.211238 
3016.000000	98.192600 
3015.000000	98.172915 
3014.000000	98.152634 
3013.000000	98.131799 
3012.000000	98.109983 
3011.000000	98.086790 
3010.000000	98.062445 
3009.000000	98.038034 
3008.000000	98.014814 
3007.000000	97.992921 
3006.000000	97.971169 
3005.000000	97.948636 
3004.000000	97.925870 
3003.000000	97.903604 
3002.000000	97.880894 
3001.000000	97.856090 
3000.000000	97.829879 
2999.000000	97.805779 
2998.000000	97.786953 
2997.000000	97.773686 
2996.000000	97.764124 
2995.000000	97.755380 
2994.000000	97.742448 
2993.000000	97.718432 
2992.000000	97.679969 
2991.000000	97.633331 
2990.000000	97.592456 
2989.000000	97.568769 
2988.000000	97.563560 
2987.000000	97.570030 
2986.000000	97.580427 
2985.000000	97.590251 
2984.000000	97.597659 
2983.000000	97.602353 
2982.000000	97.605538 
2981.000000	97.608783 
2980.000000	97.611928 
2979.000000	97.613172 
2978.000000	97.611531 
2977.000000	97.607917 
2976.000000	97.603306 
2975.000000	97.597400 
2974.000000	97.590419 
2973.000000	97.585261 
2972.000000	97.586261 
2971.000000	97.595612 
2970.000000	97.611675 
2969.000000	97.630670 
2968.000000	97.649507 
2967.000000	97.667363 
2966.000000	97.685382 
2965.000000	97.705044 
2964.000000	97.726267 
2963.000000	97.746845 
2962.000000	97.764011 
2961.000000	97.776704 
2960.000000	97.786299 
2959.000000	97.795439 
2958.000000	97.806439 
2957.000000	97.820361 
2956.000000	97.836691 
2955.000000	97.853548 
2954.000000	97.868722 
2953.000000	97.881195 
2952.000000	97.891826 
2951.000000	97.902423 
2950.000000	97.914007 
2949.000000	97.925888 
2948.000000	97.936440 
2947.000000	97.944650 
2946.000000	97.950937 
2945.000000	97.956485 
2944.000000	97.962043 
2943.000000	97.967779 
2942.000000	97.973951 
2941.000000	97.980866 
2940.000000	97.988300 
2939.000000	97.995696 
2938.000000	98.003063 
2937.000000	98.011119 
2936.000000	98.020502 
2935.000000	98.031373 
2934.000000	98.043717 
2933.000000	98.057040 
2932.000000	98.069476 
2931.000000	98.078215 
2930.000000	98.081628 
2929.000000	98.080535 
2928.000000	98.077101 
2927.000000	98.073202 
2926.000000	98.070312 
2925.000000	98.069678 
2924.000000	98.071309 
2923.000000	98.073383 
2922.000000	98.073815 
2921.000000	98.071973 
2920.000000	98.067821 
2919.000000	98.060232 
2918.000000	98.047810 
2917.000000	98.031265 
2916.000000	98.013372 
2915.000000	97.996337 
2914.000000	97.980440 
2913.000000	97.965641 
2912.000000	97.953026 
2911.000000	97.943740 
2910.000000	97.937317 
2909.000000	97.932106 
2908.000000	97.927050 
2907.000000	97.921850 
2906.000000	97.915290 
2905.000000	97.904355 
2904.000000	97.886592 
2903.000000	97.864502 
2902.000000	97.847184 
2901.000000	97.844830 
2900.000000	97.861078 
2899.000000	97.888778 
2898.000000	97.914958 
2897.000000	97.930472 
2896.000000	97.934983 
2895.000000	97.933899 
2894.000000	97.932801 
2893.000000	97.934629 
2892.000000	97.939847 
2891.000000	97.947123 
2890.000000	97.954083 
2889.000000	97.958614 
2888.000000	97.959980 
2887.000000	97.958966 
2886.000000	97.957598 
2885.000000	97.958820 
2884.000000	97.965332 
2883.000000	97.977720 
2882.000000	97.993897 
2881.000000	98.011001 
2880.000000	98.027687 
2879.000000	98.044251 
2878.000000	98.060934 
2877.000000	98.076891 
2876.000000	98.090869 
2875.000000	98.102517 
2874.000000	98.112880 
2873.000000	98.123514 
2872.000000	98.134849 
2871.000000	98.145386 
2870.000000	98.153086 
2869.000000	98.157938 
2868.000000	98.162807 
2867.000000	98.171469 
2866.000000	98.185928 
2865.000000	98.205633 
2864.000000	98.228557 
2863.000000	98.252646 
2862.000000	98.276717 
2861.000000	98.300664 
2860.000000	98.324887 
2859.000000	98.349390 
2858.000000	98.373453 
2857.000000	98.396141 
2856.000000	98.416582 
2855.000000	98.433740 
2854.000000	98.446901 
2853.000000	98.456555 
2852.000000	98.463809 
2851.000000	98.468878 
2850.000000	98.471015 
2849.000000	98.470013 
2848.000000	98.466975 
2847.000000	98.463472 
2846.000000	98.460781 
2845.000000	98.460107 
2844.000000	98.462370 
2843.000000	98.467182 
2842.000000	98.472846 
2841.000000	98.477885 
2840.000000	98.481890 
2839.000000	98.484757 
2838.000000	98.486357 
2837.000000	98.487434 
2836.000000	98.489373 
2835.000000	98.492182 
2834.000000	98.494139 
2833.000000	98.494596 
2832.000000	98.495629 
2831.000000	98.499115 
2830.000000	98.503248 
2829.000000	98.504281 
2828.000000	98.501421 
2827.000000	98.497874 
2826.000000	98.496901 
2825.000000	98.498743 
2824.000000	98.502068 
2823.000000	98.506463 
2822.000000	98.512228 
2821.000000	98.518767 
2820.000000	98.524595 
2819.000000	98.528700 
2818.000000	98.531086 
2817.000000	98.532197 
2816.000000	98.532417 
2815.000000	98.532048 
2814.000000	98.531374 
2813.000000	98.530695 
2812.000000	98.530376 
2811.000000	98.530738 
2810.000000	98.531879 
2809.000000	98.533751 
2808.000000	98.536318 
2807.000000	98.539336 
2806.000000	98.542057 
2805.000000	98.543563 
2804.000000	98.543531 
2803.000000	98.542534 
2802.000000	98.541636 
2801.000000	98.541663 
2800.000000	98.542758 
2799.000000	98.544458 
2798.000000	98.546157 
2797.000000	98.547544 
2796.000000	98.548668 
2795.000000	98.549693 
2794.000000	98.550740 
2793.000000	98.551896 
2792.000000	98.553198 
2791.000000	98.554540 
2790.000000	98.555694 
2789.000000	98.556523 
2788.000000	98.557122 
2787.000000	98.557717 
2786.000000	98.558443 
2785.000000	98.559309 
2784.000000	98.560266 
2783.000000	98.561224 
2782.000000	98.562055 
2781.000000	98.562695 
2780.000000	98.563245 
2779.000000	98.563913 
2778.000000	98.564803 
2777.000000	98.565831 
2776.000000	98.566828 
2775.000000	98.567682 
2774.000000	98.568405 
2773.000000	98.569083 
2772.000000	98.569806 
2771.000000	98.570586 
2770.000000	98.571347 
2769.000000	98.572011 
2768.000000	98.572598 
2767.000000	98.573208 
2766.000000	98.573896 
2765.000000	98.574585 
2764.000000	98.575166 
2763.000000	98.575615 
2762.000000	98.576027 
2761.000000	98.576535 
2760.000000	98.577192 
2759.000000	98.577930 
2758.000000	98.578634 
2757.000000	98.579277 
2756.000000	98.579934 
2755.000000	98.580669 
2754.000000	98.581462 
2753.000000	98.582244 
2752.000000	98.582984 
2751.000000	98.583699 
2750.000000	98.584382 
2749.000000	98.584984 
2748.000000	98.585492 
2747.000000	98.585992 
2746.000000	98.586592 
2745.000000	98.587294 
2744.000000	98.588008 
2743.000000	98.588688 
2742.000000	98.589396 
2741.000000	98.590171 
2740.000000	98.590908 
2739.000000	98.591460 
2738.000000	98.591844 
2737.000000	98.592263 
2736.000000	98.592878 
2735.000000	98.593628 
2734.000000	98.594307 
2733.000000	98.594798 
2732.000000	98.595140 
2731.000000	98.595433 
2730.000000	98.595765 
2729.000000	98.596231 
2728.000000	98.596933 
2727.000000	98.597885 
2726.000000	98.598947 
2725.000000	98.599901 
2724.000000	98.600622 
2723.000000	98.601139 
2722.000000	98.601578 
2721.000000	98.602043 
2720.000000	98.602532 
2719.000000	98.602971 
2718.000000	98.603320 
2717.000000	98.603653 
2716.000000	98.604058 
2715.000000	98.604496 
2714.000000	98.604827 
2713.000000	98.604988 
2712.000000	98.605102 
2711.000000	98.605332 
2710.000000	98.605688 
2709.000000	98.606070 
2708.000000	98.606487 
2707.000000	98.607037 
2706.000000	98.607630 
2705.000000	98.607893 
2704.000000	98.607543 
2703.000000	98.606803 
2702.000000	98.606320 
2701.000000	98.606543 
2700.000000	98.607334 
2699.000000	98.608166 
2698.000000	98.608628 
2697.000000	98.608685 
2696.000000	98.608578 
2695.000000	98.608636 
2694.000000	98.609094 
2693.000000	98.609853 
2692.000000	98.610450 
2691.000000	98.610497 
2690.000000	98.610179 
2689.000000	98.610020 
2688.000000	98.610056 
2687.000000	98.609667 
2686.000000	98.608514 
2685.000000	98.607266 
2684.000000	98.606963 
2683.000000	98.607800 
2682.000000	98.608919 
2681.000000	98.609375 
2680.000000	98.608921 
2679.000000	98.607937 
2678.000000	98.607044 
2677.000000	98.606842 
2676.000000	98.607555 
2675.000000	98.608699 
2674.000000	98.609409 
2673.000000	98.609250 
2672.000000	98.608442 
2671.000000	98.607272 
2670.000000	98.605761 
2669.000000	98.604115 
2668.000000	98.602943 
2667.000000	98.602591 
2666.000000	98.602592 
2665.000000	98.602172 
2664.000000	98.601062 
2663.000000	98.599452 
2662.000000	98.597414 
2661.000000	98.594902 
2660.000000	98.592276 
2659.000000	98.590310 
2658.000000	98.589463 
2657.000000	98.589340 
2656.000000	98.588998 
2655.000000	98.587697 
2654.000000	98.585432 
2653.000000	98.582923 
2652.000000	98.581176 
2651.000000	98.580861 
2650.000000	98.581823 
2649.000000	98.583045 
2648.000000	98.583276 
2647.000000	98.581973 
2646.000000	98.579755 
2645.000000	98.577916 
2644.000000	98.577283 
2643.000000	98.577556 
2642.000000	98.577713 
2641.000000	98.576988 
2640.000000	98.575415 
2639.000000	98.573638 
2638.000000	98.572424 
2637.000000	98.572198 
2636.000000	98.572794 
2635.000000	98.573671 
2634.000000	98.574538 
2633.000000	98.575592 
2632.000000	98.576974 
2631.000000	98.578221 
2630.000000	98.578656 
2629.000000	98.578227 
2628.000000	98.577544 
2627.000000	98.577110 
2626.000000	98.576821 
2625.000000	98.576325 
2624.000000	98.575594 
2623.000000	98.574980 
2622.000000	98.574846 
2621.000000	98.575234 
2620.000000	98.575819 
2619.000000	98.576155 
2618.000000	98.576061 
2617.000000	98.575735 
2616.000000	98.575451 
2615.000000	98.575258 
2614.000000	98.575088 
2613.000000	98.575033 
2612.000000	98.575281 
2611.000000	98.575837 
2610.000000	98.576481 
2609.000000	98.576985 
2608.000000	98.577275 
2607.000000	98.577393 
2606.000000	98.577434 
2605.000000	98.577535 
2604.000000	98.577795 
2603.000000	98.578189 
2602.000000	98.578622 
2601.000000	98.579023 
2600.000000	98.579388 
2599.000000	98.579742 
2598.000000	98.580102 
2597.000000	98.580473 
2596.000000	98.580849 
2595.000000	98.581223 
2594.000000	98.581588 
2593.000000	98.581945 
2592.000000	98.582302 
2591.000000	98.582666 
2590.000000	98.583045 
2589.000000	98.583443 
2588.000000	98.583864 
2587.000000	98.584308 
2586.000000	98.584767 
2585.000000	98.585232 
2584.000000	98.585697 
2583.000000	98.586164 
2582.000000	98.586641 
2581.000000	98.587136 
2580.000000	98.587655 
2579.000000	98.588196 
2578.000000	98.588760 
2577.000000	98.589341 
2576.000000	98.589936 
2575.000000	98.590540 
2574.000000	98.591146 
2573.000000	98.591752 
2572.000000	98.592359 
2571.000000	98.592965 
2570.000000	98.593565 
2569.000000	98.594159 
2568.000000	98.594750 
2567.000000	98.595344 
2566.000000	98.595937 
2565.000000	98.596523 
2564.000000	98.597097 
2563.000000	98.597660 
2562.000000	98.598211 
2561.000000	98.598751 
2560.000000	98.599275 
2559.000000	98.599781 
2558.000000	98.600265 
2557.000000	98.600726 
2556.000000	98.601167 
2555.000000	98.601597 
2554.000000	98.602018 
2553.000000	98.602429 
2552.000000	98.602836 
2551.000000	98.603268 
2550.000000	98.603749 
2549.000000	98.604233 
2548.000000	98.604638 
2547.000000	98.604935 
2546.000000	98.605187 
2545.000000	98.605443 
2544.000000	98.605706 
2543.000000	98.606003 
2542.000000	98.606404 
2541.000000	98.606951 
2540.000000	98.607590 
2539.000000	98.608167 
2538.000000	98.608461 
2537.000000	98.608328 
2536.000000	98.607901 
2535.000000	98.607549 
2534.000000	98.607552 
2533.000000	98.607903 
2532.000000	98.608406 
2531.000000	98.608778 
2530.000000	98.608713 
2529.000000	98.608148 
2528.000000	98.607544 
2527.000000	98.607534 
2526.000000	98.608090 
2525.000000	98.608384 
2524.000000	98.607707 
2523.000000	98.606193 
2522.000000	98.604533 
2521.000000	98.603283 
2520.000000	98.602632 
2519.000000	98.602460 
2518.000000	98.602332 
2517.000000	98.601911 
2516.000000	98.601604 
2515.000000	98.602359 
2514.000000	98.604574 
2513.000000	98.607490 
2512.000000	98.609762 
2511.000000	98.610414 
2510.000000	98.609230 
2509.000000	98.606906 
2508.000000	98.604872 
2507.000000	98.604193 
2506.000000	98.604410 
2505.000000	98.604038 
2504.000000	98.602351 
2503.000000	98.600083 
2502.000000	98.598214 
2501.000000	98.596918 
2500.000000	98.596097 
2499.000000	98.596111 
2498.000000	98.597286 
2497.000000	98.599148 
2496.000000	98.600685 
2495.000000	98.601194 
2494.000000	98.600721 
2493.000000	98.600119 
2492.000000	98.600750 
2491.000000	98.603541 
2490.000000	98.607935 
2489.000000	98.612104 
2488.000000	98.614554 
2487.000000	98.615242 
2486.000000	98.615056 
2485.000000	98.614666 
2484.000000	98.614011 
2483.000000	98.612595 
2482.000000	98.610138 
2481.000000	98.607303 
2480.000000	98.605680 
2479.000000	98.606495 
2478.000000	98.609335 
2477.000000	98.612454 
2476.000000	98.614377 
2475.000000	98.614736 
2474.000000	98.613737 
2473.000000	98.611677 
2472.000000	98.609102 
2471.000000	98.606694 
2470.000000	98.604763 
2469.000000	98.603324 
2468.000000	98.602639 
2467.000000	98.602929 
2466.000000	98.603524 
2465.000000	98.603220 
2464.000000	98.601806 
2463.000000	98.600485 
2462.000000	98.600355 
2461.000000	98.601090 
2460.000000	98.601514 
2459.000000	98.600999 
2458.000000	98.599869 
2457.000000	98.598856 
2456.000000	98.598558 
2455.000000	98.599112 
2454.000000	98.599975 
2453.000000	98.600242 
2452.000000	98.599573 
2451.000000	98.598691 
2450.000000	98.598666 
2449.000000	98.599825 
2448.000000	98.601551 
2447.000000	98.602946 
2446.000000	98.603566 
2445.000000	98.603536 
2444.000000	98.603222 
2443.000000	98.602893 
2442.000000	98.602582 
2441.000000	98.602233 
2440.000000	98.601922 
2439.000000	98.601846 
2438.000000	98.602088 
2437.000000	98.602465 
2436.000000	98.602657 
2435.000000	98.602480 
2434.000000	98.602005 
2433.000000	98.601521 
2432.000000	98.601381 
2431.000000	98.601780 
2430.000000	98.602601 
2429.000000	98.603448 
2428.000000	98.603892 
2427.000000	98.603733 
2426.000000	98.603127 
2425.000000	98.602572 
2424.000000	98.602626 
2423.000000	98.603482 
2422.000000	98.604859 
2421.000000	98.606339 
2420.000000	98.607718 
2419.000000	98.608828 
2418.000000	98.609294 
2417.000000	98.608911 
2416.000000	98.608181 
2415.000000	98.607993 
2414.000000	98.608624 
2413.000000	98.609464 
2412.000000	98.609845 
2411.000000	98.609769 
2410.000000	98.609675 
2409.000000	98.609802 
2408.000000	98.610048 
2407.000000	98.610189 
2406.000000	98.609984 
2405.000000	98.609189 
2404.000000	98.607706 
2403.000000	98.605720 
2402.000000	98.603659 
2401.000000	98.602093 
2400.000000	98.601622 
2399.000000	98.602552 
2398.000000	98.604501 
2397.000000	98.606509 
2396.000000	98.607772 
2395.000000	98.608207 
2394.000000	98.608285 
2393.000000	98.608527 
2392.000000	98.609115 
2391.000000	98.609745 
2390.000000	98.609788 
2389.000000	98.608772 
2388.000000	98.606824 
2387.000000	98.604642 
2386.000000	98.602989 
2385.000000	98.602239 
2384.000000	98.602204 
2383.000000	98.602179 
2382.000000	98.601301 
2381.000000	98.599180 
2380.000000	98.596287 
2379.000000	98.593617 
2378.000000	98.591871 
2377.000000	98.591011 
2376.000000	98.590524 
2375.000000	98.589950 
2374.000000	98.589197 
2373.000000	98.588456 
2372.000000	98.587774 
2371.000000	98.586844 
2370.000000	98.585461 
2369.000000	98.584010 
2368.000000	98.583071 
2367.000000	98.582642 
2366.000000	98.582032 
2365.000000	98.580653 
2364.000000	98.578532 
2363.000000	98.575994 
2362.000000	98.573157 
2361.000000	98.570147 
2360.000000	98.567384 
2359.000000	98.565224 
2358.000000	98.563611 
2357.000000	98.562108 
2356.000000	98.560479 
2355.000000	98.558842 
2354.000000	98.557183 
2353.000000	98.555340 
2352.000000	98.553345 
2351.000000	98.551546 
2350.000000	98.549939 
2349.000000	98.548045 
2348.000000	98.545655 
2347.000000	98.543019 
2346.000000	98.540591 
2345.000000	98.538613 
2344.000000	98.537206 
2343.000000	98.536341 
2342.000000	98.535458 
2341.000000	98.534009 
2340.000000	98.531840 
2339.000000	98.529395 
2338.000000	98.527263 
2337.000000	98.525605 
2336.000000	98.524059 
2335.000000	98.522090 
2334.000000	98.519672 
2333.000000	98.517555 
2332.000000	98.516807 
2331.000000	98.517748 
2330.000000	98.519359 
2329.000000	98.519707 
2328.000000	98.517668 
2327.000000	98.512995 
2326.000000	98.506669 
2325.000000	98.500473 
2324.000000	98.496546 
2323.000000	98.495973 
2322.000000	98.497759 
2321.000000	98.499856 
2320.000000	98.501152 
2319.000000	98.502133 
2318.000000	98.503254 
2317.000000	98.504149 
2316.000000	98.504313 
2315.000000	98.503549 
2314.000000	98.502096 
2313.000000	98.500324 
2312.000000	98.499241 
2311.000000	98.499353 
2310.000000	98.500150 
2309.000000	98.500265 
2308.000000	98.499630 
2307.000000	98.499265 
2306.000000	98.500088 
2305.000000	98.501650 
2304.000000	98.503252 
2303.000000	98.504328 
2302.000000	98.504374 
2301.000000	98.502884 
2300.000000	98.500460 
2299.000000	98.498205 
2298.000000	98.496504 
2297.000000	98.494556 
2296.000000	98.492020 
2295.000000	98.489050 
2294.000000	98.485501 
2293.000000	98.480743 
2292.000000	98.475296 
2291.000000	98.470392 
2290.000000	98.465927 
2289.000000	98.460273 
2288.000000	98.453230 
2287.000000	98.447337 
2286.000000	98.445213 
2285.000000	98.446787 
2284.000000	98.449971 
2283.000000	98.453060 
2282.000000	98.455424 
2281.000000	98.457409 
2280.000000	98.460253 
2279.000000	98.464687 
2278.000000	98.468868 
2277.000000	98.469909 
2276.000000	98.467921 
2275.000000	98.466260 
2274.000000	98.466964 
2273.000000	98.468166 
2272.000000	98.467362 
2271.000000	98.465013 
2270.000000	98.463389 
2269.000000	98.463257 
2268.000000	98.463297 
2267.000000	98.462026 
2266.000000	98.459261 
2265.000000	98.456174 
2264.000000	98.454320 
2263.000000	98.454100 
2262.000000	98.454174 
2261.000000	98.452884 
2260.000000	98.450124 
2259.000000	98.447198 
2258.000000	98.445140 
2257.000000	98.443892 
2256.000000	98.442990 
2255.000000	98.442277 
2254.000000	98.441775 
2253.000000	98.441361 
2252.000000	98.440817 
2251.000000	98.440009 
2250.000000	98.438938 
2249.000000	98.437716 
2248.000000	98.436486 
2247.000000	98.435303 
2246.000000	98.434140 
2245.000000	98.432970 
2244.000000	98.431772 
2243.000000	98.430534 
2242.000000	98.429252 
2241.000000	98.427927 
2240.000000	98.426572 
2239.000000	98.425200 
2238.000000	98.423817 
2237.000000	98.422414 
2236.000000	98.420986 
2235.000000	98.419545 
2234.000000	98.418110 
2233.000000	98.416693 
2232.000000	98.415284 
2231.000000	98.413860 
2230.000000	98.412397 
2229.000000	98.410885 
2228.000000	98.409321 
2227.000000	98.407663 
2226.000000	98.405893 
2225.000000	98.404053 
2224.000000	98.402267 
2223.000000	98.400746 
2222.000000	98.399579 
2221.000000	98.398482 
2220.000000	98.396989 
2219.000000	98.395028 
2218.000000	98.393124 
2217.000000	98.391809 
2216.000000	98.390918 
2215.000000	98.389715 
2214.000000	98.387734 
2213.000000	98.385261 
2212.000000	98.382901 
2211.000000	98.380797 
2210.000000	98.378521 
2209.000000	98.375841 
2208.000000	98.373280 
2207.000000	98.371559 
2206.000000	98.370705 
2205.000000	98.370266 
2204.000000	98.370153 
2203.000000	98.370306 
2202.000000	98.369604 
2201.000000	98.366930 
2200.000000	98.363523 
2199.000000	98.361982 
2198.000000	98.362159 
2197.000000	98.360936 
2196.000000	98.356937 
2195.000000	98.352651 
2194.000000	98.350473 
2193.000000	98.348699 
2192.000000	98.343430 
2191.000000	98.333303 
2190.000000	98.321070 
2189.000000	98.311062 
2188.000000	98.305608 
2187.000000	98.303768 
2186.000000	98.303422 
2185.000000	98.304689 
2184.000000	98.309914 
2183.000000	98.318922 
2182.000000	98.326203 
2181.000000	98.325984 
2180.000000	98.319044 
2179.000000	98.311195 
2178.000000	98.305968 
2177.000000	98.302764 
2176.000000	98.301481 
2175.000000	98.303880 
2174.000000	98.309303 
2173.000000	98.313545 
2172.000000	98.313952 
2171.000000	98.312111 
2170.000000	98.309874 
2169.000000	98.306325 
2168.000000	98.300634 
2167.000000	98.294438 
2166.000000	98.288669 
2165.000000	98.280832 
2164.000000	98.268657 
2163.000000	98.255074 
2162.000000	98.247395 
2161.000000	98.252740 
2160.000000	98.274684 
2159.000000	98.310386 
2158.000000	98.348555 
2157.000000	98.375440 
2156.000000	98.385986 
2155.000000	98.385413 
2154.000000	98.381301 
2153.000000	98.377325 
2152.000000	98.374213 
2151.000000	98.372544 
2150.000000	98.372454 
2149.000000	98.373475 
2148.000000	98.376697 
2147.000000	98.384681 
2146.000000	98.397464 
2145.000000	98.411110 
2144.000000	98.422199 
2143.000000	98.431164 
2142.000000	98.438928 
2141.000000	98.442943 
2140.000000	98.439915 
2139.000000	98.431261 
2138.000000	98.423236 
2137.000000	98.421576 
2136.000000	98.427284 
2135.000000	98.437259 
2134.000000	98.447505 
2133.000000	98.455977 
2132.000000	98.463195 
2131.000000	98.469995 
2130.000000	98.474695 
2129.000000	98.473645 
2128.000000	98.465205 
2127.000000	98.452422 
2126.000000	98.441233 
2125.000000	98.435839 
2124.000000	98.435781 
2123.000000	98.437162 
2122.000000	98.436629 
2121.000000	98.434401 
2120.000000	98.432989 
2119.000000	98.433049 
2118.000000	98.431984 
2117.000000	98.427552 
2116.000000	98.421347 
2115.000000	98.416723 
2114.000000	98.414683 
2113.000000	98.414234 
2112.000000	98.415784 
2111.000000	98.420550 
2110.000000	98.426457 
2109.000000	98.428489 
2108.000000	98.424463 
2107.000000	98.417558 
2106.000000	98.412052 
2105.000000	98.408708 
2104.000000	98.405807 
2103.000000	98.402567 
2102.000000	98.399581 
2101.000000	98.397181 
2100.000000	98.395079 
2099.000000	98.393155 
2098.000000	98.391731 
2097.000000	98.391492 
2096.000000	98.393271 
2095.000000	98.396961 
2094.000000	98.400499 
2093.000000	98.401316 
2092.000000	98.398896 
2091.000000	98.394761 
2090.000000	98.390228 
2089.000000	98.385249 
2088.000000	98.379452 
2087.000000	98.373153 
2086.000000	98.367198 
2085.000000	98.362498 
2084.000000	98.359851 
2083.000000	98.359539 
2082.000000	98.360577 
2081.000000	98.360938 
2080.000000	98.359310 
2079.000000	98.356064 
2078.000000	98.352374 
2077.000000	98.348896 
2076.000000	98.345575 
2075.000000	98.342192 
2074.000000	98.338554 
2073.000000	98.334588 
2072.000000	98.330711 
2071.000000	98.327768 
2070.000000	98.326191 
2069.000000	98.325393 
2068.000000	98.324221 
2067.000000	98.321862 
2066.000000	98.318290 
2065.000000	98.314375 
2064.000000	98.311457 
2063.000000	98.310165 
2062.000000	98.309508 
2061.000000	98.307656 
2060.000000	98.303782 
2059.000000	98.298611 
2058.000000	98.293415 
2057.000000	98.289168 
2056.000000	98.286494 
2055.000000	98.285221 
2054.000000	98.283686 
2053.000000	98.279701 
2052.000000	98.272715 
2051.000000	98.264457 
2050.000000	98.257379 
2049.000000	98.252706 
2048.000000	98.250526 
2047.000000	98.250663 
2046.000000	98.252359 
2045.000000	98.253829 
2044.000000	98.253454 
2043.000000	98.251015 
2042.000000	98.247201 
2041.000000	98.242759 
2040.000000	98.238670 
2039.000000	98.236183 
2038.000000	98.235814 
2037.000000	98.236816 
2036.000000	98.238106 
2035.000000	98.239134 
2034.000000	98.239428 
2033.000000	98.238418 
2032.000000	98.236324 
2031.000000	98.234130 
2030.000000	98.232173 
2029.000000	98.229893 
2028.000000	98.227409 
2027.000000	98.225959 
2026.000000	98.225995 
2025.000000	98.225989 
2024.000000	98.224118 
2023.000000	98.220448 
2022.000000	98.216685 
2021.000000	98.214250 
2020.000000	98.213214 
2019.000000	98.212778 
2018.000000	98.211975 
2017.000000	98.210208 
2016.000000	98.208117 
2015.000000	98.207646 
2014.000000	98.210263 
2013.000000	98.215156 
2012.000000	98.219524 
2011.000000	98.220835 
2010.000000	98.218394 
2009.000000	98.213671 
2008.000000	98.209340 
2007.000000	98.206834 
2006.000000	98.205129 
2005.000000	98.202885 
2004.000000	98.201124 
2003.000000	98.201605 
2002.000000	98.202875 
2001.000000	98.201175 
2000.000000	98.196128 
1999.000000	98.191939 
1998.000000	98.191426 
1997.000000	98.192394 
1996.000000	98.191845 
1995.000000	98.190527 
1994.000000	98.190290 
1993.000000	98.189625 
1992.000000	98.185841 
1991.000000	98.180308 
1990.000000	98.177270 
1989.000000	98.178000 
1988.000000	98.179434 
1987.000000	98.178252 
1986.000000	98.174191 
1985.000000	98.169425 
1984.000000	98.166107 
1983.000000	98.164311 
1982.000000	98.161783 
1981.000000	98.156994 
1980.000000	98.152677 
1979.000000	98.153928 
1978.000000	98.162277 
1977.000000	98.174144 
1976.000000	98.185906 
1975.000000	98.197179 
1974.000000	98.207237 
1973.000000	98.212825 
1972.000000	98.212210 
1971.000000	98.208029 
1970.000000	98.203768 
1969.000000	98.199825 
1968.000000	98.195692 
1967.000000	98.193475 
1966.000000	98.195804 
1965.000000	98.201982 
1964.000000	98.208994 
1963.000000	98.215345 
1962.000000	98.221797 
1961.000000	98.228950 
1960.000000	98.235808 
1959.000000	98.240488 
1958.000000	98.241686 
1957.000000	98.240171 
1956.000000	98.239180 
1955.000000	98.241871 
1954.000000	98.247794 
1953.000000	98.253027 
1952.000000	98.254583 
1951.000000	98.253401 
1950.000000	98.252470 
1949.000000	98.253521 
1948.000000	98.256600 
1947.000000	98.261403 
1946.000000	98.267306 
1945.000000	98.272977 
1944.000000	98.277278 
1943.000000	98.280215 
1942.000000	98.282342 
1941.000000	98.283876 
1940.000000	98.284985 
1939.000000	98.286190 
1938.000000	98.287950 
1937.000000	98.290225 
1936.000000	98.292729 
1935.000000	98.295281 
1934.000000	98.297746 
1933.000000	98.299852 
1932.000000	98.301421 
1931.000000	98.302693 
1930.000000	98.304092 
1929.000000	98.305793 
1928.000000	98.307756 
1927.000000	98.309904 
1926.000000	98.312028 
1925.000000	98.313789 
1924.000000	98.315110 
1923.000000	98.316424 
1922.000000	98.318139 
1921.000000	98.320065 
1920.000000	98.321666 
1919.000000	98.322670 
1918.000000	98.323212 
1917.000000	98.323631 
1916.000000	98.324326 
1915.000000	98.325528 
1914.000000	98.326972 
1913.000000	98.328070 
1912.000000	98.328673 
1911.000000	98.329353 
1910.000000	98.330445 
1909.000000	98.331447 
1908.000000	98.331840 
1907.000000	98.331767 
1906.000000	98.331646 
1905.000000	98.331692 
1904.000000	98.332039 
1903.000000	98.332860 
1902.000000	98.333940 
1901.000000	98.334789 
1900.000000	98.335316 
1899.000000	98.335918 
1898.000000	98.336852 
1897.000000	98.337872 
1896.000000	98.338607 
1895.000000	98.339052 
1894.000000	98.339435 
1893.000000	98.339881 
1892.000000	98.340442 
1891.000000	98.341178 
1890.000000	98.342074 
1889.000000	98.343054 
1888.000000	98.344153 
1887.000000	98.345421 
1886.000000	98.346663 
1885.000000	98.347576 
1884.000000	98.348103 
1883.000000	98.348528 
1882.000000	98.349174 
1881.000000	98.350091 
1880.000000	98.351217 
1879.000000	98.352555 
1878.000000	98.354030 
1877.000000	98.355441 
1876.000000	98.356737 
1875.000000	98.358134 
1874.000000	98.359668 
1873.000000	98.360918 
1872.000000	98.361605 
1871.000000	98.362140 
1870.000000	98.363081 
1869.000000	98.364260 
1868.000000	98.365299 
1867.000000	98.366539 
1866.000000	98.368331 
1865.000000	98.370366 
1864.000000	98.372263 
1863.000000	98.374203 
1862.000000	98.376332 
1861.000000	98.378065 
1860.000000	98.378906 
1859.000000	98.379494 
1858.000000	98.380834 
1857.000000	98.382863 
1856.000000	98.384784 
1855.000000	98.386395 
1854.000000	98.388102 
1853.000000	98.389957 
1852.000000	98.391674 
1851.000000	98.393255 
1850.000000	98.394964 
1849.000000	98.396942 
1848.000000	98.399131 
1847.000000	98.401469 
1846.000000	98.403724 
1845.000000	98.405455 
1844.000000	98.406732 
1843.000000	98.408168 
1842.000000	98.409570 
1841.000000	98.410218 
1840.000000	98.410004 
1839.000000	98.409571 
1838.000000	98.409687 
1837.000000	98.410469 
1836.000000	98.411696 
1835.000000	98.413356 
1834.000000	98.415296 
1833.000000	98.416977 
1832.000000	98.417854 
1831.000000	98.417903 
1830.000000	98.417808 
1829.000000	98.418248 
1828.000000	98.419126 
1827.000000	98.420138 
1826.000000	98.421178 
1825.000000	98.422085 
1824.000000	98.422695 
1823.000000	98.423177 
1822.000000	98.423830 
1821.000000	98.424691 
1820.000000	98.425630 
1819.000000	98.426709 
1818.000000	98.427974 
1817.000000	98.428993 
1816.000000	98.429381 
1815.000000	98.429360 
1814.000000	98.429476 
1813.000000	98.429865 
1812.000000	98.430229 
1811.000000	98.430505 
1810.000000	98.430906 
1809.000000	98.431265 
1808.000000	98.431296 
1807.000000	98.431193 
1806.000000	98.431280 
1805.000000	98.431487 
1804.000000	98.431629 
1803.000000	98.431906 
1802.000000	98.432609 
1801.000000	98.433513 
1800.000000	98.434115 
1799.000000	98.434492 
1798.000000	98.434975 
1797.000000	98.435350 
1796.000000	98.435413 
1795.000000	98.435728 
1794.000000	98.436922 
1793.000000	98.438423 
1792.000000	98.439053 
1791.000000	98.439124 
1790.000000	98.439541 
1789.000000	98.439867 
1788.000000	98.439414 
1787.000000	98.438814 
1786.000000	98.439269 
1785.000000	98.440515 
1784.000000	98.441192 
1783.000000	98.440913 
1782.000000	98.440437 
1781.000000	98.440549 
1780.000000	98.441400 
1779.000000	98.442822 
1778.000000	98.444559 
1777.000000	98.445932 
1776.000000	98.446164 
1775.000000	98.445016 
1774.000000	98.443385 
1773.000000	98.442984 
1772.000000	98.444257 
1771.000000	98.446299 
1770.000000	98.449277 
1769.000000	98.453682 
1768.000000	98.458121 
1767.000000	98.460462 
1766.000000	98.460489 
1765.000000	98.459655 
1764.000000	98.458997 
1763.000000	98.458745 
1762.000000	98.459559 
1761.000000	98.461995 
1760.000000	98.465114 
1759.000000	98.467997 
1758.000000	98.470836 
1757.000000	98.474073 
1756.000000	98.477045 
1755.000000	98.478736 
1754.000000	98.480106 
1753.000000	98.483199 
1752.000000	98.488073 
1751.000000	98.491984 
1750.000000	98.493356 
1749.000000	98.493543 
1748.000000	98.493671 
1747.000000	98.493371 
1746.000000	98.492981 
1745.000000	98.493913 
1744.000000	98.496108 
1743.000000	98.497919 
1742.000000	98.498735 
1741.000000	98.499402 
1740.000000	98.500381 
1739.000000	98.501269 
1738.000000	98.501784 
1737.000000	98.502083 
1736.000000	98.502549 
1735.000000	98.503559 
1734.000000	98.505016 
1733.000000	98.506285 
1732.000000	98.507120 
1731.000000	98.507806 
1730.000000	98.508594 
1729.000000	98.509463 
1728.000000	98.510273 
1727.000000	98.510983 
1726.000000	98.511649 
1725.000000	98.512307 
1724.000000	98.512951 
1723.000000	98.513579 
1722.000000	98.514190 
1721.000000	98.514780 
1720.000000	98.515350 
1719.000000	98.515896 
1718.000000	98.516418 
1717.000000	98.516915 
1716.000000	98.517388 
1715.000000	98.517852 
1714.000000	98.518319 
1713.000000	98.518787 
1712.000000	98.519252 
1711.000000	98.519711 
1710.000000	98.520171 
1709.000000	98.520637 
1708.000000	98.521115 
1707.000000	98.521606 
1706.000000	98.522113 
1705.000000	98.522632 
1704.000000	98.523163 
1703.000000	98.523710 
1702.000000	98.524281 
1701.000000	98.524873 
1700.000000	98.525471 
1699.000000	98.526065 
1698.000000	98.526654 
1697.000000	98.527239 
1696.000000	98.527820 
1695.000000	98.528395 
1694.000000	98.528963 
1693.000000	98.529523 
1692.000000	98.530079 
1691.000000	98.530643 
1690.000000	98.531222 
1689.000000	98.531809 
1688.000000	98.532393 
1687.000000	98.532963 
1686.000000	98.533517 
1685.000000	98.534062 
1684.000000	98.534607 
1683.000000	98.535154 
1682.000000	98.535698 
1681.000000	98.536234 
1680.000000	98.536768 
1679.000000	98.537310 
1678.000000	98.537841 
1677.000000	98.538354 
1676.000000	98.538943 
1675.000000	98.539669 
1674.000000	98.540354 
1673.000000	98.540840 
1672.000000	98.541136 
1671.000000	98.541288 
1670.000000	98.541302 
1669.000000	98.541397 
1668.000000	98.541910 
1667.000000	98.542657 
1666.000000	98.543181 
1665.000000	98.543231 
1664.000000	98.542912 
1663.000000	98.542618 
1662.000000	98.542462 
1661.000000	98.542406 
1660.000000	98.542712 
1659.000000	98.543270 
1658.000000	98.543491 
1657.000000	98.543227 
1656.000000	98.543068 
1655.000000	98.543207 
1654.000000	98.543136 
1653.000000	98.542871 
1652.000000	98.542859 
1651.000000	98.542825 
1650.000000	98.543091 
1649.000000	98.543757 
1648.000000	98.544817 
1647.000000	98.545809 
1646.000000	98.546203 
1645.000000	98.545821 
1644.000000	98.545312 
1643.000000	98.545416 
1642.000000	98.546095 
1641.000000	98.546997 
1640.000000	98.548060 
1639.000000	98.549156 
1638.000000	98.549955 
1637.000000	98.550322 
1636.000000	98.550778 
1635.000000	98.551310 
1634.000000	98.551493 
1633.000000	98.551838 
1632.000000	98.553042 
1631.000000	98.555017 
1630.000000	98.556893 
1629.000000	98.558013 
1628.000000	98.558747 
1627.000000	98.559649 
1626.000000	98.560595 
1625.000000	98.561510 
1624.000000	98.562923 
1623.000000	98.565073 
1622.000000	98.567181 
1621.000000	98.568812 
1620.000000	98.570471 
1619.000000	98.572419 
1618.000000	98.574179 
1617.000000	98.575494 
1616.000000	98.577083 
1615.000000	98.578771 
1614.000000	98.579740 
1613.000000	98.580519 
1612.000000	98.582347 
1611.000000	98.585332 
1610.000000	98.587940 
1609.000000	98.589347 
1608.000000	98.590605 
1607.000000	98.592416 
1606.000000	98.593918 
1605.000000	98.594809 
1604.000000	98.596117 
1603.000000	98.598117 
1602.000000	98.599892 
1601.000000	98.601233 
1600.000000	98.602857 
1599.000000	98.604524 
1598.000000	98.605220 
1597.000000	98.605070 
1596.000000	98.605284 
1595.000000	98.606358 
1594.000000	98.607552 
1593.000000	98.608359 
1592.000000	98.609139 
1591.000000	98.610055 
1590.000000	98.610646 
1589.000000	98.610809 
1588.000000	98.611119 
1587.000000	98.611829 
1586.000000	98.612442 
1585.000000	98.612654 
1584.000000	98.612865 
1583.000000	98.613271 
1582.000000	98.613476 
1581.000000	98.613433 
1580.000000	98.613549 
1579.000000	98.613709 
1578.000000	98.613336 
1577.000000	98.612567 
1576.000000	98.612387 
1575.000000	98.612683 
1574.000000	98.612388 
1573.000000	98.611491 
1572.000000	98.610636 
1571.000000	98.610189 
1570.000000	98.609947 
1569.000000	98.609802 
1568.000000	98.609839 
1567.000000	98.609622 
1566.000000	98.608793 
1565.000000	98.607603 
1564.000000	98.606481 
1563.000000	98.605299 
1562.000000	98.603705 
1561.000000	98.602117 
1560.000000	98.601517 
1559.000000	98.601294 
1558.000000	98.599439 
1557.000000	98.596271 
1556.000000	98.593417 
1555.000000	98.591280 
1554.000000	98.589305 
1553.000000	98.587132 
1552.000000	98.584909 
1551.000000	98.582929 
1550.000000	98.581262 
1549.000000	98.579629 
1548.000000	98.577787 
1547.000000	98.575729 
1546.000000	98.573308 
1545.000000	98.570168 
1544.000000	98.566484 
1543.000000	98.563089 
1542.000000	98.560507 
1541.000000	98.557956 
1540.000000	98.555094 
1539.000000	98.552358 
1538.000000	98.548488 
1537.000000	98.543168 
1536.000000	98.537390 
1535.000000	98.532327 
1534.000000	98.528225 
1533.000000	98.524311 
1532.000000	98.520061 
1531.000000	98.516236 
1530.000000	98.513083 
1529.000000	98.509223 
1528.000000	98.503723 
1527.000000	98.497743 
1526.000000	98.492869 
1525.000000	98.488561 
1524.000000	98.483579 
1523.000000	98.478241 
1522.000000	98.473459 
1521.000000	98.468458 
1520.000000	98.462032 
1519.000000	98.455164 
1518.000000	98.449704 
1517.000000	98.445934 
1516.000000	98.442527 
1515.000000	98.438681 
1514.000000	98.435214 
1513.000000	98.432282 
1512.000000	98.427860 
1511.000000	98.421669 
1510.000000	98.416249 
1509.000000	98.412666 
1508.000000	98.408384 
1507.000000	98.403051 
1506.000000	98.398513 
1505.000000	98.391449 
1504.000000	98.382386 
1503.000000	98.374003 
1502.000000	98.367052 
1501.000000	98.360766 
1500.000000	98.353575 
1499.000000	98.345730 
1498.000000	98.340666 
1497.000000	98.339444 
1496.000000	98.338182 
1495.000000	98.335710 
1494.000000	98.334568 
1493.000000	98.334680 
1492.000000	98.332978 
1491.000000	98.327485 
1490.000000	98.319830 
1489.000000	98.311565 
1488.000000	98.302459 
1487.000000	98.294844 
1486.000000	98.289972 
1485.000000	98.285842 
1484.000000	98.281506 
1483.000000	98.277516 
1482.000000	98.274355 
1481.000000	98.271069 
1480.000000	98.266999 
1479.000000	98.263867 
1478.000000	98.263133 
1477.000000	98.263084 
1476.000000	98.261266 
1475.000000	98.259194 
1474.000000	98.258193 
1473.000000	98.255856 
1472.000000	98.250000 
1471.000000	98.244031 
1470.000000	98.241530 
1469.000000	98.241075 
1468.000000	98.239238 
1467.000000	98.235529 
1466.000000	98.231668 
1465.000000	98.227763 
1464.000000	98.223000 
1463.000000	98.218006 
1462.000000	98.214795 
1461.000000	98.213148 
1460.000000	98.210754 
1459.000000	98.205514 
1458.000000	98.198862 
1457.000000	98.193497 
1456.000000	98.185783 
1455.000000	98.173737 
1454.000000	98.162401 
1453.000000	98.154413 
1452.000000	98.148154 
1451.000000	98.142452 
1450.000000	98.139967 
1449.000000	98.141925 
1448.000000	98.143155 
1447.000000	98.139349 
1446.000000	98.132919 
1445.000000	98.128396 
1444.000000	98.126214 
1443.000000	98.123496 
1442.000000	98.120572 
1441.000000	98.120508 
1440.000000	98.122470 
1439.000000	98.121793 
1438.000000	98.118800 
1437.000000	98.118069 
1436.000000	98.119470 
1435.000000	98.119513 
1434.000000	98.119300 
1433.000000	98.119503 
1432.000000	98.117914 
1431.000000	98.112231 
1430.000000	98.105416 
1429.000000	98.102073 
1428.000000	98.100653 
1427.000000	98.097398 
1426.000000	98.092296 
1425.000000	98.089575 
1424.000000	98.090046 
1423.000000	98.088280 
1422.000000	98.082522 
1421.000000	98.076151 
1420.000000	98.069435 
1419.000000	98.057995 
1418.000000	98.044535 
1417.000000	98.033912 
1416.000000	98.023101 
1415.000000	98.008232 
1414.000000	97.990604 
1413.000000	97.974865 
1412.000000	97.962721 
1411.000000	97.952488 
1410.000000	97.944918 
1409.000000	97.942013 
1408.000000	97.942182 
1407.000000	97.943132 
1406.000000	97.945974 
1405.000000	97.954726 
1404.000000	97.969373 
1403.000000	97.984678 
1402.000000	97.998435 
1401.000000	98.012707 
1400.000000	98.028278 
1399.000000	98.040686 
1398.000000	98.043920 
1397.000000	98.034837 
1396.000000	98.014809 
1395.000000	97.993278 
1394.000000	97.986117 
1393.000000	98.002373 
1392.000000	98.034565 
1391.000000	98.067171 
1390.000000	98.090077 
1389.000000	98.102265 
1388.000000	98.106923 
1387.000000	98.107028 
1386.000000	98.105204 
1385.000000	98.104606 
1384.000000	98.107148 
1383.000000	98.112085 
1382.000000	98.118136 
1381.000000	98.125402 
1380.000000	98.135003 
1379.000000	98.147024 
1378.000000	98.160111 
1377.000000	98.173490 
1376.000000	98.187692 
1375.000000	98.202934 
1374.000000	98.218316 
1373.000000	98.233192 
1372.000000	98.247387 
1371.000000	98.260820 
1370.000000	98.273456 
1369.000000	98.286935 
1368.000000	98.302654 
1367.000000	98.318775 
1366.000000	98.332371 
1365.000000	98.343043 
1364.000000	98.352851 
1363.000000	98.363679 
1362.000000	98.375258 
1361.000000	98.386359 
1360.000000	98.396892 
1359.000000	98.407418 
1358.000000	98.417885 
1357.000000	98.428417 
1356.000000	98.439403 
1355.000000	98.450336 
1354.000000	98.460062 
1353.000000	98.468294 
1352.000000	98.476077 
1351.000000	98.484683 
1350.000000	98.492918 
1349.000000	98.500022 
1348.000000	98.505978 
1347.000000	98.510205 
1346.000000	98.512986 
1345.000000	98.516807 
1344.000000	98.523516 
1343.000000	98.531074 
1342.000000	98.535598 
1341.000000	98.536448 
1340.000000	98.536925 
1339.000000	98.539617 
1338.000000	98.544151 
1337.000000	98.549611 
1336.000000	98.555357 
1335.000000	98.560172 
1334.000000	98.563446 
1333.000000	98.566550 
1332.000000	98.570630 
1331.000000	98.573869 
1330.000000	98.573707 
1329.000000	98.571397 
1328.000000	98.570619 
1327.000000	98.572059 
1326.000000	98.572868 
1325.000000	98.572460 
1324.000000	98.573124 
1323.000000	98.575378 
1322.000000	98.577155 
1321.000000	98.577539 
1320.000000	98.577925 
1319.000000	98.579581 
1318.000000	98.582811 
1317.000000	98.587952 
1316.000000	98.594675 
1315.000000	98.600715 
1314.000000	98.603932 
1313.000000	98.605162 
1312.000000	98.606896 
1311.000000	98.609763 
1310.000000	98.612546 
1309.000000	98.614826 
1308.000000	98.616971 
1307.000000	98.618265 
1306.000000	98.617153 
1305.000000	98.614320 
1304.000000	98.612156 
1303.000000	98.611570 
1302.000000	98.611344 
1301.000000	98.610448 
1300.000000	98.608990 
1299.000000	98.607398 
1298.000000	98.606534 
1297.000000	98.607911 
1296.000000	98.612014 
1295.000000	98.616566 
1294.000000	98.618559 
1293.000000	98.617647 
1292.000000	98.615944 
1291.000000	98.615070 
1290.000000	98.614938 
1289.000000	98.614978 
1288.000000	98.614879 
1287.000000	98.614191 
1286.000000	98.612695 
1285.000000	98.611145 
1284.000000	98.610661 
1283.000000	98.611678 
1282.000000	98.613771 
1281.000000	98.615754 
1280.000000	98.616048 
1279.000000	98.613632 
1278.000000	98.609506 
1277.000000	98.606167 
1276.000000	98.604860 
1275.000000	98.604139 
1274.000000	98.602057 
1273.000000	98.598635 
1272.000000	98.595110 
1271.000000	98.591746 
1270.000000	98.587616 
1269.000000	98.581863 
1268.000000	98.574245 
1267.000000	98.565165 
1266.000000	98.556032 
1265.000000	98.548361 
1264.000000	98.541986 
1263.000000	98.535498 
1262.000000	98.528724 
1261.000000	98.523047 
1260.000000	98.518697 
1259.000000	98.513492 
1258.000000	98.505992 
1257.000000	98.498120 
1256.000000	98.492897 
1255.000000	98.490627 
1254.000000	98.488795 
1253.000000	98.485105 
1252.000000	98.479663 
1251.000000	98.474722 
1250.000000	98.473200 
1249.000000	98.476752 
1248.000000	98.484269 
1247.000000	98.492513 
1246.000000	98.498524 
1245.000000	98.500371 
1244.000000	98.496451 
1243.000000	98.487483 
1242.000000	98.479645 
1241.000000	98.481266 
1240.000000	98.493605 
1239.000000	98.507571 
1238.000000	98.512705 
1237.000000	98.507342 
1236.000000	98.497167 
1235.000000	98.486699 
1234.000000	98.476080 
1233.000000	98.465073 
1232.000000	98.455602 
1231.000000	98.449720 
1230.000000	98.447798 
1229.000000	98.448810 
1228.000000	98.450381 
1227.000000	98.449276 
1226.000000	98.444368 
1225.000000	98.438699 
1224.000000	98.436222 
1223.000000	98.436946 
1222.000000	98.437618 
1221.000000	98.436581 
1220.000000	98.435232 
1219.000000	98.434826 
1218.000000	98.434548 
1217.000000	98.432900 
1216.000000	98.428853 
1215.000000	98.421572 
1214.000000	98.411008 
1213.000000	98.398878 
1212.000000	98.387273 
1211.000000	98.376244 
1210.000000	98.364010 
1209.000000	98.349300 
1208.000000	98.332386 
1207.000000	98.314470 
1206.000000	98.297174 
1205.000000	98.281616 
1204.000000	98.266642 
1203.000000	98.248931 
1202.000000	98.226449 
1201.000000	98.201024 
1200.000000	98.175998 
1199.000000	98.152274 
1198.000000	98.128725 
1197.000000	98.105596 
1196.000000	98.084795 
1195.000000	98.066854 
1194.000000	98.049598 
1193.000000	98.030175 
1192.000000	98.007021 
1191.000000	97.979950 
1190.000000	97.949791 
1189.000000	97.918120 
1188.000000	97.886132 
1187.000000	97.853555 
1186.000000	97.819501 
1185.000000	97.784367 
1184.000000	97.750073 
1183.000000	97.718376 
1182.000000	97.689351 
1181.000000	97.661301 
1180.000000	97.631700 
1179.000000	97.598716 
1178.000000	97.562795 
1177.000000	97.526460 
1176.000000	97.491587 
1175.000000	97.457005 
1174.000000	97.419542 
1173.000000	97.377475 
1172.000000	97.332170 
1171.000000	97.286495 
1170.000000	97.242401 
1169.000000	97.200031 
1168.000000	97.158688 
1167.000000	97.118905 
1166.000000	97.084065 
1165.000000	97.059445 
1164.000000	97.048651 
1163.000000	97.050833 
1162.000000	97.061484 
1161.000000	97.075506 
1160.000000	97.088948 
1159.000000	97.098784 
1158.000000	97.102840 
1157.000000	97.099704 
1156.000000	97.087641 
1155.000000	97.064770 
1154.000000	97.032062 
1153.000000	96.994991 
1152.000000	96.959646 
1151.000000	96.927378 
1150.000000	96.895355 
1149.000000	96.862019 
1148.000000	96.829385 
1147.000000	96.799725 
1146.000000	96.772376 
1145.000000	96.744617 
1144.000000	96.713806 
1143.000000	96.678107 
1142.000000	96.637292 
1141.000000	96.593765 
1140.000000	96.551165 
1139.000000	96.511211 
1138.000000	96.473077 
1137.000000	96.435740 
1136.000000	96.398851 
1135.000000	96.361363 
1134.000000	96.322089 
1133.000000	96.282204 
1132.000000	96.244245 
1131.000000	96.207621 
1130.000000	96.168361 
1129.000000	96.124883 
1128.000000	96.080594 
1127.000000	96.038312 
1126.000000	95.995257 
1125.000000	95.947025 
1124.000000	95.894222 
1123.000000	95.841334 
1122.000000	95.790459 
1121.000000	95.740016 
1120.000000	95.689036 
1119.000000	95.638866 
1118.000000	95.590362 
1117.000000	95.542392 
1116.000000	95.493522 
1115.000000	95.442992 
1114.000000	95.390042 
1113.000000	95.334346 
1112.000000	95.277134 
1111.000000	95.220280 
1110.000000	95.164521 
1109.000000	95.110258 
1108.000000	95.058306 
1107.000000	95.007982 
1106.000000	94.956194 
1105.000000	94.901347 
1104.000000	94.846716 
1103.000000	94.796772 
1102.000000	94.751258 
1101.000000	94.706360 
1100.000000	94.659845 
1099.000000	94.613545 
1098.000000	94.568502 
1097.000000	94.522884 
1096.000000	94.474528 
1095.000000	94.422809 
1094.000000	94.367127 
1093.000000	94.306041 
1092.000000	94.238996 
1091.000000	94.167516 
1090.000000	94.094174 
1089.000000	94.021345 
1088.000000	93.950758 
1087.000000	93.882713 
1086.000000	93.815727 
1085.000000	93.748275 
1084.000000	93.680489 
1083.000000	93.612861 
1082.000000	93.544480 
1081.000000	93.474803 
1080.000000	93.406098 
1079.000000	93.341267 
1078.000000	93.279960 
1077.000000	93.220074 
1076.000000	93.162352 
1075.000000	93.109566 
1074.000000	93.061474 
1073.000000	93.014671 
1072.000000	92.966491 
1071.000000	92.913181 
1070.000000	92.844654 
1069.000000	92.749876 
1068.000000	92.632254 
1067.000000	92.515372 
1066.000000	92.426247 
1065.000000	92.372416 
1064.000000	92.338341 
1063.000000	92.300201 
1062.000000	92.240625 
1061.000000	92.153410 
1060.000000	92.043355 
1059.000000	91.925042 
1058.000000	91.816510 
1057.000000	91.728132 
1056.000000	91.656048 
1055.000000	91.586426 
1054.000000	91.506807 
1053.000000	91.415230 
1052.000000	91.319773 
1051.000000	91.229326 
1050.000000	91.145091 
1049.000000	91.061923 
1048.000000	90.976299 
1047.000000	90.890172 
1046.000000	90.807952 
1045.000000	90.732678 
1044.000000	90.664624 
1043.000000	90.600879 
1042.000000	90.536429 
1041.000000	90.467937 
1040.000000	90.396727 
1039.000000	90.327370 
1038.000000	90.264626 
1037.000000	90.212358 
1036.000000	90.172346 
1035.000000	90.141767 
1034.000000	90.114252 
1033.000000	90.085045 
1032.000000	90.051454 
1031.000000	90.007237 
1030.000000	89.944628 
1029.000000	89.868537 
1028.000000	89.802582 
1027.000000	89.770639 
1026.000000	89.773034 
1025.000000	89.787519 
1024.000000	89.792477 
1023.000000	89.782187 
1022.000000	89.761578 
1021.000000	89.736411 
1020.000000	89.710612 
1019.000000	89.685894 
1018.000000	89.660764 
1017.000000	89.633445 
1016.000000	89.606124 
1015.000000	89.582487 
1014.000000	89.562149 
1013.000000	89.542489 
1012.000000	89.524903 
1011.000000	89.513363 
1010.000000	89.507182 
1009.000000	89.500927 
1008.000000	89.491608 
1007.000000	89.481167 
1006.000000	89.472360 
1005.000000	89.466923 
1004.000000	89.467066 
1003.000000	89.473765 
1002.000000	89.483993 
1001.000000	89.494063 
1000.000000	89.504753 
999.000000	 89.518892 
998.000000	 89.535713 
997.000000	 89.552356 
996.000000	 89.568936 
995.000000	 89.586793 
994.000000	 89.603769 
993.000000	 89.617136 
992.000000	 89.629924 
991.000000	 89.648745 
990.000000	 89.676238 
989.000000	 89.710063 
988.000000	 89.747143 
987.000000	 89.783918 
986.000000	 89.815444 
985.000000	 89.840746 
984.000000	 89.866783 
983.000000	 89.900889 
982.000000	 89.942115 
981.000000	 89.985636 
980.000000	 90.032169 
979.000000	 90.086310 
978.000000	 90.147994 
977.000000	 90.212835 
976.000000	 90.279282 
975.000000	 90.348608 
974.000000	 90.419663 
973.000000	 90.490741 
972.000000	 90.565048 
971.000000	 90.647148 
970.000000	 90.735173 
969.000000	 90.823176 
968.000000	 90.909805 
967.000000	 90.997951 
966.000000	 91.087289 
965.000000	 91.174345 
964.000000	 91.259203 
963.000000	 91.345338 
962.000000	 91.433085 
961.000000	 91.519257 
960.000000	 91.602735 
959.000000	 91.684841 
958.000000	 91.765165 
957.000000	 91.842703 
956.000000	 91.920171 
955.000000	 92.001191 
954.000000	 92.083577 
953.000000	 92.160859 
952.000000	 92.230099 
951.000000	 92.293353 
950.000000	 92.352609 
949.000000	 92.408664 
948.000000	 92.464291 
947.000000	 92.522923 
946.000000	 92.583566 
945.000000	 92.640979 
944.000000	 92.690965 
943.000000	 92.732818 
942.000000	 92.768335 
941.000000	 92.801639 
940.000000	 92.837710 
939.000000	 92.877113 
938.000000	 92.914338 
937.000000	 92.945337 
936.000000	 92.973944 
935.000000	 93.006723 
934.000000	 93.044789 
933.000000	 93.085834 
932.000000	 93.130479 
931.000000	 93.179828 
930.000000	 93.229342 
929.000000	 93.272335 
928.000000	 93.308306 
927.000000	 93.341690 
926.000000	 93.374015 
925.000000	 93.403673 
924.000000	 93.431887 
923.000000	 93.461649 
922.000000	 93.491013 
921.000000	 93.514262 
920.000000	 93.530249 
919.000000	 93.543871 
918.000000	 93.559004 
917.000000	 93.575400 
916.000000	 93.592583 
915.000000	 93.610978 
914.000000	 93.628863 
913.000000	 93.644316 
912.000000	 93.661587 
911.000000	 93.690270 
910.000000	 93.736370 
909.000000	 93.797899 
908.000000	 93.869621 
907.000000	 93.947877 
906.000000	 94.029941 
905.000000	 94.112828 
904.000000	 94.194928 
903.000000	 94.277614 
902.000000	 94.365046 
901.000000	 94.462202 
900.000000	 94.570145 
899.000000	 94.682021 
898.000000	 94.787351 
897.000000	 94.883394 
896.000000	 94.977522 
895.000000	 95.075826 
894.000000	 95.174966 
893.000000	 95.269665 
892.000000	 95.362358 
891.000000	 95.458501 
890.000000	 95.556146 
889.000000	 95.647310 
888.000000	 95.727381 
887.000000	 95.797055 
886.000000	 95.857438 
885.000000	 95.909515 
884.000000	 95.956684 
883.000000	 96.001429 
882.000000	 96.040735 
881.000000	 96.071496 
880.000000	 96.099851 
879.000000	 96.137920 
878.000000	 96.189806 
877.000000	 96.246722 
876.000000	 96.297821 
875.000000	 96.341561 
874.000000	 96.385999 
873.000000	 96.442012 
872.000000	 96.516167 
871.000000	 96.605610 
870.000000	 96.699234 
869.000000	 96.787538 
868.000000	 96.871142 
867.000000	 96.956715 
866.000000	 97.046209 
865.000000	 97.134498 
864.000000	 97.217149 
863.000000	 97.296021 
862.000000	 97.376137 
861.000000	 97.459942 
860.000000	 97.545752 
859.000000	 97.629782 
858.000000	 97.708432 
857.000000	 97.779397 
856.000000	 97.841566 
855.000000	 97.895011 
854.000000	 97.941803 
853.000000	 97.985164 
852.000000	 98.025576 
851.000000	 98.059164 
850.000000	 98.083465 
849.000000	 98.103947 
848.000000	 98.129785 
847.000000	 98.162038 
846.000000	 98.190800 
845.000000	 98.206360 
844.000000	 98.208862 
843.000000	 98.204747 
842.000000	 98.198110 
841.000000	 98.189367 
840.000000	 98.179263 
839.000000	 98.169605 
838.000000	 98.160879 
837.000000	 98.151689 
836.000000	 98.139435 
835.000000	 98.120482 
834.000000	 98.092953 
833.000000	 98.061956 
832.000000	 98.038684 
831.000000	 98.030211 
830.000000	 98.031948 
829.000000	 98.034104 
828.000000	 98.033891 
827.000000	 98.037296 
826.000000	 98.050669 
825.000000	 98.075198 
824.000000	 98.107789 
823.000000	 98.141591 
822.000000	 98.166933 
821.000000	 98.177975 
820.000000	 98.178747 
819.000000	 98.179369 
818.000000	 98.186818 
817.000000	 98.201151 
816.000000	 98.218069 
815.000000	 98.230871 
814.000000	 98.230656 
813.000000	 98.208852 
812.000000	 98.161098 
811.000000	 98.087834 
810.000000	 97.991886 
809.000000	 97.877044 
808.000000	 97.747598 
807.000000	 97.605942 
806.000000	 97.450398 
805.000000	 97.279048 
804.000000	 97.097576 
803.000000	 96.920741 
802.000000	 96.764041 
801.000000	 96.635330 
800.000000	 96.535337 
799.000000	 96.462964 
798.000000	 96.417848 
797.000000	 96.399779 
796.000000	 96.407394 
795.000000	 96.436693 
794.000000	 96.480763 
793.000000	 96.532003 
792.000000	 96.583904 
791.000000	 96.630143 
790.000000	 96.664694 
789.000000	 96.684911 
788.000000	 96.692236 
787.000000	 96.687698 
786.000000	 96.668772 
785.000000	 96.633204 
784.000000	 96.584117 
783.000000	 96.528437 
782.000000	 96.471485 
781.000000	 96.415708 
780.000000	 96.363883 
779.000000	 96.321050 
778.000000	 96.293690 
777.000000	 96.288518 
776.000000	 96.310254 
775.000000	 96.357574 
774.000000	 96.421954 
773.000000	 96.492782 
772.000000	 96.562693 
771.000000	 96.627214 
770.000000	 96.682799 
769.000000	 96.727819 
768.000000	 96.763022 
767.000000	 96.789198 
766.000000	 96.806950 
765.000000	 96.819942 
764.000000	 96.834224 
763.000000	 96.851653 
762.000000	 96.867465 
761.000000	 96.877423 
760.000000	 96.884421 
759.000000	 96.895158 
758.000000	 96.913252 
757.000000	 96.938231 
756.000000	 96.967730 
755.000000	 96.997496 
754.000000	 97.023042 
753.000000	 97.045010 
752.000000	 97.069430 
751.000000	 97.099311 
750.000000	 97.129571 
749.000000	 97.154317 
748.000000	 97.175855 
747.000000	 97.201918 
746.000000	 97.236342 
745.000000	 97.276675 
744.000000	 97.319316 
743.000000	 97.363670 
742.000000	 97.412702 
741.000000	 97.471162 
740.000000	 97.540160 
739.000000	 97.611704 
738.000000	 97.673079 
737.000000	 97.719610 
736.000000	 97.758856 
735.000000	 97.799656 
734.000000	 97.841600 
733.000000	 97.878804 
732.000000	 97.908735 
731.000000	 97.932404 
730.000000	 97.950266 
729.000000	 97.963304 
728.000000	 97.974903 
727.000000	 97.987121 
726.000000	 97.998337 
725.000000	 98.008191 
724.000000	 98.020960 
723.000000	 98.040155 
722.000000	 98.063973 
721.000000	 98.089982 
720.000000	 98.119296 
719.000000	 98.150991 
718.000000	 98.177743 
717.000000	 98.193988 
716.000000	 98.204339 
715.000000	 98.217541 
714.000000	 98.234966 
713.000000	 98.251513 
712.000000	 98.265638 
711.000000	 98.282121 
710.000000	 98.305679 
709.000000	 98.336449 
708.000000	 98.369671 
707.000000	 98.394931 
706.000000	 98.399702 
705.000000	 98.379380 
704.000000	 98.341549 
703.000000	 98.295425 
702.000000	 98.239678 
701.000000	 98.166920 
700.000000	 98.078575 
699.000000	 97.987787 
698.000000	 97.908141 
697.000000	 97.845933 
696.000000	 97.802507 
695.000000	 97.777613 
694.000000	 97.769257 
693.000000	 97.775247 
692.000000	 97.796029 
691.000000	 97.832078 
690.000000	 97.880286 
689.000000	 97.936644 
688.000000	 97.999057 
687.000000	 98.062725 
686.000000	 98.116024 
685.000000	 98.149096 
684.000000	 98.166022 
683.000000	 98.180847 
682.000000	 98.202028 
681.000000	 98.226476 
680.000000	 98.248168 
679.000000	 98.265963 
678.000000	 98.281572 
677.000000	 98.295449 
676.000000	 98.307007 
675.000000	 98.314175 
674.000000	 98.316347 
673.000000	 98.319989 
672.000000	 98.334121 
671.000000	 98.357130 
670.000000	 98.375102 
669.000000	 98.372844 
668.000000	 98.355798 
667.000000	 98.362464 
666.000000	 98.404597 
665.000000	 98.454251 
664.000000	 98.496979 
663.000000	 98.533244 
662.000000	 98.566107 
661.000000	 98.598201 
660.000000	 98.631516 
659.000000	 98.663283 
658.000000	 98.686372 
657.000000	 98.697534 
656.000000	 98.698819 
655.000000	 98.688103 
654.000000	 98.659563 
653.000000	 98.616416 
652.000000	 98.573768 
651.000000	 98.547372 
650.000000	 98.545645 

