4000.000000	98.080700 
3999.000000	98.079665 
3998.000000	98.079349 
3997.000000	98.079751 
3996.000000	98.080360 
3995.000000	98.080633 
3994.000000	98.080386 
3993.000000	98.079806 
3992.000000	98.079174 
3991.000000	98.078674 
3990.000000	98.078436 
3989.000000	98.078590 
3988.000000	98.079045 
3987.000000	98.079382 
3986.000000	98.079251 
3985.000000	98.078669 
3984.000000	98.077993 
3983.000000	98.077568 
3982.000000	98.077438 
3981.000000	98.077362 
3980.000000	98.077039 
3979.000000	98.076381 
3978.000000	98.075560 
3977.000000	98.074860 
3976.000000	98.074430 
3975.000000	98.074235 
3974.000000	98.074188 
3973.000000	98.074291 
3972.000000	98.074541 
3971.000000	98.074799 
3970.000000	98.074896 
3969.000000	98.074844 
3968.000000	98.074796 
3967.000000	98.074860 
3966.000000	98.075008 
3965.000000	98.075118 
3964.000000	98.075089 
3963.000000	98.074916 
3962.000000	98.074677 
3961.000000	98.074486 
3960.000000	98.074407 
3959.000000	98.074321 
3958.000000	98.074008 
3957.000000	98.073454 
3956.000000	98.072934 
3955.000000	98.072742 
3954.000000	98.072913 
3953.000000	98.073151 
3952.000000	98.073055 
3951.000000	98.072479 
3950.000000	98.071851 
3949.000000	98.071882 
3948.000000	98.072715 
3947.000000	98.073641 
3946.000000	98.073758 
3945.000000	98.072713 
3944.000000	98.070804 
3943.000000	98.068841 
3942.000000	98.067610 
3941.000000	98.067325 
3940.000000	98.067632 
3939.000000	98.067966 
3938.000000	98.068053 
3937.000000	98.068172 
3936.000000	98.068735 
3935.000000	98.069657 
3934.000000	98.070421 
3933.000000	98.070683 
3932.000000	98.070530 
3931.000000	98.069974 
3930.000000	98.068748 
3929.000000	98.066722 
3928.000000	98.064302 
3927.000000	98.062421 
3926.000000	98.061706 
3925.000000	98.062111 
3924.000000	98.063503 
3923.000000	98.065616 
3922.000000	98.067713 
3921.000000	98.069017 
3920.000000	98.069592 
3919.000000	98.070307 
3918.000000	98.071429 
3917.000000	98.072178 
3916.000000	98.071927 
3915.000000	98.071063 
3914.000000	98.070230 
3913.000000	98.069556 
3912.000000	98.069024 
3911.000000	98.068797 
3910.000000	98.068817 
3909.000000	98.068870 
3908.000000	98.068939 
3907.000000	98.069184 
3906.000000	98.069828 
3905.000000	98.070799 
3904.000000	98.071959 
3903.000000	98.073045 
3902.000000	98.073606 
3901.000000	98.073375 
3900.000000	98.072423 
3899.000000	98.071309 
3898.000000	98.070672 
3897.000000	98.070554 
3896.000000	98.070568 
3895.000000	98.070414 
3894.000000	98.070049 
3893.000000	98.069677 
3892.000000	98.069433 
3891.000000	98.069159 
3890.000000	98.068789 
3889.000000	98.068564 
3888.000000	98.068644 
3887.000000	98.068736 
3886.000000	98.068557 
3885.000000	98.068282 
3884.000000	98.068246 
3883.000000	98.068341 
3882.000000	98.068185 
3881.000000	98.067814 
3880.000000	98.067598 
3879.000000	98.067617 
3878.000000	98.067630 
3877.000000	98.067383 
3876.000000	98.066680 
3875.000000	98.065506 
3874.000000	98.064251 
3873.000000	98.063649 
3872.000000	98.064115 
3871.000000	98.065078 
3870.000000	98.065433 
3869.000000	98.064950 
3868.000000	98.064344 
3867.000000	98.063851 
3866.000000	98.062701 
3865.000000	98.060834 
3864.000000	98.059924 
3863.000000	98.060823 
3862.000000	98.062124 
3861.000000	98.062469 
3860.000000	98.062044 
3859.000000	98.061296 
3858.000000	98.060088 
3857.000000	98.058010 
3856.000000	98.055395 
3855.000000	98.052315 
3854.000000	98.049867 
3853.000000	98.049755 
3852.000000	98.051575 
3851.000000	98.053997 
3850.000000	98.056032 
3849.000000	98.057186 
3848.000000	98.058116 
3847.000000	98.059579 
3846.000000	98.060945 
3845.000000	98.061442 
3844.000000	98.061336 
3843.000000	98.061027 
3842.000000	98.060803 
3841.000000	98.061155 
3840.000000	98.062017 
3839.000000	98.062922 
3838.000000	98.063555 
3837.000000	98.063685 
3836.000000	98.063482 
3835.000000	98.063180 
3834.000000	98.063110 
3833.000000	98.063500 
3832.000000	98.064232 
3831.000000	98.065066 
3830.000000	98.065648 
3829.000000	98.065618 
3828.000000	98.065060 
3827.000000	98.064327 
3826.000000	98.063788 
3825.000000	98.063866 
3824.000000	98.064571 
3823.000000	98.065150 
3822.000000	98.065064 
3821.000000	98.064683 
3820.000000	98.064641 
3819.000000	98.064979 
3818.000000	98.065228 
3817.000000	98.064934 
3816.000000	98.064198 
3815.000000	98.063531 
3814.000000	98.063220 
3813.000000	98.063076 
3812.000000	98.062894 
3811.000000	98.062696 
3810.000000	98.062544 
3809.000000	98.062419 
3808.000000	98.062273 
3807.000000	98.062071 
3806.000000	98.061831 
3805.000000	98.061599 
3804.000000	98.061370 
3803.000000	98.061096 
3802.000000	98.060755 
3801.000000	98.060409 
3800.000000	98.060143 
3799.000000	98.059973 
3798.000000	98.059838 
3797.000000	98.059691 
3796.000000	98.059553 
3795.000000	98.059449 
3794.000000	98.059346 
3793.000000	98.059181 
3792.000000	98.058947 
3791.000000	98.058749 
3790.000000	98.058688 
3789.000000	98.058734 
3788.000000	98.058771 
3787.000000	98.058783 
3786.000000	98.058851 
3785.000000	98.059032 
3784.000000	98.059287 
3783.000000	98.059596 
3782.000000	98.059944 
3781.000000	98.060262 
3780.000000	98.060523 
3779.000000	98.060773 
3778.000000	98.061044 
3777.000000	98.061357 
3776.000000	98.061718 
3775.000000	98.061996 
3774.000000	98.062096 
3773.000000	98.062291 
3772.000000	98.062990 
3771.000000	98.064009 
3770.000000	98.064907 
3769.000000	98.065755 
3768.000000	98.066694 
3767.000000	98.067562 
3766.000000	98.068053 
3765.000000	98.067998 
3764.000000	98.068023 
3763.000000	98.068867 
3762.000000	98.069690 
3761.000000	98.068905 
3760.000000	98.067458 
3759.000000	98.068648 
3758.000000	98.072337 
3757.000000	98.074930 
3756.000000	98.075516 
3755.000000	98.075667 
3754.000000	98.075972 
3753.000000	98.075485 
3752.000000	98.076140 
3751.000000	98.081819 
3750.000000	98.087651 
3749.000000	98.085945 
3748.000000	98.079619 
3747.000000	98.077597 
3746.000000	98.081479 
3745.000000	98.082660 
3744.000000	98.076161 
3743.000000	98.069390 
3742.000000	98.069333 
3741.000000	98.072204 
3740.000000	98.072127 
3739.000000	98.071806 
3738.000000	98.075577 
3737.000000	98.080029 
3736.000000	98.082250 
3735.000000	98.084876 
3734.000000	98.088593 
3733.000000	98.086537 
3732.000000	98.074773 
3731.000000	98.060471 
3730.000000	98.052563 
3729.000000	98.052293 
3728.000000	98.053633 
3727.000000	98.050969 
3726.000000	98.045422 
3725.000000	98.041092 
3724.000000	98.038014 
3723.000000	98.033333 
3722.000000	98.027121 
3721.000000	98.021101 
3720.000000	98.014930 
3719.000000	98.008895 
3718.000000	98.003370 
3717.000000	97.998322 
3716.000000	97.995309 
3715.000000	97.994573 
3714.000000	97.993137 
3713.000000	97.987349 
3712.000000	97.978212 
3711.000000	97.968309 
3710.000000	97.955991 
3709.000000	97.939690 
3708.000000	97.920334 
3707.000000	97.899530 
3706.000000	97.878880 
3705.000000	97.859094 
3704.000000	97.839539 
3703.000000	97.819208 
3702.000000	97.798133 
3701.000000	97.776026 
3700.000000	97.752067 
3699.000000	97.727737 
3698.000000	97.705726 
3697.000000	97.687399 
3696.000000	97.674435 
3695.000000	97.667789 
3694.000000	97.663658 
3693.000000	97.655741 
3692.000000	97.642799 
3691.000000	97.630769 
3690.000000	97.625518 
3689.000000	97.624397 
3688.000000	97.619321 
3687.000000	97.609032 
3686.000000	97.599525 
3685.000000	97.594050 
3684.000000	97.591446 
3683.000000	97.590158 
3682.000000	97.588489 
3681.000000	97.582177 
3680.000000	97.567210 
3679.000000	97.545376 
3678.000000	97.524084 
3677.000000	97.507065 
3676.000000	97.492841 
3675.000000	97.480684 
3674.000000	97.470061 
3673.000000	97.460023 
3672.000000	97.448203 
3671.000000	97.431963 
3670.000000	97.414468 
3669.000000	97.400053 
3668.000000	97.387363 
3667.000000	97.373863 
3666.000000	97.360356 
3665.000000	97.348519 
3664.000000	97.337753 
3663.000000	97.325778 
3662.000000	97.310759 
3661.000000	97.293354 
3660.000000	97.276828 
3659.000000	97.263713 
3658.000000	97.253452 
3657.000000	97.243143 
3656.000000	97.231617 
3655.000000	97.222104 
3654.000000	97.218051 
3653.000000	97.217475 
3652.000000	97.213530 
3651.000000	97.202239 
3650.000000	97.189054 
3649.000000	97.179540 
3648.000000	97.169945 
3647.000000	97.156883 
3646.000000	97.143667 
3645.000000	97.133595 
3644.000000	97.125811 
3643.000000	97.118227 
3642.000000	97.109554 
3641.000000	97.100266 
3640.000000	97.091168 
3639.000000	97.082149 
3638.000000	97.073510 
3637.000000	97.066036 
3636.000000	97.059489 
3635.000000	97.051185 
3634.000000	97.039710 
3633.000000	97.029015 
3632.000000	97.023995 
3631.000000	97.023097 
3630.000000	97.018562 
3629.000000	97.007630 
3628.000000	96.993314 
3627.000000	96.979325 
3626.000000	96.967506 
3625.000000	96.956581 
3624.000000	96.945211 
3623.000000	96.933797 
3622.000000	96.923162 
3621.000000	96.913481 
3620.000000	96.908117 
3619.000000	96.912463 
3618.000000	96.925490 
3617.000000	96.941106 
3616.000000	96.957208 
3615.000000	96.974979 
3614.000000	96.995287 
3613.000000	97.017373 
3612.000000	97.038483 
3611.000000	97.055408 
3610.000000	97.066548 
3609.000000	97.072795 
3608.000000	97.077165 
3607.000000	97.081808 
3606.000000	97.085607 
3605.000000	97.086773 
3604.000000	97.085299 
3603.000000	97.082855 
3602.000000	97.082178 
3601.000000	97.084997 
3600.000000	97.092132 
3599.000000	97.103096 
3598.000000	97.114173 
3597.000000	97.120864 
3596.000000	97.123117 
3595.000000	97.124914 
3594.000000	97.130502 
3593.000000	97.140892 
3592.000000	97.152776 
3591.000000	97.161851 
3590.000000	97.164887 
3589.000000	97.161498 
3588.000000	97.155449 
3587.000000	97.151194 
3586.000000	97.148932 
3585.000000	97.147578 
3584.000000	97.147501 
3583.000000	97.149294 
3582.000000	97.152047 
3581.000000	97.153836 
3580.000000	97.153634 
3579.000000	97.152465 
3578.000000	97.152481 
3577.000000	97.155073 
3576.000000	97.160000 
3575.000000	97.165354 
3574.000000	97.168343 
3573.000000	97.167571 
3572.000000	97.164041 
3571.000000	97.160446 
3570.000000	97.159053 
3569.000000	97.159608 
3568.000000	97.160481 
3567.000000	97.161090 
3566.000000	97.161091 
3565.000000	97.160120 
3564.000000	97.158633 
3563.000000	97.156901 
3562.000000	97.154523 
3561.000000	97.151430 
3560.000000	97.148298 
3559.000000	97.146260 
3558.000000	97.145713 
3557.000000	97.145742 
3556.000000	97.145088 
3555.000000	97.143733 
3554.000000	97.142843 
3553.000000	97.143392 
3552.000000	97.144966 
3551.000000	97.146286 
3550.000000	97.146904 
3549.000000	97.147522 
3548.000000	97.148800 
3547.000000	97.150608 
3546.000000	97.151882 
3545.000000	97.151659 
3544.000000	97.150381 
3543.000000	97.149649 
3542.000000	97.150565 
3541.000000	97.152642 
3540.000000	97.154221 
3539.000000	97.154129 
3538.000000	97.152724 
3537.000000	97.151472 
3536.000000	97.151531 
3535.000000	97.152763 
3534.000000	97.154336 
3533.000000	97.155728 
3532.000000	97.156955 
3531.000000	97.158040 
3530.000000	97.158837 
3529.000000	97.159481 
3528.000000	97.160414 
3527.000000	97.161828 
3526.000000	97.163268 
3525.000000	97.164093 
3524.000000	97.164233 
3523.000000	97.164232 
3522.000000	97.164529 
3521.000000	97.165139 
3520.000000	97.165958 
3519.000000	97.167017 
3518.000000	97.168311 
3517.000000	97.169579 
3516.000000	97.170523 
3515.000000	97.171104 
3514.000000	97.171718 
3513.000000	97.172909 
3512.000000	97.174813 
3511.000000	97.177003 
3510.000000	97.178913 
3509.000000	97.180163 
3508.000000	97.180584 
3507.000000	97.180299 
3506.000000	97.179798 
3505.000000	97.179847 
3504.000000	97.180924 
3503.000000	97.182597 
3502.000000	97.183743 
3501.000000	97.183735 
3500.000000	97.183015 
3499.000000	97.182397 
3498.000000	97.182298 
3497.000000	97.182829 
3496.000000	97.184196 
3495.000000	97.186389 
3494.000000	97.188577 
3493.000000	97.189423 
3492.000000	97.188211 
3491.000000	97.185442 
3490.000000	97.182543 
3489.000000	97.180814 
3488.000000	97.180551 
3487.000000	97.181047 
3486.000000	97.181197 
3485.000000	97.180320 
3484.000000	97.178605 
3483.000000	97.176847 
3482.000000	97.175723 
3481.000000	97.175214 
3480.000000	97.174733 
3479.000000	97.173827 
3478.000000	97.172663 
3477.000000	97.171788 
3476.000000	97.171479 
3475.000000	97.171379 
3474.000000	97.170812 
3473.000000	97.169428 
3472.000000	97.167446 
3471.000000	97.165319 
3470.000000	97.163384 
3469.000000	97.161804 
3468.000000	97.160518 
3467.000000	97.159184 
3466.000000	97.157395 
3465.000000	97.155139 
3464.000000	97.152938 
3463.000000	97.151352 
3462.000000	97.150380 
3461.000000	97.149457 
3460.000000	97.148044 
3459.000000	97.146134 
3458.000000	97.144077 
3457.000000	97.142170 
3456.000000	97.140440 
3455.000000	97.138787 
3454.000000	97.137196 
3453.000000	97.135706 
3452.000000	97.134278 
3451.000000	97.132758 
3450.000000	97.130979 
3449.000000	97.128912 
3448.000000	97.126730 
3447.000000	97.124658 
3446.000000	97.122733 
3445.000000	97.120772 
3444.000000	97.118666 
3443.000000	97.116628 
3442.000000	97.115005 
3441.000000	97.113886 
3440.000000	97.112991 
3439.000000	97.111861 
3438.000000	97.110184 
3437.000000	97.107985 
3436.000000	97.105570 
3435.000000	97.103300 
3434.000000	97.101381 
3433.000000	97.099779 
3432.000000	97.098452 
3431.000000	97.097461 
3430.000000	97.096692 
3429.000000	97.095654 
3428.000000	97.093835 
3427.000000	97.091302 
3426.000000	97.088660 
3425.000000	97.086395 
3424.000000	97.084469 
3423.000000	97.082702 
3422.000000	97.081281 
3421.000000	97.080572 
3420.000000	97.080450 
3419.000000	97.080155 
3418.000000	97.079100 
3417.000000	97.077532 
3416.000000	97.076166 
3415.000000	97.075359 
3414.000000	97.074867 
3413.000000	97.074365 
3412.000000	97.073931 
3411.000000	97.073848 
3410.000000	97.074136 
3409.000000	97.074399 
3408.000000	97.074009 
3407.000000	97.072471 
3406.000000	97.069877 
3405.000000	97.067223 
3404.000000	97.065887 
3403.000000	97.066389 
3402.000000	97.067771 
3401.000000	97.068430 
3400.000000	97.067727 
3399.000000	97.066417 
3398.000000	97.065575 
3397.000000	97.065534 
3396.000000	97.066028 
3395.000000	97.066976 
3394.000000	97.068658 
3393.000000	97.071117 
3392.000000	97.073689 
3391.000000	97.075398 
3390.000000	97.075753 
3389.000000	97.075013 
3388.000000	97.073809 
3387.000000	97.072733 
3386.000000	97.072238 
3385.000000	97.072660 
3384.000000	97.074080 
3383.000000	97.076150 
3382.000000	97.078241 
3381.000000	97.079821 
3380.000000	97.080735 
3379.000000	97.081191 
3378.000000	97.081578 
3377.000000	97.082165 
3376.000000	97.082829 
3375.000000	97.083235 
3374.000000	97.083433 
3373.000000	97.084103 
3372.000000	97.085864 
3371.000000	97.088448 
3370.000000	97.090836 
3369.000000	97.092298 
3368.000000	97.092949 
3367.000000	97.093224 
3366.000000	97.093296 
3365.000000	97.093260 
3364.000000	97.093568 
3363.000000	97.094731 
3362.000000	97.096670 
3361.000000	97.098784 
3360.000000	97.100684 
3359.000000	97.102536 
3358.000000	97.104575 
3357.000000	97.106638 
3356.000000	97.108403 
3355.000000	97.109856 
3354.000000	97.111277 
3353.000000	97.112843 
3352.000000	97.114423 
3351.000000	97.115800 
3350.000000	97.116984 
3349.000000	97.118277 
3348.000000	97.120033 
3347.000000	97.122372 
3346.000000	97.125090 
3345.000000	97.127797 
3344.000000	97.130168 
3343.000000	97.132075 
3342.000000	97.133556 
3341.000000	97.134688 
3340.000000	97.135503 
3339.000000	97.136021 
3338.000000	97.136410 
3337.000000	97.137064 
3336.000000	97.138390 
3335.000000	97.140480 
3334.000000	97.142988 
3333.000000	97.145338 
3332.000000	97.147138 
3331.000000	97.148367 
3330.000000	97.149258 
3329.000000	97.150121 
3328.000000	97.151221 
3327.000000	97.152713 
3326.000000	97.154558 
3325.000000	97.156517 
3324.000000	97.158302 
3323.000000	97.159792 
3322.000000	97.161117 
3321.000000	97.162555 
3320.000000	97.164326 
3319.000000	97.166434 
3318.000000	97.168671 
3317.000000	97.170762 
3316.000000	97.172578 
3315.000000	97.174223 
3314.000000	97.175906 
3313.000000	97.177704 
3312.000000	97.179481 
3311.000000	97.181072 
3310.000000	97.182500 
3309.000000	97.183974 
3308.000000	97.185654 
3307.000000	97.187476 
3306.000000	97.189222 
3305.000000	97.190747 
3304.000000	97.192104 
3303.000000	97.193475 
3302.000000	97.194997 
3301.000000	97.196664 
3300.000000	97.198378 
3299.000000	97.200048 
3298.000000	97.201678 
3297.000000	97.203344 
3296.000000	97.205110 
3295.000000	97.206967 
3294.000000	97.208862 
3293.000000	97.210741 
3292.000000	97.212542 
3291.000000	97.214186 
3290.000000	97.215647 
3289.000000	97.217043 
3288.000000	97.218578 
3287.000000	97.220330 
3286.000000	97.222182 
3285.000000	97.223960 
3284.000000	97.225637 
3283.000000	97.227322 
3282.000000	97.229102 
3281.000000	97.230931 
3280.000000	97.232683 
3279.000000	97.234307 
3278.000000	97.235896 
3277.000000	97.237589 
3276.000000	97.239382 
3275.000000	97.241080 
3274.000000	97.242486 
3273.000000	97.243623 
3272.000000	97.244715 
3271.000000	97.245987 
3270.000000	97.247513 
3269.000000	97.249258 
3268.000000	97.251153 
3267.000000	97.253081 
3266.000000	97.254868 
3265.000000	97.256401 
3264.000000	97.257739 
3263.000000	97.259054 
3262.000000	97.260432 
3261.000000	97.261830 
3260.000000	97.263208 
3259.000000	97.264628 
3258.000000	97.266213 
3257.000000	97.268039 
3256.000000	97.270071 
3255.000000	97.272158 
3254.000000	97.274099 
3253.000000	97.275788 
3252.000000	97.277318 
3251.000000	97.278899 
3250.000000	97.280667 
3249.000000	97.282579 
3248.000000	97.284513 
3247.000000	97.286399 
3246.000000	97.288200 
3245.000000	97.289846 
3244.000000	97.291305 
3243.000000	97.292703 
3242.000000	97.294291 
3241.000000	97.296191 
3240.000000	97.298274 
3239.000000	97.300305 
3238.000000	97.302233 
3237.000000	97.304227 
3236.000000	97.306465 
3235.000000	97.308919 
3234.000000	97.311345 
3233.000000	97.313446 
3232.000000	97.315087 
3231.000000	97.316377 
3230.000000	97.317622 
3229.000000	97.319116 
3228.000000	97.320929 
3227.000000	97.322925 
3226.000000	97.324994 
3225.000000	97.327245 
3224.000000	97.329854 
3223.000000	97.332772 
3222.000000	97.335623 
3221.000000	97.337989 
3220.000000	97.339773 
3219.000000	97.341287 
3218.000000	97.342999 
3217.000000	97.345124 
3216.000000	97.347525 
3215.000000	97.349968 
3214.000000	97.352412 
3213.000000	97.354973 
3212.000000	97.357684 
3211.000000	97.360407 
3210.000000	97.362968 
3209.000000	97.365227 
3208.000000	97.367006 
3207.000000	97.368184 
3206.000000	97.369007 
3205.000000	97.370157 
3204.000000	97.372231 
3203.000000	97.375185 
3202.000000	97.378391 
3201.000000	97.381284 
3200.000000	97.383816 
3199.000000	97.386206 
3198.000000	97.388498 
3197.000000	97.390543 
3196.000000	97.392324 
3195.000000	97.394129 
3194.000000	97.396374 
3193.000000	97.399267 
3192.000000	97.402657 
3191.000000	97.406166 
3190.000000	97.409551 
3189.000000	97.412885 
3188.000000	97.416316 
3187.000000	97.419637 
3186.000000	97.422291 
3185.000000	97.424023 
3184.000000	97.425389 
3183.000000	97.427419 
3182.000000	97.430640 
3181.000000	97.434626 
3180.000000	97.438498 
3179.000000	97.441743 
3178.000000	97.444391 
3177.000000	97.446666 
3176.000000	97.448770 
3175.000000	97.450884 
3174.000000	97.453044 
3173.000000	97.454953 
3172.000000	97.456286 
3171.000000	97.457299 
3170.000000	97.458865 
3169.000000	97.461586 
3168.000000	97.465110 
3167.000000	97.468530 
3166.000000	97.471358 
3165.000000	97.473865 
3164.000000	97.476438 
3163.000000	97.479000 
3162.000000	97.481207 
3161.000000	97.483018 
3160.000000	97.484866 
3159.000000	97.487274 
3158.000000	97.490427 
3157.000000	97.494025 
3156.000000	97.497472 
3155.000000	97.500261 
3154.000000	97.502323 
3153.000000	97.504005 
3152.000000	97.505641 
3151.000000	97.507112 
3150.000000	97.507959 
3149.000000	97.508006 
3148.000000	97.507834 
3147.000000	97.508512 
3146.000000	97.510749 
3145.000000	97.514384 
3144.000000	97.518645 
3143.000000	97.522898 
3142.000000	97.527048 
3141.000000	97.531157 
3140.000000	97.534956 
3139.000000	97.537967 
3138.000000	97.540085 
3137.000000	97.541789 
3136.000000	97.543713 
3135.000000	97.546143 
3134.000000	97.548897 
3133.000000	97.551495 
3132.000000	97.553405 
3131.000000	97.554362 
3130.000000	97.554691 
3129.000000	97.555271 
3128.000000	97.556907 
3127.000000	97.559742 
3126.000000	97.563326 
3125.000000	97.567071 
3124.000000	97.570590 
3123.000000	97.573648 
3122.000000	97.576060 
3121.000000	97.577800 
3120.000000	97.579124 
3119.000000	97.580439 
3118.000000	97.582033 
3117.000000	97.583945 
3116.000000	97.586035 
3115.000000	97.588134 
3114.000000	97.590203 
3113.000000	97.592370 
3112.000000	97.594813 
3111.000000	97.597553 
3110.000000	97.600389 
3109.000000	97.603010 
3108.000000	97.605190 
3107.000000	97.606920 
3106.000000	97.608443 
3105.000000	97.610092 
3104.000000	97.611980 
3103.000000	97.613886 
3102.000000	97.615470 
3101.000000	97.616782 
3100.000000	97.618414 
3099.000000	97.620880 
3098.000000	97.623900 
3097.000000	97.626577 
3096.000000	97.628438 
3095.000000	97.629997 
3094.000000	97.632183 
3093.000000	97.635396 
3092.000000	97.639156 
3091.000000	97.642317 
3090.000000	97.643727 
3089.000000	97.643207 
3088.000000	97.642138 
3087.000000	97.642506 
3086.000000	97.645029 
3085.000000	97.648515 
3084.000000	97.651244 
3083.000000	97.652725 
3082.000000	97.653824 
3081.000000	97.655667 
3080.000000	97.658747 
3079.000000	97.662690 
3078.000000	97.666299 
3077.000000	97.668052 
3076.000000	97.667281 
3075.000000	97.665110 
3074.000000	97.663783 
3073.000000	97.664544 
3072.000000	97.666466 
3071.000000	97.667765 
3070.000000	97.668027 
3069.000000	97.668506 
3068.000000	97.670080 
3067.000000	97.671822 
3066.000000	97.672501 
3065.000000	97.672916 
3064.000000	97.675274 
3063.000000	97.679857 
3062.000000	97.683725 
3061.000000	97.683956 
3060.000000	97.681379 
3059.000000	97.679699 
3058.000000	97.680797 
3057.000000	97.682234 
3056.000000	97.680198 
3055.000000	97.674109 
3054.000000	97.667415 
3053.000000	97.664054 
3052.000000	97.664911 
3051.000000	97.667676 
3050.000000	97.669334 
3049.000000	97.668420 
3048.000000	97.665416 
3047.000000	97.661731 
3046.000000	97.658438 
3045.000000	97.655652 
3044.000000	97.652943 
3043.000000	97.650221 
3042.000000	97.647697 
3041.000000	97.644764 
3040.000000	97.639545 
3039.000000	97.630747 
3038.000000	97.619775 
3037.000000	97.609740 
3036.000000	97.601886 
3035.000000	97.594207 
3034.000000	97.584558 
3033.000000	97.573738 
3032.000000	97.563898 
3031.000000	97.554742 
3030.000000	97.543232 
3029.000000	97.527384 
3028.000000	97.508836 
3027.000000	97.491017 
3026.000000	97.475656 
3025.000000	97.461851 
3024.000000	97.447720 
3023.000000	97.431893 
3022.000000	97.413835 
3021.000000	97.393900 
3020.000000	97.373189 
3019.000000	97.352684 
3018.000000	97.332320 
3017.000000	97.311288 
3016.000000	97.289182 
3015.000000	97.266464 
3014.000000	97.243798 
3013.000000	97.221200 
3012.000000	97.197824 
3011.000000	97.172535 
3010.000000	97.145018 
3009.000000	97.116435 
3008.000000	97.088513 
3007.000000	97.061810 
3006.000000	97.035488 
3005.000000	97.009156 
3004.000000	96.983940 
3003.000000	96.960714 
3002.000000	96.938020 
3001.000000	96.913282 
3000.000000	96.886236 
2999.000000	96.859807 
2998.000000	96.837277 
2997.000000	96.819710 
2996.000000	96.806075 
2995.000000	96.793736 
2994.000000	96.777438 
2993.000000	96.749992 
2992.000000	96.707773 
2991.000000	96.656702 
2990.000000	96.610741 
2989.000000	96.582369 
2988.000000	96.574573 
2987.000000	96.581544 
2986.000000	96.594904 
2985.000000	96.608535 
2984.000000	96.619259 
2983.000000	96.626222 
2982.000000	96.630479 
2981.000000	96.633538 
2980.000000	96.635334 
2979.000000	96.634434 
2978.000000	96.630508 
2977.000000	96.625230 
2976.000000	96.619986 
2975.000000	96.614114 
2974.000000	96.607060 
2973.000000	96.601470 
2972.000000	96.602163 
2971.000000	96.611651 
2970.000000	96.627851 
2969.000000	96.646575 
2968.000000	96.665357 
2967.000000	96.684522 
2966.000000	96.705466 
2965.000000	96.728758 
2964.000000	96.753394 
2963.000000	96.777073 
2962.000000	96.797372 
2961.000000	96.813371 
2960.000000	96.826351 
2959.000000	96.838825 
2958.000000	96.852873 
2957.000000	96.869284 
2956.000000	96.887533 
2955.000000	96.906012 
2954.000000	96.922744 
2953.000000	96.936841 
2952.000000	96.949457 
2951.000000	96.962719 
2950.000000	96.977354 
2949.000000	96.991680 
2948.000000	97.003259 
2947.000000	97.011189 
2946.000000	97.016684 
2945.000000	97.021600 
2944.000000	97.026638 
2943.000000	97.031205 
2942.000000	97.034717 
2941.000000	97.037361 
2940.000000	97.039693 
2939.000000	97.042049 
2938.000000	97.044509 
2937.000000	97.047256 
2936.000000	97.050712 
2935.000000	97.055231 
2934.000000	97.060751 
2933.000000	97.066601 
2932.000000	97.071336 
2931.000000	97.072882 
2930.000000	97.069577 
2929.000000	97.061793 
2928.000000	97.052550 
2927.000000	97.045730 
2926.000000	97.043084 
2925.000000	97.042828 
2924.000000	97.041532 
2923.000000	97.037487 
2922.000000	97.032092 
2921.000000	97.027885 
2920.000000	97.025582 
2919.000000	97.023522 
2918.000000	97.019825 
2917.000000	97.014267 
2916.000000	97.007685 
2915.000000	97.000260 
2914.000000	96.991453 
2913.000000	96.981760 
2912.000000	96.973558 
2911.000000	96.969333 
2910.000000	96.969209 
2909.000000	96.970749 
2908.000000	96.971318 
2907.000000	96.969776 
2906.000000	96.965452 
2905.000000	96.956381 
2904.000000	96.940686 
2903.000000	96.920957 
2902.000000	96.906184 
2901.000000	96.906229 
2900.000000	96.924456 
2899.000000	96.954245 
2898.000000	96.983775 
2897.000000	97.004446 
2896.000000	97.015173 
2895.000000	97.020125 
2894.000000	97.024210 
2893.000000	97.030128 
2892.000000	97.037940 
2891.000000	97.046113 
2890.000000	97.053102 
2889.000000	97.058392 
2888.000000	97.062387 
2887.000000	97.065774 
2886.000000	97.069493 
2885.000000	97.075067 
2884.000000	97.084199 
2883.000000	97.097623 
2882.000000	97.114530 
2881.000000	97.133255 
2880.000000	97.152416 
2879.000000	97.171610 
2878.000000	97.191205 
2877.000000	97.211295 
2876.000000	97.230620 
2875.000000	97.247002 
2874.000000	97.259456 
2873.000000	97.269545 
2872.000000	97.279710 
2871.000000	97.290302 
2870.000000	97.299408 
2869.000000	97.306030 
2868.000000	97.312470 
2867.000000	97.322747 
2866.000000	97.339035 
2865.000000	97.360275 
2864.000000	97.383773 
2863.000000	97.407419 
2862.000000	97.430375 
2861.000000	97.452434 
2860.000000	97.473419 
2859.000000	97.493354 
2858.000000	97.512805 
2857.000000	97.532365 
2856.000000	97.551276 
2855.000000	97.567137 
2854.000000	97.578158 
2853.000000	97.585644 
2852.000000	97.593020 
2851.000000	97.602253 
2850.000000	97.612323 
2849.000000	97.621402 
2848.000000	97.629450 
2847.000000	97.638074 
2846.000000	97.648660 
2845.000000	97.661365 
2844.000000	97.675286 
2843.000000	97.688894 
2842.000000	97.700640 
2841.000000	97.709737 
2840.000000	97.716240 
2839.000000	97.720361 
2838.000000	97.722485 
2837.000000	97.724067 
2836.000000	97.727343 
2835.000000	97.733242 
2834.000000	97.740448 
2833.000000	97.747358 
2832.000000	97.754036 
2831.000000	97.761087 
2830.000000	97.767533 
2829.000000	97.771589 
2828.000000	97.773355 
2827.000000	97.775035 
2826.000000	97.778189 
2825.000000	97.782141 
2824.000000	97.785678 
2823.000000	97.789061 
2822.000000	97.793451 
2821.000000	97.799041 
2820.000000	97.804696 
2819.000000	97.809128 
2818.000000	97.811822 
2817.000000	97.813053 
2816.000000	97.813578 
2815.000000	97.814305 
2814.000000	97.815918 
2813.000000	97.818660 
2812.000000	97.822358 
2811.000000	97.826490 
2810.000000	97.830287 
2809.000000	97.833101 
2808.000000	97.834836 
2807.000000	97.835854 
2806.000000	97.836417 
2805.000000	97.836452 
2804.000000	97.835919 
2803.000000	97.835212 
2802.000000	97.835023 
2801.000000	97.835824 
2800.000000	97.837532 
2799.000000	97.839658 
2798.000000	97.841804 
2797.000000	97.843993 
2796.000000	97.846435 
2795.000000	97.849115 
2794.000000	97.851829 
2793.000000	97.854537 
2792.000000	97.857252 
2791.000000	97.859602 
2790.000000	97.860961 
2789.000000	97.861214 
2788.000000	97.860990 
2787.000000	97.861006 
2786.000000	97.861578 
2785.000000	97.862919 
2784.000000	97.865308 
2783.000000	97.868526 
2782.000000	97.871505 
2781.000000	97.873196 
2780.000000	97.873698 
2779.000000	97.874118 
2778.000000	97.875361 
2777.000000	97.877297 
2776.000000	97.879196 
2775.000000	97.880587 
2774.000000	97.881584 
2773.000000	97.882618 
2772.000000	97.884010 
2771.000000	97.885700 
2770.000000	97.887314 
2769.000000	97.888549 
2768.000000	97.889474 
2767.000000	97.890398 
2766.000000	97.891452 
2765.000000	97.892414 
2764.000000	97.893015 
2763.000000	97.893328 
2762.000000	97.893811 
2761.000000	97.894893 
2760.000000	97.896595 
2759.000000	97.898523 
2758.000000	97.900216 
2757.000000	97.901567 
2756.000000	97.902826 
2755.000000	97.904253 
2754.000000	97.905845 
2753.000000	97.907396 
2752.000000	97.908778 
2751.000000	97.910054 
2750.000000	97.911313 
2749.000000	97.912549 
2748.000000	97.913752 
2747.000000	97.914992 
2746.000000	97.916332 
2745.000000	97.917725 
2744.000000	97.919114 
2743.000000	97.920560 
2742.000000	97.922121 
2741.000000	97.923631 
2740.000000	97.924784 
2739.000000	97.925497 
2738.000000	97.926097 
2737.000000	97.927057 
2736.000000	97.928530 
2735.000000	97.930252 
2734.000000	97.931816 
2733.000000	97.933060 
2732.000000	97.934120 
2731.000000	97.935204 
2730.000000	97.936397 
2729.000000	97.937654 
2728.000000	97.938930 
2727.000000	97.940218 
2726.000000	97.941496 
2725.000000	97.942700 
2724.000000	97.943774 
2723.000000	97.944743 
2722.000000	97.945698 
2721.000000	97.946698 
2720.000000	97.947703 
2719.000000	97.948638 
2718.000000	97.949542 
2717.000000	97.950587 
2716.000000	97.951882 
2715.000000	97.953235 
2714.000000	97.954228 
2713.000000	97.954613 
2712.000000	97.954620 
2711.000000	97.954774 
2710.000000	97.955311 
2709.000000	97.956022 
2708.000000	97.956728 
2707.000000	97.957620 
2706.000000	97.958849 
2705.000000	97.959996 
2704.000000	97.960423 
2703.000000	97.960170 
2702.000000	97.960145 
2701.000000	97.961190 
2700.000000	97.963190 
2699.000000	97.965227 
2698.000000	97.966443 
2697.000000	97.966585 
2696.000000	97.965989 
2695.000000	97.965329 
2694.000000	97.965217 
2693.000000	97.965668 
2692.000000	97.966016 
2691.000000	97.965672 
2690.000000	97.964942 
2689.000000	97.964720 
2688.000000	97.965332 
2687.000000	97.966172 
2686.000000	97.966670 
2685.000000	97.967178 
2684.000000	97.968450 
2683.000000	97.970440 
2682.000000	97.972021 
2681.000000	97.971995 
2680.000000	97.970178 
2679.000000	97.967607 
2678.000000	97.965860 
2677.000000	97.966004 
2676.000000	97.967930 
2675.000000	97.970577 
2674.000000	97.972783 
2673.000000	97.973873 
2672.000000	97.973565 
2671.000000	97.971804 
2670.000000	97.969071 
2669.000000	97.966509 
2668.000000	97.965101 
2667.000000	97.964649 
2666.000000	97.963942 
2665.000000	97.962040 
2664.000000	97.959134 
2663.000000	97.956051 
2662.000000	97.953190 
2661.000000	97.950252 
2660.000000	97.946957 
2659.000000	97.943675 
2658.000000	97.941146 
2657.000000	97.939648 
2656.000000	97.938694 
2655.000000	97.937644 
2654.000000	97.936396 
2653.000000	97.935270 
2652.000000	97.934468 
2651.000000	97.933940 
2650.000000	97.933568 
2649.000000	97.932996 
2648.000000	97.931491 
2647.000000	97.928787 
2646.000000	97.926117 
2645.000000	97.925461 
2644.000000	97.927397 
2643.000000	97.930284 
2642.000000	97.931912 
2641.000000	97.931668 
2640.000000	97.930470 
2639.000000	97.929261 
2638.000000	97.928342 
2637.000000	97.927820 
2636.000000	97.927827 
2635.000000	97.928280 
2634.000000	97.928935 
2633.000000	97.929701 
2632.000000	97.930541 
2631.000000	97.931209 
2630.000000	97.931477 
2629.000000	97.931509 
2628.000000	97.931609 
2627.000000	97.931732 
2626.000000	97.931581 
2625.000000	97.931042 
2624.000000	97.930303 
2623.000000	97.929711 
2622.000000	97.929681 
2621.000000	97.930472 
2620.000000	97.931859 
2619.000000	97.933149 
2618.000000	97.933804 
2617.000000	97.933941 
2616.000000	97.934047 
2615.000000	97.934418 
2614.000000	97.935004 
2613.000000	97.935667 
2612.000000	97.936351 
2611.000000	97.937057 
2610.000000	97.937801 
2609.000000	97.938582 
2608.000000	97.939359 
2607.000000	97.940077 
2606.000000	97.940755 
2605.000000	97.941464 
2604.000000	97.942232 
2603.000000	97.943023 
2602.000000	97.943806 
2601.000000	97.944580 
2600.000000	97.945356 
2599.000000	97.946139 
2598.000000	97.946933 
2597.000000	97.947736 
2596.000000	97.948547 
2595.000000	97.949363 
2594.000000	97.950179 
2593.000000	97.950991 
2592.000000	97.951797 
2591.000000	97.952598 
2590.000000	97.953401 
2589.000000	97.954212 
2588.000000	97.955039 
2587.000000	97.955880 
2586.000000	97.956727 
2585.000000	97.957566 
2584.000000	97.958387 
2583.000000	97.959190 
2582.000000	97.959979 
2581.000000	97.960757 
2580.000000	97.961530 
2579.000000	97.962294 
2578.000000	97.963049 
2577.000000	97.963792 
2576.000000	97.964527 
2575.000000	97.965255 
2574.000000	97.965978 
2573.000000	97.966695 
2572.000000	97.967404 
2571.000000	97.968102 
2570.000000	97.968783 
2569.000000	97.969449 
2568.000000	97.970105 
2567.000000	97.970757 
2566.000000	97.971402 
2565.000000	97.972032 
2564.000000	97.972647 
2563.000000	97.973246 
2562.000000	97.973829 
2561.000000	97.974397 
2560.000000	97.974953 
2559.000000	97.975500 
2558.000000	97.976037 
2557.000000	97.976561 
2556.000000	97.977071 
2555.000000	97.977570 
2554.000000	97.978061 
2553.000000	97.978548 
2552.000000	97.979032 
2551.000000	97.979513 
2550.000000	97.979987 
2549.000000	97.980449 
2548.000000	97.980898 
2547.000000	97.981334 
2546.000000	97.981754 
2545.000000	97.982151 
2544.000000	97.982525 
2543.000000	97.982879 
2542.000000	97.983219 
2541.000000	97.983544 
2540.000000	97.983860 
2539.000000	97.984174 
2538.000000	97.984481 
2537.000000	97.984752 
2536.000000	97.984985 
2535.000000	97.985217 
2534.000000	97.985487 
2533.000000	97.985813 
2532.000000	97.986202 
2531.000000	97.986602 
2530.000000	97.986868 
2529.000000	97.986892 
2528.000000	97.986743 
2527.000000	97.986659 
2526.000000	97.986779 
2525.000000	97.987022 
2524.000000	97.987223 
2523.000000	97.987331 
2522.000000	97.987411 
2521.000000	97.987553 
2520.000000	97.987831 
2519.000000	97.988249 
2518.000000	97.988669 
2517.000000	97.988911 
2516.000000	97.988991 
2515.000000	97.989162 
2514.000000	97.989653 
2513.000000	97.990423 
2512.000000	97.991167 
2511.000000	97.991534 
2510.000000	97.991350 
2509.000000	97.990762 
2508.000000	97.990227 
2507.000000	97.990115 
2506.000000	97.990318 
2505.000000	97.990424 
2504.000000	97.990274 
2503.000000	97.990088 
2502.000000	97.989993 
2501.000000	97.989817 
2500.000000	97.989523 
2499.000000	97.989512 
2498.000000	97.990170 
2497.000000	97.991366 
2496.000000	97.992560 
2495.000000	97.993269 
2494.000000	97.993370 
2493.000000	97.993106 
2492.000000	97.992986 
2491.000000	97.993432 
2490.000000	97.994387 
2489.000000	97.995309 
2488.000000	97.995733 
2487.000000	97.995759 
2486.000000	97.995869 
2485.000000	97.996294 
2484.000000	97.996727 
2483.000000	97.996744 
2482.000000	97.996277 
2481.000000	97.995671 
2480.000000	97.995394 
2479.000000	97.995686 
2478.000000	97.996423 
2477.000000	97.997231 
2476.000000	97.997803 
2475.000000	97.998090 
2474.000000	97.998200 
2473.000000	97.998165 
2472.000000	97.997879 
2471.000000	97.997257 
2470.000000	97.996453 
2469.000000	97.995885 
2468.000000	97.995912 
2467.000000	97.996426 
2466.000000	97.996812 
2465.000000	97.996538 
2464.000000	97.995723 
2463.000000	97.995040 
2462.000000	97.995013 
2461.000000	97.995592 
2460.000000	97.996308 
2459.000000	97.996666 
2458.000000	97.996419 
2457.000000	97.995715 
2456.000000	97.995076 
2455.000000	97.994986 
2454.000000	97.995357 
2453.000000	97.995609 
2452.000000	97.995424 
2451.000000	97.995095 
2450.000000	97.994997 
2449.000000	97.995173 
2448.000000	97.995614 
2447.000000	97.996476 
2446.000000	97.997721 
2445.000000	97.998902 
2444.000000	97.999649 
2443.000000	98.000153 
2442.000000	98.000842 
2441.000000	98.001810 
2440.000000	98.002820 
2439.000000	98.003670 
2438.000000	98.004269 
2437.000000	98.004480 
2436.000000	98.004234 
2435.000000	98.003745 
2434.000000	98.003417 
2433.000000	98.003549 
2432.000000	98.004242 
2431.000000	98.005456 
2430.000000	98.006966 
2429.000000	98.008332 
2428.000000	98.009155 
2427.000000	98.009422 
2426.000000	98.009513 
2425.000000	98.009798 
2424.000000	98.010290 
2423.000000	98.010746 
2422.000000	98.011069 
2421.000000	98.011500 
2420.000000	98.012368 
2419.000000	98.013730 
2418.000000	98.015284 
2417.000000	98.016668 
2416.000000	98.017703 
2415.000000	98.018371 
2414.000000	98.018718 
2413.000000	98.018919 
2412.000000	98.019305 
2411.000000	98.020129 
2410.000000	98.021297 
2409.000000	98.022448 
2408.000000	98.023325 
2407.000000	98.023936 
2406.000000	98.024360 
2405.000000	98.024595 
2404.000000	98.024645 
2403.000000	98.024621 
2402.000000	98.024615 
2401.000000	98.024617 
2400.000000	98.024658 
2399.000000	98.024946 
2398.000000	98.025676 
2397.000000	98.026703 
2396.000000	98.027544 
2395.000000	98.027806 
2394.000000	98.027582 
2393.000000	98.027402 
2392.000000	98.027737 
2391.000000	98.028567 
2390.000000	98.029439 
2389.000000	98.029882 
2388.000000	98.029784 
2387.000000	98.029448 
2386.000000	98.029393 
2385.000000	98.029973 
2384.000000	98.031028 
2383.000000	98.031878 
2382.000000	98.031895 
2381.000000	98.031053 
2380.000000	98.029888 
2379.000000	98.028875 
2378.000000	98.028000 
2377.000000	98.027060 
2376.000000	98.026050 
2375.000000	98.025133 
2374.000000	98.024452 
2373.000000	98.024118 
2372.000000	98.024200 
2371.000000	98.024451 
2370.000000	98.024305 
2369.000000	98.023518 
2368.000000	98.022487 
2367.000000	98.021702 
2366.000000	98.021189 
2365.000000	98.020646 
2364.000000	98.019846 
2363.000000	98.018621 
2362.000000	98.016696 
2361.000000	98.014052 
2360.000000	98.011369 
2359.000000	98.009598 
2358.000000	98.008964 
2357.000000	98.008836 
2356.000000	98.008698 
2355.000000	98.008384 
2354.000000	98.007354 
2353.000000	98.004978 
2352.000000	98.001828 
2351.000000	97.999403 
2350.000000	97.998064 
2349.000000	97.996800 
2348.000000	97.994830 
2347.000000	97.992299 
2346.000000	97.989801 
2345.000000	97.987850 
2344.000000	97.987070 
2343.000000	97.987351 
2342.000000	97.987217 
2341.000000	97.985184 
2340.000000	97.981252 
2339.000000	97.977050 
2338.000000	97.974029 
2337.000000	97.972107 
2336.000000	97.970104 
2335.000000	97.967143 
2334.000000	97.963416 
2333.000000	97.960196 
2332.000000	97.958989 
2331.000000	97.960230 
2330.000000	97.962205 
2329.000000	97.962216 
2328.000000	97.958454 
2327.000000	97.950559 
2326.000000	97.939736 
2325.000000	97.928817 
2324.000000	97.921595 
2323.000000	97.919965 
2322.000000	97.922272 
2321.000000	97.925258 
2320.000000	97.927745 
2319.000000	97.930754 
2318.000000	97.934186 
2317.000000	97.936381 
2316.000000	97.936444 
2315.000000	97.935497 
2314.000000	97.934627 
2313.000000	97.933549 
2312.000000	97.931660 
2311.000000	97.929381 
2310.000000	97.927491 
2309.000000	97.926352 
2308.000000	97.926327 
2307.000000	97.927965 
2306.000000	97.931160 
2305.000000	97.934788 
2304.000000	97.937543 
2303.000000	97.938490 
2302.000000	97.936937 
2301.000000	97.933009 
2300.000000	97.928283 
2299.000000	97.924608 
2298.000000	97.922035 
2297.000000	97.919262 
2296.000000	97.916032 
2295.000000	97.913377 
2294.000000	97.911344 
2293.000000	97.908349 
2292.000000	97.903560 
2291.000000	97.897984 
2290.000000	97.892522 
2289.000000	97.886714 
2288.000000	97.880585 
2287.000000	97.875986 
2286.000000	97.874834 
2285.000000	97.877048 
2284.000000	97.881170 
2283.000000	97.885876 
2282.000000	97.890218 
2281.000000	97.893975 
2280.000000	97.898403 
2279.000000	97.904844 
2278.000000	97.911852 
2277.000000	97.915926 
2276.000000	97.916140 
2275.000000	97.915732 
2274.000000	97.917632 
2273.000000	97.920581 
2272.000000	97.921594 
2271.000000	97.920560 
2270.000000	97.920281 
2269.000000	97.922842 
2268.000000	97.927497 
2267.000000	97.931580 
2266.000000	97.932610 
2265.000000	97.930340 
2264.000000	97.927298 
2263.000000	97.926292 
2262.000000	97.927010 
2261.000000	97.926370 
2260.000000	97.922660 
2259.000000	97.917832 
2258.000000	97.915190 
2257.000000	97.915766 
2256.000000	97.917970 
2255.000000	97.919821 
2254.000000	97.920647 
2253.000000	97.920938 
2252.000000	97.921408 
2251.000000	97.922346 
2250.000000	97.923525 
2249.000000	97.924559 
2248.000000	97.925291 
2247.000000	97.925669 
2246.000000	97.925643 
2245.000000	97.925331 
2244.000000	97.925111 
2243.000000	97.925287 
2242.000000	97.925698 
2241.000000	97.925864 
2240.000000	97.925698 
2239.000000	97.925791 
2238.000000	97.926547 
2237.000000	97.927325 
2236.000000	97.927122 
2235.000000	97.926013 
2234.000000	97.925310 
2233.000000	97.926155 
2232.000000	97.928511 
2231.000000	97.931369 
2230.000000	97.933442 
2229.000000	97.933772 
2228.000000	97.932068 
2227.000000	97.928705 
2226.000000	97.924335 
2225.000000	97.919804 
2224.000000	97.916643 
2223.000000	97.916697 
2222.000000	97.920441 
2221.000000	97.925829 
2220.000000	97.929735 
2219.000000	97.930894 
2218.000000	97.930557 
2217.000000	97.930488 
2216.000000	97.931107 
2215.000000	97.931791 
2214.000000	97.932174 
2213.000000	97.932362 
2212.000000	97.932079 
2211.000000	97.930529 
2210.000000	97.927670 
2209.000000	97.925378 
2208.000000	97.926415 
2207.000000	97.931888 
2206.000000	97.940139 
2205.000000	97.948580 
2204.000000	97.955965 
2203.000000	97.961597 
2202.000000	97.963752 
2201.000000	97.961065 
2200.000000	97.954566 
2199.000000	97.947238 
2198.000000	97.941211 
2197.000000	97.936696 
2196.000000	97.934009 
2195.000000	97.934082 
2194.000000	97.936207 
2193.000000	97.937018 
2192.000000	97.932994 
2191.000000	97.923672 
2190.000000	97.912250 
2189.000000	97.903336 
2188.000000	97.899642 
2187.000000	97.900539 
2186.000000	97.904102 
2185.000000	97.910244 
2184.000000	97.920055 
2183.000000	97.931677 
2182.000000	97.939858 
2181.000000	97.941804 
2180.000000	97.940719 
2179.000000	97.940626 
2178.000000	97.940552 
2177.000000	97.937793 
2176.000000	97.934445 
2175.000000	97.935474 
2174.000000	97.941113 
2173.000000	97.946196 
2172.000000	97.947042 
2171.000000	97.944262 
2170.000000	97.938559 
2169.000000	97.929068 
2168.000000	97.917480 
2167.000000	97.909222 
2166.000000	97.907641 
2165.000000	97.909614 
2164.000000	97.909151 
2163.000000	97.904237 
2162.000000	97.899617 
2161.000000	97.904930 
2160.000000	97.929340 
2159.000000	97.973252 
2158.000000	98.022821 
2157.000000	98.058705 
2156.000000	98.073120 
2155.000000	98.072362 
2154.000000	98.066216 
2153.000000	98.059514 
2152.000000	98.053040 
2151.000000	98.047192 
2150.000000	98.042242 
2149.000000	98.038239 
2148.000000	98.036677 
2147.000000	98.039977 
2146.000000	98.048079 
2145.000000	98.057907 
2144.000000	98.067222 
2143.000000	98.076343 
2142.000000	98.084793 
2141.000000	98.089084 
2140.000000	98.086044 
2139.000000	98.077058 
2138.000000	98.067894 
2137.000000	98.064782 
2136.000000	98.070059 
2135.000000	98.079993 
2134.000000	98.087338 
2133.000000	98.088182 
2132.000000	98.085709 
2131.000000	98.085069 
2130.000000	98.085600 
2129.000000	98.081551 
2128.000000	98.070316 
2127.000000	98.056335 
2126.000000	98.046018 
2125.000000	98.041444 
2124.000000	98.040293 
2123.000000	98.039488 
2122.000000	98.037150 
2121.000000	98.032566 
2120.000000	98.025949 
2119.000000	98.017767 
2118.000000	98.008124 
2117.000000	97.997897 
2116.000000	97.989964 
2115.000000	97.987276 
2114.000000	97.989677 
2113.000000	97.993927 
2112.000000	97.997881 
2111.000000	98.002128 
2110.000000	98.006342 
2109.000000	98.007644 
2108.000000	98.004291 
2107.000000	97.998447 
2106.000000	97.993432 
2105.000000	97.989970 
2104.000000	97.986905 
2103.000000	97.984046 
2102.000000	97.982301 
2101.000000	97.981865 
2100.000000	97.981963 
2099.000000	97.982276 
2098.000000	97.983860 
2097.000000	97.988566 
2096.000000	97.997139 
2095.000000	98.007165 
2094.000000	98.013802 
2093.000000	98.013981 
2092.000000	98.009057 
2091.000000	98.002950 
2090.000000	97.998395 
2089.000000	97.995499 
2088.000000	97.993270 
2087.000000	97.991026 
2086.000000	97.988575 
2085.000000	97.986326 
2084.000000	97.985388 
2083.000000	97.986637 
2082.000000	97.989503 
2081.000000	97.992249 
2080.000000	97.993654 
2079.000000	97.993920 
2078.000000	97.993923 
2077.000000	97.994283 
2076.000000	97.995161 
2075.000000	97.996345 
2074.000000	97.997380 
2073.000000	97.997963 
2072.000000	97.998345 
2071.000000	97.999107 
2070.000000	98.000497 
2069.000000	98.002144 
2068.000000	98.003471 
2067.000000	98.004190 
2066.000000	98.004429 
2065.000000	98.004740 
2064.000000	98.005918 
2063.000000	98.008342 
2062.000000	98.011333 
2061.000000	98.013494 
2060.000000	98.013970 
2059.000000	98.013155 
2058.000000	98.012346 
2057.000000	98.012852 
2056.000000	98.015267 
2055.000000	98.018963 
2054.000000	98.021987 
2053.000000	98.022298 
2052.000000	98.019351 
2051.000000	98.014556 
2050.000000	98.010320 
2049.000000	98.008533 
2048.000000	98.010153 
2047.000000	98.015182 
2046.000000	98.022319 
2045.000000	98.029324 
2044.000000	98.034471 
2043.000000	98.037218 
2042.000000	98.037531 
2041.000000	98.035815 
2040.000000	98.033742 
2039.000000	98.033746 
2038.000000	98.037015 
2037.000000	98.042752 
2036.000000	98.049493 
2035.000000	98.056230 
2034.000000	98.061952 
2033.000000	98.065719 
2032.000000	98.067842 
2031.000000	98.069343 
2030.000000	98.069928 
2029.000000	98.068548 
2028.000000	98.066227 
2027.000000	98.065679 
2026.000000	98.067315 
2025.000000	98.068289 
2024.000000	98.066857 
2023.000000	98.065229 
2022.000000	98.066277 
2021.000000	98.069320 
2020.000000	98.071259 
2019.000000	98.070510 
2018.000000	98.067874 
2017.000000	98.064974 
2016.000000	98.063648 
2015.000000	98.065839 
2014.000000	98.072402 
2013.000000	98.081856 
2012.000000	98.090439 
2011.000000	98.093518 
2010.000000	98.088640 
2009.000000	98.079249 
2008.000000	98.073194 
2007.000000	98.073570 
2006.000000	98.074062 
2005.000000	98.067878 
2004.000000	98.058201 
2003.000000	98.053750 
2002.000000	98.055942 
2001.000000	98.057583 
2000.000000	98.054001 
1999.000000	98.048156 
1998.000000	98.043263 
1997.000000	98.037931 
1996.000000	98.031396 
1995.000000	98.027222 
1994.000000	98.027738 
1993.000000	98.029432 
1992.000000	98.027956 
1991.000000	98.024365 
1990.000000	98.022206 
1989.000000	98.021780 
1988.000000	98.020751 
1987.000000	98.017839 
1986.000000	98.013614 
1985.000000	98.009628 
1984.000000	98.007903 
1983.000000	98.008717 
1982.000000	98.008588 
1981.000000	98.004367 
1980.000000	97.999955 
1979.000000	98.003849 
1978.000000	98.018767 
1977.000000	98.038292 
1976.000000	98.055400 
1975.000000	98.069396 
1974.000000	98.080962 
1973.000000	98.087194 
1972.000000	98.085795 
1971.000000	98.079114 
1970.000000	98.070347 
1969.000000	98.059552 
1968.000000	98.047039 
1967.000000	98.037321 
1966.000000	98.035227 
1965.000000	98.040272 
1964.000000	98.047913 
1963.000000	98.054664 
1962.000000	98.060039 
1961.000000	98.064786 
1960.000000	98.068790 
1959.000000	98.070166 
1958.000000	98.066480 
1957.000000	98.058239 
1956.000000	98.050575 
1955.000000	98.048660 
1954.000000	98.051497 
1953.000000	98.052782 
1952.000000	98.048409 
1951.000000	98.040646 
1950.000000	98.034429 
1949.000000	98.032179 
1948.000000	98.033552 
1947.000000	98.037392 
1946.000000	98.041969 
1945.000000	98.045163 
1944.000000	98.046038 
1943.000000	98.045282 
1942.000000	98.043463 
1941.000000	98.040304 
1940.000000	98.036184 
1939.000000	98.032562 
1938.000000	98.030357 
1937.000000	98.029106 
1936.000000	98.028105 
1935.000000	98.027331 
1934.000000	98.026749 
1933.000000	98.025665 
1932.000000	98.023630 
1931.000000	98.021224 
1930.000000	98.019196 
1929.000000	98.017660 
1928.000000	98.016419 
1927.000000	98.015376 
1926.000000	98.014346 
1925.000000	98.012875 
1924.000000	98.010717 
1923.000000	98.008370 
1922.000000	98.006480 
1921.000000	98.005023 
1920.000000	98.003644 
1919.000000	98.002146 
1918.000000	98.000360 
1917.000000	97.998090 
1916.000000	97.995631 
1915.000000	97.993748 
1914.000000	97.992632 
1913.000000	97.991389 
1912.000000	97.989329 
1911.000000	97.987271 
1910.000000	97.986111 
1909.000000	97.985118 
1908.000000	97.983173 
1907.000000	97.980292 
1906.000000	97.976896 
1905.000000	97.972848 
1904.000000	97.968542 
1903.000000	97.965349 
1902.000000	97.963274 
1901.000000	97.960617 
1900.000000	97.957103 
1899.000000	97.954731 
1898.000000	97.954386 
1897.000000	97.953970 
1896.000000	97.951790 
1895.000000	97.949363 
1894.000000	97.948099 
1893.000000	97.946380 
1892.000000	97.942517 
1891.000000	97.937764 
1890.000000	97.934598 
1889.000000	97.933888 
1888.000000	97.935330 
1887.000000	97.938247 
1886.000000	97.940319 
1885.000000	97.938324 
1884.000000	97.932305 
1883.000000	97.926568 
1882.000000	97.924260 
1881.000000	97.924264 
1880.000000	97.924547 
1879.000000	97.925061 
1878.000000	97.926057 
1877.000000	97.926633 
1876.000000	97.926978 
1875.000000	97.929288 
1874.000000	97.933737 
1873.000000	97.936512 
1872.000000	97.934875 
1871.000000	97.930869 
1870.000000	97.927370 
1869.000000	97.924061 
1868.000000	97.921251 
1867.000000	97.922050 
1866.000000	97.926726 
1865.000000	97.931642 
1864.000000	97.934750 
1863.000000	97.938333 
1862.000000	97.944167 
1861.000000	97.949314 
1860.000000	97.950631 
1859.000000	97.950272 
1858.000000	97.952036 
1857.000000	97.955547 
1856.000000	97.958172 
1855.000000	97.959694 
1854.000000	97.961618 
1853.000000	97.964409 
1852.000000	97.968151 
1851.000000	97.973358 
1850.000000	97.979808 
1849.000000	97.986409 
1848.000000	97.992743 
1847.000000	97.999236 
1846.000000	98.004798 
1845.000000	98.006917 
1844.000000	98.006321 
1843.000000	98.007502 
1842.000000	98.011341 
1841.000000	98.014495 
1840.000000	98.014552 
1839.000000	98.011990 
1838.000000	98.008772 
1837.000000	98.005997 
1836.000000	98.004371 
1835.000000	98.005065 
1834.000000	98.008013 
1833.000000	98.011076 
1832.000000	98.011655 
1831.000000	98.008964 
1830.000000	98.005271 
1829.000000	98.003585 
1828.000000	98.004070 
1827.000000	98.005484 
1826.000000	98.006903 
1825.000000	98.007292 
1824.000000	98.006557 
1823.000000	98.006440 
1822.000000	98.008246 
1821.000000	98.010965 
1820.000000	98.013012 
1819.000000	98.015118 
1818.000000	98.018658 
1817.000000	98.021606 
1816.000000	98.020730 
1815.000000	98.016466 
1814.000000	98.012128 
1813.000000	98.009642 
1812.000000	98.008368 
1811.000000	98.007999 
1810.000000	98.008701 
1809.000000	98.008907 
1808.000000	98.007416 
1807.000000	98.005493 
1806.000000	98.004497 
1805.000000	98.003841 
1804.000000	98.002905 
1803.000000	98.002743 
1802.000000	98.004139 
1801.000000	98.005739 
1800.000000	98.005966 
1799.000000	98.005559 
1798.000000	98.005651 
1797.000000	98.005828 
1796.000000	98.005914 
1795.000000	98.007103 
1794.000000	98.009997 
1793.000000	98.012674 
1792.000000	98.012978 
1791.000000	98.012371 
1790.000000	98.012949 
1789.000000	98.013902 
1788.000000	98.013802 
1787.000000	98.013181 
1786.000000	98.013567 
1785.000000	98.014914 
1784.000000	98.015991 
1783.000000	98.016497 
1782.000000	98.017058 
1781.000000	98.018256 
1780.000000	98.020229 
1779.000000	98.022961 
1778.000000	98.026059 
1777.000000	98.028538 
1776.000000	98.029592 
1775.000000	98.029257 
1774.000000	98.028565 
1773.000000	98.028941 
1772.000000	98.030745 
1771.000000	98.033385 
1770.000000	98.036877 
1769.000000	98.041454 
1768.000000	98.046145 
1767.000000	98.049604 
1766.000000	98.051676 
1765.000000	98.052816 
1764.000000	98.052792 
1763.000000	98.051346 
1762.000000	98.050164 
1761.000000	98.051641 
1760.000000	98.055370 
1759.000000	98.059373 
1758.000000	98.062614 
1757.000000	98.065298 
1756.000000	98.067511 
1755.000000	98.068750 
1754.000000	98.069856 
1753.000000	98.072605 
1752.000000	98.076509 
1751.000000	98.078228 
1750.000000	98.076620 
1749.000000	98.074350 
1748.000000	98.073405 
1747.000000	98.073040 
1746.000000	98.072799 
1745.000000	98.073801 
1744.000000	98.075718 
1743.000000	98.076593 
1742.000000	98.076181 
1741.000000	98.075980 
1740.000000	98.076342 
1739.000000	98.076327 
1738.000000	98.075469 
1737.000000	98.074048 
1736.000000	98.072876 
1735.000000	98.072664 
1734.000000	98.073072 
1733.000000	98.072986 
1732.000000	98.071529 
1731.000000	98.069481 
1730.000000	98.068492 
1729.000000	98.069070 
1728.000000	98.069874 
1727.000000	98.069293 
1726.000000	98.067349 
1725.000000	98.065192 
1724.000000	98.063287 
1723.000000	98.061718 
1722.000000	98.060703 
1721.000000	98.059822 
1720.000000	98.058254 
1719.000000	98.055967 
1718.000000	98.053898 
1717.000000	98.050974 
1716.000000	98.046199 
1715.000000	98.042162 
1714.000000	98.040421 
1713.000000	98.039419 
1712.000000	98.037682 
1711.000000	98.035443 
1710.000000	98.033278 
1709.000000	98.030720 
1708.000000	98.027124 
1707.000000	98.023129 
1706.000000	98.019666 
1705.000000	98.016178 
1704.000000	98.011963 
1703.000000	98.007971 
1702.000000	98.005412 
1701.000000	98.003589 
1700.000000	98.000224 
1699.000000	97.995895 
1698.000000	97.992190 
1697.000000	97.988859 
1696.000000	97.985444 
1695.000000	97.982030 
1694.000000	97.978383 
1693.000000	97.974163 
1692.000000	97.969695 
1691.000000	97.965574 
1690.000000	97.961950 
1689.000000	97.958423 
1688.000000	97.954578 
1687.000000	97.950362 
1686.000000	97.945821 
1685.000000	97.940554 
1684.000000	97.935101 
1683.000000	97.931067 
1682.000000	97.927727 
1681.000000	97.924534 
1680.000000	97.921735 
1679.000000	97.919013 
1678.000000	97.915693 
1677.000000	97.912001 
1676.000000	97.909012 
1675.000000	97.906802 
1674.000000	97.904130 
1673.000000	97.900353 
1672.000000	97.895651 
1671.000000	97.890226 
1670.000000	97.883921 
1669.000000	97.878256 
1668.000000	97.875456 
1667.000000	97.874515 
1666.000000	97.873044 
1665.000000	97.869506 
1664.000000	97.863784 
1663.000000	97.857585 
1662.000000	97.852587 
1661.000000	97.849472 
1660.000000	97.848605 
1659.000000	97.848256 
1658.000000	97.845185 
1657.000000	97.838679 
1656.000000	97.831468 
1655.000000	97.824714 
1654.000000	97.815272 
1653.000000	97.805357 
1652.000000	97.802318 
1651.000000	97.800766 
1650.000000	97.798940 
1649.000000	97.797350 
1648.000000	97.796138 
1647.000000	97.794919 
1646.000000	97.794447 
1645.000000	97.792776 
1644.000000	97.789510 
1643.000000	97.787302 
1642.000000	97.786644 
1641.000000	97.786157 
1640.000000	97.785530 
1639.000000	97.784860 
1638.000000	97.783766 
1637.000000	97.781691 
1636.000000	97.779877 
1635.000000	97.777798 
1634.000000	97.772982 
1633.000000	97.768029 
1632.000000	97.768318 
1631.000000	97.774538 
1630.000000	97.781094 
1629.000000	97.782455 
1628.000000	97.780175 
1627.000000	97.778489 
1626.000000	97.777407 
1625.000000	97.776515 
1624.000000	97.778856 
1623.000000	97.786283 
1622.000000	97.794345 
1621.000000	97.799556 
1620.000000	97.804226 
1619.000000	97.810248 
1618.000000	97.815435 
1617.000000	97.818396 
1616.000000	97.823833 
1615.000000	97.831061 
1614.000000	97.834804 
1613.000000	97.837194 
1612.000000	97.844184 
1611.000000	97.855524 
1610.000000	97.863578 
1609.000000	97.865931 
1608.000000	97.869170 
1607.000000	97.876478 
1606.000000	97.883381 
1605.000000	97.888060 
1604.000000	97.894203 
1603.000000	97.902741 
1602.000000	97.910413 
1601.000000	97.916440 
1600.000000	97.923213 
1599.000000	97.930272 
1598.000000	97.934513 
1597.000000	97.936155 
1596.000000	97.939170 
1595.000000	97.945377 
1594.000000	97.952065 
1593.000000	97.957293 
1592.000000	97.962649 
1591.000000	97.969116 
1590.000000	97.974855 
1589.000000	97.979248 
1588.000000	97.984543 
1587.000000	97.991535 
1586.000000	97.997792 
1585.000000	98.002303 
1584.000000	98.007689 
1583.000000	98.014865 
1582.000000	98.020860 
1581.000000	98.024443 
1580.000000	98.027597 
1579.000000	98.030216 
1578.000000	98.029683 
1577.000000	98.027272 
1576.000000	98.029887 
1575.000000	98.037481 
1574.000000	98.041818 
1573.000000	98.041752 
1572.000000	98.041575 
1571.000000	98.043796 
1570.000000	98.047379 
1569.000000	98.053407 
1568.000000	98.063053 
1567.000000	98.071160 
1566.000000	98.073747 
1565.000000	98.073040 
1564.000000	98.073328 
1563.000000	98.074074 
1562.000000	98.072711 
1561.000000	98.073249 
1560.000000	98.082508 
1559.000000	98.092864 
1558.000000	98.092578 
1557.000000	98.083939 
1556.000000	98.077443 
1555.000000	98.076363 
1554.000000	98.076564 
1553.000000	98.075169 
1552.000000	98.072741 
1551.000000	98.071355 
1550.000000	98.072574 
1549.000000	98.075831 
1548.000000	98.079113 
1547.000000	98.080493 
1546.000000	98.078314 
1545.000000	98.071961 
1544.000000	98.064720 
1543.000000	98.061164 
1542.000000	98.061025 
1541.000000	98.057736 
1540.000000	98.051653 
1539.000000	98.049998 
1538.000000	98.047091 
1537.000000	98.038571 
1536.000000	98.027249 
1535.000000	98.016715 
1534.000000	98.007388 
1533.000000	97.998903 
1532.000000	97.992023 
1531.000000	97.987972 
1530.000000	97.985471 
1529.000000	97.979979 
1528.000000	97.969608 
1527.000000	97.958303 
1526.000000	97.950106 
1525.000000	97.943038 
1524.000000	97.933805 
1523.000000	97.923255 
1522.000000	97.913741 
1521.000000	97.905359 
1520.000000	97.896753 
1519.000000	97.887823 
1518.000000	97.879773 
1517.000000	97.872700 
1516.000000	97.866177 
1515.000000	97.860314 
1514.000000	97.855719 
1513.000000	97.851402 
1512.000000	97.843713 
1511.000000	97.832105 
1510.000000	97.820135 
1509.000000	97.809287 
1508.000000	97.796875 
1507.000000	97.784856 
1506.000000	97.778390 
1505.000000	97.770945 
1504.000000	97.760056 
1503.000000	97.748693 
1502.000000	97.738075 
1501.000000	97.727480 
1500.000000	97.715705 
1499.000000	97.703474 
1498.000000	97.693774 
1497.000000	97.687249 
1496.000000	97.680782 
1495.000000	97.672960 
1494.000000	97.665233 
1493.000000	97.657946 
1492.000000	97.649437 
1491.000000	97.638265 
1490.000000	97.625608 
1489.000000	97.613071 
1488.000000	97.600372 
1487.000000	97.588879 
1486.000000	97.579172 
1485.000000	97.569447 
1484.000000	97.559478 
1483.000000	97.550451 
1482.000000	97.542952 
1481.000000	97.535475 
1480.000000	97.526748 
1479.000000	97.518419 
1478.000000	97.512201 
1477.000000	97.506287 
1476.000000	97.498174 
1475.000000	97.490044 
1474.000000	97.483381 
1473.000000	97.475150 
1472.000000	97.463422 
1471.000000	97.452565 
1470.000000	97.445803 
1469.000000	97.440978 
1468.000000	97.434523 
1467.000000	97.426593 
1466.000000	97.419357 
1465.000000	97.412389 
1464.000000	97.404220 
1463.000000	97.395087 
1462.000000	97.386842 
1461.000000	97.378877 
1460.000000	97.368507 
1459.000000	97.353822 
1458.000000	97.338191 
1457.000000	97.328030 
1456.000000	97.320213 
1455.000000	97.308475 
1454.000000	97.296736 
1453.000000	97.288657 
1452.000000	97.282445 
1451.000000	97.276022 
1450.000000	97.271955 
1449.000000	97.272235 
1448.000000	97.272705 
1447.000000	97.269701 
1446.000000	97.265019 
1445.000000	97.262097 
1444.000000	97.260816 
1443.000000	97.258355 
1442.000000	97.254813 
1441.000000	97.252717 
1440.000000	97.251441 
1439.000000	97.247708 
1438.000000	97.243332 
1437.000000	97.242967 
1436.000000	97.245562 
1435.000000	97.246152 
1434.000000	97.245380 
1433.000000	97.245148 
1432.000000	97.244458 
1431.000000	97.240874 
1430.000000	97.236500 
1429.000000	97.235474 
1428.000000	97.236150 
1427.000000	97.234335 
1426.000000	97.229633 
1425.000000	97.226725 
1424.000000	97.227615 
1423.000000	97.227660 
1422.000000	97.224449 
1421.000000	97.220418 
1420.000000	97.215470 
1419.000000	97.205506 
1418.000000	97.193942 
1417.000000	97.185544 
1416.000000	97.177245 
1415.000000	97.165329 
1414.000000	97.150449 
1413.000000	97.136459 
1412.000000	97.125503 
1411.000000	97.117093 
1410.000000	97.112246 
1409.000000	97.112287 
1408.000000	97.115466 
1407.000000	97.119961 
1406.000000	97.126983 
1405.000000	97.140288 
1404.000000	97.160177 
1403.000000	97.182083 
1402.000000	97.203520 
1401.000000	97.225225 
1400.000000	97.246616 
1399.000000	97.262881 
1398.000000	97.268495 
1397.000000	97.260601 
1396.000000	97.241205 
1395.000000	97.221753 
1394.000000	97.220248 
1393.000000	97.245508 
1392.000000	97.287801 
1391.000000	97.329592 
1390.000000	97.359966 
1389.000000	97.377824 
1388.000000	97.386690 
1387.000000	97.390437 
1386.000000	97.392613 
1385.000000	97.396362 
1384.000000	97.402953 
1383.000000	97.411317 
1382.000000	97.420497 
1381.000000	97.431135 
1380.000000	97.444542 
1379.000000	97.460553 
1378.000000	97.477524 
1377.000000	97.494694 
1376.000000	97.512955 
1375.000000	97.533106 
1374.000000	97.554641 
1373.000000	97.576365 
1372.000000	97.596731 
1371.000000	97.614899 
1370.000000	97.631393 
1369.000000	97.649060 
1368.000000	97.669947 
1367.000000	97.691715 
1366.000000	97.710325 
1365.000000	97.724666 
1364.000000	97.737106 
1363.000000	97.750984 
1362.000000	97.767590 
1361.000000	97.785446 
1360.000000	97.802574 
1359.000000	97.818351 
1358.000000	97.833508 
1357.000000	97.849753 
1356.000000	97.867676 
1355.000000	97.885109 
1354.000000	97.899333 
1353.000000	97.910362 
1352.000000	97.920689 
1351.000000	97.932444 
1350.000000	97.944328 
1349.000000	97.955319 
1348.000000	97.965215 
1347.000000	97.973117 
1346.000000	97.978722 
1345.000000	97.984118 
1344.000000	97.991270 
1343.000000	97.998705 
1342.000000	98.003321 
1341.000000	98.005228 
1340.000000	98.008015 
1339.000000	98.013674 
1338.000000	98.020692 
1337.000000	98.027658 
1336.000000	98.034598 
1335.000000	98.041210 
1334.000000	98.047104 
1333.000000	98.053400 
1332.000000	98.061143 
1331.000000	98.068234 
1330.000000	98.070891 
1329.000000	98.068659 
1328.000000	98.064690 
1327.000000	98.061249 
1326.000000	98.057914 
1325.000000	98.055495 
1324.000000	98.056076 
1323.000000	98.059232 
1322.000000	98.061970 
1321.000000	98.062520 
1320.000000	98.061605 
1319.000000	98.060554 
1318.000000	98.060572 
1317.000000	98.062908 
1316.000000	98.067544 
1315.000000	98.072233 
1314.000000	98.074893 
1313.000000	98.076149 
1312.000000	98.077854 
1311.000000	98.080271 
1310.000000	98.082637 
1309.000000	98.085090 
1308.000000	98.087707 
1307.000000	98.089066 
1306.000000	98.087578 
1305.000000	98.084679 
1304.000000	98.083163 
1303.000000	98.083475 
1302.000000	98.083823 
1301.000000	98.083267 
1300.000000	98.082347 
1299.000000	98.081516 
1298.000000	98.081184 
1297.000000	98.082494 
1296.000000	98.086025 
1295.000000	98.089810 
1294.000000	98.091006 
1293.000000	98.089341 
1292.000000	98.087185 
1291.000000	98.086434 
1290.000000	98.086740 
1289.000000	98.086752 
1288.000000	98.085728 
1287.000000	98.083597 
1286.000000	98.080570 
1285.000000	98.077150 
1284.000000	98.074346 
1283.000000	98.073737 
1282.000000	98.076419 
1281.000000	98.081286 
1280.000000	98.085257 
1279.000000	98.085850 
1278.000000	98.083748 
1277.000000	98.081778 
1276.000000	98.081528 
1275.000000	98.082067 
1274.000000	98.082271 
1273.000000	98.082737 
1272.000000	98.084474 
1271.000000	98.086866 
1270.000000	98.087908 
1269.000000	98.085839 
1268.000000	98.080178 
1267.000000	98.072301 
1266.000000	98.065464 
1265.000000	98.062243 
1264.000000	98.061459 
1263.000000	98.059507 
1262.000000	98.055039 
1261.000000	98.050121 
1260.000000	98.046319 
1259.000000	98.042067 
1258.000000	98.035909 
1257.000000	98.029686 
1256.000000	98.026228 
1255.000000	98.025215 
1254.000000	98.023194 
1253.000000	98.017077 
1252.000000	98.006878 
1251.000000	97.995979 
1250.000000	97.989524 
1249.000000	97.991203 
1248.000000	98.000326 
1247.000000	98.011961 
1246.000000	98.019666 
1245.000000	98.017356 
1244.000000	98.001434 
1243.000000	97.975986 
1242.000000	97.955048 
1241.000000	97.952834 
1240.000000	97.968667 
1239.000000	97.985720 
1238.000000	97.987571 
1237.000000	97.972567 
1236.000000	97.949792 
1235.000000	97.925908 
1234.000000	97.900861 
1233.000000	97.873843 
1232.000000	97.847241 
1231.000000	97.823873 
1230.000000	97.803746 
1229.000000	97.784179 
1228.000000	97.761272 
1227.000000	97.731617 
1226.000000	97.694661 
1225.000000	97.653278 
1224.000000	97.610436 
1223.000000	97.565777 
1222.000000	97.516844 
1221.000000	97.462661 
1220.000000	97.404064 
1219.000000	97.340988 
1218.000000	97.271644 
1217.000000	97.194511 
1216.000000	97.109769 
1215.000000	97.018854 
1214.000000	96.923779 
1213.000000	96.826650 
1212.000000	96.728398 
1211.000000	96.627877 
1210.000000	96.523094 
1209.000000	96.413449 
1208.000000	96.300207 
1207.000000	96.185156 
1206.000000	96.069807 
1205.000000	95.955501 
1204.000000	95.842576 
1203.000000	95.728992 
1202.000000	95.611616 
1201.000000	95.489853 
1200.000000	95.366618 
1199.000000	95.244787 
1198.000000	95.124509 
1197.000000	95.005309 
1196.000000	94.888472 
1195.000000	94.774625 
1194.000000	94.660440 
1193.000000	94.541058 
1192.000000	94.415288 
1191.000000	94.285659 
1190.000000	94.153957 
1189.000000	94.019819 
1188.000000	93.883317 
1187.000000	93.745324 
1186.000000	93.604925 
1185.000000	93.459965 
1184.000000	93.311029 
1183.000000	93.161630 
1182.000000	93.013227 
1181.000000	92.863099 
1180.000000	92.708393 
1179.000000	92.549261 
1178.000000	92.386698 
1177.000000	92.220034 
1176.000000	92.047872 
1175.000000	91.869156 
1174.000000	91.682569 
1173.000000	91.487783 
1172.000000	91.287889 
1171.000000	91.087533 
1170.000000	90.888114 
1169.000000	90.688361 
1168.000000	90.490530 
1167.000000	90.302800 
1166.000000	90.135568 
1165.000000	89.999741 
1164.000000	89.908431 
1163.000000	89.873580 
1162.000000	89.896974 
1161.000000	89.966141 
1160.000000	90.058249 
1159.000000	90.145231 
1158.000000	90.199395 
1157.000000	90.202550 
1156.000000	90.152237 
1155.000000	90.057710 
1154.000000	89.931188 
1153.000000	89.784553 
1152.000000	89.629878 
1151.000000	89.475501 
1150.000000	89.321322 
1149.000000	89.163714 
1148.000000	89.004821 
1147.000000	88.851142 
1146.000000	88.703598 
1145.000000	88.556102 
1144.000000	88.404477 
1143.000000	88.250147 
1142.000000	88.094730 
1141.000000	87.937972 
1140.000000	87.781809 
1139.000000	87.629572 
1138.000000	87.480029 
1137.000000	87.328468 
1136.000000	87.174111 
1135.000000	87.020121 
1134.000000	86.866552 
1133.000000	86.710352 
1132.000000	86.551870 
1131.000000	86.393707 
1130.000000	86.233855 
1129.000000	86.068474 
1128.000000	85.900691 
1127.000000	85.737153 
1126.000000	85.576137 
1125.000000	85.409343 
1124.000000	85.235736 
1123.000000	85.062763 
1122.000000	84.892913 
1121.000000	84.720511 
1120.000000	84.543850 
1119.000000	84.368826 
1118.000000	84.197692 
1117.000000	84.025854 
1116.000000	83.852856 
1115.000000	83.684877 
1114.000000	83.522988 
1113.000000	83.360590 
1112.000000	83.195813 
1111.000000	83.034131 
1110.000000	82.876447 
1109.000000	82.717264 
1108.000000	82.555588 
1107.000000	82.395988 
1106.000000	82.237544 
1105.000000	82.074792 
1104.000000	81.911106 
1103.000000	81.756978 
1102.000000	81.613039 
1101.000000	81.469291 
1100.000000	81.322166 
1099.000000	81.179671 
1098.000000	81.044465 
1097.000000	80.909010 
1096.000000	80.770080 
1095.000000	80.633262 
1094.000000	80.499431 
1093.000000	80.361622 
1092.000000	80.219183 
1091.000000	80.080758 
1090.000000	79.949875 
1089.000000	79.821972 
1088.000000	79.698374 
1087.000000	79.587496 
1086.000000	79.488803 
1085.000000	79.391129 
1084.000000	79.290272 
1083.000000	79.192948 
1082.000000	79.100936 
1081.000000	79.007773 
1080.000000	78.913958 
1079.000000	78.828387 
1078.000000	78.751323 
1077.000000	78.672728 
1076.000000	78.590019 
1075.000000	78.509538 
1074.000000	78.427777 
1073.000000	78.329432 
1072.000000	78.205672 
1071.000000	78.054302 
1070.000000	77.860817 
1069.000000	77.604400 
1068.000000	77.291543 
1067.000000	76.964411 
1066.000000	76.663523 
1065.000000	76.394860 
1064.000000	76.141723 
1063.000000	75.888287 
1062.000000	75.620634 
1061.000000	75.325935 
1060.000000	75.007403 
1059.000000	74.688818 
1058.000000	74.392530 
1057.000000	74.121034 
1056.000000	73.864458 
1055.000000	73.611930 
1054.000000	73.350803 
1053.000000	73.071819 
1052.000000	72.783022 
1051.000000	72.503267 
1050.000000	72.235662 
1049.000000	71.965297 
1048.000000	71.687070 
1047.000000	71.413349 
1046.000000	71.150291 
1045.000000	70.889333 
1044.000000	70.625850 
1043.000000	70.365052 
1042.000000	70.105441 
1041.000000	69.836874 
1040.000000	69.560863 
1039.000000	69.294654 
1038.000000	69.050267 
1037.000000	68.826624 
1036.000000	68.624191 
1035.000000	68.447438 
1034.000000	68.290071 
1033.000000	68.137324 
1032.000000	67.984719 
1031.000000	67.836325 
1030.000000	67.687634 
1029.000000	67.534332 
1028.000000	67.396286 
1027.000000	67.303909 
1026.000000	67.256417 
1025.000000	67.219223 
1024.000000	67.166684 
1023.000000	67.101938 
1022.000000	67.032237 
1021.000000	66.953936 
1020.000000	66.868570 
1019.000000	66.787459 
1018.000000	66.711684 
1017.000000	66.629752 
1016.000000	66.541044 
1015.000000	66.459127 
1014.000000	66.387047 
1013.000000	66.312681 
1012.000000	66.233439 
1011.000000	66.162112 
1010.000000	66.103191 
1009.000000	66.046829 
1008.000000	65.991586 
1007.000000	65.950205 
1006.000000	65.927565 
1005.000000	65.915153 
1004.000000	65.911687 
1003.000000	65.926740 
1002.000000	65.959644 
1001.000000	65.997084 
1000.000000	66.035619 
999.000000	 66.084902 
998.000000	 66.145817 
997.000000	 66.207963 
996.000000	 66.271296 
995.000000	 66.347129 
994.000000	 66.434959 
993.000000	 66.521805 
992.000000	 66.607394 
991.000000	 66.706305 
990.000000	 66.821800 
989.000000	 66.940925 
988.000000	 67.059051 
987.000000	 67.186337 
986.000000	 67.326458 
985.000000	 67.472004 
984.000000	 67.624249 
983.000000	 67.794565 
982.000000	 67.983215 
981.000000	 68.178946 
980.000000	 68.382044 
979.000000	 68.605372 
978.000000	 68.850073 
977.000000	 69.103086 
976.000000	 69.361278 
975.000000	 69.635143 
974.000000	 69.925920 
973.000000	 70.222021 
972.000000	 70.521212 
971.000000	 70.833778 
970.000000	 71.160217 
969.000000	 71.487586 
968.000000	 71.811305 
967.000000	 72.139609 
966.000000	 72.473590 
965.000000	 72.803846 
964.000000	 73.129711 
963.000000	 73.460906 
962.000000	 73.796889 
961.000000	 74.124588 
960.000000	 74.439794 
959.000000	 74.751523 
958.000000	 75.062695 
957.000000	 75.365792 
956.000000	 75.660250 
955.000000	 75.954675 
954.000000	 76.248367 
953.000000	 76.529140 
952.000000	 76.793058 
951.000000	 77.048920 
950.000000	 77.300461 
949.000000	 77.541150 
948.000000	 77.769286 
947.000000	 77.991414 
946.000000	 78.207977 
945.000000	 78.411652 
944.000000	 78.602597 
943.000000	 78.790102 
942.000000	 78.977113 
941.000000	 79.157692 
940.000000	 79.330763 
939.000000	 79.501642 
938.000000	 79.670039 
937.000000	 79.832157 
936.000000	 79.994308 
935.000000	 80.168117 
934.000000	 80.352170 
933.000000	 80.534810 
932.000000	 80.714163 
931.000000	 80.897921 
930.000000	 81.084128 
929.000000	 81.261070 
928.000000	 81.426950 
927.000000	 81.591115 
926.000000	 81.754542 
925.000000	 81.907735 
924.000000	 82.049990 
923.000000	 82.191831 
922.000000	 82.334673 
921.000000	 82.465880 
920.000000	 82.578525 
919.000000	 82.680074 
918.000000	 82.777902 
917.000000	 82.872191 
916.000000	 82.966935 
915.000000	 83.071905 
914.000000	 83.189349 
913.000000	 83.314071 
912.000000	 83.450820 
911.000000	 83.615959 
910.000000	 83.817074 
909.000000	 84.045131 
908.000000	 84.290434 
907.000000	 84.552196 
906.000000	 84.828838 
905.000000	 85.113592 
904.000000	 85.404596 
903.000000	 85.707112 
902.000000	 86.022138 
901.000000	 86.343094 
900.000000	 86.664634 
899.000000	 86.984458 
898.000000	 87.296926 
897.000000	 87.596665 
896.000000	 87.886891 
895.000000	 88.173213 
894.000000	 88.451912 
893.000000	 88.716386 
892.000000	 88.971666 
891.000000	 89.228360 
890.000000	 89.483829 
889.000000	 89.723422 
888.000000	 89.939516 
887.000000	 90.136513 
886.000000	 90.319033 
885.000000	 90.488683 
884.000000	 90.651020 
883.000000	 90.811346 
882.000000	 90.964287 
881.000000	 91.102422 
880.000000	 91.234848 
879.000000	 91.381251 
878.000000	 91.546085 
877.000000	 91.714529 
876.000000	 91.875865 
875.000000	 92.035159 
874.000000	 92.200758 
873.000000	 92.376467 
872.000000	 92.567819 
871.000000	 92.779598 
870.000000	 93.003784 
869.000000	 93.224435 
868.000000	 93.437552 
867.000000	 93.653616 
866.000000	 93.879121 
865.000000	 94.108388 
864.000000	 94.335493 
863.000000	 94.561596 
862.000000	 94.787388 
861.000000	 95.009443 
860.000000	 95.227403 
859.000000	 95.445107 
858.000000	 95.661416 
857.000000	 95.867975 
856.000000	 96.058357 
855.000000	 96.232525 
854.000000	 96.391685 
853.000000	 96.535972 
852.000000	 96.667779 
851.000000	 96.790635 
850.000000	 96.904859 
849.000000	 97.010562 
848.000000	 97.113026 
847.000000	 97.216936 
846.000000	 97.316683 
845.000000	 97.401119 
844.000000	 97.466982 
843.000000	 97.519126 
842.000000	 97.559128 
841.000000	 97.583807 
840.000000	 97.595033 
839.000000	 97.600736 
838.000000	 97.604218 
837.000000	 97.600823 
836.000000	 97.587169 
835.000000	 97.566603 
834.000000	 97.544793 
833.000000	 97.527362 
832.000000	 97.522019 
831.000000	 97.534027 
830.000000	 97.558078 
829.000000	 97.583722 
828.000000	 97.610785 
827.000000	 97.650095 
826.000000	 97.706757 
825.000000	 97.772466 
824.000000	 97.836554 
823.000000	 97.893429 
822.000000	 97.936978 
821.000000	 97.960030 
820.000000	 97.963041 
819.000000	 97.953795 
818.000000	 97.935775 
817.000000	 97.903122 
816.000000	 97.846438 
815.000000	 97.755322 
814.000000	 97.614735 
813.000000	 97.407303 
812.000000	 97.121683 
811.000000	 96.752545 
810.000000	 96.291810 
809.000000	 95.728505 
808.000000	 95.060536 
807.000000	 94.299458 
806.000000	 93.461176 
805.000000	 92.562479 
804.000000	 91.633134 
803.000000	 90.720401 
802.000000	 89.872183 
801.000000	 89.123603 
800.000000	 88.503982 
799.000000	 88.040003 
798.000000	 87.741141 
797.000000	 87.594192 
796.000000	 87.577916 
795.000000	 87.669170 
794.000000	 87.832836 
793.000000	 88.025102 
792.000000	 88.213445 
791.000000	 88.380610 
790.000000	 88.509076 
789.000000	 88.578548 
788.000000	 88.580522 
787.000000	 88.518315 
786.000000	 88.388974 
785.000000	 88.181238 
784.000000	 87.897078 
783.000000	 87.561819 
782.000000	 87.208686 
781.000000	 86.867367 
780.000000	 86.571518 
779.000000	 86.359269 
778.000000	 86.256089 
777.000000	 86.267848 
776.000000	 86.392055 
775.000000	 86.618455 
774.000000	 86.916137 
773.000000	 87.240599 
772.000000	 87.561453 
771.000000	 87.870724 
770.000000	 88.163618 
769.000000	 88.427961 
768.000000	 88.655681 
767.000000	 88.849787 
766.000000	 89.016482 
765.000000	 89.162502 
764.000000	 89.301063 
763.000000	 89.446579 
762.000000	 89.601186 
761.000000	 89.758330 
760.000000	 89.919230 
759.000000	 90.092116 
758.000000	 90.276141 
757.000000	 90.461175 
756.000000	 90.643273 
755.000000	 90.825603 
754.000000	 91.005261 
753.000000	 91.174914 
752.000000	 91.336276 
751.000000	 91.495476 
750.000000	 91.645712 
749.000000	 91.772338 
748.000000	 91.877111 
747.000000	 91.981016 
746.000000	 92.100161 
745.000000	 92.233629 
744.000000	 92.377247 
743.000000	 92.533371 
742.000000	 92.703362 
741.000000	 92.884439 
740.000000	 93.076696 
739.000000	 93.280260 
738.000000	 93.484496 
737.000000	 93.673600 
736.000000	 93.843421 
735.000000	 93.999287 
734.000000	 94.138862 
733.000000	 94.252594 
732.000000	 94.340415 
731.000000	 94.413196 
730.000000	 94.477202 
729.000000	 94.531159 
728.000000	 94.578667 
727.000000	 94.628893 
726.000000	 94.684450 
725.000000	 94.742519 
724.000000	 94.808625 
723.000000	 94.895074 
722.000000	 95.004920 
721.000000	 95.130611 
720.000000	 95.267766 
719.000000	 95.415088 
718.000000	 95.561012 
717.000000	 95.688359 
716.000000	 95.794894 
715.000000	 95.894563 
714.000000	 95.996305 
713.000000	 96.095658 
712.000000	 96.189036 
711.000000	 96.280702 
710.000000	 96.371382 
709.000000	 96.453307 
708.000000	 96.519405 
707.000000	 96.564616 
706.000000	 96.577906 
705.000000	 96.547402 
704.000000	 96.474336 
703.000000	 96.365464 
702.000000	 96.207941 
701.000000	 95.968253 
700.000000	 95.622834 
699.000000	 95.178987 
698.000000	 94.670450 
697.000000	 94.155161 
696.000000	 93.718286 
695.000000	 93.445865 
694.000000	 93.374329 
693.000000	 93.474924 
692.000000	 93.690721 
691.000000	 93.974791 
690.000000	 94.292629 
689.000000	 94.612388 
688.000000	 94.910823 
687.000000	 95.179731 
686.000000	 95.415117 
685.000000	 95.611271 
684.000000	 95.773837 
683.000000	 95.922826 
682.000000	 96.072514 
681.000000	 96.219389 
680.000000	 96.356455 
679.000000	 96.485721 
678.000000	 96.607755 
677.000000	 96.713843 
676.000000	 96.799302 
675.000000	 96.872267 
674.000000	 96.944105 
673.000000	 97.019045 
672.000000	 97.095563 
671.000000	 97.171028 
670.000000	 97.245691 
669.000000	 97.326018 
668.000000	 97.422721 
667.000000	 97.538572 
666.000000	 97.655799 
665.000000	 97.757587 
664.000000	 97.848647 
663.000000	 97.939882 
662.000000	 98.028474 
661.000000	 98.101336 
660.000000	 98.155437 
659.000000	 98.196987 
658.000000	 98.224116 
657.000000	 98.228334 
656.000000	 98.211106 
655.000000	 98.181603 
654.000000	 98.140516 
653.000000	 98.081253 
652.000000	 98.010734 
651.000000	 97.957726 
650.000000	 97.952847 

