4000.000000	99.439738 
3999.000000	99.439150 
3998.000000	99.439042 
3997.000000	99.439145 
3996.000000	99.439370 
3995.000000	99.439781 
3994.000000	99.440310 
3993.000000	99.440731 
3992.000000	99.440919 
3991.000000	99.441016 
3990.000000	99.441298 
3989.000000	99.441860 
3988.000000	99.442444 
3987.000000	99.442593 
3986.000000	99.441977 
3985.000000	99.440635 
3984.000000	99.439056 
3983.000000	99.437972 
3982.000000	99.437872 
3981.000000	99.438642 
3980.000000	99.439702 
3979.000000	99.440486 
3978.000000	99.440726 
3977.000000	99.440347 
3976.000000	99.439330 
3975.000000	99.437854 
3974.000000	99.436424 
3973.000000	99.435643 
3972.000000	99.435761 
3971.000000	99.436470 
3970.000000	99.437190 
3969.000000	99.437613 
3968.000000	99.437854 
3967.000000	99.438177 
3966.000000	99.438646 
3965.000000	99.439035 
3964.000000	99.439151 
3963.000000	99.439173 
3962.000000	99.439531 
3961.000000	99.440444 
3960.000000	99.441648 
3959.000000	99.442471 
3958.000000	99.442307 
3957.000000	99.441135 
3956.000000	99.439572 
3955.000000	99.438498 
3954.000000	99.438430 
3953.000000	99.439150 
3952.000000	99.439906 
3951.000000	99.440106 
3950.000000	99.440001 
3949.000000	99.440348 
3948.000000	99.441332 
3947.000000	99.442273 
3946.000000	99.442323 
3945.000000	99.441061 
3944.000000	99.438580 
3943.000000	99.435563 
3942.000000	99.432920 
3941.000000	99.431174 
3940.000000	99.430357 
3939.000000	99.430241 
3938.000000	99.430603 
3937.000000	99.431458 
3936.000000	99.432913 
3935.000000	99.434877 
3934.000000	99.436850 
3933.000000	99.438046 
3932.000000	99.437750 
3931.000000	99.435782 
3930.000000	99.432738 
3929.000000	99.429468 
3928.000000	99.426512 
3927.000000	99.424242 
3926.000000	99.423008 
3925.000000	99.423157 
3924.000000	99.425010 
3923.000000	99.428317 
3922.000000	99.432154 
3921.000000	99.435336 
3920.000000	99.437146 
3919.000000	99.437665 
3918.000000	99.437211 
3917.000000	99.435935 
3916.000000	99.433991 
3915.000000	99.431883 
3914.000000	99.430169 
3913.000000	99.429084 
3912.000000	99.428636 
3911.000000	99.428602 
3910.000000	99.428663 
3909.000000	99.428806 
3908.000000	99.429371 
3907.000000	99.430706 
3906.000000	99.432830 
3905.000000	99.435394 
3904.000000	99.437998 
3903.000000	99.440063 
3902.000000	99.440900 
3901.000000	99.440285 
3900.000000	99.438560 
3899.000000	99.436621 
3898.000000	99.435325 
3897.000000	99.434798 
3896.000000	99.434623 
3895.000000	99.434337 
3894.000000	99.433713 
3893.000000	99.432876 
3892.000000	99.432095 
3891.000000	99.431527 
3890.000000	99.431300 
3889.000000	99.431558 
3888.000000	99.432092 
3887.000000	99.432267 
3886.000000	99.431771 
3885.000000	99.431020 
3884.000000	99.430623 
3883.000000	99.430624 
3882.000000	99.430549 
3881.000000	99.430079 
3880.000000	99.429340 
3879.000000	99.428704 
3878.000000	99.428418 
3877.000000	99.428372 
3876.000000	99.428133 
3875.000000	99.427434 
3874.000000	99.426550 
3873.000000	99.426091 
3872.000000	99.426300 
3871.000000	99.426740 
3870.000000	99.426734 
3869.000000	99.426115 
3868.000000	99.425337 
3867.000000	99.424817 
3866.000000	99.424303 
3865.000000	99.423429 
3864.000000	99.422577 
3863.000000	99.422284 
3862.000000	99.422484 
3861.000000	99.422679 
3860.000000	99.422364 
3859.000000	99.421225 
3858.000000	99.419443 
3857.000000	99.417680 
3856.000000	99.416689 
3855.000000	99.416269 
3854.000000	99.416386 
3853.000000	99.417435 
3852.000000	99.418847 
3851.000000	99.420020 
3850.000000	99.420921 
3849.000000	99.421305 
3848.000000	99.421253 
3847.000000	99.421161 
3846.000000	99.421177 
3845.000000	99.421258 
3844.000000	99.421291 
3843.000000	99.421042 
3842.000000	99.420762 
3841.000000	99.421171 
3840.000000	99.422549 
3839.000000	99.424471 
3838.000000	99.426188 
3837.000000	99.427130 
3836.000000	99.427262 
3835.000000	99.426764 
3834.000000	99.426001 
3833.000000	99.425353 
3832.000000	99.425055 
3831.000000	99.425169 
3830.000000	99.425427 
3829.000000	99.425368 
3828.000000	99.424782 
3827.000000	99.423869 
3826.000000	99.423242 
3825.000000	99.423689 
3824.000000	99.425366 
3823.000000	99.427038 
3822.000000	99.427330 
3821.000000	99.426596 
3820.000000	99.426353 
3819.000000	99.427271 
3818.000000	99.428464 
3817.000000	99.428113 
3816.000000	99.425325 
3815.000000	99.421283 
3814.000000	99.418106 
3813.000000	99.416496 
3812.000000	99.415707 
3811.000000	99.415163 
3810.000000	99.415166 
3809.000000	99.416018 
3808.000000	99.417118 
3807.000000	99.417468 
3806.000000	99.417224 
3805.000000	99.417524 
3804.000000	99.418643 
3803.000000	99.419029 
3802.000000	99.417113 
3801.000000	99.413656 
3800.000000	99.411067 
3799.000000	99.410633 
3798.000000	99.411455 
3797.000000	99.411629 
3796.000000	99.410194 
3795.000000	99.407643 
3794.000000	99.404945 
3793.000000	99.402335 
3792.000000	99.399559 
3791.000000	99.396900 
3790.000000	99.395080 
3789.000000	99.394304 
3788.000000	99.393884 
3787.000000	99.393079 
3786.000000	99.391925 
3785.000000	99.391122 
3784.000000	99.391338 
3783.000000	99.392962 
3782.000000	99.395715 
3781.000000	99.398497 
3780.000000	99.400306 
3779.000000	99.400910 
3778.000000	99.400664 
3777.000000	99.400250 
3776.000000	99.399981 
3775.000000	99.399155 
3774.000000	99.397601 
3773.000000	99.396899 
3772.000000	99.398753 
3771.000000	99.402610 
3770.000000	99.406537 
3769.000000	99.409442 
3768.000000	99.411103 
3767.000000	99.411694 
3766.000000	99.411134 
3765.000000	99.409400 
3764.000000	99.407729 
3763.000000	99.407796 
3762.000000	99.409139 
3761.000000	99.409412 
3760.000000	99.408509 
3759.000000	99.409286 
3758.000000	99.412649 
3757.000000	99.416587 
3756.000000	99.420118 
3755.000000	99.423667 
3754.000000	99.427305 
3753.000000	99.430478 
3752.000000	99.434290 
3751.000000	99.440656 
3750.000000	99.445980 
3749.000000	99.445613 
3748.000000	99.442271 
3747.000000	99.442033 
3746.000000	99.444820 
3745.000000	99.444171 
3744.000000	99.436385 
3743.000000	99.426790 
3742.000000	99.422884 
3741.000000	99.424626 
3740.000000	99.427079 
3739.000000	99.429097 
3738.000000	99.432373 
3737.000000	99.436624 
3736.000000	99.440858 
3735.000000	99.444725 
3734.000000	99.446686 
3733.000000	99.443055 
3732.000000	99.432724 
3731.000000	99.420180 
3730.000000	99.411044 
3729.000000	99.406910 
3728.000000	99.403560 
3727.000000	99.395851 
3726.000000	99.384482 
3725.000000	99.375005 
3724.000000	99.370268 
3723.000000	99.367592 
3722.000000	99.363665 
3721.000000	99.357385 
3720.000000	99.349789 
3719.000000	99.343259 
3718.000000	99.338601 
3717.000000	99.335250 
3716.000000	99.333394 
3715.000000	99.333041 
3714.000000	99.332150 
3713.000000	99.327327 
3712.000000	99.318533 
3711.000000	99.308372 
3710.000000	99.297568 
3709.000000	99.285578 
3708.000000	99.271831 
3707.000000	99.256385 
3706.000000	99.240053 
3705.000000	99.223283 
3704.000000	99.205298 
3703.000000	99.185097 
3702.000000	99.163797 
3701.000000	99.143143 
3700.000000	99.122937 
3699.000000	99.102177 
3698.000000	99.080370 
3697.000000	99.058436 
3696.000000	99.039523 
3695.000000	99.026450 
3694.000000	99.017929 
3693.000000	99.009548 
3692.000000	98.999072 
3691.000000	98.988883 
3690.000000	98.982708 
3689.000000	98.979498 
3688.000000	98.973612 
3687.000000	98.963394 
3686.000000	98.953354 
3685.000000	98.947334 
3684.000000	98.945636 
3683.000000	98.946466 
3682.000000	98.946657 
3681.000000	98.941949 
3680.000000	98.929270 
3679.000000	98.910153 
3678.000000	98.889934 
3677.000000	98.872196 
3676.000000	98.858875 
3675.000000	98.852172 
3674.000000	98.851686 
3673.000000	98.854920 
3672.000000	98.857504 
3671.000000	98.852678 
3670.000000	98.839099 
3669.000000	98.822257 
3668.000000	98.806900 
3667.000000	98.794352 
3666.000000	98.784195 
3665.000000	98.775359 
3664.000000	98.766588 
3663.000000	98.756753 
3662.000000	98.745559 
3661.000000	98.734801 
3660.000000	98.727715 
3659.000000	98.726080 
3658.000000	98.728133 
3657.000000	98.730168 
3656.000000	98.730765 
3655.000000	98.732390 
3654.000000	98.738212 
3653.000000	98.747426 
3652.000000	98.754759 
3651.000000	98.755533 
3650.000000	98.752142 
3649.000000	98.750490 
3648.000000	98.750741 
3647.000000	98.749357 
3646.000000	98.745483 
3645.000000	98.740844 
3644.000000	98.736799 
3643.000000	98.733286 
3642.000000	98.729097 
3641.000000	98.723996 
3640.000000	98.719139 
3639.000000	98.715927 
3638.000000	98.714858 
3637.000000	98.715070 
3636.000000	98.714839 
3635.000000	98.712499 
3634.000000	98.708618 
3633.000000	98.706734 
3632.000000	98.709942 
3631.000000	98.716564 
3630.000000	98.720743 
3629.000000	98.720108 
3628.000000	98.717251 
3627.000000	98.714659 
3626.000000	98.712761 
3625.000000	98.709356 
3624.000000	98.702317 
3623.000000	98.692432 
3622.000000	98.682753 
3621.000000	98.675625 
3620.000000	98.672971 
3619.000000	98.676606 
3618.000000	98.685710 
3617.000000	98.697406 
3616.000000	98.710082 
3615.000000	98.722890 
3614.000000	98.735417 
3613.000000	98.748041 
3612.000000	98.761018 
3611.000000	98.773591 
3610.000000	98.783956 
3609.000000	98.790191 
3608.000000	98.792253 
3607.000000	98.791726 
3606.000000	98.789682 
3605.000000	98.786356 
3604.000000	98.781924 
3603.000000	98.777191 
3602.000000	98.773932 
3601.000000	98.773744 
3600.000000	98.777717 
3599.000000	98.785789 
3598.000000	98.795381 
3597.000000	98.802594 
3596.000000	98.805527 
3595.000000	98.805839 
3594.000000	98.807537 
3593.000000	98.813202 
3592.000000	98.821621 
3591.000000	98.829613 
3590.000000	98.834237 
3589.000000	98.834702 
3588.000000	98.833356 
3587.000000	98.833041 
3586.000000	98.833124 
3585.000000	98.831638 
3584.000000	98.828304 
3583.000000	98.824435 
3582.000000	98.821189 
3581.000000	98.818911 
3580.000000	98.817531 
3579.000000	98.817302 
3578.000000	98.818821 
3577.000000	98.822262 
3576.000000	98.826900 
3575.000000	98.831041 
3574.000000	98.832886 
3573.000000	98.832000 
3572.000000	98.829705 
3571.000000	98.828201 
3570.000000	98.828840 
3569.000000	98.830843 
3568.000000	98.832368 
3567.000000	98.832717 
3566.000000	98.832224 
3565.000000	98.831512 
3564.000000	98.831342 
3563.000000	98.831552 
3562.000000	98.830791 
3561.000000	98.827845 
3560.000000	98.822872 
3559.000000	98.817486 
3558.000000	98.813339 
3557.000000	98.810887 
3556.000000	98.809741 
3555.000000	98.809773 
3554.000000	98.811112 
3553.000000	98.813386 
3552.000000	98.815339 
3551.000000	98.816000 
3550.000000	98.815898 
3549.000000	98.816405 
3548.000000	98.817955 
3547.000000	98.819628 
3546.000000	98.820055 
3545.000000	98.818826 
3544.000000	98.816912 
3543.000000	98.815808 
3542.000000	98.816249 
3541.000000	98.817639 
3540.000000	98.818497 
3539.000000	98.817795 
3538.000000	98.815833 
3537.000000	98.813918 
3536.000000	98.813109 
3535.000000	98.813415 
3534.000000	98.814364 
3533.000000	98.815734 
3532.000000	98.817499 
3531.000000	98.819346 
3530.000000	98.820880 
3529.000000	98.822223 
3528.000000	98.823874 
3527.000000	98.825889 
3526.000000	98.827524 
3525.000000	98.827923 
3524.000000	98.827062 
3523.000000	98.825809 
3522.000000	98.825007 
3521.000000	98.824842 
3520.000000	98.825076 
3519.000000	98.825600 
3518.000000	98.826455 
3517.000000	98.827465 
3516.000000	98.828239 
3515.000000	98.828634 
3514.000000	98.829180 
3513.000000	98.830689 
3512.000000	98.833461 
3511.000000	98.837006 
3510.000000	98.840495 
3509.000000	98.843194 
3508.000000	98.844595 
3507.000000	98.844566 
3506.000000	98.843529 
3505.000000	98.842411 
3504.000000	98.842039 
3503.000000	98.842452 
3502.000000	98.842965 
3501.000000	98.842947 
3500.000000	98.842321 
3499.000000	98.841409 
3498.000000	98.840727 
3497.000000	98.840885 
3496.000000	98.842282 
3495.000000	98.844600 
3494.000000	98.846735 
3493.000000	98.847625 
3492.000000	98.847104 
3491.000000	98.845892 
3490.000000	98.844936 
3489.000000	98.844660 
3488.000000	98.844851 
3487.000000	98.845001 
3486.000000	98.844650 
3485.000000	98.843604 
3484.000000	98.842094 
3483.000000	98.840745 
3482.000000	98.840156 
3481.000000	98.840389 
3480.000000	98.840956 
3479.000000	98.841328 
3478.000000	98.841388 
3477.000000	98.841287 
3476.000000	98.841040 
3475.000000	98.840473 
3474.000000	98.839525 
3473.000000	98.838428 
3472.000000	98.837501 
3471.000000	98.836851 
3470.000000	98.836372 
3469.000000	98.835940 
3468.000000	98.835465 
3467.000000	98.834840 
3466.000000	98.833980 
3465.000000	98.832939 
3464.000000	98.831921 
3463.000000	98.831122 
3462.000000	98.830562 
3461.000000	98.830075 
3460.000000	98.829472 
3459.000000	98.828714 
3458.000000	98.827895 
3457.000000	98.827112 
3456.000000	98.826370 
3455.000000	98.825601 
3454.000000	98.824756 
3453.000000	98.823823 
3452.000000	98.822795 
3451.000000	98.821652 
3450.000000	98.820408 
3449.000000	98.819159 
3448.000000	98.818030 
3447.000000	98.817069 
3446.000000	98.816187 
3445.000000	98.815217 
3444.000000	98.814090 
3443.000000	98.812915 
3442.000000	98.811899 
3441.000000	98.811150 
3440.000000	98.810568 
3439.000000	98.809878 
3438.000000	98.808849 
3437.000000	98.807491 
3436.000000	98.806037 
3435.000000	98.804700 
3434.000000	98.803497 
3433.000000	98.802340 
3432.000000	98.801274 
3431.000000	98.800442 
3430.000000	98.799811 
3429.000000	98.799051 
3428.000000	98.797799 
3427.000000	98.796014 
3426.000000	98.794041 
3425.000000	98.792360 
3424.000000	98.791297 
3423.000000	98.790883 
3422.000000	98.790843 
3421.000000	98.790702 
3420.000000	98.790003 
3419.000000	98.788600 
3418.000000	98.786835 
3417.000000	98.785301 
3416.000000	98.784352 
3415.000000	98.783849 
3414.000000	98.783418 
3413.000000	98.782889 
3412.000000	98.782354 
3411.000000	98.781878 
3410.000000	98.781404 
3409.000000	98.780933 
3408.000000	98.780542 
3407.000000	98.780159 
3406.000000	98.779552 
3405.000000	98.778730 
3404.000000	98.778136 
3403.000000	98.778163 
3402.000000	98.778599 
3401.000000	98.778793 
3400.000000	98.778413 
3399.000000	98.777767 
3398.000000	98.777352 
3397.000000	98.777345 
3396.000000	98.777671 
3395.000000	98.778370 
3394.000000	98.779598 
3393.000000	98.781237 
3392.000000	98.782682 
3391.000000	98.783237 
3390.000000	98.782707 
3389.000000	98.781539 
3388.000000	98.780481 
3387.000000	98.780103 
3386.000000	98.780584 
3385.000000	98.781798 
3384.000000	98.783410 
3383.000000	98.784988 
3382.000000	98.786217 
3381.000000	98.787062 
3380.000000	98.787719 
3379.000000	98.788355 
3378.000000	98.788926 
3377.000000	98.789250 
3376.000000	98.789225 
3375.000000	98.788984 
3374.000000	98.788924 
3373.000000	98.789515 
3372.000000	98.790921 
3371.000000	98.792774 
3370.000000	98.794381 
3369.000000	98.795346 
3368.000000	98.795856 
3367.000000	98.796321 
3366.000000	98.796879 
3365.000000	98.797444 
3364.000000	98.798126 
3363.000000	98.799244 
3362.000000	98.800839 
3361.000000	98.802460 
3360.000000	98.803647 
3359.000000	98.804481 
3358.000000	98.805451 
3357.000000	98.806835 
3356.000000	98.808421 
3355.000000	98.809816 
3354.000000	98.810840 
3353.000000	98.811563 
3352.000000	98.812134 
3351.000000	98.812708 
3350.000000	98.813433 
3349.000000	98.814415 
3348.000000	98.815674 
3347.000000	98.817198 
3346.000000	98.818947 
3345.000000	98.820742 
3344.000000	98.822228 
3343.000000	98.823105 
3342.000000	98.823375 
3341.000000	98.823298 
3340.000000	98.823112 
3339.000000	98.822870 
3338.000000	98.822602 
3337.000000	98.822571 
3336.000000	98.823202 
3335.000000	98.824708 
3334.000000	98.826844 
3333.000000	98.829023 
3332.000000	98.830727 
3331.000000	98.831779 
3330.000000	98.832273 
3329.000000	98.832447 
3328.000000	98.832611 
3327.000000	98.833054 
3326.000000	98.833848 
3325.000000	98.834730 
3324.000000	98.835307 
3323.000000	98.835452 
3322.000000	98.835471 
3321.000000	98.835871 
3320.000000	98.836935 
3319.000000	98.838537 
3318.000000	98.840276 
3317.000000	98.841761 
3316.000000	98.842857 
3315.000000	98.843720 
3314.000000	98.844619 
3313.000000	98.845679 
3312.000000	98.846754 
3311.000000	98.847596 
3310.000000	98.848153 
3309.000000	98.848631 
3308.000000	98.849245 
3307.000000	98.849939 
3306.000000	98.850449 
3305.000000	98.850625 
3304.000000	98.850631 
3303.000000	98.850820 
3302.000000	98.851413 
3301.000000	98.852356 
3300.000000	98.853422 
3299.000000	98.854372 
3298.000000	98.855087 
3297.000000	98.855586 
3296.000000	98.856006 
3295.000000	98.856518 
3294.000000	98.857203 
3293.000000	98.858004 
3292.000000	98.858762 
3291.000000	98.859347 
3290.000000	98.859760 
3289.000000	98.860113 
3288.000000	98.860529 
3287.000000	98.861035 
3286.000000	98.861566 
3285.000000	98.862042 
3284.000000	98.862452 
3283.000000	98.862853 
3282.000000	98.863295 
3281.000000	98.863782 
3280.000000	98.864311 
3279.000000	98.864924 
3278.000000	98.865663 
3277.000000	98.866474 
3276.000000	98.867179 
3275.000000	98.867615 
3274.000000	98.867789 
3273.000000	98.867846 
3272.000000	98.867915 
3271.000000	98.868036 
3270.000000	98.868250 
3269.000000	98.868668 
3268.000000	98.869392 
3267.000000	98.870367 
3266.000000	98.871319 
3265.000000	98.871927 
3264.000000	98.872076 
3263.000000	98.871909 
3262.000000	98.871690 
3261.000000	98.871585 
3260.000000	98.871630 
3259.000000	98.871840 
3258.000000	98.872261 
3257.000000	98.872909 
3256.000000	98.873680 
3255.000000	98.874366 
3254.000000	98.874788 
3253.000000	98.874941 
3252.000000	98.875026 
3251.000000	98.875305 
3250.000000	98.875890 
3249.000000	98.876681 
3248.000000	98.877512 
3247.000000	98.878300 
3246.000000	98.879038 
3245.000000	98.879713 
3244.000000	98.880301 
3243.000000	98.880817 
3242.000000	98.881296 
3241.000000	98.881746 
3240.000000	98.882178 
3239.000000	98.882671 
3238.000000	98.883329 
3237.000000	98.884187 
3236.000000	98.885180 
3235.000000	98.886192 
3234.000000	98.887100 
3233.000000	98.887785 
3232.000000	98.888197 
3231.000000	98.888437 
3230.000000	98.888747 
3229.000000	98.889303 
3228.000000	98.890067 
3227.000000	98.890867 
3226.000000	98.891641 
3225.000000	98.892489 
3224.000000	98.893488 
3223.000000	98.894571 
3222.000000	98.895581 
3221.000000	98.896418 
3220.000000	98.897116 
3219.000000	98.897819 
3218.000000	98.898673 
3217.000000	98.899694 
3216.000000	98.900774 
3215.000000	98.901810 
3214.000000	98.902803 
3213.000000	98.903806 
3212.000000	98.904817 
3211.000000	98.905801 
3210.000000	98.906771 
3209.000000	98.907763 
3208.000000	98.908718 
3207.000000	98.909522 
3206.000000	98.910172 
3205.000000	98.910851 
3204.000000	98.911762 
3203.000000	98.912924 
3202.000000	98.914191 
3201.000000	98.915433 
3200.000000	98.916634 
3199.000000	98.917799 
3198.000000	98.918888 
3197.000000	98.919863 
3196.000000	98.920754 
3195.000000	98.921652 
3194.000000	98.922638 
3193.000000	98.923741 
3192.000000	98.924958 
3191.000000	98.926281 
3190.000000	98.927720 
3189.000000	98.929276 
3188.000000	98.930895 
3187.000000	98.932433 
3186.000000	98.933707 
3185.000000	98.934645 
3184.000000	98.935448 
3183.000000	98.936490 
3182.000000	98.937967 
3181.000000	98.939711 
3180.000000	98.941347 
3179.000000	98.942687 
3178.000000	98.943849 
3177.000000	98.945055 
3176.000000	98.946391 
3175.000000	98.947780 
3174.000000	98.949067 
3173.000000	98.950095 
3172.000000	98.950860 
3171.000000	98.951641 
3170.000000	98.952842 
3169.000000	98.954570 
3168.000000	98.956466 
3167.000000	98.958042 
3166.000000	98.959147 
3165.000000	98.960029 
3164.000000	98.961026 
3163.000000	98.962309 
3162.000000	98.963843 
3161.000000	98.965430 
3160.000000	98.966845 
3159.000000	98.968064 
3158.000000	98.969365 
3157.000000	98.971051 
3156.000000	98.973042 
3155.000000	98.974909 
3154.000000	98.976364 
3153.000000	98.977564 
3152.000000	98.978777 
3151.000000	98.979840 
3150.000000	98.980158 
3149.000000	98.979361 
3148.000000	98.977980 
3147.000000	98.977315 
3146.000000	98.978413 
3145.000000	98.981284 
3144.000000	98.985077 
3143.000000	98.988973 
3142.000000	98.992777 
3141.000000	98.996500 
3140.000000	98.999734 
3139.000000	99.001825 
3138.000000	99.002647 
3137.000000	99.002837 
3136.000000	99.003274 
3135.000000	99.004406 
3134.000000	99.006127 
3133.000000	99.008012 
3132.000000	99.009553 
3131.000000	99.010410 
3130.000000	99.010723 
3129.000000	99.011166 
3128.000000	99.012458 
3127.000000	99.014728 
3126.000000	99.017426 
3125.000000	99.019844 
3124.000000	99.021707 
3123.000000	99.023238 
3122.000000	99.024747 
3121.000000	99.026249 
3120.000000	99.027504 
3119.000000	99.028375 
3118.000000	99.029104 
3117.000000	99.030176 
3116.000000	99.031865 
3115.000000	99.033956 
3114.000000	99.035968 
3113.000000	99.037653 
3112.000000	99.039203 
3111.000000	99.040984 
3110.000000	99.043104 
3109.000000	99.045231 
3108.000000	99.046820 
3107.000000	99.047538 
3106.000000	99.047573 
3105.000000	99.047545 
3104.000000	99.047900 
3103.000000	99.048508 
3102.000000	99.048937 
3101.000000	99.049231 
3100.000000	99.050153 
3099.000000	99.052350 
3098.000000	99.055383 
3097.000000	99.057933 
3096.000000	99.059180 
3095.000000	99.059692 
3094.000000	99.060712 
3093.000000	99.062743 
3092.000000	99.065082 
3091.000000	99.066501 
3090.000000	99.066273 
3089.000000	99.064761 
3088.000000	99.063383 
3087.000000	99.063795 
3086.000000	99.066729 
3085.000000	99.071371 
3084.000000	99.075926 
3083.000000	99.078974 
3082.000000	99.080363 
3081.000000	99.081105 
3080.000000	99.082538 
3079.000000	99.085283 
3078.000000	99.088499 
3077.000000	99.090165 
3076.000000	99.088749 
3075.000000	99.084995 
3074.000000	99.081725 
3073.000000	99.081193 
3072.000000	99.082877 
3071.000000	99.084559 
3070.000000	99.085424 
3069.000000	99.086870 
3068.000000	99.089708 
3067.000000	99.091878 
3066.000000	99.090642 
3065.000000	99.086650 
3064.000000	99.083934 
3063.000000	99.085146 
3062.000000	99.088273 
3061.000000	99.089389 
3060.000000	99.087753 
3059.000000	99.086536 
3058.000000	99.088331 
3057.000000	99.091424 
3056.000000	99.091606 
3055.000000	99.087067 
3054.000000	99.080335 
3053.000000	99.075282 
3052.000000	99.073072 
3051.000000	99.071557 
3050.000000	99.068171 
3049.000000	99.062630 
3048.000000	99.056779 
3047.000000	99.052415 
3046.000000	99.049671 
3045.000000	99.047322 
3044.000000	99.044210 
3043.000000	99.040172 
3042.000000	99.035463 
3041.000000	99.029524 
3040.000000	99.020877 
3039.000000	99.008972 
3038.000000	98.995705 
3037.000000	98.984026 
3036.000000	98.974582 
3035.000000	98.964739 
3034.000000	98.951743 
3033.000000	98.935618 
3032.000000	98.918062 
3031.000000	98.899705 
3030.000000	98.879519 
3029.000000	98.856920 
3028.000000	98.833396 
3027.000000	98.811151 
3026.000000	98.790599 
3025.000000	98.770117 
3024.000000	98.748068 
3023.000000	98.724345 
3022.000000	98.699973 
3021.000000	98.675848 
3020.000000	98.651982 
3019.000000	98.627520 
3018.000000	98.601245 
3017.000000	98.572382 
3016.000000	98.541121 
3015.000000	98.508332 
3014.000000	98.474744 
3013.000000	98.440446 
3012.000000	98.405061 
3011.000000	98.368365 
3010.000000	98.330861 
3009.000000	98.293694 
3008.000000	98.257619 
3007.000000	98.221950 
3006.000000	98.185202 
3005.000000	98.147305 
3004.000000	98.110482 
3003.000000	98.076853 
3002.000000	98.045508 
3001.000000	98.013283 
3000.000000	97.978698 
2999.000000	97.943926 
2998.000000	97.912581 
2997.000000	97.886951 
2996.000000	97.867452 
2995.000000	97.851905 
2994.000000	97.832943 
2993.000000	97.798724 
2992.000000	97.741840 
2991.000000	97.669752 
2990.000000	97.603547 
2989.000000	97.562971 
2988.000000	97.553007 
2987.000000	97.564631 
2986.000000	97.585021 
2985.000000	97.605303 
2984.000000	97.621032 
2983.000000	97.630751 
2982.000000	97.635884 
2981.000000	97.639333 
2980.000000	97.642161 
2979.000000	97.642649 
2978.000000	97.639267 
2977.000000	97.632900 
2976.000000	97.625122 
2975.000000	97.616064 
2974.000000	97.606005 
2973.000000	97.598248 
2972.000000	97.598303 
2971.000000	97.609721 
2970.000000	97.631444 
2969.000000	97.659076 
2968.000000	97.688117 
2967.000000	97.716454 
2966.000000	97.744804 
2965.000000	97.774987 
2964.000000	97.807194 
2963.000000	97.838730 
2962.000000	97.865788 
2961.000000	97.886601 
2960.000000	97.902809 
2959.000000	97.918215 
2958.000000	97.936481 
2957.000000	97.959253 
2956.000000	97.985212 
2955.000000	98.010750 
2954.000000	98.032539 
2953.000000	98.050227 
2952.000000	98.066552 
2951.000000	98.084611 
2950.000000	98.104956 
2949.000000	98.125189 
2948.000000	98.142001 
2947.000000	98.153540 
2946.000000	98.160676 
2945.000000	98.166506 
2944.000000	98.174054 
2943.000000	98.184065 
2942.000000	98.194922 
2941.000000	98.204331 
2940.000000	98.211121 
2939.000000	98.215978 
2938.000000	98.220796 
2937.000000	98.227399 
2936.000000	98.236595 
2935.000000	98.248000 
2934.000000	98.260428 
2933.000000	98.272281 
2932.000000	98.281693 
2931.000000	98.286795 
2930.000000	98.286563 
2929.000000	98.281845 
2928.000000	98.275492 
2927.000000	98.270861 
2926.000000	98.269546 
2925.000000	98.270214 
2924.000000	98.269879 
2923.000000	98.266611 
2922.000000	98.261017 
2921.000000	98.254978 
2920.000000	98.249202 
2919.000000	98.242408 
2918.000000	98.232730 
2917.000000	98.219195 
2916.000000	98.201729 
2915.000000	98.180648 
2914.000000	98.157110 
2913.000000	98.133997 
2912.000000	98.115200 
2911.000000	98.103096 
2910.000000	98.096593 
2909.000000	98.092087 
2908.000000	98.086655 
2907.000000	98.079588 
2906.000000	98.070219 
2905.000000	98.055180 
2904.000000	98.030693 
2903.000000	97.999600 
2902.000000	97.974812 
2901.000000	97.971516 
2900.000000	97.995485 
2899.000000	98.037488 
2898.000000	98.079985 
2897.000000	98.109461 
2896.000000	98.123194 
2895.000000	98.126758 
2894.000000	98.127889 
2893.000000	98.131807 
2892.000000	98.139686 
2891.000000	98.149508 
2890.000000	98.158383 
2889.000000	98.164598 
2888.000000	98.168128 
2887.000000	98.170151 
2886.000000	98.172778 
2885.000000	98.178763 
2884.000000	98.190400 
2883.000000	98.208240 
2882.000000	98.230998 
2881.000000	98.256670 
2880.000000	98.283549 
2879.000000	98.310576 
2878.000000	98.337141 
2877.000000	98.362488 
2876.000000	98.385260 
2875.000000	98.404280 
2874.000000	98.420215 
2873.000000	98.435632 
2872.000000	98.452378 
2871.000000	98.469292 
2870.000000	98.483711 
2869.000000	98.495218 
2868.000000	98.506866 
2867.000000	98.522519 
2866.000000	98.543872 
2865.000000	98.570235 
2864.000000	98.600058 
2863.000000	98.631963 
2862.000000	98.664845 
2861.000000	98.697833 
2860.000000	98.730294 
2859.000000	98.761748 
2858.000000	98.791812 
2857.000000	98.820222 
2856.000000	98.846532 
2855.000000	98.869867 
2854.000000	98.889877 
2853.000000	98.907619 
2852.000000	98.924241 
2851.000000	98.938960 
2850.000000	98.949569 
2849.000000	98.954966 
2848.000000	98.956485 
2847.000000	98.956997 
2846.000000	98.959558 
2845.000000	98.966478 
2844.000000	98.978003 
2843.000000	98.991439 
2842.000000	99.002756 
2841.000000	99.009792 
2840.000000	99.013406 
2839.000000	99.015703 
2838.000000	99.018397 
2837.000000	99.022884 
2836.000000	99.029891 
2835.000000	99.037997 
2834.000000	99.044233 
2833.000000	99.047602 
2832.000000	99.050829 
2831.000000	99.056951 
2830.000000	99.065078 
2829.000000	99.071479 
2828.000000	99.074319 
2827.000000	99.075308 
2826.000000	99.076732 
2825.000000	99.078914 
2824.000000	99.081363 
2823.000000	99.084683 
2822.000000	99.089945 
2821.000000	99.096914 
2820.000000	99.104007 
2819.000000	99.109738 
2818.000000	99.113502 
2817.000000	99.115304 
2816.000000	99.115621 
2815.000000	99.115604 
2814.000000	99.116705 
2813.000000	99.119643 
2812.000000	99.123805 
2811.000000	99.127898 
2810.000000	99.131173 
2809.000000	99.133871 
2808.000000	99.136516 
2807.000000	99.139028 
2806.000000	99.140775 
2805.000000	99.141392 
2804.000000	99.141224 
2803.000000	99.140979 
2802.000000	99.141196 
2801.000000	99.142089 
2800.000000	99.143577 
2799.000000	99.145333 
2798.000000	99.147043 
2797.000000	99.148733 
2796.000000	99.150658 
2795.000000	99.152899 
2794.000000	99.155394 
2793.000000	99.158287 
2792.000000	99.161691 
2791.000000	99.164947 
2790.000000	99.166795 
2789.000000	99.166682 
2788.000000	99.165524 
2787.000000	99.164826 
2786.000000	99.165244 
2785.000000	99.166484 
2784.000000	99.168186 
2783.000000	99.170227 
2782.000000	99.172273 
2781.000000	99.173791 
2780.000000	99.174770 
2779.000000	99.175973 
2778.000000	99.178112 
2777.000000	99.181039 
2776.000000	99.183922 
2775.000000	99.186060 
2774.000000	99.187368 
2773.000000	99.188226 
2772.000000	99.189132 
2771.000000	99.190355 
2770.000000	99.191766 
2769.000000	99.192991 
2768.000000	99.193818 
2767.000000	99.194390 
2766.000000	99.194969 
2765.000000	99.195610 
2764.000000	99.196211 
2763.000000	99.196860 
2762.000000	99.197918 
2761.000000	99.199628 
2760.000000	99.201783 
2759.000000	99.203831 
2758.000000	99.205432 
2757.000000	99.206744 
2756.000000	99.208125 
2755.000000	99.209688 
2754.000000	99.211231 
2753.000000	99.212580 
2752.000000	99.213824 
2751.000000	99.215165 
2750.000000	99.216625 
2749.000000	99.218031 
2748.000000	99.219269 
2747.000000	99.220434 
2746.000000	99.221700 
2745.000000	99.223112 
2744.000000	99.224571 
2743.000000	99.225986 
2742.000000	99.227352 
2741.000000	99.228670 
2740.000000	99.229905 
2739.000000	99.231049 
2738.000000	99.232185 
2737.000000	99.233433 
2736.000000	99.234817 
2735.000000	99.236243 
2734.000000	99.237591 
2733.000000	99.238823 
2732.000000	99.239986 
2731.000000	99.241156 
2730.000000	99.242383 
2729.000000	99.243688 
2728.000000	99.245050 
2727.000000	99.246417 
2726.000000	99.247734 
2725.000000	99.248985 
2724.000000	99.250203 
2723.000000	99.251419 
2722.000000	99.252631 
2721.000000	99.253793 
2720.000000	99.254837 
2719.000000	99.255740 
2718.000000	99.256597 
2717.000000	99.257577 
2716.000000	99.258753 
2715.000000	99.259971 
2714.000000	99.260969 
2713.000000	99.261646 
2712.000000	99.262146 
2711.000000	99.262708 
2710.000000	99.263447 
2709.000000	99.264354 
2708.000000	99.265388 
2707.000000	99.266483 
2706.000000	99.267481 
2705.000000	99.268188 
2704.000000	99.268565 
2703.000000	99.268899 
2702.000000	99.269684 
2701.000000	99.271198 
2700.000000	99.273092 
2699.000000	99.274522 
2698.000000	99.274885 
2697.000000	99.274349 
2696.000000	99.273668 
2695.000000	99.273483 
2694.000000	99.273944 
2693.000000	99.274800 
2692.000000	99.275564 
2691.000000	99.275729 
2690.000000	99.275230 
2689.000000	99.274628 
2688.000000	99.274440 
2687.000000	99.274375 
2686.000000	99.273767 
2685.000000	99.272795 
2684.000000	99.272617 
2683.000000	99.273939 
2682.000000	99.275928 
2681.000000	99.277035 
2680.000000	99.276583 
2679.000000	99.275116 
2678.000000	99.273567 
2677.000000	99.272596 
2676.000000	99.272534 
2675.000000	99.273329 
2674.000000	99.274404 
2673.000000	99.274942 
2672.000000	99.274528 
2671.000000	99.273405 
2670.000000	99.272211 
2669.000000	99.271560 
2668.000000	99.271646 
2667.000000	99.271975 
2666.000000	99.271629 
2665.000000	99.270099 
2664.000000	99.267742 
2663.000000	99.265222 
2662.000000	99.262666 
2661.000000	99.259795 
2660.000000	99.256788 
2659.000000	99.254457 
2658.000000	99.253310 
2657.000000	99.252743 
2656.000000	99.251505 
2655.000000	99.248939 
2654.000000	99.245609 
2653.000000	99.242768 
2652.000000	99.241408 
2651.000000	99.241753 
2650.000000	99.243238 
2649.000000	99.244684 
2648.000000	99.244813 
2647.000000	99.243207 
2646.000000	99.240894 
2645.000000	99.239598 
2644.000000	99.240179 
2643.000000	99.242013 
2642.000000	99.243879 
2641.000000	99.245154 
2640.000000	99.245900 
2639.000000	99.246308 
2638.000000	99.246520 
2637.000000	99.246731 
2636.000000	99.247042 
2635.000000	99.247429 
2634.000000	99.248126 
2633.000000	99.249652 
2632.000000	99.252010 
2631.000000	99.254186 
2630.000000	99.255034 
2629.000000	99.254516 
2628.000000	99.253571 
2627.000000	99.252957 
2626.000000	99.252683 
2625.000000	99.252474 
2624.000000	99.252311 
2623.000000	99.252432 
2622.000000	99.253072 
2621.000000	99.254185 
2620.000000	99.255360 
2619.000000	99.256168 
2618.000000	99.256649 
2617.000000	99.257168 
2616.000000	99.257778 
2615.000000	99.258122 
2614.000000	99.258085 
2613.000000	99.258059 
2612.000000	99.258424 
2611.000000	99.259131 
2610.000000	99.259951 
2609.000000	99.260750 
2608.000000	99.261481 
2607.000000	99.262138 
2606.000000	99.262770 
2605.000000	99.263413 
2604.000000	99.264061 
2603.000000	99.264717 
2602.000000	99.265376 
2601.000000	99.266035 
2600.000000	99.266693 
2599.000000	99.267354 
2598.000000	99.268018 
2597.000000	99.268687 
2596.000000	99.269363 
2595.000000	99.270043 
2594.000000	99.270723 
2593.000000	99.271398 
2592.000000	99.272066 
2591.000000	99.272730 
2590.000000	99.273392 
2589.000000	99.274059 
2588.000000	99.274736 
2587.000000	99.275426 
2586.000000	99.276122 
2585.000000	99.276815 
2584.000000	99.277498 
2583.000000	99.278171 
2582.000000	99.278839 
2581.000000	99.279511 
2580.000000	99.280196 
2579.000000	99.280897 
2578.000000	99.281612 
2577.000000	99.282336 
2576.000000	99.283063 
2575.000000	99.283788 
2574.000000	99.284513 
2573.000000	99.285238 
2572.000000	99.285965 
2571.000000	99.286689 
2570.000000	99.287401 
2569.000000	99.288091 
2568.000000	99.288763 
2567.000000	99.289442 
2566.000000	99.290144 
2565.000000	99.290820 
2564.000000	99.291401 
2563.000000	99.291880 
2562.000000	99.292332 
2561.000000	99.292827 
2560.000000	99.293406 
2559.000000	99.294024 
2558.000000	99.294498 
2557.000000	99.294696 
2556.000000	99.294777 
2555.000000	99.295015 
2554.000000	99.295384 
2553.000000	99.295654 
2552.000000	99.295867 
2551.000000	99.296275 
2550.000000	99.296787 
2549.000000	99.296991 
2548.000000	99.296791 
2547.000000	99.296548 
2546.000000	99.296453 
2545.000000	99.296261 
2544.000000	99.295820 
2543.000000	99.295479 
2542.000000	99.295730 
2541.000000	99.296727 
2540.000000	99.298211 
2539.000000	99.299580 
2538.000000	99.300096 
2537.000000	99.299465 
2536.000000	99.298342 
2535.000000	99.297825 
2534.000000	99.298246 
2533.000000	99.298937 
2532.000000	99.299097 
2531.000000	99.298410 
2530.000000	99.296889 
2529.000000	99.294798 
2528.000000	99.292848 
2527.000000	99.291774 
2526.000000	99.291508 
2525.000000	99.291208 
2524.000000	99.290318 
2523.000000	99.289221 
2522.000000	99.288639 
2521.000000	99.288829 
2520.000000	99.289565 
2519.000000	99.290402 
2518.000000	99.290752 
2517.000000	99.290241 
2516.000000	99.289262 
2515.000000	99.288847 
2514.000000	99.289690 
2513.000000	99.291533 
2512.000000	99.293448 
2511.000000	99.294567 
2510.000000	99.294558 
2509.000000	99.293706 
2508.000000	99.292745 
2507.000000	99.292265 
2506.000000	99.292185 
2505.000000	99.292037 
2504.000000	99.291704 
2503.000000	99.291481 
2502.000000	99.291435 
2501.000000	99.291266 
2500.000000	99.290959 
2499.000000	99.291078 
2498.000000	99.292079 
2497.000000	99.293702 
2496.000000	99.295214 
2495.000000	99.296015 
2494.000000	99.295963 
2493.000000	99.295448 
2492.000000	99.295306 
2491.000000	99.296221 
2490.000000	99.298055 
2489.000000	99.299919 
2488.000000	99.301080 
2487.000000	99.301634 
2486.000000	99.302112 
2485.000000	99.302676 
2484.000000	99.303001 
2483.000000	99.302782 
2482.000000	99.302069 
2481.000000	99.301234 
2480.000000	99.300805 
2479.000000	99.301176 
2478.000000	99.302308 
2477.000000	99.303687 
2476.000000	99.304708 
2475.000000	99.305114 
2474.000000	99.305067 
2473.000000	99.304911 
2472.000000	99.304900 
2471.000000	99.304993 
2470.000000	99.304914 
2469.000000	99.304517 
2468.000000	99.304066 
2467.000000	99.303914 
2466.000000	99.303906 
2465.000000	99.303508 
2464.000000	99.302596 
2463.000000	99.301792 
2462.000000	99.301795 
2461.000000	99.302599 
2460.000000	99.303502 
2459.000000	99.303753 
2458.000000	99.303152 
2457.000000	99.302100 
2456.000000	99.301290 
2455.000000	99.301095 
2454.000000	99.301187 
2453.000000	99.300839 
2452.000000	99.299779 
2451.000000	99.298601 
2450.000000	99.298156 
2449.000000	99.298733 
2448.000000	99.299988 
2447.000000	99.301373 
2446.000000	99.302529 
2445.000000	99.303310 
2444.000000	99.303745 
2443.000000	99.303982 
2442.000000	99.304109 
2441.000000	99.304073 
2440.000000	99.303867 
2439.000000	99.303637 
2438.000000	99.303445 
2437.000000	99.303066 
2436.000000	99.302289 
2435.000000	99.301342 
2434.000000	99.300799 
2433.000000	99.301054 
2432.000000	99.302022 
2431.000000	99.303281 
2430.000000	99.304330 
2429.000000	99.304812 
2428.000000	99.304699 
2427.000000	99.304396 
2426.000000	99.304485 
2425.000000	99.305219 
2424.000000	99.306256 
2423.000000	99.306969 
2422.000000	99.307127 
2421.000000	99.307187 
2420.000000	99.307839 
2419.000000	99.309213 
2418.000000	99.310656 
2417.000000	99.311409 
2416.000000	99.311367 
2415.000000	99.311081 
2414.000000	99.311136 
2413.000000	99.311724 
2412.000000	99.312758 
2411.000000	99.314039 
2410.000000	99.315242 
2409.000000	99.316010 
2408.000000	99.316218 
2407.000000	99.315954 
2406.000000	99.315325 
2405.000000	99.314422 
2404.000000	99.313480 
2403.000000	99.312868 
2402.000000	99.312729 
2401.000000	99.312808 
2400.000000	99.312776 
2399.000000	99.312643 
2398.000000	99.312678 
2397.000000	99.312978 
2396.000000	99.313259 
2395.000000	99.313143 
2394.000000	99.312568 
2393.000000	99.311840 
2392.000000	99.311295 
2391.000000	99.310971 
2390.000000	99.310636 
2389.000000	99.310071 
2388.000000	99.309275 
2387.000000	99.308459 
2386.000000	99.307908 
2385.000000	99.307755 
2384.000000	99.307805 
2383.000000	99.307567 
2382.000000	99.306686 
2381.000000	99.305260 
2380.000000	99.303735 
2379.000000	99.302476 
2378.000000	99.301460 
2377.000000	99.300454 
2376.000000	99.299304 
2375.000000	99.298025 
2374.000000	99.296733 
2373.000000	99.295514 
2372.000000	99.294349 
2371.000000	99.293147 
2370.000000	99.291849 
2369.000000	99.290499 
2368.000000	99.289141 
2367.000000	99.287756 
2366.000000	99.286323 
2365.000000	99.284853 
2364.000000	99.283353 
2363.000000	99.281782 
2362.000000	99.280044 
2361.000000	99.278054 
2360.000000	99.275970 
2359.000000	99.274192 
2358.000000	99.272891 
2357.000000	99.271733 
2356.000000	99.270310 
2355.000000	99.268632 
2354.000000	99.266826 
2353.000000	99.264873 
2352.000000	99.262839 
2351.000000	99.260990 
2350.000000	99.259508 
2349.000000	99.258176 
2348.000000	99.256610 
2347.000000	99.254561 
2346.000000	99.252183 
2345.000000	99.250168 
2344.000000	99.249100 
2343.000000	99.248815 
2342.000000	99.248220 
2341.000000	99.246328 
2340.000000	99.243148 
2339.000000	99.239650 
2338.000000	99.236990 
2337.000000	99.235547 
2336.000000	99.234809 
2335.000000	99.233729 
2334.000000	99.231926 
2333.000000	99.230278 
2332.000000	99.230467 
2331.000000	99.232850 
2330.000000	99.235770 
2329.000000	99.236384 
2328.000000	99.233091 
2327.000000	99.225848 
2326.000000	99.216145 
2325.000000	99.206738 
2324.000000	99.200646 
2323.000000	99.199355 
2322.000000	99.201613 
2321.000000	99.204806 
2320.000000	99.207706 
2319.000000	99.210754 
2318.000000	99.214288 
2317.000000	99.217281 
2316.000000	99.218613 
2315.000000	99.217808 
2314.000000	99.215575 
2313.000000	99.213190 
2312.000000	99.212308 
2311.000000	99.213394 
2310.000000	99.215494 
2309.000000	99.217152 
2308.000000	99.218436 
2307.000000	99.220447 
2306.000000	99.223763 
2305.000000	99.227472 
2304.000000	99.230387 
2303.000000	99.231744 
2302.000000	99.231298 
2301.000000	99.229061 
2300.000000	99.225835 
2299.000000	99.222689 
2298.000000	99.220361 
2297.000000	99.218997 
2296.000000	99.218722 
2295.000000	99.219069 
2294.000000	99.218610 
2293.000000	99.216039 
2292.000000	99.211964 
2291.000000	99.208248 
2290.000000	99.205598 
2289.000000	99.203047 
2288.000000	99.199968 
2287.000000	99.197355 
2286.000000	99.196679 
2285.000000	99.198543 
2284.000000	99.202619 
2283.000000	99.207985 
2282.000000	99.213260 
2281.000000	99.217776 
2280.000000	99.222522 
2279.000000	99.228437 
2278.000000	99.233990 
2277.000000	99.236600 
2276.000000	99.236617 
2275.000000	99.237432 
2274.000000	99.240864 
2273.000000	99.244632 
2272.000000	99.245789 
2271.000000	99.244787 
2270.000000	99.244662 
2269.000000	99.247389 
2268.000000	99.252290 
2267.000000	99.257138 
2266.000000	99.259872 
2265.000000	99.260046 
2264.000000	99.259326 
2263.000000	99.259774 
2262.000000	99.261172 
2261.000000	99.261068 
2260.000000	99.257932 
2259.000000	99.253225 
2258.000000	99.249888 
2257.000000	99.249393 
2256.000000	99.251098 
2255.000000	99.253618 
2254.000000	99.256104 
2253.000000	99.258515 
2252.000000	99.261177 
2251.000000	99.264084 
2250.000000	99.266598 
2249.000000	99.268036 
2248.000000	99.268531 
2247.000000	99.268833 
2246.000000	99.269521 
2245.000000	99.270598 
2244.000000	99.271806 
2243.000000	99.272945 
2242.000000	99.273906 
2241.000000	99.274685 
2240.000000	99.275489 
2239.000000	99.276606 
2238.000000	99.278009 
2237.000000	99.279223 
2236.000000	99.279871 
2235.000000	99.280261 
2234.000000	99.281158 
2233.000000	99.282916 
2232.000000	99.285170 
2231.000000	99.287289 
2230.000000	99.288927 
2229.000000	99.290071 
2228.000000	99.290777 
2227.000000	99.291009 
2226.000000	99.290735 
2225.000000	99.290257 
2224.000000	99.290392 
2223.000000	99.292002 
2222.000000	99.295074 
2221.000000	99.298295 
2220.000000	99.300010 
2219.000000	99.299801 
2218.000000	99.299015 
2217.000000	99.299600 
2216.000000	99.302245 
2215.000000	99.305917 
2214.000000	99.308928 
2213.000000	99.310360 
2212.000000	99.310373 
2211.000000	99.309687 
2210.000000	99.309220 
2209.000000	99.309908 
2208.000000	99.312240 
2207.000000	99.315784 
2206.000000	99.319556 
2205.000000	99.323052 
2204.000000	99.326396 
2203.000000	99.329376 
2202.000000	99.331302 
2201.000000	99.332034 
2200.000000	99.331858 
2199.000000	99.330671 
2198.000000	99.328207 
2197.000000	99.325033 
2196.000000	99.322810 
2195.000000	99.322850 
2194.000000	99.324618 
2193.000000	99.326125 
2192.000000	99.325388 
2191.000000	99.321486 
2190.000000	99.315352 
2189.000000	99.309916 
2188.000000	99.307965 
2187.000000	99.309312 
2186.000000	99.311509 
2185.000000	99.313832 
2184.000000	99.318427 
2183.000000	99.326193 
2182.000000	99.333959 
2181.000000	99.337980 
2180.000000	99.338292 
2179.000000	99.337092 
2178.000000	99.334954 
2177.000000	99.331941 
2176.000000	99.330811 
2175.000000	99.335035 
2174.000000	99.343744 
2173.000000	99.351811 
2172.000000	99.355294 
2171.000000	99.354217 
2170.000000	99.350212 
2169.000000	99.344716 
2168.000000	99.339923 
2167.000000	99.338391 
2166.000000	99.340127 
2165.000000	99.341786 
2164.000000	99.340076 
2163.000000	99.335363 
2162.000000	99.332182 
2161.000000	99.337617 
2160.000000	99.357818 
2159.000000	99.392227 
2158.000000	99.429713 
2157.000000	99.455507 
2156.000000	99.463711 
2155.000000	99.459149 
2154.000000	99.450039 
2153.000000	99.441512 
2152.000000	99.435146 
2151.000000	99.430893 
2150.000000	99.427735 
2149.000000	99.424567 
2148.000000	99.421838 
2147.000000	99.421193 
2146.000000	99.423311 
2145.000000	99.427696 
2144.000000	99.434347 
2143.000000	99.443093 
2142.000000	99.450677 
2141.000000	99.451373 
2140.000000	99.442446 
2139.000000	99.427785 
2138.000000	99.415054 
2137.000000	99.409592 
2136.000000	99.411338 
2135.000000	99.416325 
2134.000000	99.420053 
2133.000000	99.420369 
2132.000000	99.418233 
2131.000000	99.415672 
2130.000000	99.412749 
2129.000000	99.407042 
2128.000000	99.396423 
2127.000000	99.381990 
2126.000000	99.367948 
2125.000000	99.358460 
2124.000000	99.354381 
2123.000000	99.353030 
2122.000000	99.351117 
2121.000000	99.347629 
2120.000000	99.343363 
2119.000000	99.338244 
2118.000000	99.330807 
2117.000000	99.320797 
2116.000000	99.310522 
2115.000000	99.302571 
2114.000000	99.297910 
2113.000000	99.296926 
2112.000000	99.300777 
2111.000000	99.309648 
2110.000000	99.319874 
2109.000000	99.325480 
2108.000000	99.323559 
2107.000000	99.316633 
2106.000000	99.309760 
2105.000000	99.306232 
2104.000000	99.305813 
2103.000000	99.305835 
2102.000000	99.303711 
2101.000000	99.299262 
2100.000000	99.294811 
2099.000000	99.292855 
2098.000000	99.294170 
2097.000000	99.298459 
2096.000000	99.305543 
2095.000000	99.314407 
2094.000000	99.322013 
2093.000000	99.325283 
2092.000000	99.323874 
2091.000000	99.319898 
2090.000000	99.315563 
2089.000000	99.311785 
2088.000000	99.308545 
2087.000000	99.305575 
2086.000000	99.302812 
2085.000000	99.300949 
2084.000000	99.301316 
2083.000000	99.304546 
2082.000000	99.309471 
2081.000000	99.313868 
2080.000000	99.316434 
2079.000000	99.317494 
2078.000000	99.318060 
2077.000000	99.318893 
2076.000000	99.320193 
2075.000000	99.321639 
2074.000000	99.322719 
2073.000000	99.323339 
2072.000000	99.324044 
2071.000000	99.325500 
2070.000000	99.327878 
2069.000000	99.330827 
2068.000000	99.333732 
2067.000000	99.335824 
2066.000000	99.336568 
2065.000000	99.336585 
2064.000000	99.337649 
2063.000000	99.340866 
2062.000000	99.345206 
2061.000000	99.348473 
2060.000000	99.349492 
2059.000000	99.348778 
2058.000000	99.347811 
2057.000000	99.348531 
2056.000000	99.352674 
2055.000000	99.359930 
2054.000000	99.366753 
2053.000000	99.368779 
2052.000000	99.364734 
2051.000000	99.357076 
2050.000000	99.349509 
2049.000000	99.344729 
2048.000000	99.344671 
2047.000000	99.350526 
2046.000000	99.361331 
2045.000000	99.373550 
2044.000000	99.383243 
2043.000000	99.388372 
2042.000000	99.389164 
2041.000000	99.387866 
2040.000000	99.388037 
2039.000000	99.392297 
2038.000000	99.400540 
2037.000000	99.410830 
2036.000000	99.421357 
2035.000000	99.430517 
2034.000000	99.436523 
2033.000000	99.439282 
2032.000000	99.441379 
2031.000000	99.444268 
2030.000000	99.445054 
2029.000000	99.440676 
2028.000000	99.433793 
2027.000000	99.430402 
2026.000000	99.432074 
2025.000000	99.434818 
2024.000000	99.435519 
2023.000000	99.435277 
2022.000000	99.435549 
2021.000000	99.435129 
2020.000000	99.432635 
2019.000000	99.428936 
2018.000000	99.425638 
2017.000000	99.423624 
2016.000000	99.424222 
2015.000000	99.429520 
2014.000000	99.439840 
2013.000000	99.451524 
2012.000000	99.458060 
2011.000000	99.454247 
2010.000000	99.440946 
2009.000000	99.426966 
2008.000000	99.422076 
2007.000000	99.425910 
2006.000000	99.428077 
2005.000000	99.421487 
2004.000000	99.410793 
2003.000000	99.403754 
2002.000000	99.399644 
2001.000000	99.392744 
2000.000000	99.383210 
1999.000000	99.376514 
1998.000000	99.373703 
1997.000000	99.370035 
1996.000000	99.363466 
1995.000000	99.357733 
1994.000000	99.355491 
1993.000000	99.354237 
1992.000000	99.351353 
1991.000000	99.348536 
1990.000000	99.348139 
1989.000000	99.349081 
1988.000000	99.348757 
1987.000000	99.346564 
1986.000000	99.344263 
1985.000000	99.344384 
1984.000000	99.348188 
1983.000000	99.353112 
1982.000000	99.353372 
1981.000000	99.346684 
1980.000000	99.339521 
1979.000000	99.341489 
1978.000000	99.354861 
1977.000000	99.373374 
1976.000000	99.391127 
1975.000000	99.407632 
1974.000000	99.422432 
1973.000000	99.431191 
1972.000000	99.430128 
1971.000000	99.420141 
1970.000000	99.404832 
1969.000000	99.387835 
1968.000000	99.373323 
1967.000000	99.365358 
1966.000000	99.364334 
1965.000000	99.366418 
1964.000000	99.367883 
1963.000000	99.368240 
1962.000000	99.368787 
1961.000000	99.370056 
1960.000000	99.370939 
1959.000000	99.369122 
1958.000000	99.362821 
1957.000000	99.353693 
1956.000000	99.347090 
1955.000000	99.346963 
1954.000000	99.350892 
1953.000000	99.352183 
1952.000000	99.347198 
1951.000000	99.338478 
1950.000000	99.330861 
1949.000000	99.326873 
1948.000000	99.326320 
1947.000000	99.327847 
1946.000000	99.329684 
1945.000000	99.330452 
1944.000000	99.330104 
1943.000000	99.329203 
1942.000000	99.327162 
1941.000000	99.322706 
1940.000000	99.316140 
1939.000000	99.309536 
1938.000000	99.304682 
1937.000000	99.301810 
1936.000000	99.300312 
1935.000000	99.299489 
1934.000000	99.298463 
1933.000000	99.296409 
1932.000000	99.293411 
1931.000000	99.290307 
1930.000000	99.287578 
1929.000000	99.285124 
1928.000000	99.282792 
1927.000000	99.280574 
1926.000000	99.278463 
1925.000000	99.276348 
1924.000000	99.274128 
1923.000000	99.271886 
1922.000000	99.269700 
1921.000000	99.267470 
1920.000000	99.265074 
1919.000000	99.262524 
1918.000000	99.259927 
1917.000000	99.257432 
1916.000000	99.255276 
1915.000000	99.253596 
1914.000000	99.252071 
1913.000000	99.250072 
1912.000000	99.247470 
1911.000000	99.244981 
1910.000000	99.243138 
1909.000000	99.241558 
1908.000000	99.239662 
1907.000000	99.237436 
1906.000000	99.235022 
1905.000000	99.232282 
1904.000000	99.229266 
1903.000000	99.226327 
1902.000000	99.223384 
1901.000000	99.220167 
1900.000000	99.217246 
1899.000000	99.215774 
1898.000000	99.215940 
1897.000000	99.216301 
1896.000000	99.215228 
1895.000000	99.212335 
1894.000000	99.208131 
1893.000000	99.203560 
1892.000000	99.199915 
1891.000000	99.198061 
1890.000000	99.197675 
1889.000000	99.197899 
1888.000000	99.198655 
1887.000000	99.199792 
1886.000000	99.199612 
1885.000000	99.196292 
1884.000000	99.190716 
1883.000000	99.186042 
1882.000000	99.184061 
1881.000000	99.184288 
1880.000000	99.185861 
1879.000000	99.188107 
1878.000000	99.189615 
1877.000000	99.189024 
1876.000000	99.187211 
1875.000000	99.186452 
1874.000000	99.186770 
1873.000000	99.185773 
1872.000000	99.182896 
1871.000000	99.180765 
1870.000000	99.181224 
1869.000000	99.182769 
1868.000000	99.184056 
1867.000000	99.185946 
1866.000000	99.188274 
1865.000000	99.189849 
1864.000000	99.191339 
1863.000000	99.194793 
1862.000000	99.199710 
1861.000000	99.202304 
1860.000000	99.200544 
1859.000000	99.197100 
1858.000000	99.195429 
1857.000000	99.196041 
1856.000000	99.198140 
1855.000000	99.201548 
1854.000000	99.205655 
1853.000000	99.209096 
1852.000000	99.211621 
1851.000000	99.214627 
1850.000000	99.219465 
1849.000000	99.226113 
1848.000000	99.233377 
1847.000000	99.239817 
1846.000000	99.244226 
1845.000000	99.246537 
1844.000000	99.248534 
1843.000000	99.251249 
1842.000000	99.252534 
1841.000000	99.251000 
1840.000000	99.247904 
1839.000000	99.245294 
1838.000000	99.243959 
1837.000000	99.243319 
1836.000000	99.243403 
1835.000000	99.245009 
1834.000000	99.247940 
1833.000000	99.250686 
1832.000000	99.251212 
1831.000000	99.248718 
1830.000000	99.245172 
1829.000000	99.243111 
1828.000000	99.242372 
1827.000000	99.241728 
1826.000000	99.240871 
1825.000000	99.240015 
1824.000000	99.239590 
1823.000000	99.239883 
1822.000000	99.240430 
1821.000000	99.240578 
1820.000000	99.241032 
1819.000000	99.243877 
1818.000000	99.248983 
1817.000000	99.252377 
1816.000000	99.251340 
1815.000000	99.247790 
1814.000000	99.244655 
1813.000000	99.242048 
1812.000000	99.239093 
1811.000000	99.237312 
1810.000000	99.237617 
1809.000000	99.237242 
1808.000000	99.234515 
1807.000000	99.231237 
1806.000000	99.228507 
1805.000000	99.225152 
1804.000000	99.221282 
1803.000000	99.219260 
1802.000000	99.219918 
1801.000000	99.220717 
1800.000000	99.219831 
1799.000000	99.219095 
1798.000000	99.219751 
1797.000000	99.220635 
1796.000000	99.221871 
1795.000000	99.225358 
1794.000000	99.231011 
1793.000000	99.235135 
1792.000000	99.235308 
1791.000000	99.234449 
1790.000000	99.234692 
1789.000000	99.234425 
1788.000000	99.232889 
1787.000000	99.232172 
1786.000000	99.234221 
1785.000000	99.237961 
1784.000000	99.240914 
1783.000000	99.241998 
1782.000000	99.241973 
1781.000000	99.242482 
1780.000000	99.244774 
1779.000000	99.248675 
1778.000000	99.252382 
1777.000000	99.254334 
1776.000000	99.254694 
1775.000000	99.254618 
1774.000000	99.255019 
1773.000000	99.256294 
1772.000000	99.258275 
1771.000000	99.261388 
1770.000000	99.266366 
1769.000000	99.272375 
1768.000000	99.276760 
1767.000000	99.278001 
1766.000000	99.277260 
1765.000000	99.276286 
1764.000000	99.275569 
1763.000000	99.275204 
1762.000000	99.276392 
1761.000000	99.279798 
1760.000000	99.284223 
1759.000000	99.289002 
1758.000000	99.294361 
1757.000000	99.299986 
1756.000000	99.304264 
1755.000000	99.306645 
1754.000000	99.309568 
1753.000000	99.315233 
1752.000000	99.321876 
1751.000000	99.325537 
1750.000000	99.325913 
1749.000000	99.325812 
1748.000000	99.325745 
1747.000000	99.324365 
1746.000000	99.322985 
1745.000000	99.324268 
1744.000000	99.327472 
1743.000000	99.329873 
1742.000000	99.331142 
1741.000000	99.332307 
1740.000000	99.332790 
1739.000000	99.331862 
1738.000000	99.330752 
1737.000000	99.330582 
1736.000000	99.330791 
1735.000000	99.330495 
1734.000000	99.329903 
1733.000000	99.330054 
1732.000000	99.329947 
1731.000000	99.328792 
1730.000000	99.327475 
1729.000000	99.327618 
1728.000000	99.329042 
1727.000000	99.329885 
1726.000000	99.329283 
1725.000000	99.327865 
1724.000000	99.326357 
1723.000000	99.325114 
1722.000000	99.324255 
1721.000000	99.323760 
1720.000000	99.323606 
1719.000000	99.323855 
1718.000000	99.324255 
1717.000000	99.323176 
1716.000000	99.320725 
1715.000000	99.319094 
1714.000000	99.318561 
1713.000000	99.318023 
1712.000000	99.317313 
1711.000000	99.316753 
1710.000000	99.316216 
1709.000000	99.315335 
1708.000000	99.314123 
1707.000000	99.312954 
1706.000000	99.311950 
1705.000000	99.310861 
1704.000000	99.309709 
1703.000000	99.308883 
1702.000000	99.308481 
1701.000000	99.308142 
1700.000000	99.307374 
1699.000000	99.306571 
1698.000000	99.305981 
1697.000000	99.305365 
1696.000000	99.304565 
1695.000000	99.303706 
1694.000000	99.302744 
1693.000000	99.301502 
1692.000000	99.300128 
1691.000000	99.298978 
1690.000000	99.298231 
1689.000000	99.297651 
1688.000000	99.296841 
1687.000000	99.295775 
1686.000000	99.294631 
1685.000000	99.293512 
1684.000000	99.292767 
1683.000000	99.292705 
1682.000000	99.292182 
1681.000000	99.291262 
1680.000000	99.290420 
1679.000000	99.289843 
1678.000000	99.289547 
1677.000000	99.289868 
1676.000000	99.291048 
1675.000000	99.292249 
1674.000000	99.292668 
1673.000000	99.292239 
1672.000000	99.290786 
1671.000000	99.288035 
1670.000000	99.284505 
1669.000000	99.282514 
1668.000000	99.283191 
1667.000000	99.284318 
1666.000000	99.284091 
1665.000000	99.282121 
1664.000000	99.278932 
1663.000000	99.275762 
1662.000000	99.273575 
1661.000000	99.272844 
1660.000000	99.273301 
1659.000000	99.273024 
1658.000000	99.270684 
1657.000000	99.267242 
1656.000000	99.265285 
1655.000000	99.264542 
1654.000000	99.263641 
1653.000000	99.262523 
1652.000000	99.263069 
1651.000000	99.261815 
1650.000000	99.261501 
1649.000000	99.262049 
1648.000000	99.263135 
1647.000000	99.263773 
1646.000000	99.263337 
1645.000000	99.260422 
1644.000000	99.256864 
1643.000000	99.255667 
1642.000000	99.256721 
1641.000000	99.258486 
1640.000000	99.260407 
1639.000000	99.262614 
1638.000000	99.264812 
1637.000000	99.267046 
1636.000000	99.270905 
1635.000000	99.274538 
1634.000000	99.274445 
1633.000000	99.272410 
1632.000000	99.272981 
1631.000000	99.276890 
1630.000000	99.281222 
1629.000000	99.283576 
1628.000000	99.285105 
1627.000000	99.287040 
1626.000000	99.288664 
1625.000000	99.290316 
1624.000000	99.294107 
1623.000000	99.299907 
1622.000000	99.304144 
1621.000000	99.305975 
1620.000000	99.308013 
1619.000000	99.311463 
1618.000000	99.315126 
1617.000000	99.319181 
1616.000000	99.325555 
1615.000000	99.331061 
1614.000000	99.332309 
1613.000000	99.333068 
1612.000000	99.338688 
1611.000000	99.348447 
1610.000000	99.355649 
1609.000000	99.357883 
1608.000000	99.359701 
1607.000000	99.363511 
1606.000000	99.366741 
1605.000000	99.368735 
1604.000000	99.372044 
1603.000000	99.377207 
1602.000000	99.382365 
1601.000000	99.387366 
1600.000000	99.393147 
1599.000000	99.397854 
1598.000000	99.399048 
1597.000000	99.398645 
1596.000000	99.401257 
1595.000000	99.407577 
1594.000000	99.413375 
1593.000000	99.416452 
1592.000000	99.419000 
1591.000000	99.422118 
1590.000000	99.423858 
1589.000000	99.424382 
1588.000000	99.426901 
1587.000000	99.431773 
1586.000000	99.435475 
1585.000000	99.437214 
1584.000000	99.440007 
1583.000000	99.444040 
1582.000000	99.445994 
1581.000000	99.445754 
1580.000000	99.446152 
1579.000000	99.446560 
1578.000000	99.443415 
1577.000000	99.438113 
1576.000000	99.437650 
1575.000000	99.440837 
1574.000000	99.440099 
1573.000000	99.436197 
1572.000000	99.433128 
1571.000000	99.432081 
1570.000000	99.431881 
1569.000000	99.434349 
1568.000000	99.439820 
1567.000000	99.442539 
1566.000000	99.439726 
1565.000000	99.434289 
1564.000000	99.430193 
1563.000000	99.427164 
1562.000000	99.424286 
1561.000000	99.426095 
1560.000000	99.438019 
1559.000000	99.449585 
1558.000000	99.445299 
1557.000000	99.429994 
1556.000000	99.416851 
1555.000000	99.406552 
1554.000000	99.396008 
1553.000000	99.386441 
1552.000000	99.379908 
1551.000000	99.376038 
1550.000000	99.372508 
1549.000000	99.367956 
1548.000000	99.362561 
1547.000000	99.356225 
1546.000000	99.347655 
1545.000000	99.336212 
1544.000000	99.325039 
1543.000000	99.318435 
1542.000000	99.315658 
1541.000000	99.310458 
1540.000000	99.302311 
1539.000000	99.293314 
1538.000000	99.278314 
1537.000000	99.258419 
1536.000000	99.238655 
1535.000000	99.221102 
1534.000000	99.205044 
1533.000000	99.189787 
1532.000000	99.176705 
1531.000000	99.167411 
1530.000000	99.159901 
1529.000000	99.149214 
1528.000000	99.134081 
1527.000000	99.117705 
1526.000000	99.102536 
1525.000000	99.086949 
1524.000000	99.070148 
1523.000000	99.054069 
1522.000000	99.039360 
1521.000000	99.023601 
1520.000000	99.006676 
1519.000000	98.990962 
1518.000000	98.977640 
1517.000000	98.964887 
1516.000000	98.951895 
1515.000000	98.939485 
1514.000000	98.927642 
1513.000000	98.913367 
1512.000000	98.893260 
1511.000000	98.870453 
1510.000000	98.850915 
1509.000000	98.834875 
1508.000000	98.817216 
1507.000000	98.800999 
1506.000000	98.789126 
1505.000000	98.771143 
1504.000000	98.747787 
1503.000000	98.725885 
1502.000000	98.705812 
1501.000000	98.684828 
1500.000000	98.661165 
1499.000000	98.638303 
1498.000000	98.622279 
1497.000000	98.611314 
1496.000000	98.597062 
1495.000000	98.578986 
1494.000000	98.561827 
1493.000000	98.545685 
1492.000000	98.527365 
1491.000000	98.506135 
1490.000000	98.485143 
1489.000000	98.465204 
1488.000000	98.445135 
1487.000000	98.427564 
1486.000000	98.411545 
1485.000000	98.393985 
1484.000000	98.376322 
1483.000000	98.361222 
1482.000000	98.348851 
1481.000000	98.336456 
1480.000000	98.323301 
1479.000000	98.311877 
1478.000000	98.302573 
1477.000000	98.291637 
1476.000000	98.277911 
1475.000000	98.266435 
1474.000000	98.258654 
1473.000000	98.249598 
1472.000000	98.236106 
1471.000000	98.222588 
1470.000000	98.211236 
1469.000000	98.199350 
1468.000000	98.185143 
1467.000000	98.171570 
1466.000000	98.161525 
1465.000000	98.152649 
1464.000000	98.141102 
1463.000000	98.127118 
1462.000000	98.113236 
1461.000000	98.099250 
1460.000000	98.084453 
1459.000000	98.070316 
1458.000000	98.061287 
1457.000000	98.055896 
1456.000000	98.041851 
1455.000000	98.016845 
1454.000000	97.992232 
1453.000000	97.972980 
1452.000000	97.957380 
1451.000000	97.945514 
1450.000000	97.941103 
1449.000000	97.944681 
1448.000000	97.950712 
1447.000000	97.954325 
1446.000000	97.955385 
1445.000000	97.955130 
1444.000000	97.953242 
1443.000000	97.949801 
1442.000000	97.946839 
1441.000000	97.945919 
1440.000000	97.945714 
1439.000000	97.945010 
1438.000000	97.946982 
1437.000000	97.954657 
1436.000000	97.963872 
1435.000000	97.969223 
1434.000000	97.971552 
1433.000000	97.971963 
1432.000000	97.969939 
1431.000000	97.966167 
1430.000000	97.964349 
1429.000000	97.966106 
1428.000000	97.967833 
1427.000000	97.966730 
1426.000000	97.964722 
1425.000000	97.966054 
1424.000000	97.970178 
1423.000000	97.972097 
1422.000000	97.970575 
1421.000000	97.968092 
1420.000000	97.964671 
1419.000000	97.957956 
1418.000000	97.950385 
1417.000000	97.942610 
1416.000000	97.930946 
1415.000000	97.914831 
1414.000000	97.897704 
1413.000000	97.883061 
1412.000000	97.871601 
1411.000000	97.863607 
1410.000000	97.861348 
1409.000000	97.865283 
1408.000000	97.872713 
1407.000000	97.882484 
1406.000000	97.896848 
1405.000000	97.918698 
1404.000000	97.946362 
1403.000000	97.975419 
1402.000000	98.004780 
1401.000000	98.035682 
1400.000000	98.067384 
1399.000000	98.094504 
1398.000000	98.109139 
1397.000000	98.104662 
1396.000000	98.081743 
1395.000000	98.056513 
1394.000000	98.055798 
1393.000000	98.092440 
1392.000000	98.153031 
1391.000000	98.214018 
1390.000000	98.260640 
1389.000000	98.290806 
1388.000000	98.308754 
1387.000000	98.319482 
1386.000000	98.327354 
1385.000000	98.335968 
1384.000000	98.347078 
1383.000000	98.360707 
1382.000000	98.377022 
1381.000000	98.396849 
1380.000000	98.420723 
1379.000000	98.447588 
1378.000000	98.475512 
1377.000000	98.503836 
1376.000000	98.533367 
1375.000000	98.564523 
1374.000000	98.596531 
1373.000000	98.628177 
1372.000000	98.658201 
1371.000000	98.686078 
1370.000000	98.712459 
1369.000000	98.739683 
1368.000000	98.768755 
1367.000000	98.797326 
1366.000000	98.822819 
1365.000000	98.845569 
1364.000000	98.868113 
1363.000000	98.892818 
1362.000000	98.919864 
1361.000000	98.947372 
1360.000000	98.973354 
1359.000000	98.996986 
1358.000000	99.018961 
1357.000000	99.041440 
1356.000000	99.065651 
1355.000000	99.089828 
1354.000000	99.111004 
1353.000000	99.128216 
1352.000000	99.143115 
1351.000000	99.157543 
1350.000000	99.171534 
1349.000000	99.186143 
1348.000000	99.201414 
1347.000000	99.215192 
1346.000000	99.226130 
1345.000000	99.236034 
1344.000000	99.246841 
1343.000000	99.257331 
1342.000000	99.264921 
1341.000000	99.269806 
1340.000000	99.274867 
1339.000000	99.281799 
1338.000000	99.290209 
1337.000000	99.299868 
1336.000000	99.310489 
1335.000000	99.320631 
1334.000000	99.329316 
1333.000000	99.337594 
1332.000000	99.346357 
1331.000000	99.353716 
1330.000000	99.357243 
1329.000000	99.358254 
1328.000000	99.360575 
1327.000000	99.365493 
1326.000000	99.370845 
1325.000000	99.375610 
1324.000000	99.380599 
1323.000000	99.385817 
1322.000000	99.390107 
1321.000000	99.392936 
1320.000000	99.394618 
1319.000000	99.395754 
1318.000000	99.397823 
1317.000000	99.402692 
1316.000000	99.410243 
1315.000000	99.417865 
1314.000000	99.423652 
1313.000000	99.428428 
1312.000000	99.433459 
1311.000000	99.437980 
1310.000000	99.440741 
1309.000000	99.442221 
1308.000000	99.443566 
1307.000000	99.444652 
1306.000000	99.444569 
1305.000000	99.443948 
1304.000000	99.443960 
1303.000000	99.444493 
1302.000000	99.444646 
1301.000000	99.444165 
1300.000000	99.443132 
1299.000000	99.441511 
1298.000000	99.440103 
1297.000000	99.440643 
1296.000000	99.443737 
1295.000000	99.447403 
1294.000000	99.449191 
1293.000000	99.448790 
1292.000000	99.447556 
1291.000000	99.446492 
1290.000000	99.445629 
1289.000000	99.444782 
1288.000000	99.444003 
1287.000000	99.443340 
1286.000000	99.442697 
1285.000000	99.441794 
1284.000000	99.440424 
1283.000000	99.439333 
1282.000000	99.439749 
1281.000000	99.441436 
1280.000000	99.442622 
1279.000000	99.442170 
1278.000000	99.441137 
1277.000000	99.441157 
1276.000000	99.441988 
1275.000000	99.441725 
1274.000000	99.439219 
1273.000000	99.434972 
1272.000000	99.429827 
1271.000000	99.424017 
1270.000000	99.417497 
1269.000000	99.410147 
1268.000000	99.401657 
1267.000000	99.392151 
1266.000000	99.382615 
1265.000000	99.373304 
1264.000000	99.362615 
1263.000000	99.349389 
1262.000000	99.335515 
1261.000000	99.324051 
1260.000000	99.315116 
1259.000000	99.305598 
1258.000000	99.293426 
1257.000000	99.279972 
1256.000000	99.268090 
1255.000000	99.259307 
1254.000000	99.252773 
1253.000000	99.245692 
1252.000000	99.235682 
1251.000000	99.224407 
1250.000000	99.217998 
1249.000000	99.221665 
1248.000000	99.234246 
1247.000000	99.249237 
1246.000000	99.259415 
1245.000000	99.258269 
1244.000000	99.241162 
1243.000000	99.211931 
1242.000000	99.187015 
1241.000000	99.184253 
1240.000000	99.204231 
1239.000000	99.227752 
1238.000000	99.234740 
1237.000000	99.221475 
1236.000000	99.197308 
1235.000000	99.170591 
1234.000000	99.142914 
1233.000000	99.113949 
1232.000000	99.085543 
1231.000000	99.060418 
1230.000000	99.039903 
1229.000000	99.023029 
1228.000000	99.006117 
1227.000000	98.984220 
1226.000000	98.955292 
1225.000000	98.922469 
1224.000000	98.890335 
1223.000000	98.859465 
1222.000000	98.826388 
1221.000000	98.788281 
1220.000000	98.745513 
1219.000000	98.699601 
1218.000000	98.650602 
1217.000000	98.596997 
1216.000000	98.537076 
1215.000000	98.470134 
1214.000000	98.397030 
1213.000000	98.319737 
1212.000000	98.239763 
1211.000000	98.156982 
1210.000000	98.070273 
1209.000000	97.979352 
1208.000000	97.885800 
1207.000000	97.792266 
1206.000000	97.700643 
1205.000000	97.610776 
1204.000000	97.520554 
1203.000000	97.427273 
1202.000000	97.329696 
1201.000000	97.229330 
1200.000000	97.129225 
1199.000000	97.031039 
1198.000000	96.933987 
1197.000000	96.837147 
1196.000000	96.741403 
1195.000000	96.647560 
1194.000000	96.553464 
1193.000000	96.455308 
1192.000000	96.351629 
1191.000000	96.243965 
1190.000000	96.133780 
1189.000000	96.021250 
1188.000000	95.907277 
1187.000000	95.793705 
1186.000000	95.680419 
1185.000000	95.564749 
1184.000000	95.445064 
1183.000000	95.322526 
1182.000000	95.197938 
1181.000000	95.069460 
1180.000000	94.935369 
1179.000000	94.796841 
1178.000000	94.656016 
1177.000000	94.513018 
1176.000000	94.366494 
1175.000000	94.215284 
1174.000000	94.058091 
1173.000000	93.893754 
1172.000000	93.723646 
1171.000000	93.552179 
1170.000000	93.383461 
1169.000000	93.219019 
1168.000000	93.059944 
1167.000000	92.909710 
1166.000000	92.774812 
1165.000000	92.665059 
1164.000000	92.592776 
1163.000000	92.567135 
1162.000000	92.586943 
1161.000000	92.640281 
1160.000000	92.709925 
1159.000000	92.776139 
1158.000000	92.817654 
1157.000000	92.817743 
1156.000000	92.771874 
1155.000000	92.687514 
1154.000000	92.576799 
1153.000000	92.451073 
1152.000000	92.319977 
1151.000000	92.189704 
1150.000000	92.060667 
1149.000000	91.930905 
1148.000000	91.802297 
1147.000000	91.679175 
1146.000000	91.560906 
1145.000000	91.441299 
1144.000000	91.316237 
1143.000000	91.187006 
1142.000000	91.055912 
1141.000000	90.924170 
1140.000000	90.794647 
1139.000000	90.670463 
1138.000000	90.549392 
1137.000000	90.425192 
1136.000000	90.295754 
1135.000000	90.164813 
1134.000000	90.035216 
1133.000000	89.906373 
1132.000000	89.778584 
1131.000000	89.653105 
1130.000000	89.527274 
1129.000000	89.396609 
1128.000000	89.262400 
1127.000000	89.129970 
1126.000000	88.998885 
1125.000000	88.863043 
1124.000000	88.721447 
1123.000000	88.580056 
1122.000000	88.441258 
1121.000000	88.300565 
1120.000000	88.156238 
1119.000000	88.012915 
1118.000000	87.872522 
1117.000000	87.730912 
1116.000000	87.586859 
1115.000000	87.445151 
1114.000000	87.307103 
1113.000000	87.167264 
1112.000000	87.023464 
1111.000000	86.880451 
1110.000000	86.740677 
1109.000000	86.601439 
1108.000000	86.462380 
1107.000000	86.326831 
1106.000000	86.193992 
1105.000000	86.059588 
1104.000000	85.926121 
1103.000000	85.801612 
1102.000000	85.686016 
1101.000000	85.570439 
1100.000000	85.451338 
1099.000000	85.335839 
1098.000000	85.227685 
1097.000000	85.121688 
1096.000000	85.014632 
1095.000000	84.909433 
1094.000000	84.804273 
1093.000000	84.690000 
1092.000000	84.563885 
1091.000000	84.435408 
1090.000000	84.313677 
1089.000000	84.199224 
1088.000000	84.091873 
1087.000000	83.995013 
1086.000000	83.907190 
1085.000000	83.820283 
1084.000000	83.730650 
1083.000000	83.642471 
1082.000000	83.557541 
1081.000000	83.472895 
1080.000000	83.390767 
1079.000000	83.318512 
1078.000000	83.255788 
1077.000000	83.194322 
1076.000000	83.132416 
1075.000000	83.075772 
1074.000000	83.021815 
1073.000000	82.957862 
1072.000000	82.875678 
1071.000000	82.770087 
1070.000000	82.621986 
1069.000000	82.406649 
1068.000000	82.130069 
1067.000000	81.841353 
1066.000000	81.593482 
1065.000000	81.398582 
1064.000000	81.231739 
1063.000000	81.062520 
1062.000000	80.869287 
1061.000000	80.639380 
1060.000000	80.376505 
1059.000000	80.105239 
1058.000000	79.854887 
1057.000000	79.637647 
1056.000000	79.445426 
1055.000000	79.260529 
1054.000000	79.065630 
1053.000000	78.854036 
1052.000000	78.637114 
1051.000000	78.432829 
1050.000000	78.242262 
1049.000000	78.048969 
1048.000000	77.844321 
1047.000000	77.638040 
1046.000000	77.440629 
1045.000000	77.251695 
1044.000000	77.068973 
1043.000000	76.893127 
1042.000000	76.718873 
1041.000000	76.535642 
1040.000000	76.343568 
1039.000000	76.158126 
1038.000000	75.994526 
1037.000000	75.857057 
1036.000000	75.744554 
1035.000000	75.653781 
1034.000000	75.575726 
1033.000000	75.499846 
1032.000000	75.421705 
1031.000000	75.336852 
1030.000000	75.235111 
1029.000000	75.119063 
1028.000000	75.021638 
1027.000000	74.980113 
1026.000000	74.990837 
1025.000000	75.011093 
1024.000000	75.007900 
1023.000000	74.983079 
1022.000000	74.949500 
1021.000000	74.909681 
1020.000000	74.865291 
1019.000000	74.824585 
1018.000000	74.789103 
1017.000000	74.749340 
1016.000000	74.701572 
1015.000000	74.654132 
1014.000000	74.612242 
1013.000000	74.572872 
1012.000000	74.538649 
1011.000000	74.519182 
1010.000000	74.513507 
1009.000000	74.508324 
1008.000000	74.498851 
1007.000000	74.495281 
1006.000000	74.504641 
1005.000000	74.523073 
1004.000000	74.550032 
1003.000000	74.592619 
1002.000000	74.650574 
1001.000000	74.713113 
1000.000000	74.775515 
999.000000	 74.843772 
998.000000	 74.919444 
997.000000	 74.995759 
996.000000	 75.072186 
995.000000	 75.157109 
994.000000	 75.252479 
993.000000	 75.351050 
992.000000	 75.451445 
991.000000	 75.560452 
990.000000	 75.678174 
989.000000	 75.796823 
988.000000	 75.916514 
987.000000	 76.046236 
986.000000	 76.187164 
985.000000	 76.331432 
984.000000	 76.479212 
983.000000	 76.639941 
982.000000	 76.815012 
981.000000	 76.995942 
980.000000	 77.182067 
979.000000	 77.383562 
978.000000	 77.603380 
977.000000	 77.832285 
976.000000	 78.064971 
975.000000	 78.305460 
974.000000	 78.553570 
973.000000	 78.801889 
972.000000	 79.049920 
971.000000	 79.306541 
970.000000	 79.574771 
969.000000	 79.847333 
968.000000	 80.119616 
967.000000	 80.393657 
966.000000	 80.667563 
965.000000	 80.934898 
964.000000	 81.196788 
963.000000	 81.461437 
962.000000	 81.729412 
961.000000	 81.991884 
960.000000	 82.244916 
959.000000	 82.492904 
958.000000	 82.736785 
957.000000	 82.971833 
956.000000	 83.198948 
955.000000	 83.425384 
954.000000	 83.651823 
953.000000	 83.870313 
952.000000	 84.077078 
951.000000	 84.276242 
950.000000	 84.469578 
949.000000	 84.653779 
948.000000	 84.829647 
947.000000	 85.003271 
946.000000	 85.176094 
945.000000	 85.343173 
944.000000	 85.502097 
943.000000	 85.654424 
942.000000	 85.798808 
941.000000	 85.932803 
940.000000	 86.061093 
939.000000	 86.191591 
938.000000	 86.323668 
937.000000	 86.450916 
936.000000	 86.574908 
935.000000	 86.704977 
934.000000	 86.844342 
933.000000	 86.987264 
932.000000	 87.129568 
931.000000	 87.270907 
930.000000	 87.407415 
929.000000	 87.533848 
928.000000	 87.653104 
927.000000	 87.772723 
926.000000	 87.892232 
925.000000	 88.004853 
924.000000	 88.110549 
923.000000	 88.215130 
922.000000	 88.316921 
921.000000	 88.407498 
920.000000	 88.486841 
919.000000	 88.565313 
918.000000	 88.648700 
917.000000	 88.732856 
916.000000	 88.815013 
915.000000	 88.898808 
914.000000	 88.985930 
913.000000	 89.074543 
912.000000	 89.169446 
911.000000	 89.282922 
910.000000	 89.421189 
909.000000	 89.578518 
908.000000	 89.747158 
907.000000	 89.924402 
906.000000	 90.107956 
905.000000	 90.293681 
904.000000	 90.481308 
903.000000	 90.675940 
902.000000	 90.882014 
901.000000	 91.100082 
900.000000	 91.327324 
899.000000	 91.555349 
898.000000	 91.771012 
897.000000	 91.968211 
896.000000	 92.155536 
895.000000	 92.344616 
894.000000	 92.534937 
893.000000	 92.719160 
892.000000	 92.898239 
891.000000	 93.078491 
890.000000	 93.255384 
889.000000	 93.412304 
888.000000	 93.535873 
887.000000	 93.623998 
886.000000	 93.681660 
885.000000	 93.719071 
884.000000	 93.751503 
883.000000	 93.788421 
882.000000	 93.822930 
881.000000	 93.844454 
880.000000	 93.861707 
879.000000	 93.898928 
878.000000	 93.967755 
877.000000	 94.058216 
876.000000	 94.160884 
875.000000	 94.282282 
874.000000	 94.432936 
873.000000	 94.614492 
872.000000	 94.824379 
871.000000	 95.059822 
870.000000	 95.310786 
869.000000	 95.560204 
868.000000	 95.797605 
867.000000	 96.024492 
866.000000	 96.242976 
865.000000	 96.447975 
864.000000	 96.634917 
863.000000	 96.807530 
862.000000	 96.973249 
861.000000	 97.136418 
860.000000	 97.299221 
859.000000	 97.463025 
858.000000	 97.624590 
857.000000	 97.775769 
856.000000	 97.910933 
855.000000	 98.031831 
854.000000	 98.143505 
853.000000	 98.248853 
852.000000	 98.348269 
851.000000	 98.440850 
850.000000	 98.525155 
849.000000	 98.602470 
848.000000	 98.678840 
847.000000	 98.758856 
846.000000	 98.837801 
845.000000	 98.905950 
844.000000	 98.960730 
843.000000	 99.008201 
842.000000	 99.052505 
841.000000	 99.091570 
840.000000	 99.124651 
839.000000	 99.155586 
838.000000	 99.184597 
837.000000	 99.204093 
836.000000	 99.208379 
835.000000	 99.202799 
834.000000	 99.197726 
833.000000	 99.196769 
832.000000	 99.196575 
831.000000	 99.196403 
830.000000	 99.202512 
829.000000	 99.222430 
828.000000	 99.257470 
827.000000	 99.301248 
826.000000	 99.345058 
825.000000	 99.385187 
824.000000	 99.423549 
823.000000	 99.459269 
822.000000	 99.483437 
821.000000	 99.487803 
820.000000	 99.476070 
819.000000	 99.460022 
818.000000	 99.444396 
817.000000	 99.419573 
816.000000	 99.368446 
815.000000	 99.276023 
814.000000	 99.132788 
813.000000	 98.934070 
812.000000	 98.678701 
811.000000	 98.365450 
810.000000	 97.988663 
809.000000	 97.539465 
808.000000	 97.012400 
807.000000	 96.408893 
806.000000	 95.735941 
805.000000	 95.009554 
804.000000	 94.262851 
803.000000	 93.541969 
802.000000	 92.886640 
801.000000	 92.320080 
800.000000	 91.859301 
799.000000	 91.520528 
798.000000	 91.306209 
797.000000	 91.199070 
796.000000	 91.177408 
795.000000	 91.226466 
794.000000	 91.329731 
793.000000	 91.461078 
792.000000	 91.593217 
791.000000	 91.707341 
790.000000	 91.791633 
789.000000	 91.837337 
788.000000	 91.837714 
787.000000	 91.784263 
786.000000	 91.664811 
785.000000	 91.474179 
784.000000	 91.227021 
783.000000	 90.951699 
782.000000	 90.672288 
781.000000	 90.406812 
780.000000	 90.181034 
779.000000	 90.027377 
778.000000	 89.965170 
777.000000	 89.993397 
776.000000	 90.103143 
775.000000	 90.281996 
774.000000	 90.506129 
773.000000	 90.747315 
772.000000	 90.993155 
771.000000	 91.245718 
770.000000	 91.497388 
769.000000	 91.724234 
768.000000	 91.908674 
767.000000	 92.055125 
766.000000	 92.177927 
765.000000	 92.285979 
764.000000	 92.385103 
763.000000	 92.484516 
762.000000	 92.594048 
761.000000	 92.722060 
760.000000	 92.877525 
759.000000	 93.062365 
758.000000	 93.258901 
757.000000	 93.438900 
756.000000	 93.591585 
755.000000	 93.732340 
754.000000	 93.878811 
753.000000	 94.029938 
752.000000	 94.175512 
751.000000	 94.314461 
750.000000	 94.451435 
749.000000	 94.580477 
748.000000	 94.683855 
747.000000	 94.749763 
746.000000	 94.788323 
745.000000	 94.830281 
744.000000	 94.910357 
743.000000	 95.046849 
742.000000	 95.231467 
741.000000	 95.437308 
740.000000	 95.636454 
739.000000	 95.811978 
738.000000	 95.960382 
737.000000	 96.088059 
736.000000	 96.202655 
735.000000	 96.304577 
734.000000	 96.389908 
733.000000	 96.461461 
732.000000	 96.528231 
731.000000	 96.590611 
730.000000	 96.637053 
729.000000	 96.664057 
728.000000	 96.689522 
727.000000	 96.733692 
726.000000	 96.793254 
725.000000	 96.848293 
724.000000	 96.891148 
723.000000	 96.934510 
722.000000	 96.993559 
721.000000	 97.073676 
720.000000	 97.173639 
719.000000	 97.285128 
718.000000	 97.387637 
717.000000	 97.458798 
716.000000	 97.495213 
715.000000	 97.516310 
714.000000	 97.547186 
713.000000	 97.605303 
712.000000	 97.700976 
711.000000	 97.834245 
710.000000	 97.985371 
709.000000	 98.120467 
708.000000	 98.213443 
707.000000	 98.257743 
706.000000	 98.258834 
705.000000	 98.226217 
704.000000	 98.173478 
703.000000	 98.110375 
702.000000	 98.024680 
701.000000	 97.879725 
700.000000	 97.638670 
699.000000	 97.291795 
698.000000	 96.867369 
697.000000	 96.429565 
696.000000	 96.063909 
695.000000	 95.842977 
694.000000	 95.790653 
693.000000	 95.879936 
692.000000	 96.062006 
691.000000	 96.289892 
690.000000	 96.523444 
689.000000	 96.737220 
688.000000	 96.934662 
687.000000	 97.137184 
686.000000	 97.346080 
685.000000	 97.531877 
684.000000	 97.672987 
683.000000	 97.785628 
682.000000	 97.899255 
681.000000	 98.016296 
680.000000	 98.116182 
679.000000	 98.191768 
678.000000	 98.258243 
677.000000	 98.325418 
676.000000	 98.382833 
675.000000	 98.422129 
674.000000	 98.459427 
673.000000	 98.519834 
672.000000	 98.605260 
671.000000	 98.695969 
670.000000	 98.784431 
669.000000	 98.891836 
668.000000	 99.027856 
667.000000	 99.137960 
666.000000	 99.182161 
665.000000	 99.193702 
664.000000	 99.222392 
663.000000	 99.293515 
662.000000	 99.392266 
661.000000	 99.484709 
660.000000	 99.553490 
659.000000	 99.594661 
658.000000	 99.599033 
657.000000	 99.562881 
656.000000	 99.505806 
655.000000	 99.456742 
654.000000	 99.422194 
653.000000	 99.387123 
652.000000	 99.350316 
651.000000	 99.336690 
650.000000	 99.365989 

