4000.000000	98.331139 
3999.000000	98.330879 
3998.000000	98.330716 
3997.000000	98.330703 
3996.000000	98.330803 
3995.000000	98.330927 
3994.000000	98.331032 
3993.000000	98.331110 
3992.000000	98.331158 
3991.000000	98.331169 
3990.000000	98.331168 
3989.000000	98.331243 
3988.000000	98.331466 
3987.000000	98.331782 
3986.000000	98.332009 
3985.000000	98.331989 
3984.000000	98.331737 
3983.000000	98.331390 
3982.000000	98.331105 
3981.000000	98.330966 
3980.000000	98.330954 
3979.000000	98.330987 
3978.000000	98.330973 
3977.000000	98.330849 
3976.000000	98.330596 
3975.000000	98.330233 
3974.000000	98.329836 
3973.000000	98.329546 
3972.000000	98.329483 
3971.000000	98.329617 
3970.000000	98.329782 
3969.000000	98.329872 
3968.000000	98.329894 
3967.000000	98.329884 
3966.000000	98.329824 
3965.000000	98.329619 
3964.000000	98.329182 
3963.000000	98.328589 
3962.000000	98.328084 
3961.000000	98.327920 
3960.000000	98.328143 
3959.000000	98.328429 
3958.000000	98.328319 
3957.000000	98.327740 
3956.000000	98.327072 
3955.000000	98.326713 
3954.000000	98.326718 
3953.000000	98.326832 
3952.000000	98.326799 
3951.000000	98.326607 
3950.000000	98.326659 
3949.000000	98.327408 
3948.000000	98.328554 
3947.000000	98.329131 
3946.000000	98.328470 
3945.000000	98.326689 
3944.000000	98.324471 
3943.000000	98.322698 
3942.000000	98.321877 
3941.000000	98.321821 
3940.000000	98.321906 
3939.000000	98.321641 
3938.000000	98.321098 
3937.000000	98.320931 
3936.000000	98.321676 
3935.000000	98.323061 
3934.000000	98.324275 
3933.000000	98.324874 
3932.000000	98.325066 
3931.000000	98.324954 
3930.000000	98.324170 
3929.000000	98.322286 
3928.000000	98.319410 
3927.000000	98.316483 
3926.000000	98.314516 
3925.000000	98.313985 
3924.000000	98.315099 
3923.000000	98.317574 
3922.000000	98.320400 
3921.000000	98.322564 
3920.000000	98.324015 
3919.000000	98.325416 
3918.000000	98.326692 
3917.000000	98.326926 
3916.000000	98.325774 
3915.000000	98.324093 
3914.000000	98.322816 
3913.000000	98.322145 
3912.000000	98.322004 
3911.000000	98.322376 
3910.000000	98.322949 
3909.000000	98.323296 
3908.000000	98.323365 
3907.000000	98.323528 
3906.000000	98.324337 
3905.000000	98.325898 
3904.000000	98.327873 
3903.000000	98.329511 
3902.000000	98.330088 
3901.000000	98.329529 
3900.000000	98.328309 
3899.000000	98.327216 
3898.000000	98.326761 
3897.000000	98.326748 
3896.000000	98.326687 
3895.000000	98.326377 
3894.000000	98.325949 
3893.000000	98.325674 
3892.000000	98.325619 
3891.000000	98.325608 
3890.000000	98.325534 
3889.000000	98.325439 
3888.000000	98.325341 
3887.000000	98.325187 
3886.000000	98.324986 
3885.000000	98.324786 
3884.000000	98.324590 
3883.000000	98.324367 
3882.000000	98.324112 
3881.000000	98.323842 
3880.000000	98.323566 
3879.000000	98.323287 
3878.000000	98.322994 
3877.000000	98.322678 
3876.000000	98.322336 
3875.000000	98.321978 
3874.000000	98.321620 
3873.000000	98.321277 
3872.000000	98.320947 
3871.000000	98.320617 
3870.000000	98.320271 
3869.000000	98.319905 
3868.000000	98.319522 
3867.000000	98.319129 
3866.000000	98.318727 
3865.000000	98.318327 
3864.000000	98.317943 
3863.000000	98.317584 
3862.000000	98.317248 
3861.000000	98.316923 
3860.000000	98.316618 
3859.000000	98.316345 
3858.000000	98.316101 
3857.000000	98.315845 
3856.000000	98.315535 
3855.000000	98.315106 
3854.000000	98.314668 
3853.000000	98.314475 
3852.000000	98.314529 
3851.000000	98.314646 
3850.000000	98.314727 
3849.000000	98.314749 
3848.000000	98.314799 
3847.000000	98.314962 
3846.000000	98.315154 
3845.000000	98.315269 
3844.000000	98.315323 
3843.000000	98.315332 
3842.000000	98.315309 
3841.000000	98.315343 
3840.000000	98.315461 
3839.000000	98.315606 
3838.000000	98.315690 
3837.000000	98.315615 
3836.000000	98.315401 
3835.000000	98.315135 
3834.000000	98.314917 
3833.000000	98.314789 
3832.000000	98.314716 
3831.000000	98.314653 
3830.000000	98.314548 
3829.000000	98.314366 
3828.000000	98.314137 
3827.000000	98.313914 
3826.000000	98.313726 
3825.000000	98.313596 
3824.000000	98.313506 
3823.000000	98.313328 
3822.000000	98.313000 
3821.000000	98.312632 
3820.000000	98.312368 
3819.000000	98.312216 
3818.000000	98.312032 
3817.000000	98.311628 
3816.000000	98.310971 
3815.000000	98.310224 
3814.000000	98.309569 
3813.000000	98.308974 
3812.000000	98.308303 
3811.000000	98.307590 
3810.000000	98.307024 
3809.000000	98.306702 
3808.000000	98.306476 
3807.000000	98.306078 
3806.000000	98.305509 
3805.000000	98.305007 
3804.000000	98.304523 
3803.000000	98.303661 
3802.000000	98.302285 
3801.000000	98.300888 
3800.000000	98.300021 
3799.000000	98.299587 
3798.000000	98.299085 
3797.000000	98.298376 
3796.000000	98.297893 
3795.000000	98.297857 
3794.000000	98.297733 
3793.000000	98.296734 
3792.000000	98.294775 
3791.000000	98.292858 
3790.000000	98.291865 
3789.000000	98.291564 
3788.000000	98.291193 
3787.000000	98.290665 
3786.000000	98.290455 
3785.000000	98.290663 
3784.000000	98.290893 
3783.000000	98.291148 
3782.000000	98.291520 
3781.000000	98.291689 
3780.000000	98.291647 
3779.000000	98.291895 
3778.000000	98.292491 
3777.000000	98.293140 
3776.000000	98.293538 
3775.000000	98.293143 
3774.000000	98.292064 
3773.000000	98.291436 
3772.000000	98.292227 
3771.000000	98.294012 
3770.000000	98.296188 
3769.000000	98.298778 
3768.000000	98.301064 
3767.000000	98.302018 
3766.000000	98.301586 
3765.000000	98.300767 
3764.000000	98.301290 
3763.000000	98.303783 
3762.000000	98.306212 
3761.000000	98.306164 
3760.000000	98.304987 
3759.000000	98.306558 
3758.000000	98.310572 
3757.000000	98.313483 
3756.000000	98.315046 
3755.000000	98.317139 
3754.000000	98.319915 
3753.000000	98.321834 
3752.000000	98.324325 
3751.000000	98.330830 
3750.000000	98.337206 
3749.000000	98.337156 
3748.000000	98.332926 
3747.000000	98.331290 
3746.000000	98.333272 
3745.000000	98.333286 
3744.000000	98.328748 
3743.000000	98.324079 
3742.000000	98.323065 
3741.000000	98.323526 
3740.000000	98.322478 
3739.000000	98.322306 
3738.000000	98.325571 
3737.000000	98.329102 
3736.000000	98.330507 
3735.000000	98.332022 
3734.000000	98.335156 
3733.000000	98.335836 
3732.000000	98.330855 
3731.000000	98.323481 
3730.000000	98.318332 
3729.000000	98.315940 
3728.000000	98.313101 
3727.000000	98.307608 
3726.000000	98.301520 
3725.000000	98.297815 
3724.000000	98.295966 
3723.000000	98.293610 
3722.000000	98.290655 
3721.000000	98.288015 
3720.000000	98.285140 
3719.000000	98.282200 
3718.000000	98.279827 
3717.000000	98.278453 
3716.000000	98.279051 
3715.000000	98.281264 
3714.000000	98.282842 
3713.000000	98.281930 
3712.000000	98.280335 
3711.000000	98.280072 
3710.000000	98.278959 
3709.000000	98.274823 
3708.000000	98.268050 
3707.000000	98.260311 
3706.000000	98.253329 
3705.000000	98.247741 
3704.000000	98.242896 
3703.000000	98.238106 
3702.000000	98.233859 
3701.000000	98.230267 
3700.000000	98.226158 
3699.000000	98.221236 
3698.000000	98.216117 
3697.000000	98.211269 
3696.000000	98.208148 
3695.000000	98.208057 
3694.000000	98.209179 
3693.000000	98.207930 
3692.000000	98.203657 
3691.000000	98.199613 
3690.000000	98.198809 
3689.000000	98.199584 
3688.000000	98.197520 
3687.000000	98.192310 
3686.000000	98.187696 
3685.000000	98.185406 
3684.000000	98.184291 
3683.000000	98.183389 
3682.000000	98.182574 
3681.000000	98.180807 
3680.000000	98.176961 
3679.000000	98.172468 
3678.000000	98.170747 
3677.000000	98.171329 
3676.000000	98.170690 
3675.000000	98.168055 
3674.000000	98.164390 
3673.000000	98.160222 
3672.000000	98.154254 
3671.000000	98.144997 
3670.000000	98.135935 
3669.000000	98.130568 
3668.000000	98.126657 
3667.000000	98.121378 
3666.000000	98.115453 
3665.000000	98.110777 
3664.000000	98.107513 
3663.000000	98.104248 
3662.000000	98.099503 
3661.000000	98.093268 
3660.000000	98.087149 
3659.000000	98.082287 
3658.000000	98.078144 
3657.000000	98.073284 
3656.000000	98.067578 
3655.000000	98.063092 
3654.000000	98.061589 
3653.000000	98.061515 
3652.000000	98.058681 
3651.000000	98.051530 
3650.000000	98.044908 
3649.000000	98.042143 
3648.000000	98.038709 
3647.000000	98.031273 
3646.000000	98.022622 
3645.000000	98.015804 
3644.000000	98.010542 
3643.000000	98.005399 
3642.000000	97.999107 
3641.000000	97.991426 
3640.000000	97.982690 
3639.000000	97.973583 
3638.000000	97.965779 
3637.000000	97.960862 
3636.000000	97.958781 
3635.000000	97.957324 
3634.000000	97.955371 
3633.000000	97.955377 
3632.000000	97.959124 
3631.000000	97.962618 
3630.000000	97.958975 
3629.000000	97.948902 
3628.000000	97.938260 
3627.000000	97.930385 
3626.000000	97.925345 
3625.000000	97.921178 
3624.000000	97.916538 
3623.000000	97.911390 
3622.000000	97.905327 
3621.000000	97.896892 
3620.000000	97.888237 
3619.000000	97.885142 
3618.000000	97.888822 
3617.000000	97.895183 
3616.000000	97.901771 
3615.000000	97.908474 
3614.000000	97.916104 
3613.000000	97.925290 
3612.000000	97.934537 
3611.000000	97.940420 
3610.000000	97.940395 
3609.000000	97.935297 
3608.000000	97.929396 
3607.000000	97.926145 
3606.000000	97.924561 
3605.000000	97.921887 
3604.000000	97.917008 
3603.000000	97.911108 
3602.000000	97.906715 
3601.000000	97.905171 
3600.000000	97.906712 
3599.000000	97.910858 
3598.000000	97.915282 
3597.000000	97.917251 
3596.000000	97.916870 
3595.000000	97.916443 
3594.000000	97.918346 
3593.000000	97.923143 
3592.000000	97.928768 
3591.000000	97.932413 
3590.000000	97.931805 
3589.000000	97.926835 
3588.000000	97.920666 
3587.000000	97.916615 
3586.000000	97.914042 
3585.000000	97.911338 
3584.000000	97.908667 
3583.000000	97.907090 
3582.000000	97.906772 
3581.000000	97.906851 
3580.000000	97.906535 
3579.000000	97.905926 
3578.000000	97.905630 
3577.000000	97.905883 
3576.000000	97.906529 
3575.000000	97.907163 
3574.000000	97.907293 
3573.000000	97.906954 
3572.000000	97.906708 
3571.000000	97.907210 
3570.000000	97.908487 
3569.000000	97.909352 
3568.000000	97.908684 
3567.000000	97.906956 
3566.000000	97.905013 
3565.000000	97.903195 
3564.000000	97.901873 
3563.000000	97.900993 
3562.000000	97.899923 
3561.000000	97.898276 
3560.000000	97.896242 
3559.000000	97.894473 
3558.000000	97.893332 
3557.000000	97.892457 
3556.000000	97.891225 
3555.000000	97.889673 
3554.000000	97.888446 
3553.000000	97.888114 
3552.000000	97.888517 
3551.000000	97.888979 
3550.000000	97.889215 
3549.000000	97.889501 
3548.000000	97.890084 
3547.000000	97.890941 
3546.000000	97.891505 
3545.000000	97.891098 
3544.000000	97.889759 
3543.000000	97.888376 
3542.000000	97.887792 
3541.000000	97.888041 
3540.000000	97.888383 
3539.000000	97.888139 
3538.000000	97.887341 
3537.000000	97.886672 
3536.000000	97.886754 
3535.000000	97.887460 
3534.000000	97.888214 
3533.000000	97.888586 
3532.000000	97.888520 
3531.000000	97.888148 
3530.000000	97.887700 
3529.000000	97.887643 
3528.000000	97.888416 
3527.000000	97.889905 
3526.000000	97.891281 
3525.000000	97.891683 
3524.000000	97.891030 
3523.000000	97.890009 
3522.000000	97.889240 
3521.000000	97.888784 
3520.000000	97.888452 
3519.000000	97.888264 
3518.000000	97.888388 
3517.000000	97.888846 
3516.000000	97.889547 
3515.000000	97.890434 
3514.000000	97.891578 
3513.000000	97.892994 
3512.000000	97.894472 
3511.000000	97.895774 
3510.000000	97.896929 
3509.000000	97.898001 
3508.000000	97.898720 
3507.000000	97.898725 
3506.000000	97.898118 
3505.000000	97.897671 
3504.000000	97.898212 
3503.000000	97.899722 
3502.000000	97.901204 
3501.000000	97.901694 
3500.000000	97.901150 
3499.000000	97.900233 
3498.000000	97.899646 
3497.000000	97.899758 
3496.000000	97.900675 
3495.000000	97.902218 
3494.000000	97.903786 
3493.000000	97.904599 
3492.000000	97.904246 
3491.000000	97.902967 
3490.000000	97.901515 
3489.000000	97.900585 
3488.000000	97.900301 
3487.000000	97.900254 
3486.000000	97.899920 
3485.000000	97.899101 
3484.000000	97.898042 
3483.000000	97.897200 
3482.000000	97.896903 
3481.000000	97.897144 
3480.000000	97.897656 
3479.000000	97.898166 
3478.000000	97.898581 
3477.000000	97.898922 
3476.000000	97.899124 
3475.000000	97.898968 
3474.000000	97.898265 
3473.000000	97.897093 
3472.000000	97.895788 
3471.000000	97.894645 
3470.000000	97.893766 
3469.000000	97.893170 
3468.000000	97.892806 
3467.000000	97.892432 
3466.000000	97.891667 
3465.000000	97.890357 
3464.000000	97.888877 
3463.000000	97.887880 
3462.000000	97.887669 
3461.000000	97.887901 
3460.000000	97.887910 
3459.000000	97.887394 
3458.000000	97.886561 
3457.000000	97.885788 
3456.000000	97.885203 
3455.000000	97.884679 
3454.000000	97.884154 
3453.000000	97.883693 
3452.000000	97.883291 
3451.000000	97.882733 
3450.000000	97.881794 
3449.000000	97.880574 
3448.000000	97.879510 
3447.000000	97.878923 
3446.000000	97.878595 
3445.000000	97.877980 
3444.000000	97.876880 
3443.000000	97.875745 
3442.000000	97.875195 
3441.000000	97.875407 
3440.000000	97.876036 
3439.000000	97.876553 
3438.000000	97.876683 
3437.000000	97.876543 
3436.000000	97.876377 
3435.000000	97.876215 
3434.000000	97.875855 
3433.000000	97.875146 
3432.000000	97.874295 
3431.000000	97.873730 
3430.000000	97.873605 
3429.000000	97.873613 
3428.000000	97.873318 
3427.000000	97.872617 
3426.000000	97.871756 
3425.000000	97.870977 
3424.000000	97.870273 
3423.000000	97.869522 
3422.000000	97.868751 
3421.000000	97.868177 
3420.000000	97.867932 
3419.000000	97.867870 
3418.000000	97.867769 
3417.000000	97.867656 
3416.000000	97.867758 
3415.000000	97.868163 
3414.000000	97.868646 
3413.000000	97.868874 
3412.000000	97.868693 
3411.000000	97.868192 
3410.000000	97.867615 
3409.000000	97.867210 
3408.000000	97.867055 
3407.000000	97.866962 
3406.000000	97.866637 
3405.000000	97.866086 
3404.000000	97.865703 
3403.000000	97.865812 
3402.000000	97.866232 
3401.000000	97.866426 
3400.000000	97.866141 
3399.000000	97.865643 
3398.000000	97.865366 
3397.000000	97.865445 
3396.000000	97.865696 
3395.000000	97.865950 
3394.000000	97.866276 
3393.000000	97.866814 
3392.000000	97.867496 
3391.000000	97.868026 
3390.000000	97.868128 
3389.000000	97.867761 
3388.000000	97.867136 
3387.000000	97.866606 
3386.000000	97.866486 
3385.000000	97.866931 
3384.000000	97.867880 
3383.000000	97.869103 
3382.000000	97.870362 
3381.000000	97.871512 
3380.000000	97.872456 
3379.000000	97.873051 
3378.000000	97.873208 
3377.000000	97.873045 
3376.000000	97.872840 
3375.000000	97.872803 
3374.000000	97.872991 
3373.000000	97.873441 
3372.000000	97.874220 
3371.000000	97.875283 
3370.000000	97.876399 
3369.000000	97.877319 
3368.000000	97.877940 
3367.000000	97.878227 
3366.000000	97.878148 
3365.000000	97.877862 
3364.000000	97.877867 
3363.000000	97.878653 
3362.000000	97.880200 
3361.000000	97.881927 
3360.000000	97.883226 
3359.000000	97.884002 
3358.000000	97.884555 
3357.000000	97.885126 
3356.000000	97.885717 
3355.000000	97.886298 
3354.000000	97.887016 
3353.000000	97.888065 
3352.000000	97.889431 
3351.000000	97.890812 
3350.000000	97.891862 
3349.000000	97.892497 
3348.000000	97.892966 
3347.000000	97.893648 
3346.000000	97.894737 
3345.000000	97.896085 
3344.000000	97.897348 
3343.000000	97.898249 
3342.000000	97.898738 
3341.000000	97.898931 
3340.000000	97.898940 
3339.000000	97.898824 
3338.000000	97.898691 
3337.000000	97.898761 
3336.000000	97.899244 
3335.000000	97.900157 
3334.000000	97.901307 
3333.000000	97.902430 
3332.000000	97.903288 
3331.000000	97.903676 
3330.000000	97.903498 
3329.000000	97.902962 
3328.000000	97.902618 
3327.000000	97.902991 
3326.000000	97.904093 
3325.000000	97.905324 
3324.000000	97.905957 
3323.000000	97.905807 
3322.000000	97.905413 
3321.000000	97.905578 
3320.000000	97.906678 
3319.000000	97.908401 
3318.000000	97.910097 
3317.000000	97.911345 
3316.000000	97.912193 
3315.000000	97.912933 
3314.000000	97.913769 
3313.000000	97.914695 
3312.000000	97.915573 
3311.000000	97.916301 
3310.000000	97.916954 
3309.000000	97.917751 
3308.000000	97.918817 
3307.000000	97.919927 
3306.000000	97.920594 
3305.000000	97.920489 
3304.000000	97.919728 
3303.000000	97.918815 
3302.000000	97.918287 
3301.000000	97.918415 
3300.000000	97.919169 
3299.000000	97.920305 
3298.000000	97.921480 
3297.000000	97.922373 
3296.000000	97.922845 
3295.000000	97.923032 
3294.000000	97.923273 
3293.000000	97.923822 
3292.000000	97.924568 
3291.000000	97.925120 
3290.000000	97.925253 
3289.000000	97.925210 
3288.000000	97.925476 
3287.000000	97.926273 
3286.000000	97.927400 
3285.000000	97.928496 
3284.000000	97.929370 
3283.000000	97.930043 
3282.000000	97.930621 
3281.000000	97.931225 
3280.000000	97.931960 
3279.000000	97.932865 
3278.000000	97.933907 
3277.000000	97.934963 
3276.000000	97.935837 
3275.000000	97.936338 
3274.000000	97.936435 
3273.000000	97.936325 
3272.000000	97.936307 
3271.000000	97.936550 
3270.000000	97.937070 
3269.000000	97.937850 
3268.000000	97.938863 
3267.000000	97.939985 
3266.000000	97.941009 
3265.000000	97.941832 
3264.000000	97.942532 
3263.000000	97.943211 
3262.000000	97.943823 
3261.000000	97.944255 
3260.000000	97.944532 
3259.000000	97.944867 
3258.000000	97.945483 
3257.000000	97.946423 
3256.000000	97.947547 
3255.000000	97.948643 
3254.000000	97.949576 
3253.000000	97.950349 
3252.000000	97.951062 
3251.000000	97.951801 
3250.000000	97.952575 
3249.000000	97.953354 
3248.000000	97.954141 
3247.000000	97.954976 
3246.000000	97.955875 
3245.000000	97.956810 
3244.000000	97.957728 
3243.000000	97.958588 
3242.000000	97.959372 
3241.000000	97.960084 
3240.000000	97.960762 
3239.000000	97.961472 
3238.000000	97.962277 
3237.000000	97.963199 
3236.000000	97.964206 
3235.000000	97.965220 
3234.000000	97.966157 
3233.000000	97.966967 
3232.000000	97.967663 
3231.000000	97.968300 
3230.000000	97.968943 
3229.000000	97.969627 
3228.000000	97.970352 
3227.000000	97.971105 
3226.000000	97.971887 
3225.000000	97.972706 
3224.000000	97.973561 
3223.000000	97.974418 
3222.000000	97.975233 
3221.000000	97.975996 
3220.000000	97.976728 
3219.000000	97.977473 
3218.000000	97.978260 
3217.000000	97.979085 
3216.000000	97.979926 
3215.000000	97.980760 
3214.000000	97.981576 
3213.000000	97.982381 
3212.000000	97.983186 
3211.000000	97.983999 
3210.000000	97.984822 
3209.000000	97.985643 
3208.000000	97.986440 
3207.000000	97.987197 
3206.000000	97.987912 
3205.000000	97.988613 
3204.000000	97.989343 
3203.000000	97.990130 
3202.000000	97.990968 
3201.000000	97.991829 
3200.000000	97.992687 
3199.000000	97.993530 
3198.000000	97.994348 
3197.000000	97.995137 
3196.000000	97.995904 
3195.000000	97.996676 
3194.000000	97.997502 
3193.000000	97.998409 
3192.000000	97.999378 
3191.000000	98.000355 
3190.000000	98.001301 
3189.000000	98.002228 
3188.000000	98.003176 
3187.000000	98.004164 
3186.000000	98.005144 
3185.000000	98.006035 
3184.000000	98.006844 
3183.000000	98.007705 
3182.000000	98.008722 
3181.000000	98.009828 
3180.000000	98.010856 
3179.000000	98.011743 
3178.000000	98.012592 
3177.000000	98.013534 
3176.000000	98.014599 
3175.000000	98.015726 
3174.000000	98.016807 
3173.000000	98.017737 
3172.000000	98.018499 
3171.000000	98.019228 
3170.000000	98.020090 
3169.000000	98.021084 
3168.000000	98.022001 
3167.000000	98.022661 
3166.000000	98.023152 
3165.000000	98.023796 
3164.000000	98.024840 
3163.000000	98.026206 
3162.000000	98.027574 
3161.000000	98.028685 
3160.000000	98.029592 
3159.000000	98.030628 
3158.000000	98.032114 
3157.000000	98.034042 
3156.000000	98.035979 
3155.000000	98.037384 
3154.000000	98.038111 
3153.000000	98.038552 
3152.000000	98.039239 
3151.000000	98.040250 
3150.000000	98.041162 
3149.000000	98.041576 
3148.000000	98.041624 
3147.000000	98.041865 
3146.000000	98.042739 
3145.000000	98.044276 
3144.000000	98.046278 
3143.000000	98.048560 
3142.000000	98.050961 
3141.000000	98.053227 
3140.000000	98.055079 
3139.000000	98.056388 
3138.000000	98.057283 
3137.000000	98.058038 
3136.000000	98.058894 
3135.000000	98.059985 
3134.000000	98.061369 
3133.000000	98.062982 
3132.000000	98.064553 
3131.000000	98.065721 
3130.000000	98.066347 
3129.000000	98.066719 
3128.000000	98.067353 
3127.000000	98.068538 
3126.000000	98.070175 
3125.000000	98.071983 
3124.000000	98.073762 
3123.000000	98.075437 
3122.000000	98.076914 
3121.000000	98.078072 
3120.000000	98.078908 
3119.000000	98.079601 
3118.000000	98.080419 
3117.000000	98.081538 
3116.000000	98.082929 
3115.000000	98.084407 
3114.000000	98.085822 
3113.000000	98.087221 
3112.000000	98.088787 
3111.000000	98.090595 
3110.000000	98.092470 
3109.000000	98.094080 
3108.000000	98.095184 
3107.000000	98.095783 
3106.000000	98.096120 
3105.000000	98.096550 
3104.000000	98.097284 
3103.000000	98.098283 
3102.000000	98.099359 
3101.000000	98.100427 
3100.000000	98.101584 
3099.000000	98.102908 
3098.000000	98.104274 
3097.000000	98.105459 
3096.000000	98.106408 
3095.000000	98.107291 
3094.000000	98.108308 
3093.000000	98.109496 
3092.000000	98.110714 
3091.000000	98.111774 
3090.000000	98.112600 
3089.000000	98.113273 
3088.000000	98.113977 
3087.000000	98.114863 
3086.000000	98.115955 
3085.000000	98.117179 
3084.000000	98.118416 
3083.000000	98.119553 
3082.000000	98.120512 
3081.000000	98.121300 
3080.000000	98.122037 
3079.000000	98.122858 
3078.000000	98.123767 
3077.000000	98.124625 
3076.000000	98.125297 
3075.000000	98.125789 
3074.000000	98.126265 
3073.000000	98.126921 
3072.000000	98.127812 
3071.000000	98.128763 
3070.000000	98.129503 
3069.000000	98.129942 
3068.000000	98.130216 
3067.000000	98.130427 
3066.000000	98.130583 
3065.000000	98.130928 
3064.000000	98.131987 
3063.000000	98.133906 
3062.000000	98.135856 
3061.000000	98.136720 
3060.000000	98.136390 
3059.000000	98.135929 
3058.000000	98.136218 
3057.000000	98.136823 
3056.000000	98.136686 
3055.000000	98.135583 
3054.000000	98.134428 
3053.000000	98.134168 
3052.000000	98.134824 
3051.000000	98.135698 
3050.000000	98.136160 
3049.000000	98.136190 
3048.000000	98.136263 
3047.000000	98.136837 
3046.000000	98.137948 
3045.000000	98.139300 
3044.000000	98.140698 
3043.000000	98.142237 
3042.000000	98.143886 
3041.000000	98.145065 
3040.000000	98.144959 
3039.000000	98.143469 
3038.000000	98.141607 
3037.000000	98.140597 
3036.000000	98.140549 
3035.000000	98.140416 
3034.000000	98.139445 
3033.000000	98.138233 
3032.000000	98.137767 
3031.000000	98.137699 
3030.000000	98.136443 
3029.000000	98.133214 
3028.000000	98.129258 
3027.000000	98.126636 
3026.000000	98.126043 
3025.000000	98.126392 
3024.000000	98.126248 
3023.000000	98.125143 
3022.000000	98.123538 
3021.000000	98.122171 
3020.000000	98.121558 
3019.000000	98.121689 
3018.000000	98.121967 
3017.000000	98.121632 
3016.000000	98.120236 
3015.000000	98.117675 
3014.000000	98.114078 
3013.000000	98.109935 
3012.000000	98.106008 
3011.000000	98.102708 
3010.000000	98.099799 
3009.000000	98.096988 
3008.000000	98.094501 
3007.000000	98.092723 
3006.000000	98.091595 
3005.000000	98.090832 
3004.000000	98.090240 
3003.000000	98.089265 
3002.000000	98.086695 
3001.000000	98.081811 
3000.000000	98.075767 
2999.000000	98.070889 
2998.000000	98.068420 
2997.000000	98.067759 
2996.000000	98.067862 
2995.000000	98.068433 
2994.000000	98.069199 
2993.000000	98.068914 
2992.000000	98.066169 
2991.000000	98.061110 
2990.000000	98.055695 
2989.000000	98.052128 
2988.000000	98.051313 
2987.000000	98.052671 
2986.000000	98.054849 
2985.000000	98.056624 
2984.000000	98.057608 
2983.000000	98.058492 
2982.000000	98.060412 
2981.000000	98.063762 
2980.000000	98.067600 
2979.000000	98.070467 
2978.000000	98.071819 
2977.000000	98.072385 
2976.000000	98.072979 
2975.000000	98.073389 
2974.000000	98.073062 
2973.000000	98.072797 
2972.000000	98.074884 
2971.000000	98.080936 
2970.000000	98.089871 
2969.000000	98.098445 
2968.000000	98.104032 
2967.000000	98.106802 
2966.000000	98.109242 
2965.000000	98.113916 
2964.000000	98.121520 
2963.000000	98.130535 
2962.000000	98.138452 
2961.000000	98.143622 
2960.000000	98.146298 
2959.000000	98.148150 
2958.000000	98.150902 
2957.000000	98.155294 
2956.000000	98.160845 
2955.000000	98.166106 
2954.000000	98.169380 
2953.000000	98.170027 
2952.000000	98.169425 
2951.000000	98.170230 
2950.000000	98.174153 
2949.000000	98.180518 
2948.000000	98.187181 
2947.000000	98.192626 
2946.000000	98.196862 
2945.000000	98.200458 
2944.000000	98.203376 
2943.000000	98.205093 
2942.000000	98.205584 
2941.000000	98.205779 
2940.000000	98.206997 
2939.000000	98.210111 
2938.000000	98.215243 
2937.000000	98.221966 
2936.000000	98.229728 
2935.000000	98.238388 
2934.000000	98.248495 
2933.000000	98.260608 
2932.000000	98.273859 
2931.000000	98.285490 
2930.000000	98.292716 
2929.000000	98.295362 
2928.000000	98.296354 
2927.000000	98.299150 
2926.000000	98.304709 
2925.000000	98.311106 
2924.000000	98.315800 
2923.000000	98.317812 
2922.000000	98.317873 
2921.000000	98.316905 
2920.000000	98.314540 
2919.000000	98.309267 
2918.000000	98.300258 
2917.000000	98.288890 
2916.000000	98.277953 
2915.000000	98.269191 
2914.000000	98.262054 
2913.000000	98.255195 
2912.000000	98.248503 
2911.000000	98.243023 
2910.000000	98.239181 
2909.000000	98.236022 
2908.000000	98.232556 
2907.000000	98.228973 
2906.000000	98.225994 
2905.000000	98.223236 
2904.000000	98.219249 
2903.000000	98.213658 
2902.000000	98.208855 
2901.000000	98.207858 
2900.000000	98.211799 
2899.000000	98.217844 
2898.000000	98.221597 
2897.000000	98.220845 
2896.000000	98.216983 
2895.000000	98.213216 
2894.000000	98.211789 
2893.000000	98.212546 
2892.000000	98.213510 
2891.000000	98.212725 
2890.000000	98.209912 
2889.000000	98.206438 
2888.000000	98.203628 
2887.000000	98.201444 
2886.000000	98.199227 
2885.000000	98.197323 
2884.000000	98.197072 
2883.000000	98.199141 
2882.000000	98.202646 
2881.000000	98.206218 
2880.000000	98.209372 
2879.000000	98.212630 
2878.000000	98.216713 
2877.000000	98.221808 
2876.000000	98.227234 
2875.000000	98.231819 
2874.000000	98.235127 
2873.000000	98.238225 
2872.000000	98.242403 
2871.000000	98.246945 
2870.000000	98.249225 
2869.000000	98.247668 
2868.000000	98.243959 
2867.000000	98.241652 
2866.000000	98.243066 
2865.000000	98.248206 
2864.000000	98.255973 
2863.000000	98.265291 
2862.000000	98.275120 
2861.000000	98.284468 
2860.000000	98.293021 
2859.000000	98.301477 
2858.000000	98.310807 
2857.000000	98.321061 
2856.000000	98.330796 
2855.000000	98.337816 
2854.000000	98.340781 
2853.000000	98.340194 
2852.000000	98.337621 
2851.000000	98.333979 
2850.000000	98.328948 
2849.000000	98.321996 
2848.000000	98.313502 
2847.000000	98.304854 
2846.000000	98.297912 
2845.000000	98.294355 
2844.000000	98.294724 
2843.000000	98.297715 
2842.000000	98.300857 
2841.000000	98.302225 
2840.000000	98.301257 
2839.000000	98.298187 
2838.000000	98.293623 
2837.000000	98.288828 
2836.000000	98.285266 
2835.000000	98.283302 
2834.000000	98.282197 
2833.000000	98.281804 
2832.000000	98.283099 
2831.000000	98.286113 
2830.000000	98.288440 
2829.000000	98.287321 
2828.000000	98.282927 
2827.000000	98.278382 
2826.000000	98.276649 
2825.000000	98.278273 
2824.000000	98.281953 
2823.000000	98.285955 
2822.000000	98.288838 
2821.000000	98.289876 
2820.000000	98.289352 
2819.000000	98.288151 
2818.000000	98.286877 
2817.000000	98.285686 
2816.000000	98.284796 
2815.000000	98.284579 
2814.000000	98.285102 
2813.000000	98.286057 
2812.000000	98.287151 
2811.000000	98.288175 
2810.000000	98.288850 
2809.000000	98.289027 
2808.000000	98.288946 
2807.000000	98.288970 
2806.000000	98.289115 
2805.000000	98.289042 
2804.000000	98.288566 
2803.000000	98.288001 
2802.000000	98.287855 
2801.000000	98.288255 
2800.000000	98.288863 
2799.000000	98.289294 
2798.000000	98.289499 
2797.000000	98.289745 
2796.000000	98.290297 
2795.000000	98.291127 
2794.000000	98.291956 
2793.000000	98.292557 
2792.000000	98.292881 
2791.000000	98.292887 
2790.000000	98.292482 
2789.000000	98.291744 
2788.000000	98.291069 
2787.000000	98.290850 
2786.000000	98.291094 
2785.000000	98.291512 
2784.000000	98.291941 
2783.000000	98.292422 
2782.000000	98.292913 
2781.000000	98.293239 
2780.000000	98.293396 
2779.000000	98.293662 
2778.000000	98.294279 
2777.000000	98.295141 
2776.000000	98.295891 
2775.000000	98.296310 
2774.000000	98.296478 
2773.000000	98.296652 
2772.000000	98.297035 
2771.000000	98.297623 
2770.000000	98.298221 
2769.000000	98.298617 
2768.000000	98.298779 
2767.000000	98.298869 
2766.000000	98.299051 
2765.000000	98.299309 
2764.000000	98.299499 
2763.000000	98.299570 
2762.000000	98.299681 
2761.000000	98.300054 
2760.000000	98.300707 
2759.000000	98.301406 
2758.000000	98.301900 
2757.000000	98.302210 
2756.000000	98.302573 
2755.000000	98.303119 
2754.000000	98.303713 
2753.000000	98.304197 
2752.000000	98.304652 
2751.000000	98.305291 
2750.000000	98.306110 
2749.000000	98.306821 
2748.000000	98.307193 
2747.000000	98.307306 
2746.000000	98.307450 
2745.000000	98.307777 
2744.000000	98.308220 
2743.000000	98.308690 
2742.000000	98.309195 
2741.000000	98.309736 
2740.000000	98.310205 
2739.000000	98.310492 
2738.000000	98.310650 
2737.000000	98.310866 
2736.000000	98.311218 
2735.000000	98.311535 
2734.000000	98.311595 
2733.000000	98.311432 
2732.000000	98.311352 
2731.000000	98.311600 
2730.000000	98.312178 
2729.000000	98.313002 
2728.000000	98.314060 
2727.000000	98.315298 
2726.000000	98.316476 
2725.000000	98.317310 
2724.000000	98.317750 
2723.000000	98.317961 
2722.000000	98.318122 
2721.000000	98.318278 
2720.000000	98.318405 
2719.000000	98.318483 
2718.000000	98.318536 
2717.000000	98.318690 
2716.000000	98.319133 
2715.000000	98.319867 
2714.000000	98.320545 
2713.000000	98.320760 
2712.000000	98.320517 
2711.000000	98.320285 
2710.000000	98.320490 
2709.000000	98.321139 
2708.000000	98.322022 
2707.000000	98.323028 
2706.000000	98.323971 
2705.000000	98.324335 
2704.000000	98.323709 
2703.000000	98.322471 
2702.000000	98.321632 
2701.000000	98.321785 
2700.000000	98.322580 
2699.000000	98.323319 
2698.000000	98.323734 
2697.000000	98.323938 
2696.000000	98.323977 
2695.000000	98.323855 
2694.000000	98.323821 
2693.000000	98.324138 
2692.000000	98.324523 
2691.000000	98.324290 
2690.000000	98.323284 
2689.000000	98.322269 
2688.000000	98.322018 
2687.000000	98.322269 
2686.000000	98.322141 
2685.000000	98.321532 
2684.000000	98.321427 
2683.000000	98.322476 
2682.000000	98.323757 
2681.000000	98.323554 
2680.000000	98.321197 
2679.000000	98.317727 
2678.000000	98.314870 
2677.000000	98.313624 
2676.000000	98.313847 
2675.000000	98.314766 
2674.000000	98.315622 
2673.000000	98.316043 
2672.000000	98.316050 
2671.000000	98.315831 
2670.000000	98.315570 
2669.000000	98.315412 
2668.000000	98.315262 
2667.000000	98.314530 
2666.000000	98.312471 
2665.000000	98.309026 
2664.000000	98.305003 
2663.000000	98.301120 
2662.000000	98.297203 
2661.000000	98.292913 
2660.000000	98.288901 
2659.000000	98.286335 
2658.000000	98.285200 
2657.000000	98.283921 
2656.000000	98.281152 
2655.000000	98.277445 
2654.000000	98.274616 
2653.000000	98.273751 
2652.000000	98.274312 
2651.000000	98.274885 
2650.000000	98.274239 
2649.000000	98.271805 
2648.000000	98.267873 
2647.000000	98.263677 
2646.000000	98.260778 
2645.000000	98.259813 
2644.000000	98.259938 
2643.000000	98.259768 
2642.000000	98.258850 
2641.000000	98.257899 
2640.000000	98.257613 
2639.000000	98.257787 
2638.000000	98.257771 
2637.000000	98.257456 
2636.000000	98.257439 
2635.000000	98.258341 
2634.000000	98.260285 
2633.000000	98.262917 
2632.000000	98.265517 
2631.000000	98.267092 
2630.000000	98.266893 
2629.000000	98.265167 
2628.000000	98.263205 
2627.000000	98.262325 
2626.000000	98.262654 
2625.000000	98.263133 
2624.000000	98.262763 
2623.000000	98.261739 
2622.000000	98.261225 
2621.000000	98.262040 
2620.000000	98.263806 
2619.000000	98.265399 
2618.000000	98.266048 
2617.000000	98.265761 
2616.000000	98.264886 
2615.000000	98.263755 
2614.000000	98.262757 
2613.000000	98.262310 
2612.000000	98.262503 
2611.000000	98.263034 
2610.000000	98.263622 
2609.000000	98.264245 
2608.000000	98.264885 
2607.000000	98.265348 
2606.000000	98.265578 
2605.000000	98.265873 
2604.000000	98.266507 
2603.000000	98.267389 
2602.000000	98.268251 
2601.000000	98.268962 
2600.000000	98.269541 
2599.000000	98.270047 
2598.000000	98.270532 
2597.000000	98.271044 
2596.000000	98.271597 
2595.000000	98.272168 
2594.000000	98.272721 
2593.000000	98.273242 
2592.000000	98.273742 
2591.000000	98.274238 
2590.000000	98.274753 
2589.000000	98.275309 
2588.000000	98.275911 
2587.000000	98.276544 
2586.000000	98.277169 
2585.000000	98.277759 
2584.000000	98.278312 
2583.000000	98.278840 
2582.000000	98.279356 
2581.000000	98.279879 
2580.000000	98.280427 
2579.000000	98.281002 
2578.000000	98.281598 
2577.000000	98.282205 
2576.000000	98.282819 
2575.000000	98.283435 
2574.000000	98.284043 
2573.000000	98.284640 
2572.000000	98.285226 
2571.000000	98.285802 
2570.000000	98.286367 
2569.000000	98.286924 
2568.000000	98.287481 
2567.000000	98.288037 
2566.000000	98.288586 
2565.000000	98.289116 
2564.000000	98.289622 
2563.000000	98.290106 
2562.000000	98.290570 
2561.000000	98.291017 
2560.000000	98.291446 
2559.000000	98.291848 
2558.000000	98.292208 
2557.000000	98.292522 
2556.000000	98.292804 
2555.000000	98.293071 
2554.000000	98.293324 
2553.000000	98.293564 
2552.000000	98.293804 
2551.000000	98.294054 
2550.000000	98.294303 
2549.000000	98.294526 
2548.000000	98.294714 
2547.000000	98.294875 
2546.000000	98.295020 
2545.000000	98.295149 
2544.000000	98.295260 
2543.000000	98.295362 
2542.000000	98.295463 
2541.000000	98.295560 
2540.000000	98.295656 
2539.000000	98.295748 
2538.000000	98.295811 
2537.000000	98.295793 
2536.000000	98.295702 
2535.000000	98.295635 
2534.000000	98.295670 
2533.000000	98.295752 
2532.000000	98.295771 
2531.000000	98.295691 
2530.000000	98.295525 
2529.000000	98.295280 
2528.000000	98.295029 
2527.000000	98.294960 
2526.000000	98.295154 
2525.000000	98.295370 
2524.000000	98.295248 
2523.000000	98.294733 
2522.000000	98.294174 
2521.000000	98.293965 
2520.000000	98.294206 
2519.000000	98.294717 
2518.000000	98.295167 
2517.000000	98.295309 
2516.000000	98.295206 
2515.000000	98.295244 
2514.000000	98.295804 
2513.000000	98.296908 
2512.000000	98.298164 
2511.000000	98.299021 
2510.000000	98.299127 
2509.000000	98.298571 
2508.000000	98.297844 
2507.000000	98.297357 
2506.000000	98.297073 
2505.000000	98.296822 
2504.000000	98.296803 
2503.000000	98.297293 
2502.000000	98.297905 
2501.000000	98.297743 
2500.000000	98.296604 
2499.000000	98.295513 
2498.000000	98.295724 
2497.000000	98.297491 
2496.000000	98.299994 
2495.000000	98.302093 
2494.000000	98.303134 
2493.000000	98.303399 
2492.000000	98.303941 
2491.000000	98.305629 
2490.000000	98.308115 
2489.000000	98.310037 
2488.000000	98.310480 
2487.000000	98.309872 
2486.000000	98.309391 
2485.000000	98.309750 
2484.000000	98.310719 
2483.000000	98.311514 
2482.000000	98.311428 
2481.000000	98.310416 
2480.000000	98.309301 
2479.000000	98.309114 
2478.000000	98.310085 
2477.000000	98.311533 
2476.000000	98.312693 
2475.000000	98.313315 
2474.000000	98.313501 
2473.000000	98.313486 
2472.000000	98.313656 
2471.000000	98.314219 
2470.000000	98.314692 
2469.000000	98.314241 
2468.000000	98.312685 
2467.000000	98.310700 
2466.000000	98.308880 
2465.000000	98.307202 
2464.000000	98.305689 
2463.000000	98.304977 
2462.000000	98.305676 
2461.000000	98.307470 
2460.000000	98.309140 
2459.000000	98.309469 
2458.000000	98.308046 
2457.000000	98.305500 
2456.000000	98.303202 
2455.000000	98.302272 
2454.000000	98.302663 
2453.000000	98.303376 
2452.000000	98.303648 
2451.000000	98.303634 
2450.000000	98.303753 
2449.000000	98.303968 
2448.000000	98.304099 
2447.000000	98.304348 
2446.000000	98.305013 
2445.000000	98.305941 
2444.000000	98.306708 
2443.000000	98.307183 
2442.000000	98.307560 
2441.000000	98.308012 
2440.000000	98.308605 
2439.000000	98.309384 
2438.000000	98.310187 
2437.000000	98.310522 
2436.000000	98.309940 
2435.000000	98.308546 
2434.000000	98.307004 
2433.000000	98.306094 
2432.000000	98.306327 
2431.000000	98.307756 
2430.000000	98.309854 
2429.000000	98.311709 
2428.000000	98.312754 
2427.000000	98.313282 
2426.000000	98.314041 
2425.000000	98.315339 
2424.000000	98.316719 
2423.000000	98.317538 
2422.000000	98.317725 
2421.000000	98.317924 
2420.000000	98.318922 
2419.000000	98.320886 
2418.000000	98.323125 
2417.000000	98.324688 
2416.000000	98.325231 
2415.000000	98.325221 
2414.000000	98.325293 
2413.000000	98.325583 
2412.000000	98.325866 
2411.000000	98.326096 
2410.000000	98.326547 
2409.000000	98.327494 
2408.000000	98.328940 
2407.000000	98.330629 
2406.000000	98.332168 
2405.000000	98.333138 
2404.000000	98.333271 
2403.000000	98.332635 
2402.000000	98.331632 
2401.000000	98.330772 
2400.000000	98.330411 
2399.000000	98.330670 
2398.000000	98.331480 
2397.000000	98.332612 
2396.000000	98.333729 
2395.000000	98.334521 
2394.000000	98.334860 
2393.000000	98.334876 
2392.000000	98.334848 
2391.000000	98.334951 
2390.000000	98.335082 
2389.000000	98.334981 
2388.000000	98.334643 
2387.000000	98.334624 
2386.000000	98.335709 
2385.000000	98.338090 
2384.000000	98.340881 
2383.000000	98.342645 
2382.000000	98.342636 
2381.000000	98.341187 
2380.000000	98.339098 
2379.000000	98.336895 
2378.000000	98.334768 
2377.000000	98.333032 
2376.000000	98.332161 
2375.000000	98.332355 
2374.000000	98.333350 
2373.000000	98.334626 
2372.000000	98.335615 
2371.000000	98.335697 
2370.000000	98.334541 
2369.000000	98.332643 
2368.000000	98.331015 
2367.000000	98.330085 
2366.000000	98.329309 
2365.000000	98.328103 
2364.000000	98.326711 
2363.000000	98.325607 
2362.000000	98.324542 
2361.000000	98.322869 
2360.000000	98.320545 
2359.000000	98.318404 
2358.000000	98.316944 
2357.000000	98.315927 
2356.000000	98.315275 
2355.000000	98.314887 
2354.000000	98.313640 
2353.000000	98.310542 
2352.000000	98.306758 
2351.000000	98.304299 
2350.000000	98.303088 
2349.000000	98.301575 
2348.000000	98.298990 
2347.000000	98.295665 
2346.000000	98.292191 
2345.000000	98.289279 
2344.000000	98.287947 
2343.000000	98.287975 
2342.000000	98.287561 
2341.000000	98.285016 
2340.000000	98.280198 
2339.000000	98.274599 
2338.000000	98.269763 
2337.000000	98.266244 
2336.000000	98.263924 
2335.000000	98.262506 
2334.000000	98.261477 
2333.000000	98.260537 
2332.000000	98.260169 
2331.000000	98.260852 
2330.000000	98.261465 
2329.000000	98.259818 
2328.000000	98.254121 
2327.000000	98.243880 
2326.000000	98.230473 
2325.000000	98.217520 
2324.000000	98.209558 
2323.000000	98.208309 
2322.000000	98.211310 
2321.000000	98.214358 
2320.000000	98.216102 
2319.000000	98.217934 
2318.000000	98.220518 
2317.000000	98.222588 
2316.000000	98.222694 
2315.000000	98.220755 
2314.000000	98.217534 
2313.000000	98.214080 
2312.000000	98.211346 
2311.000000	98.209672 
2310.000000	98.208193 
2309.000000	98.206116 
2308.000000	98.204017 
2307.000000	98.203291 
2306.000000	98.204218 
2305.000000	98.205742 
2304.000000	98.206648 
2303.000000	98.206168 
2302.000000	98.203785 
2301.000000	98.199867 
2300.000000	98.196000 
2299.000000	98.193439 
2298.000000	98.191428 
2297.000000	98.188367 
2296.000000	98.184245 
2295.000000	98.180273 
2294.000000	98.176512 
2293.000000	98.171779 
2292.000000	98.166017 
2291.000000	98.160444 
2290.000000	98.155029 
2289.000000	98.147991 
2288.000000	98.138797 
2287.000000	98.129929 
2286.000000	98.124732 
2285.000000	98.124810 
2284.000000	98.129800 
2283.000000	98.138018 
2282.000000	98.146792 
2281.000000	98.153821 
2280.000000	98.159000 
2279.000000	98.163447 
2278.000000	98.166636 
2277.000000	98.167033 
2276.000000	98.165713 
2275.000000	98.166246 
2274.000000	98.169942 
2273.000000	98.173876 
2272.000000	98.174943 
2271.000000	98.173596 
2270.000000	98.172466 
2269.000000	98.173187 
2268.000000	98.175612 
2267.000000	98.178251 
2266.000000	98.178689 
2265.000000	98.175579 
2264.000000	98.170740 
2263.000000	98.167531 
2262.000000	98.166636 
2261.000000	98.165323 
2260.000000	98.161397 
2259.000000	98.155825 
2258.000000	98.150996 
2257.000000	98.148129 
2256.000000	98.147179 
2255.000000	98.147683 
2254.000000	98.148785 
2253.000000	98.149457 
2252.000000	98.149338 
2251.000000	98.148782 
2250.000000	98.148041 
2249.000000	98.147020 
2248.000000	98.145800 
2247.000000	98.144562 
2246.000000	98.143326 
2245.000000	98.142084 
2244.000000	98.140964 
2243.000000	98.140018 
2242.000000	98.139110 
2241.000000	98.138101 
2240.000000	98.137005 
2239.000000	98.135966 
2238.000000	98.135034 
2237.000000	98.134022 
2236.000000	98.132709 
2235.000000	98.131133 
2234.000000	98.129614 
2233.000000	98.128445 
2232.000000	98.127683 
2231.000000	98.127166 
2230.000000	98.126584 
2229.000000	98.125595 
2228.000000	98.123950 
2227.000000	98.121607 
2226.000000	98.118769 
2225.000000	98.115839 
2224.000000	98.113523 
2223.000000	98.112502 
2222.000000	98.112683 
2221.000000	98.112909 
2220.000000	98.111848 
2219.000000	98.109273 
2218.000000	98.106272 
2217.000000	98.104196 
2216.000000	98.103497 
2215.000000	98.103593 
2214.000000	98.103481 
2213.000000	98.102430 
2212.000000	98.100310 
2211.000000	98.097539 
2210.000000	98.094827 
2209.000000	98.092913 
2208.000000	98.092308 
2207.000000	98.092986 
2206.000000	98.094410 
2205.000000	98.096218 
2204.000000	98.098557 
2203.000000	98.101000 
2202.000000	98.101869 
2201.000000	98.099812 
2200.000000	98.095288 
2199.000000	98.089970 
2198.000000	98.084590 
2197.000000	98.079043 
2196.000000	98.074393 
2195.000000	98.072289 
2194.000000	98.072181 
2193.000000	98.070952 
2192.000000	98.065877 
2191.000000	98.056939 
2190.000000	98.046219 
2189.000000	98.036180 
2188.000000	98.028508 
2187.000000	98.023797 
2186.000000	98.022530 
2185.000000	98.026412 
2184.000000	98.036894 
2183.000000	98.050924 
2182.000000	98.060357 
2181.000000	98.058933 
2180.000000	98.048872 
2179.000000	98.037910 
2178.000000	98.031062 
2177.000000	98.028678 
2176.000000	98.030817 
2175.000000	98.038366 
2174.000000	98.049093 
2173.000000	98.056945 
2172.000000	98.057406 
2171.000000	98.051076 
2170.000000	98.041069 
2169.000000	98.029684 
2168.000000	98.018749 
2167.000000	98.010532 
2166.000000	98.006098 
2165.000000	98.003562 
2164.000000	97.999414 
2163.000000	97.992415 
2162.000000	97.987578 
2161.000000	97.996369 
2160.000000	98.028926 
2159.000000	98.081805 
2158.000000	98.134391 
2157.000000	98.166150 
2156.000000	98.175702 
2155.000000	98.176092 
2154.000000	98.177110 
2153.000000	98.177956 
2152.000000	98.175305 
2151.000000	98.170597 
2150.000000	98.167210 
2149.000000	98.166076 
2148.000000	98.167395 
2147.000000	98.173139 
2146.000000	98.184621 
2145.000000	98.199749 
2144.000000	98.215132 
2143.000000	98.228935 
2142.000000	98.239475 
2141.000000	98.243278 
2140.000000	98.237754 
2139.000000	98.225588 
2138.000000	98.214715 
2137.000000	98.213038 
2136.000000	98.222832 
2135.000000	98.239698 
2134.000000	98.256492 
2133.000000	98.268746 
2132.000000	98.276340 
2131.000000	98.280227 
2130.000000	98.279152 
2129.000000	98.270965 
2128.000000	98.256206 
2127.000000	98.238894 
2126.000000	98.224177 
2125.000000	98.215688 
2124.000000	98.213917 
2123.000000	98.215906 
2122.000000	98.217326 
2121.000000	98.216012 
2120.000000	98.212750 
2119.000000	98.208185 
2118.000000	98.201038 
2117.000000	98.191063 
2116.000000	98.181434 
2115.000000	98.175484 
2114.000000	98.173032 
2113.000000	98.172440 
2112.000000	98.174838 
2111.000000	98.181832 
2110.000000	98.189843 
2109.000000	98.191906 
2108.000000	98.185896 
2107.000000	98.177025 
2106.000000	98.171150 
2105.000000	98.168669 
2104.000000	98.166458 
2103.000000	98.162978 
2102.000000	98.159355 
2101.000000	98.157046 
2100.000000	98.156336 
2099.000000	98.156685 
2098.000000	98.157807 
2097.000000	98.160600 
2096.000000	98.166404 
2095.000000	98.174175 
2094.000000	98.179430 
2093.000000	98.178184 
2092.000000	98.171186 
2091.000000	98.162664 
2090.000000	98.155697 
2089.000000	98.150216 
2088.000000	98.144736 
2087.000000	98.138112 
2086.000000	98.130081 
2085.000000	98.121836 
2084.000000	98.116036 
2083.000000	98.114663 
2082.000000	98.116580 
2081.000000	98.118267 
2080.000000	98.117540 
2079.000000	98.115222 
2078.000000	98.113021 
2077.000000	98.111510 
2076.000000	98.110481 
2075.000000	98.109548 
2074.000000	98.107742 
2073.000000	98.104008 
2072.000000	98.098809 
2071.000000	98.094222 
2070.000000	98.091953 
2069.000000	98.092031 
2068.000000	98.093320 
2067.000000	98.094132 
2066.000000	98.092610 
2065.000000	98.088224 
2064.000000	98.083037 
2063.000000	98.079740 
2062.000000	98.078433 
2061.000000	98.076823 
2060.000000	98.073241 
2059.000000	98.067963 
2058.000000	98.062232 
2057.000000	98.057916 
2056.000000	98.057076 
2055.000000	98.059026 
2054.000000	98.058232 
2053.000000	98.048634 
2052.000000	98.030280 
2051.000000	98.010193 
2050.000000	97.996044 
2049.000000	97.990262 
2048.000000	97.991127 
2047.000000	97.996006 
2046.000000	98.002049 
2045.000000	98.006128 
2044.000000	98.006612 
2043.000000	98.004262 
2042.000000	98.000504 
2041.000000	97.996451 
2040.000000	97.993761 
2039.000000	97.993995 
2038.000000	97.996629 
2037.000000	97.999797 
2036.000000	98.003120 
2035.000000	98.007331 
2034.000000	98.011323 
2033.000000	98.012902 
2032.000000	98.012459 
2031.000000	98.012251 
2030.000000	98.012160 
2029.000000	98.010154 
2028.000000	98.007008 
2027.000000	98.006063 
2026.000000	98.007536 
2025.000000	98.007414 
2024.000000	98.003594 
2023.000000	97.999320 
2022.000000	97.998367 
2021.000000	97.999763 
2020.000000	97.999752 
2019.000000	97.996847 
2018.000000	97.992535 
2017.000000	97.988880 
2016.000000	97.987692 
2015.000000	97.990462 
2014.000000	97.996847 
2013.000000	98.003816 
2012.000000	98.007397 
2011.000000	98.005117 
2010.000000	97.997672 
2009.000000	97.990188 
2008.000000	97.989614 
2007.000000	97.997345 
2006.000000	98.005917 
2005.000000	98.007580 
2004.000000	98.004245 
2003.000000	98.003342 
2002.000000	98.005716 
2001.000000	98.005017 
2000.000000	97.998924 
1999.000000	97.992518 
1998.000000	97.989178 
1997.000000	97.985875 
1996.000000	97.979957 
1995.000000	97.973869 
1994.000000	97.969495 
1993.000000	97.963398 
1992.000000	97.952762 
1991.000000	97.942058 
1990.000000	97.938039 
1989.000000	97.941087 
1988.000000	97.945264 
1987.000000	97.944990 
1986.000000	97.939783 
1985.000000	97.933895 
1984.000000	97.932095 
1983.000000	97.933994 
1982.000000	97.933152 
1981.000000	97.925549 
1980.000000	97.917903 
1979.000000	97.921334 
1978.000000	97.937589 
1977.000000	97.957623 
1976.000000	97.974232 
1975.000000	97.988926 
1974.000000	98.003406 
1973.000000	98.013847 
1972.000000	98.017500 
1971.000000	98.017553 
1970.000000	98.017396 
1969.000000	98.015561 
1968.000000	98.010521 
1967.000000	98.006120 
1966.000000	98.007361 
1965.000000	98.014030 
1964.000000	98.022344 
1963.000000	98.030307 
1962.000000	98.038656 
1961.000000	98.048310 
1960.000000	98.058459 
1959.000000	98.066103 
1958.000000	98.067811 
1957.000000	98.064003 
1956.000000	98.060716 
1955.000000	98.063670 
1954.000000	98.070952 
1953.000000	98.075179 
1952.000000	98.073006 
1951.000000	98.068565 
1950.000000	98.067090 
1949.000000	98.069359 
1948.000000	98.074010 
1947.000000	98.080614 
1946.000000	98.088258 
1945.000000	98.094627 
1944.000000	98.098588 
1943.000000	98.101303 
1942.000000	98.103401 
1941.000000	98.103798 
1940.000000	98.102492 
1939.000000	98.101548 
1938.000000	98.102508 
1937.000000	98.104785 
1936.000000	98.107296 
1935.000000	98.110106 
1934.000000	98.113583 
1933.000000	98.116846 
1932.000000	98.118610 
1931.000000	98.119058 
1930.000000	98.119268 
1929.000000	98.119708 
1928.000000	98.120540 
1927.000000	98.122156 
1926.000000	98.124224 
1925.000000	98.125258 
1924.000000	98.124706 
1923.000000	98.124447 
1922.000000	98.126177 
1921.000000	98.128764 
1920.000000	98.130078 
1919.000000	98.129586 
1918.000000	98.127995 
1917.000000	98.125846 
1916.000000	98.123846 
1915.000000	98.123041 
1914.000000	98.123468 
1913.000000	98.123760 
1912.000000	98.123065 
1911.000000	98.122489 
1910.000000	98.123161 
1909.000000	98.124293 
1908.000000	98.124467 
1907.000000	98.123391 
1906.000000	98.121521 
1905.000000	98.119179 
1904.000000	98.117094 
1903.000000	98.116293 
1902.000000	98.116231 
1901.000000	98.115238 
1900.000000	98.113275 
1899.000000	98.112207 
1898.000000	98.112992 
1897.000000	98.114161 
1896.000000	98.114045 
1895.000000	98.113022 
1894.000000	98.112045 
1893.000000	98.111109 
1892.000000	98.110286 
1891.000000	98.110245 
1890.000000	98.111064 
1889.000000	98.112000 
1888.000000	98.113103 
1887.000000	98.114950 
1886.000000	98.116544 
1885.000000	98.115777 
1884.000000	98.112539 
1883.000000	98.109627 
1882.000000	98.109189 
1881.000000	98.110574 
1880.000000	98.112308 
1879.000000	98.114044 
1878.000000	98.115764 
1877.000000	98.116938 
1876.000000	98.117781 
1875.000000	98.119731 
1874.000000	98.123007 
1873.000000	98.125489 
1872.000000	98.125833 
1871.000000	98.125427 
1870.000000	98.125535 
1869.000000	98.124963 
1868.000000	98.123576 
1867.000000	98.124120 
1866.000000	98.127539 
1865.000000	98.131690 
1864.000000	98.135028 
1863.000000	98.138554 
1862.000000	98.142872 
1861.000000	98.145982 
1860.000000	98.146491 
1859.000000	98.146567 
1858.000000	98.148827 
1857.000000	98.152658 
1856.000000	98.155992 
1855.000000	98.158384 
1854.000000	98.160308 
1853.000000	98.161673 
1852.000000	98.162893 
1851.000000	98.165159 
1850.000000	98.168865 
1849.000000	98.173225 
1848.000000	98.177676 
1847.000000	98.182472 
1846.000000	98.187080 
1845.000000	98.189899 
1844.000000	98.191056 
1843.000000	98.192812 
1842.000000	98.195185 
1841.000000	98.196110 
1840.000000	98.194671 
1839.000000	98.191994 
1838.000000	98.190057 
1837.000000	98.189752 
1836.000000	98.191244 
1835.000000	98.194709 
1834.000000	98.199313 
1833.000000	98.203014 
1832.000000	98.203816 
1831.000000	98.201197 
1830.000000	98.197070 
1829.000000	98.194176 
1828.000000	98.193255 
1827.000000	98.194008 
1826.000000	98.196203 
1825.000000	98.198690 
1824.000000	98.200109 
1823.000000	98.200924 
1822.000000	98.202326 
1821.000000	98.204005 
1820.000000	98.205040 
1819.000000	98.206625 
1818.000000	98.210503 
1817.000000	98.214586 
1816.000000	98.215213 
1815.000000	98.212580 
1814.000000	98.209632 
1813.000000	98.207357 
1812.000000	98.204528 
1811.000000	98.202086 
1810.000000	98.201988 
1809.000000	98.202418 
1808.000000	98.200931 
1807.000000	98.198813 
1806.000000	98.197913 
1805.000000	98.196972 
1804.000000	98.194511 
1803.000000	98.192341 
1802.000000	98.192774 
1801.000000	98.194527 
1800.000000	98.194856 
1799.000000	98.194383 
1798.000000	98.194645 
1797.000000	98.194741 
1796.000000	98.194397 
1795.000000	98.195953 
1794.000000	98.200743 
1793.000000	98.205630 
1792.000000	98.206641 
1791.000000	98.205852 
1790.000000	98.206673 
1789.000000	98.208080 
1788.000000	98.208205 
1787.000000	98.208214 
1786.000000	98.210455 
1785.000000	98.214463 
1784.000000	98.217837 
1783.000000	98.219563 
1782.000000	98.220227 
1781.000000	98.220964 
1780.000000	98.222501 
1779.000000	98.224966 
1778.000000	98.227702 
1777.000000	98.229750 
1776.000000	98.230926 
1775.000000	98.231655 
1774.000000	98.232692 
1773.000000	98.234873 
1772.000000	98.237681 
1771.000000	98.239998 
1770.000000	98.242458 
1769.000000	98.246047 
1768.000000	98.249929 
1767.000000	98.252717 
1766.000000	98.254362 
1765.000000	98.255488 
1764.000000	98.256077 
1763.000000	98.256149 
1762.000000	98.257154 
1761.000000	98.260145 
1760.000000	98.263468 
1759.000000	98.265703 
1758.000000	98.267740 
1757.000000	98.271358 
1756.000000	98.276277 
1755.000000	98.280408 
1754.000000	98.283888 
1753.000000	98.288880 
1752.000000	98.295243 
1751.000000	98.299155 
1750.000000	98.298812 
1749.000000	98.296687 
1748.000000	98.295186 
1747.000000	98.294002 
1746.000000	98.293057 
1745.000000	98.293744 
1744.000000	98.296021 
1743.000000	98.298084 
1742.000000	98.299212 
1741.000000	98.300185 
1740.000000	98.301327 
1739.000000	98.302240 
1738.000000	98.302807 
1737.000000	98.303293 
1736.000000	98.304104 
1735.000000	98.305537 
1734.000000	98.307185 
1733.000000	98.308113 
1732.000000	98.308039 
1731.000000	98.307561 
1730.000000	98.307437 
1729.000000	98.307910 
1728.000000	98.308573 
1727.000000	98.308902 
1726.000000	98.308894 
1725.000000	98.308888 
1724.000000	98.309024 
1723.000000	98.309275 
1722.000000	98.309566 
1721.000000	98.309755 
1720.000000	98.309756 
1719.000000	98.309617 
1718.000000	98.309394 
1717.000000	98.309042 
1716.000000	98.308659 
1715.000000	98.308306 
1714.000000	98.307937 
1713.000000	98.307549 
1712.000000	98.307137 
1711.000000	98.306699 
1710.000000	98.306240 
1709.000000	98.305767 
1708.000000	98.305286 
1707.000000	98.304803 
1706.000000	98.304320 
1705.000000	98.303834 
1704.000000	98.303341 
1703.000000	98.302845 
1702.000000	98.302346 
1701.000000	98.301838 
1700.000000	98.301306 
1699.000000	98.300747 
1698.000000	98.300167 
1697.000000	98.299565 
1696.000000	98.298941 
1695.000000	98.298297 
1694.000000	98.297634 
1693.000000	98.296953 
1692.000000	98.296260 
1691.000000	98.295569 
1690.000000	98.294886 
1689.000000	98.294212 
1688.000000	98.293539 
1687.000000	98.292859 
1686.000000	98.292169 
1685.000000	98.291470 
1684.000000	98.290772 
1683.000000	98.290084 
1682.000000	98.289405 
1681.000000	98.288736 
1680.000000	98.288080 
1679.000000	98.287438 
1678.000000	98.286807 
1677.000000	98.286190 
1676.000000	98.285589 
1675.000000	98.284997 
1674.000000	98.284405 
1673.000000	98.283804 
1672.000000	98.283189 
1671.000000	98.282557 
1670.000000	98.281914 
1669.000000	98.281271 
1668.000000	98.280639 
1667.000000	98.280012 
1666.000000	98.279383 
1665.000000	98.278753 
1664.000000	98.278125 
1663.000000	98.277504 
1662.000000	98.276891 
1661.000000	98.276288 
1660.000000	98.275695 
1659.000000	98.275108 
1658.000000	98.274528 
1657.000000	98.273961 
1656.000000	98.273411 
1655.000000	98.272878 
1654.000000	98.272338 
1653.000000	98.271789 
1652.000000	98.271318 
1651.000000	98.270911 
1650.000000	98.270554 
1649.000000	98.270254 
1648.000000	98.270004 
1647.000000	98.269765 
1646.000000	98.269518 
1645.000000	98.269257 
1644.000000	98.269025 
1643.000000	98.268893 
1642.000000	98.268858 
1641.000000	98.268877 
1640.000000	98.268931 
1639.000000	98.269007 
1638.000000	98.269080 
1637.000000	98.269141 
1636.000000	98.269232 
1635.000000	98.269347 
1634.000000	98.269445 
1633.000000	98.269577 
1632.000000	98.269828 
1631.000000	98.270203 
1630.000000	98.270631 
1629.000000	98.271051 
1628.000000	98.271499 
1627.000000	98.272026 
1626.000000	98.272620 
1625.000000	98.273260 
1624.000000	98.273993 
1623.000000	98.274850 
1622.000000	98.275766 
1621.000000	98.276691 
1620.000000	98.277668 
1619.000000	98.278723 
1618.000000	98.279768 
1617.000000	98.280733 
1616.000000	98.281796 
1615.000000	98.282986 
1614.000000	98.284075 
1613.000000	98.285135 
1612.000000	98.286485 
1611.000000	98.288165 
1610.000000	98.289727 
1609.000000	98.290928 
1608.000000	98.292118 
1607.000000	98.293606 
1606.000000	98.295013 
1605.000000	98.296032 
1604.000000	98.297182 
1603.000000	98.298807 
1602.000000	98.300379 
1601.000000	98.301827 
1600.000000	98.303932 
1599.000000	98.306394 
1598.000000	98.307551 
1597.000000	98.307207 
1596.000000	98.307544 
1595.000000	98.309754 
1594.000000	98.311976 
1593.000000	98.312831 
1592.000000	98.313861 
1591.000000	98.316068 
1590.000000	98.317587 
1589.000000	98.317615 
1588.000000	98.318694 
1587.000000	98.322222 
1586.000000	98.325644 
1585.000000	98.327226 
1584.000000	98.329327 
1583.000000	98.332784 
1582.000000	98.334347 
1581.000000	98.333391 
1580.000000	98.333511 
1579.000000	98.335099 
1578.000000	98.334134 
1577.000000	98.330479 
1576.000000	98.330823 
1575.000000	98.334556 
1574.000000	98.333252 
1573.000000	98.327327 
1572.000000	98.322504 
1571.000000	98.321402 
1570.000000	98.322074 
1569.000000	98.325292 
1568.000000	98.332851 
1567.000000	98.338838 
1566.000000	98.338253 
1565.000000	98.333989 
1564.000000	98.331747 
1563.000000	98.330616 
1562.000000	98.326396 
1561.000000	98.323362 
1560.000000	98.332448 
1559.000000	98.345955 
1558.000000	98.342332 
1557.000000	98.325570 
1556.000000	98.311833 
1555.000000	98.304618 
1554.000000	98.298770 
1553.000000	98.291963 
1552.000000	98.285436 
1551.000000	98.280667 
1550.000000	98.277889 
1549.000000	98.275923 
1548.000000	98.273569 
1547.000000	98.269577 
1546.000000	98.261994 
1545.000000	98.249873 
1544.000000	98.237104 
1543.000000	98.229298 
1542.000000	98.226265 
1541.000000	98.219157 
1540.000000	98.205932 
1539.000000	98.194312 
1538.000000	98.181386 
1537.000000	98.164275 
1536.000000	98.145791 
1535.000000	98.128824 
1534.000000	98.112883 
1533.000000	98.097533 
1532.000000	98.084588 
1531.000000	98.076000 
1530.000000	98.069053 
1529.000000	98.057137 
1528.000000	98.038419 
1527.000000	98.018801 
1526.000000	98.004079 
1525.000000	97.992520 
1524.000000	97.980138 
1523.000000	97.966471 
1522.000000	97.951787 
1521.000000	97.934766 
1520.000000	97.915975 
1519.000000	97.897579 
1518.000000	97.880461 
1517.000000	97.863922 
1516.000000	97.848415 
1515.000000	97.835337 
1514.000000	97.824693 
1513.000000	97.813872 
1512.000000	97.798715 
1511.000000	97.780478 
1510.000000	97.764409 
1509.000000	97.750656 
1508.000000	97.732291 
1507.000000	97.708731 
1506.000000	97.688165 
1505.000000	97.668777 
1504.000000	97.649357 
1503.000000	97.631753 
1502.000000	97.615908 
1501.000000	97.600130 
1500.000000	97.582176 
1499.000000	97.562220 
1498.000000	97.544109 
1497.000000	97.529055 
1496.000000	97.513874 
1495.000000	97.499334 
1494.000000	97.488767 
1493.000000	97.480901 
1492.000000	97.470294 
1491.000000	97.452741 
1490.000000	97.429830 
1489.000000	97.405446 
1488.000000	97.381454 
1487.000000	97.361204 
1486.000000	97.345416 
1485.000000	97.331305 
1484.000000	97.318290 
1483.000000	97.306445 
1482.000000	97.294935 
1481.000000	97.282247 
1480.000000	97.268874 
1479.000000	97.257512 
1478.000000	97.248584 
1477.000000	97.238750 
1476.000000	97.226521 
1475.000000	97.216136 
1474.000000	97.206602 
1473.000000	97.189982 
1472.000000	97.165183 
1471.000000	97.143996 
1470.000000	97.132997 
1469.000000	97.127113 
1468.000000	97.119159 
1467.000000	97.107771 
1466.000000	97.094270 
1465.000000	97.078221 
1464.000000	97.061369 
1463.000000	97.048030 
1462.000000	97.041020 
1461.000000	97.037597 
1460.000000	97.032259 
1459.000000	97.019184 
1458.000000	96.998281 
1457.000000	96.978394 
1456.000000	96.964913 
1455.000000	96.955311 
1454.000000	96.948682 
1453.000000	96.943651 
1452.000000	96.938028 
1451.000000	96.932293 
1450.000000	96.929062 
1449.000000	96.926077 
1448.000000	96.916903 
1447.000000	96.903166 
1446.000000	96.893138 
1445.000000	96.891042 
1444.000000	96.893580 
1443.000000	96.895612 
1442.000000	96.897829 
1441.000000	96.904156 
1440.000000	96.912908 
1439.000000	96.916401 
1438.000000	96.911751 
1437.000000	96.903492 
1436.000000	96.898372 
1435.000000	96.900448 
1434.000000	96.910537 
1433.000000	96.923942 
1432.000000	96.933722 
1431.000000	96.935455 
1430.000000	96.934128 
1429.000000	96.938286 
1428.000000	96.947942 
1427.000000	96.957818 
1426.000000	96.965120 
1425.000000	96.973876 
1424.000000	96.986917 
1423.000000	97.000647 
1422.000000	97.014159 
1421.000000	97.029200 
1420.000000	97.041293 
1419.000000	97.043406 
1418.000000	97.045824 
1417.000000	97.059600 
1416.000000	97.077595 
1415.000000	97.090023 
1414.000000	97.096931 
1413.000000	97.105162 
1412.000000	97.116787 
1411.000000	97.128135 
1410.000000	97.140179 
1409.000000	97.156508 
1408.000000	97.174496 
1407.000000	97.189767 
1406.000000	97.203418 
1405.000000	97.221869 
1404.000000	97.245797 
1403.000000	97.268619 
1402.000000	97.288595 
1401.000000	97.308816 
1400.000000	97.329496 
1399.000000	97.346453 
1398.000000	97.359212 
1397.000000	97.371105 
1396.000000	97.382701 
1395.000000	97.393064 
1394.000000	97.406374 
1393.000000	97.430477 
1392.000000	97.463807 
1391.000000	97.497202 
1390.000000	97.524688 
1389.000000	97.546657 
1388.000000	97.565459 
1387.000000	97.582348 
1386.000000	97.598606 
1385.000000	97.616333 
1384.000000	97.635803 
1383.000000	97.654550 
1382.000000	97.671346 
1381.000000	97.687514 
1380.000000	97.704828 
1379.000000	97.722831 
1378.000000	97.739730 
1377.000000	97.755452 
1376.000000	97.771369 
1375.000000	97.787706 
1374.000000	97.803762 
1373.000000	97.820205 
1372.000000	97.837036 
1371.000000	97.852556 
1370.000000	97.865106 
1369.000000	97.877693 
1368.000000	97.894194 
1367.000000	97.912556 
1366.000000	97.927379 
1365.000000	97.936351 
1364.000000	97.941899 
1363.000000	97.948861 
1362.000000	97.960378 
1361.000000	97.975792 
1360.000000	97.992460 
1359.000000	98.008070 
1358.000000	98.021460 
1357.000000	98.033427 
1356.000000	98.045196 
1355.000000	98.056592 
1354.000000	98.066980 
1353.000000	98.076631 
1352.000000	98.086655 
1351.000000	98.098301 
1350.000000	98.109927 
1349.000000	98.120442 
1348.000000	98.129710 
1347.000000	98.137201 
1346.000000	98.143256 
1345.000000	98.150380 
1344.000000	98.159908 
1343.000000	98.168967 
1342.000000	98.173544 
1341.000000	98.173918 
1340.000000	98.174434 
1339.000000	98.177994 
1338.000000	98.184300 
1337.000000	98.192913 
1336.000000	98.203418 
1335.000000	98.213866 
1334.000000	98.222514 
1333.000000	98.230292 
1332.000000	98.238709 
1331.000000	98.246169 
1330.000000	98.249634 
1329.000000	98.249832 
1328.000000	98.250622 
1327.000000	98.253496 
1326.000000	98.256329 
1325.000000	98.259001 
1324.000000	98.263600 
1323.000000	98.269836 
1322.000000	98.274944 
1321.000000	98.277881 
1320.000000	98.280150 
1319.000000	98.283103 
1318.000000	98.287286 
1317.000000	98.293237 
1316.000000	98.300495 
1315.000000	98.306861 
1314.000000	98.311136 
1313.000000	98.315103 
1312.000000	98.320591 
1311.000000	98.326216 
1310.000000	98.329615 
1309.000000	98.331099 
1308.000000	98.332378 
1307.000000	98.333487 
1306.000000	98.333096 
1305.000000	98.332199 
1304.000000	98.332799 
1303.000000	98.334302 
1302.000000	98.334164 
1301.000000	98.331715 
1300.000000	98.328834 
1299.000000	98.327490 
1298.000000	98.328529 
1297.000000	98.331824 
1296.000000	98.335978 
1295.000000	98.338391 
1294.000000	98.337813 
1293.000000	98.335951 
1292.000000	98.335039 
1291.000000	98.334941 
1290.000000	98.334056 
1289.000000	98.331832 
1288.000000	98.328888 
1287.000000	98.325741 
1286.000000	98.322901 
1285.000000	98.321135 
1284.000000	98.320499 
1283.000000	98.320352 
1282.000000	98.320951 
1281.000000	98.323235 
1280.000000	98.326562 
1279.000000	98.328405 
1278.000000	98.327967 
1277.000000	98.327619 
1276.000000	98.329315 
1275.000000	98.331574 
1274.000000	98.332183 
1273.000000	98.331763 
1272.000000	98.332240 
1271.000000	98.333449 
1270.000000	98.333753 
1269.000000	98.332827 
1268.000000	98.331601 
1267.000000	98.330671 
1266.000000	98.330806 
1265.000000	98.332865 
1264.000000	98.335751 
1263.000000	98.336889 
1262.000000	98.336098 
1261.000000	98.336174 
1260.000000	98.338052 
1259.000000	98.338149 
1258.000000	98.333650 
1257.000000	98.326970 
1256.000000	98.322112 
1255.000000	98.319339 
1254.000000	98.316584 
1253.000000	98.313638 
1252.000000	98.311641 
1251.000000	98.309878 
1250.000000	98.306426 
1249.000000	98.301050 
1248.000000	98.294974 
1247.000000	98.288796 
1246.000000	98.282968 
1245.000000	98.278253 
1244.000000	98.273649 
1243.000000	98.266015 
1242.000000	98.254027 
1241.000000	98.240603 
1240.000000	98.229234 
1239.000000	98.219819 
1238.000000	98.210230 
1237.000000	98.199904 
1236.000000	98.189357 
1235.000000	98.177800 
1234.000000	98.163883 
1233.000000	98.147958 
1232.000000	98.131602 
1231.000000	98.115764 
1230.000000	98.100464 
1229.000000	98.084513 
1228.000000	98.064486 
1227.000000	98.036425 
1226.000000	98.000306 
1225.000000	97.960843 
1224.000000	97.922086 
1223.000000	97.883014 
1222.000000	97.840194 
1221.000000	97.792592 
1220.000000	97.741424 
1219.000000	97.686913 
1218.000000	97.627870 
1217.000000	97.563666 
1216.000000	97.494707 
1215.000000	97.421741 
1214.000000	97.346194 
1213.000000	97.270309 
1212.000000	97.195210 
1211.000000	97.119499 
1210.000000	97.040919 
1209.000000	96.958918 
1208.000000	96.874934 
1207.000000	96.791135 
1206.000000	96.709589 
1205.000000	96.631449 
1204.000000	96.555666 
1203.000000	96.479046 
1202.000000	96.398884 
1201.000000	96.315472 
1200.000000	96.231347 
1199.000000	96.148554 
1198.000000	96.067782 
1197.000000	95.989466 
1196.000000	95.913957 
1195.000000	95.840233 
1194.000000	95.765609 
1193.000000	95.687639 
1192.000000	95.605733 
1191.000000	95.520748 
1190.000000	95.433931 
1189.000000	95.346616 
1188.000000	95.259761 
1187.000000	95.172744 
1186.000000	95.083327 
1185.000000	94.989956 
1184.000000	94.893801 
1183.000000	94.797389 
1182.000000	94.701211 
1181.000000	94.602879 
1180.000000	94.499966 
1179.000000	94.392600 
1178.000000	94.282853 
1177.000000	94.172179 
1176.000000	94.059651 
1175.000000	93.942279 
1174.000000	93.817274 
1173.000000	93.685037 
1172.000000	93.549612 
1171.000000	93.415300 
1170.000000	93.283226 
1169.000000	93.152379 
1168.000000	93.023576 
1167.000000	92.901179 
1166.000000	92.792003 
1165.000000	92.704842 
1164.000000	92.649981 
1163.000000	92.635063 
1162.000000	92.659162 
1161.000000	92.711408 
1160.000000	92.774935 
1159.000000	92.831469 
1158.000000	92.865363 
1157.000000	92.867719 
1156.000000	92.837682 
1155.000000	92.779480 
1154.000000	92.699257 
1153.000000	92.604739 
1152.000000	92.504519 
1151.000000	92.404116 
1150.000000	92.303472 
1149.000000	92.200939 
1148.000000	92.098565 
1147.000000	92.000369 
1146.000000	91.906562 
1145.000000	91.813243 
1144.000000	91.717530 
1143.000000	91.619519 
1142.000000	91.519796 
1141.000000	91.418795 
1140.000000	91.318493 
1139.000000	91.220989 
1138.000000	91.125066 
1137.000000	91.027426 
1136.000000	90.927395 
1135.000000	90.827434 
1134.000000	90.729446 
1133.000000	90.633651 
1132.000000	90.540081 
1131.000000	90.447409 
1130.000000	90.351606 
1129.000000	90.250316 
1128.000000	90.147473 
1127.000000	90.048627 
1126.000000	89.952688 
1125.000000	89.853937 
1124.000000	89.751473 
1123.000000	89.650157 
1122.000000	89.552124 
1121.000000	89.454155 
1120.000000	89.354564 
1119.000000	89.256056 
1118.000000	89.160168 
1117.000000	89.065054 
1116.000000	88.970350 
1115.000000	88.878204 
1114.000000	88.787850 
1113.000000	88.695098 
1112.000000	88.598786 
1111.000000	88.502160 
1110.000000	88.407137 
1109.000000	88.313015 
1108.000000	88.220328 
1107.000000	88.130496 
1106.000000	88.041638 
1105.000000	87.951265 
1104.000000	87.862741 
1103.000000	87.781589 
1102.000000	87.705557 
1101.000000	87.626619 
1100.000000	87.542074 
1099.000000	87.458804 
1098.000000	87.381619 
1097.000000	87.308272 
1096.000000	87.236236 
1095.000000	87.166952 
1094.000000	87.101597 
1093.000000	87.039588 
1092.000000	86.982540 
1091.000000	86.933048 
1090.000000	86.888992 
1089.000000	86.846110 
1088.000000	86.806298 
1087.000000	86.775720 
1086.000000	86.754699 
1085.000000	86.737456 
1084.000000	86.721833 
1083.000000	86.711020 
1082.000000	86.705514 
1081.000000	86.701600 
1080.000000	86.697944 
1079.000000	86.695664 
1078.000000	86.692285 
1077.000000	86.684007 
1076.000000	86.673076 
1075.000000	86.663667 
1074.000000	86.650944 
1073.000000	86.623702 
1072.000000	86.577284 
1071.000000	86.514346 
1070.000000	86.433648 
1069.000000	86.328789 
1068.000000	86.199486 
1067.000000	86.054735 
1066.000000	85.902788 
1065.000000	85.746113 
1064.000000	85.587618 
1063.000000	85.432290 
1062.000000	85.280624 
1061.000000	85.129653 
1060.000000	84.982319 
1059.000000	84.846816 
1058.000000	84.724991 
1057.000000	84.610274 
1056.000000	84.497919 
1055.000000	84.387508 
1054.000000	84.275004 
1053.000000	84.154277 
1052.000000	84.029237 
1051.000000	83.912571 
1050.000000	83.808276 
1049.000000	83.707282 
1048.000000	83.603679 
1047.000000	83.502372 
1046.000000	83.407755 
1045.000000	83.317108 
1044.000000	83.227473 
1043.000000	83.138262 
1042.000000	83.045648 
1041.000000	82.944950 
1040.000000	82.840345 
1039.000000	82.742211 
1038.000000	82.653614 
1037.000000	82.569478 
1036.000000	82.489509 
1035.000000	82.420336 
1034.000000	82.363551 
1033.000000	82.313163 
1032.000000	82.266428 
1031.000000	82.226083 
1030.000000	82.190856 
1029.000000	82.155812 
1028.000000	82.123925 
1027.000000	82.105007 
1026.000000	82.100077 
1025.000000	82.097888 
1024.000000	82.089739 
1023.000000	82.077311 
1022.000000	82.064067 
1021.000000	82.049688 
1020.000000	82.035094 
1019.000000	82.022714 
1018.000000	82.009785 
1017.000000	81.990998 
1016.000000	81.968935 
1015.000000	81.951915 
1014.000000	81.940865 
1013.000000	81.928809 
1012.000000	81.914159 
1011.000000	81.903558 
1010.000000	81.900147 
1009.000000	81.899757 
1008.000000	81.900609 
1007.000000	81.906791 
1006.000000	81.920484 
1005.000000	81.939954 
1004.000000	81.966064 
1003.000000	82.001568 
1002.000000	82.043554 
1001.000000	82.085737 
1000.000000	82.128124 
999.000000	 82.175299 
998.000000	 82.226298 
997.000000	 82.276234 
996.000000	 82.326833 
995.000000	 82.384621 
994.000000	 82.449386 
993.000000	 82.515304 
992.000000	 82.583043 
991.000000	 82.659703 
990.000000	 82.746538 
989.000000	 82.837039 
988.000000	 82.927270 
987.000000	 83.018540 
986.000000	 83.110645 
985.000000	 83.202638 
984.000000	 83.299402 
983.000000	 83.407061 
982.000000	 83.522802 
981.000000	 83.639356 
980.000000	 83.758208 
979.000000	 83.887497 
978.000000	 84.028014 
977.000000	 84.172397 
976.000000	 84.317436 
975.000000	 84.466160 
974.000000	 84.618340 
973.000000	 84.770261 
972.000000	 84.923965 
971.000000	 85.085811 
970.000000	 85.255345 
969.000000	 85.425407 
968.000000	 85.593376 
967.000000	 85.762810 
966.000000	 85.934246 
965.000000	 86.103954 
964.000000	 86.271586 
963.000000	 86.439817 
962.000000	 86.606851 
961.000000	 86.768322 
960.000000	 86.925972 
959.000000	 87.085343 
958.000000	 87.245656 
957.000000	 87.401285 
956.000000	 87.552566 
955.000000	 87.705368 
954.000000	 87.859668 
953.000000	 88.007877 
952.000000	 88.145641 
951.000000	 88.276257 
950.000000	 88.403786 
949.000000	 88.529215 
948.000000	 88.653938 
947.000000	 88.779876 
946.000000	 88.905194 
945.000000	 89.025607 
944.000000	 89.139836 
943.000000	 89.249030 
942.000000	 89.352802 
941.000000	 89.451313 
940.000000	 89.548628 
939.000000	 89.647824 
938.000000	 89.745624 
937.000000	 89.838557 
936.000000	 89.930800 
935.000000	 90.028545 
934.000000	 90.130290 
933.000000	 90.231042 
932.000000	 90.332296 
931.000000	 90.438148 
930.000000	 90.544300 
929.000000	 90.641391 
928.000000	 90.727978 
927.000000	 90.810790 
926.000000	 90.893446 
925.000000	 90.974343 
924.000000	 91.054636 
923.000000	 91.137888 
922.000000	 91.221117 
921.000000	 91.295723 
920.000000	 91.358970 
919.000000	 91.416919 
918.000000	 91.475375 
917.000000	 91.535577 
916.000000	 91.599198 
915.000000	 91.668959 
914.000000	 91.742680 
913.000000	 91.814778 
912.000000	 91.886233 
911.000000	 91.966369 
910.000000	 92.062400 
909.000000	 92.172838 
908.000000	 92.292330 
907.000000	 92.416763 
906.000000	 92.542076 
905.000000	 92.664196 
904.000000	 92.783054 
903.000000	 92.903417 
902.000000	 93.030453 
901.000000	 93.166135 
900.000000	 93.308101 
899.000000	 93.449100 
898.000000	 93.580099 
897.000000	 93.699196 
896.000000	 93.814715 
895.000000	 93.935254 
894.000000	 94.059503 
893.000000	 94.180679 
892.000000	 94.296819 
891.000000	 94.409346 
890.000000	 94.513766 
889.000000	 94.599371 
888.000000	 94.658006 
887.000000	 94.688438 
886.000000	 94.694185 
885.000000	 94.682419 
884.000000	 94.662828 
883.000000	 94.640738 
882.000000	 94.611999 
881.000000	 94.571179 
880.000000	 94.524373 
879.000000	 94.487512 
878.000000	 94.472778 
877.000000	 94.483930 
876.000000	 94.523804 
875.000000	 94.596891 
874.000000	 94.703609 
873.000000	 94.840219 
872.000000	 95.004389 
871.000000	 95.192507 
870.000000	 95.392151 
869.000000	 95.586803 
868.000000	 95.769199 
867.000000	 95.942640 
866.000000	 96.109111 
865.000000	 96.263807 
864.000000	 96.402667 
863.000000	 96.528430 
862.000000	 96.646679 
861.000000	 96.760886 
860.000000	 96.873637 
859.000000	 96.987814 
858.000000	 97.102813 
857.000000	 97.212253 
856.000000	 97.309029 
855.000000	 97.392493 
854.000000	 97.469056 
853.000000	 97.544907 
852.000000	 97.618227 
851.000000	 97.680282 
850.000000	 97.726471 
849.000000	 97.765244 
848.000000	 97.811658 
847.000000	 97.871080 
846.000000	 97.933940 
845.000000	 97.988675 
844.000000	 98.034080 
843.000000	 98.074848 
842.000000	 98.110871 
841.000000	 98.138183 
840.000000	 98.157640 
839.000000	 98.175363 
838.000000	 98.194904 
837.000000	 98.214172 
836.000000	 98.229963 
835.000000	 98.241082 
834.000000	 98.247559 
833.000000	 98.251281 
832.000000	 98.257009 
831.000000	 98.268211 
830.000000	 98.281801 
829.000000	 98.291627 
828.000000	 98.297564 
827.000000	 98.306389 
826.000000	 98.322673 
825.000000	 98.343161 
824.000000	 98.360906 
823.000000	 98.369911 
822.000000	 98.364896 
821.000000	 98.342436 
820.000000	 98.304938 
819.000000	 98.260085 
818.000000	 98.214024 
817.000000	 98.165851 
816.000000	 98.108061 
815.000000	 98.029744 
814.000000	 97.919340 
813.000000	 97.767021 
812.000000	 97.565721 
811.000000	 97.309612 
810.000000	 96.992890 
809.000000	 96.612558 
808.000000	 96.172307 
807.000000	 95.681308 
806.000000	 95.149298 
805.000000	 94.587140 
804.000000	 94.013352 
803.000000	 93.454222 
802.000000	 92.934494 
801.000000	 92.473030 
800.000000	 92.088651 
799.000000	 91.800109 
798.000000	 91.614888 
797.000000	 91.525164 
796.000000	 91.517115 
795.000000	 91.575358 
794.000000	 91.677380 
793.000000	 91.795521 
792.000000	 91.909194 
791.000000	 92.008373 
790.000000	 92.084444 
789.000000	 92.126031 
788.000000	 92.125080 
787.000000	 92.078953 
786.000000	 91.984683 
785.000000	 91.839316 
784.000000	 91.649467 
783.000000	 91.434453 
782.000000	 91.216910 
781.000000	 91.015161 
780.000000	 90.845936 
779.000000	 90.726681 
778.000000	 90.671229 
777.000000	 90.687706 
776.000000	 90.779871 
775.000000	 90.941933 
774.000000	 91.151855 
773.000000	 91.379809 
772.000000	 91.606224 
771.000000	 91.826498 
770.000000	 92.040197 
769.000000	 92.243408 
768.000000	 92.430975 
767.000000	 92.599464 
766.000000	 92.748509 
765.000000	 92.884310 
764.000000	 93.019156 
763.000000	 93.161461 
762.000000	 93.308508 
761.000000	 93.454177 
760.000000	 93.599390 
759.000000	 93.747716 
758.000000	 93.895244 
757.000000	 94.033800 
756.000000	 94.161462 
755.000000	 94.282167 
754.000000	 94.398274 
753.000000	 94.511188 
752.000000	 94.624799 
751.000000	 94.739103 
750.000000	 94.843876 
749.000000	 94.928693 
748.000000	 94.997364 
747.000000	 95.063611 
746.000000	 95.134459 
745.000000	 95.207141 
744.000000	 95.281216 
743.000000	 95.363859 
742.000000	 95.462367 
741.000000	 95.578433 
740.000000	 95.708269 
739.000000	 95.840977 
738.000000	 95.959644 
737.000000	 96.053395 
736.000000	 96.127376 
735.000000	 96.193582 
734.000000	 96.254513 
733.000000	 96.303876 
732.000000	 96.339786 
731.000000	 96.367779 
730.000000	 96.392498 
729.000000	 96.415992 
728.000000	 96.442768 
727.000000	 96.477814 
726.000000	 96.520645 
725.000000	 96.567761 
724.000000	 96.619375 
723.000000	 96.676784 
722.000000	 96.735694 
721.000000	 96.790186 
720.000000	 96.840864 
719.000000	 96.889761 
718.000000	 96.929052 
717.000000	 96.946038 
716.000000	 96.940471 
715.000000	 96.928771 
714.000000	 96.930196 
713.000000	 96.955359 
712.000000	 97.006804 
711.000000	 97.081151 
710.000000	 97.168522 
709.000000	 97.256933 
708.000000	 97.337439 
707.000000	 97.399747 
706.000000	 97.428853 
705.000000	 97.414663 
704.000000	 97.361416 
703.000000	 97.277604 
702.000000	 97.157156 
701.000000	 96.981753 
700.000000	 96.743858 
699.000000	 96.456910 
698.000000	 96.146146 
697.000000	 95.843968 
696.000000	 95.594275 
695.000000	 95.443097 
694.000000	 95.411936 
693.000000	 95.487399 
692.000000	 95.639399 
691.000000	 95.838300 
690.000000	 96.055655 
689.000000	 96.264499 
688.000000	 96.450277 
687.000000	 96.615581 
686.000000	 96.764895 
685.000000	 96.893757 
684.000000	 97.000240 
683.000000	 97.093870 
682.000000	 97.184549 
681.000000	 97.271249 
680.000000	 97.349508 
679.000000	 97.421122 
678.000000	 97.487951 
677.000000	 97.546725 
676.000000	 97.595018 
675.000000	 97.635821 
674.000000	 97.674309 
673.000000	 97.712948 
672.000000	 97.750578 
671.000000	 97.784060 
670.000000	 97.811046 
669.000000	 97.833955 
668.000000	 97.875282 
667.000000	 97.956561 
666.000000	 98.046858 
665.000000	 98.120174 
664.000000	 98.177380 
663.000000	 98.223098 
662.000000	 98.261466 
661.000000	 98.299176 
660.000000	 98.343138 
659.000000	 98.392209 
658.000000	 98.435159 
657.000000	 98.461405 
656.000000	 98.465446 
655.000000	 98.442924 
654.000000	 98.395166 
653.000000	 98.334018 
652.000000	 98.275737 
651.000000	 98.236946 
650.000000	 98.235580 

