4000.000000	99.345559 
3999.000000	99.344891 
3998.000000	99.345569 
3997.000000	99.347056 
3996.000000	99.348385 
3995.000000	99.348976 
3994.000000	99.348779 
3993.000000	99.348099 
3992.000000	99.347353 
3991.000000	99.346866 
3990.000000	99.346800 
3989.000000	99.347121 
3988.000000	99.347587 
3987.000000	99.347846 
3986.000000	99.347667 
3985.000000	99.347110 
3984.000000	99.346506 
3983.000000	99.346275 
3982.000000	99.346641 
3981.000000	99.347416 
3980.000000	99.348188 
3979.000000	99.348649 
3978.000000	99.348606 
3977.000000	99.347852 
3976.000000	99.346243 
3975.000000	99.344005 
3974.000000	99.341825 
3973.000000	99.340490 
3972.000000	99.340416 
3971.000000	99.341405 
3970.000000	99.342811 
3969.000000	99.344052 
3968.000000	99.344967 
3967.000000	99.345738 
3966.000000	99.346526 
3965.000000	99.347162 
3964.000000	99.347318 
3963.000000	99.346959 
3962.000000	99.346440 
3961.000000	99.346209 
3960.000000	99.346419 
3959.000000	99.346676 
3958.000000	99.346370 
3957.000000	99.345324 
3956.000000	99.343985 
3955.000000	99.343030 
3954.000000	99.342799 
3953.000000	99.343117 
3952.000000	99.343597 
3951.000000	99.344081 
3950.000000	99.344898 
3949.000000	99.346390 
3948.000000	99.348230 
3947.000000	99.349658 
3946.000000	99.350174 
3945.000000	99.349592 
3944.000000	99.347792 
3943.000000	99.345088 
3942.000000	99.342422 
3941.000000	99.340718 
3940.000000	99.340163 
3939.000000	99.340138 
3938.000000	99.339932 
3937.000000	99.339660 
3936.000000	99.340157 
3935.000000	99.341945 
3934.000000	99.344424 
3933.000000	99.346231 
3932.000000	99.346353 
3931.000000	99.344847 
3930.000000	99.342619 
3929.000000	99.340469 
3928.000000	99.338744 
3927.000000	99.337586 
3926.000000	99.336861 
3925.000000	99.336303 
3924.000000	99.336240 
3923.000000	99.337326 
3922.000000	99.339635 
3921.000000	99.342363 
3920.000000	99.344603 
3919.000000	99.346019 
3918.000000	99.346366 
3917.000000	99.345283 
3916.000000	99.342920 
3915.000000	99.340315 
3914.000000	99.338504 
3913.000000	99.337649 
3912.000000	99.337421 
3911.000000	99.337420 
3910.000000	99.337404 
3909.000000	99.337342 
3908.000000	99.337431 
3907.000000	99.337949 
3906.000000	99.339012 
3905.000000	99.340394 
3904.000000	99.341750 
3903.000000	99.342740 
3902.000000	99.343082 
3901.000000	99.342688 
3900.000000	99.341683 
3899.000000	99.340475 
3898.000000	99.339478 
3897.000000	99.338775 
3896.000000	99.338224 
3895.000000	99.337701 
3894.000000	99.337182 
3893.000000	99.336696 
3892.000000	99.336220 
3891.000000	99.335682 
3890.000000	99.335144 
3889.000000	99.334792 
3888.000000	99.334671 
3887.000000	99.334538 
3886.000000	99.334113 
3885.000000	99.333408 
3884.000000	99.332737 
3883.000000	99.332312 
3882.000000	99.332024 
3881.000000	99.331622 
3880.000000	99.330999 
3879.000000	99.330293 
3878.000000	99.329745 
3877.000000	99.329412 
3876.000000	99.329040 
3875.000000	99.328325 
3874.000000	99.327319 
3873.000000	99.326547 
3872.000000	99.326434 
3871.000000	99.326683 
3870.000000	99.326432 
3869.000000	99.325345 
3868.000000	99.324133 
3867.000000	99.323605 
3866.000000	99.323444 
3865.000000	99.322783 
3864.000000	99.321763 
3863.000000	99.321260 
3862.000000	99.321525 
3861.000000	99.321926 
3860.000000	99.321595 
3859.000000	99.319841 
3858.000000	99.316645 
3857.000000	99.312947 
3856.000000	99.310472 
3855.000000	99.309807 
3854.000000	99.310302 
3853.000000	99.311347 
3852.000000	99.312890 
3851.000000	99.315100 
3850.000000	99.317580 
3849.000000	99.319329 
3848.000000	99.320132 
3847.000000	99.320476 
3846.000000	99.320682 
3845.000000	99.320881 
3844.000000	99.321027 
3843.000000	99.320809 
3842.000000	99.320329 
3841.000000	99.320129 
3840.000000	99.320424 
3839.000000	99.320977 
3838.000000	99.321487 
3837.000000	99.321802 
3836.000000	99.321988 
3835.000000	99.322098 
3834.000000	99.322181 
3833.000000	99.322226 
3832.000000	99.322209 
3831.000000	99.322177 
3830.000000	99.322170 
3829.000000	99.322171 
3828.000000	99.322157 
3827.000000	99.322129 
3826.000000	99.322114 
3825.000000	99.322104 
3824.000000	99.322092 
3823.000000	99.322074 
3822.000000	99.322036 
3821.000000	99.321970 
3820.000000	99.321882 
3819.000000	99.321782 
3818.000000	99.321672 
3817.000000	99.321535 
3816.000000	99.321349 
3815.000000	99.321113 
3814.000000	99.320838 
3813.000000	99.320535 
3812.000000	99.320206 
3811.000000	99.319848 
3810.000000	99.319467 
3809.000000	99.319070 
3808.000000	99.318659 
3807.000000	99.318232 
3806.000000	99.317794 
3805.000000	99.317359 
3804.000000	99.316937 
3803.000000	99.316525 
3802.000000	99.316114 
3801.000000	99.315705 
3800.000000	99.315317 
3799.000000	99.314961 
3798.000000	99.314631 
3797.000000	99.314312 
3796.000000	99.313995 
3795.000000	99.313681 
3794.000000	99.313380 
3793.000000	99.313103 
3792.000000	99.312859 
3791.000000	99.312655 
3790.000000	99.312496 
3789.000000	99.312386 
3788.000000	99.312333 
3787.000000	99.312341 
3786.000000	99.312409 
3785.000000	99.312524 
3784.000000	99.312683 
3783.000000	99.312885 
3782.000000	99.313131 
3781.000000	99.313420 
3780.000000	99.313751 
3779.000000	99.314107 
3778.000000	99.314461 
3777.000000	99.314849 
3776.000000	99.315350 
3775.000000	99.315814 
3774.000000	99.315908 
3773.000000	99.315788 
3772.000000	99.316167 
3771.000000	99.317150 
3770.000000	99.318035 
3769.000000	99.318581 
3768.000000	99.319371 
3767.000000	99.320853 
3766.000000	99.322342 
3765.000000	99.322714 
3764.000000	99.322439 
3763.000000	99.323445 
3762.000000	99.325986 
3761.000000	99.327531 
3760.000000	99.326742 
3759.000000	99.325927 
3758.000000	99.327027 
3757.000000	99.328825 
3756.000000	99.329986 
3755.000000	99.330556 
3754.000000	99.330822 
3753.000000	99.330761 
3752.000000	99.332033 
3751.000000	99.336912 
3750.000000	99.341353 
3749.000000	99.339366 
3748.000000	99.333965 
3747.000000	99.334039 
3746.000000	99.341230 
3745.000000	99.345233 
3744.000000	99.337891 
3743.000000	99.328486 
3742.000000	99.330042 
3741.000000	99.340249 
3740.000000	99.348412 
3739.000000	99.351183 
3738.000000	99.352206 
3737.000000	99.352520 
3736.000000	99.350652 
3735.000000	99.348051 
3734.000000	99.347345 
3733.000000	99.345584 
3732.000000	99.337907 
3731.000000	99.326016 
3730.000000	99.316682 
3729.000000	99.314193 
3728.000000	99.314747 
3727.000000	99.311105 
3726.000000	99.302741 
3725.000000	99.296365 
3724.000000	99.295068 
3723.000000	99.293926 
3722.000000	99.287903 
3721.000000	99.276853 
3720.000000	99.264509 
3719.000000	99.255240 
3718.000000	99.249195 
3717.000000	99.244002 
3716.000000	99.239923 
3715.000000	99.238840 
3714.000000	99.239917 
3713.000000	99.238595 
3712.000000	99.232558 
3711.000000	99.222989 
3710.000000	99.210437 
3709.000000	99.194888 
3708.000000	99.176195 
3707.000000	99.154813 
3706.000000	99.132643 
3705.000000	99.111508 
3704.000000	99.090889 
3703.000000	99.068297 
3702.000000	99.043201 
3701.000000	99.017419 
3700.000000	98.992906 
3699.000000	98.971036 
3698.000000	98.950941 
3697.000000	98.930512 
3696.000000	98.911056 
3695.000000	98.896378 
3694.000000	98.886005 
3693.000000	98.874366 
3692.000000	98.858480 
3691.000000	98.842783 
3690.000000	98.834164 
3689.000000	98.831804 
3688.000000	98.827326 
3687.000000	98.817879 
3686.000000	98.809141 
3685.000000	98.804782 
3684.000000	98.803459 
3683.000000	98.802931 
3682.000000	98.801269 
3681.000000	98.794330 
3680.000000	98.777219 
3679.000000	98.751912 
3678.000000	98.728008 
3677.000000	98.711025 
3676.000000	98.697771 
3675.000000	98.685679 
3674.000000	98.677497 
3673.000000	98.676728 
3672.000000	98.680696 
3671.000000	98.679243 
3670.000000	98.667940 
3669.000000	98.653513 
3668.000000	98.642490 
3667.000000	98.634937 
3666.000000	98.628158 
3665.000000	98.620219 
3664.000000	98.610739 
3663.000000	98.599668 
3662.000000	98.586544 
3661.000000	98.572354 
3660.000000	98.560794 
3659.000000	98.555765 
3658.000000	98.557178 
3657.000000	98.560191 
3656.000000	98.560442 
3655.000000	98.559823 
3654.000000	98.563811 
3653.000000	98.573499 
3652.000000	98.583079 
3651.000000	98.585657 
3650.000000	98.582398 
3649.000000	98.580207 
3648.000000	98.580301 
3647.000000	98.579166 
3646.000000	98.576013 
3645.000000	98.572688 
3644.000000	98.570027 
3643.000000	98.566972 
3642.000000	98.561882 
3641.000000	98.555435 
3640.000000	98.550080 
3639.000000	98.547243 
3638.000000	98.546642 
3637.000000	98.547464 
3636.000000	98.548550 
3635.000000	98.547327 
3634.000000	98.542277 
3633.000000	98.536983 
3632.000000	98.537811 
3631.000000	98.546341 
3630.000000	98.555309 
3629.000000	98.557100 
3628.000000	98.553027 
3627.000000	98.549377 
3626.000000	98.548475 
3625.000000	98.546021 
3624.000000	98.537553 
3623.000000	98.524384 
3622.000000	98.512414 
3621.000000	98.505990 
3620.000000	98.506710 
3619.000000	98.514771 
3618.000000	98.527827 
3617.000000	98.542349 
3616.000000	98.557057 
3615.000000	98.571351 
3614.000000	98.584799 
3613.000000	98.598489 
3612.000000	98.614085 
3611.000000	98.631304 
3610.000000	98.646480 
3609.000000	98.654694 
3608.000000	98.655255 
3607.000000	98.652584 
3606.000000	98.650893 
3605.000000	98.650725 
3604.000000	98.650278 
3603.000000	98.648446 
3602.000000	98.646560 
3601.000000	98.646616 
3600.000000	98.650415 
3599.000000	98.658692 
3598.000000	98.669154 
3597.000000	98.677944 
3596.000000	98.683298 
3595.000000	98.686616 
3594.000000	98.690972 
3593.000000	98.697909 
3592.000000	98.705735 
3591.000000	98.712041 
3590.000000	98.715234 
3589.000000	98.715280 
3588.000000	98.714556 
3587.000000	98.715827 
3586.000000	98.718098 
3585.000000	98.718652 
3584.000000	98.716372 
3583.000000	98.712213 
3582.000000	98.707786 
3581.000000	98.704551 
3580.000000	98.703520 
3579.000000	98.705216 
3578.000000	98.709396 
3577.000000	98.714932 
3576.000000	98.720489 
3575.000000	98.724804 
3574.000000	98.726857 
3573.000000	98.726621 
3572.000000	98.725452 
3571.000000	98.725699 
3570.000000	98.728910 
3569.000000	98.733533 
3568.000000	98.736088 
3567.000000	98.735368 
3566.000000	98.733223 
3565.000000	98.731906 
3564.000000	98.732016 
3563.000000	98.732020 
3562.000000	98.729987 
3561.000000	98.725798 
3560.000000	98.721333 
3559.000000	98.718801 
3558.000000	98.718698 
3557.000000	98.719596 
3556.000000	98.719904 
3555.000000	98.719542 
3554.000000	98.719490 
3553.000000	98.720285 
3552.000000	98.721321 
3551.000000	98.721914 
3550.000000	98.722408 
3549.000000	98.723573 
3548.000000	98.725323 
3547.000000	98.726754 
3546.000000	98.727019 
3545.000000	98.726108 
3544.000000	98.724780 
3543.000000	98.723937 
3542.000000	98.723958 
3541.000000	98.724592 
3540.000000	98.725271 
3539.000000	98.725635 
3538.000000	98.725781 
3537.000000	98.726025 
3536.000000	98.726504 
3535.000000	98.727049 
3534.000000	98.727450 
3533.000000	98.727663 
3532.000000	98.727774 
3531.000000	98.727892 
3530.000000	98.728101 
3529.000000	98.728467 
3528.000000	98.729003 
3527.000000	98.729635 
3526.000000	98.730228 
3525.000000	98.730689 
3524.000000	98.731013 
3523.000000	98.731272 
3522.000000	98.731563 
3521.000000	98.731949 
3520.000000	98.732430 
3519.000000	98.732975 
3518.000000	98.733539 
3517.000000	98.734069 
3516.000000	98.734502 
3515.000000	98.734811 
3514.000000	98.735070 
3513.000000	98.735437 
3512.000000	98.736016 
3511.000000	98.736770 
3510.000000	98.737544 
3509.000000	98.738166 
3508.000000	98.738522 
3507.000000	98.738620 
3506.000000	98.738616 
3505.000000	98.738759 
3504.000000	98.739215 
3503.000000	98.739911 
3502.000000	98.740547 
3501.000000	98.740872 
3500.000000	98.740895 
3499.000000	98.740829 
3498.000000	98.740931 
3497.000000	98.741357 
3496.000000	98.742067 
3495.000000	98.742768 
3494.000000	98.743059 
3493.000000	98.742742 
3492.000000	98.741969 
3491.000000	98.741091 
3490.000000	98.740428 
3489.000000	98.740103 
3488.000000	98.740004 
3487.000000	98.739854 
3486.000000	98.739351 
3485.000000	98.738360 
3484.000000	98.737033 
3483.000000	98.735788 
3482.000000	98.735057 
3481.000000	98.734942 
3480.000000	98.735081 
3479.000000	98.734918 
3478.000000	98.734211 
3477.000000	98.733178 
3476.000000	98.732200 
3475.000000	98.731406 
3474.000000	98.730633 
3473.000000	98.729743 
3472.000000	98.728820 
3471.000000	98.728020 
3470.000000	98.727370 
3469.000000	98.726771 
3468.000000	98.726073 
3467.000000	98.725121 
3466.000000	98.723815 
3465.000000	98.722238 
3464.000000	98.720665 
3463.000000	98.719363 
3462.000000	98.718364 
3461.000000	98.717469 
3460.000000	98.716471 
3459.000000	98.715345 
3458.000000	98.714185 
3457.000000	98.713055 
3456.000000	98.711951 
3455.000000	98.710860 
3454.000000	98.709805 
3453.000000	98.708802 
3452.000000	98.707821 
3451.000000	98.706802 
3450.000000	98.705698 
3449.000000	98.704502 
3448.000000	98.703267 
3447.000000	98.702084 
3446.000000	98.700989 
3445.000000	98.699898 
3444.000000	98.698676 
3443.000000	98.697323 
3442.000000	98.696056 
3441.000000	98.695156 
3440.000000	98.694685 
3439.000000	98.694340 
3438.000000	98.693676 
3437.000000	98.692520 
3436.000000	98.691045 
3435.000000	98.689564 
3434.000000	98.688309 
3433.000000	98.687361 
3432.000000	98.686736 
3431.000000	98.686324 
3430.000000	98.685787 
3429.000000	98.684684 
3428.000000	98.682832 
3427.000000	98.680569 
3426.000000	98.678511 
3425.000000	98.677007 
3424.000000	98.675935 
3423.000000	98.675012 
3422.000000	98.674186 
3421.000000	98.673555 
3420.000000	98.672968 
3419.000000	98.672038 
3418.000000	98.670691 
3417.000000	98.669396 
3416.000000	98.668659 
3415.000000	98.668512 
3414.000000	98.668616 
3413.000000	98.668696 
3412.000000	98.668641 
3411.000000	98.668331 
3410.000000	98.667690 
3409.000000	98.666857 
3408.000000	98.666071 
3407.000000	98.665394 
3406.000000	98.664765 
3405.000000	98.664380 
3404.000000	98.664675 
3403.000000	98.665764 
3402.000000	98.667084 
3401.000000	98.667831 
3400.000000	98.667735 
3399.000000	98.667200 
3398.000000	98.666776 
3397.000000	98.666590 
3396.000000	98.666385 
3395.000000	98.666055 
3394.000000	98.665914 
3393.000000	98.666342 
3392.000000	98.667252 
3391.000000	98.668092 
3390.000000	98.668377 
3389.000000	98.668072 
3388.000000	98.667481 
3387.000000	98.666993 
3386.000000	98.666959 
3385.000000	98.667609 
3384.000000	98.668910 
3383.000000	98.670518 
3382.000000	98.672008 
3381.000000	98.673158 
3380.000000	98.673970 
3379.000000	98.674516 
3378.000000	98.674876 
3377.000000	98.675157 
3376.000000	98.675445 
3375.000000	98.675774 
3374.000000	98.676221 
3373.000000	98.676966 
3372.000000	98.678126 
3371.000000	98.679541 
3370.000000	98.680830 
3369.000000	98.681728 
3368.000000	98.682271 
3367.000000	98.682671 
3366.000000	98.683136 
3365.000000	98.683805 
3364.000000	98.684792 
3363.000000	98.686111 
3362.000000	98.687573 
3361.000000	98.688854 
3360.000000	98.689777 
3359.000000	98.690447 
3358.000000	98.691124 
3357.000000	98.691951 
3356.000000	98.692874 
3355.000000	98.693796 
3354.000000	98.694713 
3353.000000	98.695689 
3352.000000	98.696754 
3351.000000	98.697883 
3350.000000	98.699047 
3349.000000	98.700252 
3348.000000	98.701495 
3347.000000	98.702756 
3346.000000	98.704051 
3345.000000	98.705449 
3344.000000	98.706966 
3343.000000	98.708441 
3342.000000	98.709619 
3341.000000	98.710377 
3340.000000	98.710816 
3339.000000	98.711104 
3338.000000	98.711357 
3337.000000	98.711725 
3336.000000	98.712432 
3335.000000	98.713612 
3334.000000	98.715098 
3333.000000	98.716497 
3332.000000	98.717499 
3331.000000	98.718058 
3330.000000	98.718326 
3329.000000	98.718546 
3328.000000	98.718986 
3327.000000	98.719825 
3326.000000	98.720970 
3325.000000	98.722015 
3324.000000	98.722592 
3323.000000	98.722754 
3322.000000	98.722996 
3321.000000	98.723827 
3320.000000	98.725345 
3319.000000	98.727204 
3318.000000	98.728891 
3317.000000	98.730070 
3316.000000	98.730766 
3315.000000	98.731341 
3314.000000	98.732272 
3313.000000	98.733793 
3312.000000	98.735636 
3311.000000	98.737185 
3310.000000	98.738027 
3309.000000	98.738305 
3308.000000	98.738529 
3307.000000	98.739009 
3306.000000	98.739558 
3305.000000	98.739791 
3304.000000	98.739613 
3303.000000	98.739371 
3302.000000	98.739557 
3301.000000	98.740361 
3300.000000	98.741515 
3299.000000	98.742531 
3298.000000	98.743149 
3297.000000	98.743528 
3296.000000	98.744052 
3295.000000	98.744962 
3294.000000	98.746187 
3293.000000	98.747415 
3292.000000	98.748260 
3291.000000	98.748478 
3290.000000	98.748131 
3289.000000	98.747637 
3288.000000	98.747526 
3287.000000	98.748023 
3286.000000	98.748917 
3285.000000	98.749842 
3284.000000	98.750636 
3283.000000	98.751372 
3282.000000	98.752151 
3281.000000	98.752987 
3280.000000	98.753865 
3279.000000	98.754805 
3278.000000	98.755816 
3277.000000	98.756805 
3276.000000	98.757604 
3275.000000	98.758116 
3274.000000	98.758419 
3273.000000	98.758704 
3272.000000	98.759105 
3271.000000	98.759621 
3270.000000	98.760199 
3269.000000	98.760822 
3268.000000	98.761501 
3267.000000	98.762228 
3266.000000	98.762966 
3265.000000	98.763695 
3264.000000	98.764426 
3263.000000	98.765170 
3262.000000	98.765914 
3261.000000	98.766637 
3260.000000	98.767347 
3259.000000	98.768087 
3258.000000	98.768890 
3257.000000	98.769750 
3256.000000	98.770631 
3255.000000	98.771487 
3254.000000	98.772298 
3253.000000	98.773073 
3252.000000	98.773842 
3251.000000	98.774639 
3250.000000	98.775489 
3249.000000	98.776394 
3248.000000	98.777338 
3247.000000	98.778295 
3246.000000	98.779237 
3245.000000	98.780150 
3244.000000	98.781034 
3243.000000	98.781904 
3242.000000	98.782785 
3241.000000	98.783693 
3240.000000	98.784629 
3239.000000	98.785581 
3238.000000	98.786544 
3237.000000	98.787524 
3236.000000	98.788526 
3235.000000	98.789547 
3234.000000	98.790573 
3233.000000	98.791580 
3232.000000	98.792544 
3231.000000	98.793464 
3230.000000	98.794380 
3229.000000	98.795352 
3228.000000	98.796403 
3227.000000	98.797491 
3226.000000	98.798563 
3225.000000	98.799643 
3224.000000	98.800827 
3223.000000	98.802167 
3222.000000	98.803559 
3221.000000	98.804785 
3220.000000	98.805714 
3219.000000	98.806427 
3218.000000	98.807174 
3217.000000	98.808137 
3216.000000	98.809295 
3215.000000	98.810513 
3214.000000	98.811733 
3213.000000	98.813029 
3212.000000	98.814469 
3211.000000	98.815997 
3210.000000	98.817467 
3209.000000	98.818732 
3208.000000	98.819679 
3207.000000	98.820296 
3206.000000	98.820823 
3205.000000	98.821707 
3204.000000	98.823255 
3203.000000	98.825329 
3202.000000	98.827419 
3201.000000	98.829129 
3200.000000	98.830461 
3199.000000	98.831594 
3198.000000	98.832615 
3197.000000	98.833547 
3196.000000	98.834526 
3195.000000	98.835768 
3194.000000	98.837358 
3193.000000	98.839181 
3192.000000	98.841071 
3191.000000	98.842979 
3190.000000	98.844968 
3189.000000	98.847108 
3188.000000	98.849359 
3187.000000	98.851499 
3186.000000	98.853222 
3185.000000	98.854463 
3184.000000	98.855606 
3183.000000	98.857209 
3182.000000	98.859411 
3181.000000	98.861734 
3180.000000	98.863579 
3179.000000	98.864804 
3178.000000	98.865770 
3177.000000	98.866972 
3176.000000	98.868711 
3175.000000	98.871008 
3174.000000	98.873533 
3173.000000	98.875641 
3172.000000	98.876841 
3171.000000	98.877295 
3170.000000	98.877773 
3169.000000	98.878890 
3168.000000	98.880549 
3167.000000	98.882253 
3166.000000	98.883797 
3165.000000	98.885451 
3164.000000	98.887528 
3163.000000	98.889980 
3162.000000	98.892384 
3161.000000	98.894246 
3160.000000	98.895409 
3159.000000	98.896302 
3158.000000	98.897719 
3157.000000	98.900091 
3156.000000	98.902951 
3155.000000	98.905313 
3154.000000	98.906624 
3153.000000	98.907166 
3152.000000	98.907504 
3151.000000	98.907763 
3150.000000	98.907710 
3149.000000	98.907428 
3148.000000	98.907559 
3147.000000	98.908743 
3146.000000	98.910977 
3145.000000	98.913724 
3144.000000	98.916640 
3143.000000	98.919970 
3142.000000	98.924037 
3141.000000	98.928446 
3140.000000	98.932087 
3139.000000	98.934157 
3138.000000	98.934998 
3137.000000	98.935739 
3136.000000	98.937149 
3135.000000	98.939041 
3134.000000	98.940836 
3133.000000	98.942247 
3132.000000	98.943270 
3131.000000	98.943872 
3130.000000	98.944143 
3129.000000	98.944615 
3128.000000	98.945972 
3127.000000	98.948403 
3126.000000	98.951441 
3125.000000	98.954409 
3124.000000	98.956928 
3123.000000	98.958907 
3122.000000	98.960326 
3121.000000	98.961267 
3120.000000	98.962027 
3119.000000	98.963017 
3118.000000	98.964483 
3117.000000	98.966375 
3116.000000	98.968450 
3115.000000	98.970447 
3114.000000	98.972251 
3113.000000	98.973951 
3112.000000	98.975752 
3111.000000	98.977777 
3110.000000	98.979951 
3109.000000	98.982024 
3108.000000	98.983776 
3107.000000	98.985180 
3106.000000	98.986405 
3105.000000	98.987686 
3104.000000	98.989137 
3103.000000	98.990709 
3102.000000	98.992260 
3101.000000	98.993728 
3100.000000	98.995282 
3099.000000	98.997130 
3098.000000	98.999068 
3097.000000	99.000436 
3096.000000	99.000850 
3095.000000	99.000964 
3094.000000	99.001982 
3093.000000	99.004297 
3092.000000	99.006992 
3091.000000	99.008774 
3090.000000	99.009231 
3089.000000	99.009150 
3088.000000	99.009916 
3087.000000	99.012593 
3086.000000	99.017100 
3085.000000	99.021883 
3084.000000	99.024736 
3083.000000	99.024525 
3082.000000	99.022276 
3081.000000	99.020610 
3080.000000	99.021873 
3079.000000	99.026458 
3078.000000	99.032366 
3077.000000	99.036331 
3076.000000	99.036153 
3075.000000	99.032746 
3074.000000	99.029865 
3073.000000	99.030783 
3072.000000	99.034952 
3071.000000	99.038484 
3070.000000	99.038308 
3069.000000	99.035174 
3068.000000	99.032007 
3067.000000	99.030183 
3066.000000	99.028882 
3065.000000	99.027847 
3064.000000	99.028735 
3063.000000	99.032552 
3062.000000	99.037069 
3061.000000	99.038684 
3060.000000	99.036666 
3059.000000	99.034076 
3058.000000	99.033889 
3057.000000	99.035310 
3056.000000	99.034906 
3055.000000	99.030841 
3054.000000	99.024991 
3053.000000	99.020833 
3052.000000	99.020156 
3051.000000	99.022018 
3050.000000	99.024085 
3049.000000	99.024280 
3048.000000	99.021467 
3047.000000	99.015541 
3046.000000	99.007454 
3045.000000	98.998992 
3044.000000	98.992066 
3043.000000	98.987648 
3042.000000	98.984757 
3041.000000	98.980503 
3040.000000	98.971869 
3039.000000	98.958392 
3038.000000	98.942830 
3037.000000	98.928424 
3036.000000	98.915472 
3035.000000	98.901538 
3034.000000	98.885194 
3033.000000	98.867981 
3032.000000	98.851801 
3031.000000	98.835730 
3030.000000	98.816719 
3029.000000	98.793193 
3028.000000	98.766918 
3027.000000	98.740978 
3026.000000	98.716560 
3025.000000	98.692334 
3024.000000	98.666533 
3023.000000	98.638951 
3022.000000	98.610904 
3021.000000	98.583781 
3020.000000	98.557633 
3019.000000	98.530922 
3018.000000	98.501524 
3017.000000	98.468283 
3016.000000	98.431782 
3015.000000	98.393730 
3014.000000	98.355640 
3013.000000	98.317983 
3012.000000	98.280249 
3011.000000	98.241627 
3010.000000	98.201768 
3009.000000	98.160981 
3008.000000	98.119632 
3007.000000	98.077676 
3006.000000	98.035419 
3005.000000	97.994730 
3004.000000	97.958164 
3003.000000	97.925731 
3002.000000	97.893293 
3001.000000	97.855894 
3000.000000	97.813258 
2999.000000	97.770799 
2998.000000	97.734765 
2997.000000	97.707477 
2996.000000	97.687143 
2995.000000	97.669353 
2994.000000	97.646307 
2993.000000	97.607254 
2992.000000	97.545753 
2991.000000	97.469244 
2990.000000	97.398504 
2989.000000	97.353654 
2988.000000	97.340522 
2987.000000	97.350585 
2986.000000	97.370905 
2985.000000	97.392187 
2984.000000	97.409460 
2983.000000	97.420576 
2982.000000	97.426276 
2981.000000	97.429247 
2980.000000	97.430977 
2979.000000	97.430454 
2978.000000	97.426631 
2977.000000	97.420399 
2976.000000	97.412993 
2975.000000	97.404313 
2974.000000	97.394927 
2973.000000	97.388633 
2972.000000	97.390599 
2971.000000	97.402786 
2970.000000	97.422631 
2969.000000	97.446342 
2968.000000	97.472302 
2967.000000	97.501195 
2966.000000	97.534016 
2965.000000	97.570515 
2964.000000	97.608696 
2963.000000	97.645172 
2962.000000	97.676462 
2961.000000	97.700757 
2960.000000	97.718864 
2959.000000	97.733842 
2958.000000	97.749716 
2957.000000	97.769666 
2956.000000	97.794199 
2955.000000	97.820862 
2954.000000	97.846435 
2953.000000	97.869880 
2952.000000	97.892839 
2951.000000	97.917090 
2950.000000	97.941836 
2949.000000	97.963821 
2948.000000	97.979999 
2947.000000	97.989907 
2946.000000	97.995979 
2945.000000	98.001917 
2944.000000	98.010305 
2943.000000	98.021457 
2942.000000	98.034056 
2941.000000	98.046143 
2940.000000	98.055774 
2939.000000	98.061874 
2938.000000	98.065048 
2937.000000	98.067477 
2936.000000	98.071703 
2935.000000	98.079224 
2934.000000	98.089849 
2933.000000	98.101702 
2932.000000	98.111655 
2931.000000	98.116570 
2930.000000	98.115205 
2929.000000	98.109254 
2928.000000	98.102260 
2927.000000	98.097201 
2926.000000	98.094874 
2925.000000	98.093915 
2924.000000	98.092039 
2923.000000	98.087717 
2922.000000	98.081390 
2921.000000	98.075019 
2920.000000	98.070007 
2919.000000	98.065519 
2918.000000	98.058987 
2917.000000	98.048090 
2916.000000	98.032037 
2915.000000	98.011527 
2914.000000	97.988420 
2913.000000	97.965746 
2912.000000	97.947137 
2911.000000	97.935136 
2910.000000	97.929461 
2909.000000	97.927079 
2908.000000	97.924428 
2907.000000	97.919241 
2906.000000	97.909726 
2905.000000	97.892684 
2904.000000	97.865354 
2903.000000	97.831625 
2902.000000	97.805294 
2901.000000	97.802196 
2900.000000	97.828201 
2899.000000	97.873080 
2898.000000	97.917852 
2897.000000	97.948533 
2896.000000	97.963270 
2895.000000	97.968649 
2894.000000	97.972394 
2893.000000	97.978841 
2892.000000	97.988421 
2891.000000	97.999251 
2890.000000	98.009400 
2889.000000	98.018164 
2888.000000	98.025487 
2887.000000	98.031040 
2886.000000	98.035064 
2885.000000	98.039949 
2884.000000	98.049601 
2883.000000	98.066580 
2882.000000	98.090285 
2881.000000	98.118028 
2880.000000	98.147132 
2879.000000	98.175935 
2878.000000	98.203540 
2877.000000	98.229379 
2876.000000	98.253002 
2875.000000	98.274297 
2874.000000	98.294025 
2873.000000	98.313611 
2872.000000	98.333629 
2871.000000	98.352627 
2870.000000	98.368514 
2869.000000	98.381436 
2868.000000	98.394606 
2867.000000	98.412015 
2866.000000	98.435778 
2865.000000	98.465607 
2864.000000	98.499733 
2863.000000	98.535806 
2862.000000	98.571622 
2861.000000	98.605868 
2860.000000	98.638320 
2859.000000	98.669260 
2858.000000	98.698931 
2857.000000	98.727496 
2856.000000	98.754703 
2855.000000	98.779403 
2854.000000	98.800574 
2853.000000	98.818886 
2852.000000	98.835965 
2851.000000	98.852057 
2850.000000	98.865480 
2849.000000	98.874640 
2848.000000	98.880005 
2847.000000	98.884206 
2846.000000	98.890762 
2845.000000	98.902243 
2844.000000	98.918261 
2843.000000	98.935145 
2842.000000	98.948744 
2841.000000	98.957920 
2840.000000	98.964562 
2839.000000	98.970473 
2838.000000	98.975799 
2837.000000	98.980613 
2836.000000	98.985900 
2835.000000	98.991926 
2834.000000	98.997475 
2833.000000	99.002087 
2832.000000	99.007502 
2831.000000	99.015095 
2830.000000	99.023108 
2829.000000	99.028583 
2828.000000	99.031482 
2827.000000	99.034737 
2826.000000	99.040285 
2825.000000	99.046988 
2824.000000	99.052977 
2823.000000	99.058270 
2822.000000	99.064018 
2821.000000	99.070241 
2820.000000	99.075453 
2819.000000	99.078267 
2818.000000	99.078765 
2817.000000	99.078497 
2816.000000	99.079396 
2815.000000	99.082420 
2814.000000	99.087020 
2813.000000	99.091936 
2812.000000	99.096394 
2811.000000	99.100302 
2810.000000	99.103607 
2809.000000	99.106083 
2808.000000	99.107837 
2807.000000	99.109374 
2806.000000	99.110878 
2805.000000	99.111845 
2804.000000	99.111829 
2803.000000	99.111363 
2802.000000	99.111721 
2801.000000	99.113687 
2800.000000	99.116849 
2799.000000	99.120299 
2798.000000	99.123788 
2797.000000	99.127729 
2796.000000	99.132051 
2795.000000	99.135689 
2794.000000	99.137710 
2793.000000	99.138561 
2792.000000	99.139544 
2791.000000	99.141188 
2790.000000	99.142834 
2789.000000	99.143863 
2788.000000	99.144576 
2787.000000	99.145576 
2786.000000	99.146925 
2785.000000	99.148347 
2784.000000	99.149799 
2783.000000	99.151369 
2782.000000	99.152868 
2781.000000	99.154032 
2780.000000	99.155054 
2779.000000	99.156543 
2778.000000	99.158842 
2777.000000	99.161629 
2776.000000	99.164149 
2775.000000	99.165863 
2774.000000	99.166847 
2773.000000	99.167662 
2772.000000	99.168870 
2771.000000	99.170533 
2770.000000	99.172256 
2769.000000	99.173657 
2768.000000	99.174721 
2767.000000	99.175690 
2766.000000	99.176754 
2765.000000	99.177897 
2764.000000	99.179036 
2763.000000	99.180204 
2762.000000	99.181555 
2761.000000	99.183175 
2760.000000	99.184964 
2759.000000	99.186698 
2758.000000	99.188230 
2757.000000	99.189594 
2756.000000	99.190933 
2755.000000	99.192355 
2754.000000	99.193846 
2753.000000	99.195335 
2752.000000	99.196786 
2751.000000	99.198214 
2750.000000	99.199624 
2749.000000	99.200985 
2748.000000	99.202279 
2747.000000	99.203549 
2746.000000	99.204864 
2745.000000	99.206249 
2744.000000	99.207680 
2743.000000	99.209121 
2742.000000	99.210556 
2741.000000	99.211960 
2740.000000	99.213282 
2739.000000	99.214506 
2738.000000	99.215704 
2737.000000	99.217002 
2736.000000	99.218445 
2735.000000	99.219939 
2734.000000	99.221332 
2733.000000	99.222577 
2732.000000	99.223739 
2731.000000	99.224905 
2730.000000	99.226117 
2729.000000	99.227416 
2728.000000	99.228853 
2727.000000	99.230428 
2726.000000	99.232035 
2725.000000	99.233531 
2724.000000	99.234867 
2723.000000	99.236105 
2722.000000	99.237341 
2721.000000	99.238612 
2720.000000	99.239847 
2719.000000	99.240940 
2718.000000	99.241908 
2717.000000	99.242937 
2716.000000	99.244140 
2715.000000	99.245308 
2714.000000	99.246094 
2713.000000	99.246419 
2712.000000	99.246591 
2711.000000	99.247020 
2710.000000	99.247861 
2709.000000	99.249036 
2708.000000	99.250432 
2707.000000	99.251947 
2706.000000	99.253381 
2705.000000	99.254455 
2704.000000	99.255035 
2703.000000	99.255304 
2702.000000	99.255719 
2701.000000	99.256721 
2700.000000	99.258349 
2699.000000	99.260115 
2698.000000	99.261363 
2697.000000	99.261826 
2696.000000	99.261741 
2695.000000	99.261497 
2694.000000	99.261354 
2693.000000	99.261446 
2692.000000	99.261711 
2691.000000	99.261874 
2690.000000	99.261835 
2689.000000	99.262011 
2688.000000	99.262833 
2687.000000	99.263945 
2686.000000	99.264476 
2685.000000	99.264323 
2684.000000	99.264527 
2683.000000	99.265998 
2682.000000	99.268311 
2681.000000	99.270179 
2680.000000	99.270750 
2679.000000	99.270052 
2678.000000	99.268623 
2677.000000	99.267247 
2676.000000	99.266749 
2675.000000	99.267494 
2674.000000	99.269058 
2673.000000	99.270628 
2672.000000	99.271667 
2671.000000	99.272079 
2670.000000	99.272065 
2669.000000	99.271999 
2668.000000	99.272104 
2667.000000	99.271937 
2666.000000	99.270630 
2665.000000	99.267978 
2664.000000	99.264905 
2663.000000	99.262401 
2662.000000	99.260363 
2661.000000	99.258141 
2660.000000	99.255927 
2659.000000	99.254775 
2658.000000	99.255240 
2657.000000	99.256618 
2656.000000	99.257668 
2655.000000	99.257703 
2654.000000	99.256791 
2653.000000	99.255364 
2652.000000	99.253963 
2651.000000	99.253093 
2650.000000	99.252938 
2649.000000	99.253160 
2648.000000	99.253165 
2647.000000	99.252680 
2646.000000	99.252115 
2645.000000	99.252291 
2644.000000	99.253650 
2643.000000	99.255648 
2642.000000	99.257054 
2641.000000	99.257073 
2640.000000	99.256077 
2639.000000	99.255172 
2638.000000	99.255109 
2637.000000	99.255733 
2636.000000	99.256406 
2635.000000	99.256766 
2634.000000	99.257002 
2633.000000	99.257514 
2632.000000	99.258418 
2631.000000	99.259411 
2630.000000	99.260060 
2629.000000	99.260200 
2628.000000	99.260015 
2627.000000	99.259801 
2626.000000	99.259678 
2625.000000	99.259546 
2624.000000	99.259320 
2623.000000	99.259161 
2622.000000	99.259429 
2621.000000	99.260315 
2620.000000	99.261608 
2619.000000	99.262850 
2618.000000	99.263767 
2617.000000	99.264404 
2616.000000	99.264830 
2615.000000	99.264950 
2614.000000	99.264723 
2613.000000	99.264434 
2612.000000	99.264541 
2611.000000	99.265214 
2610.000000	99.266244 
2609.000000	99.267241 
2608.000000	99.267981 
2607.000000	99.268488 
2606.000000	99.268952 
2605.000000	99.269598 
2604.000000	99.270498 
2603.000000	99.271507 
2602.000000	99.272409 
2601.000000	99.273144 
2600.000000	99.273805 
2599.000000	99.274503 
2598.000000	99.275272 
2597.000000	99.276103 
2596.000000	99.276982 
2595.000000	99.277876 
2594.000000	99.278744 
2593.000000	99.279581 
2592.000000	99.280410 
2591.000000	99.281241 
2590.000000	99.282075 
2589.000000	99.282924 
2588.000000	99.283796 
2587.000000	99.284677 
2586.000000	99.285541 
2585.000000	99.286381 
2584.000000	99.287204 
2583.000000	99.288020 
2582.000000	99.288835 
2581.000000	99.289646 
2580.000000	99.290453 
2579.000000	99.291252 
2578.000000	99.292044 
2577.000000	99.292829 
2576.000000	99.293613 
2575.000000	99.294397 
2574.000000	99.295180 
2573.000000	99.295958 
2572.000000	99.296730 
2571.000000	99.297490 
2570.000000	99.298232 
2569.000000	99.298957 
2568.000000	99.299672 
2567.000000	99.300384 
2566.000000	99.301085 
2565.000000	99.301762 
2564.000000	99.302404 
2563.000000	99.303008 
2562.000000	99.303576 
2561.000000	99.304116 
2560.000000	99.304633 
2559.000000	99.305128 
2558.000000	99.305599 
2557.000000	99.306040 
2556.000000	99.306453 
2555.000000	99.306842 
2554.000000	99.307215 
2553.000000	99.307578 
2552.000000	99.307938 
2551.000000	99.308290 
2550.000000	99.308624 
2549.000000	99.308929 
2548.000000	99.309200 
2547.000000	99.309441 
2546.000000	99.309657 
2545.000000	99.309854 
2544.000000	99.310038 
2543.000000	99.310214 
2542.000000	99.310383 
2541.000000	99.310537 
2540.000000	99.310674 
2539.000000	99.310793 
2538.000000	99.310884 
2537.000000	99.310936 
2536.000000	99.310961 
2535.000000	99.310985 
2534.000000	99.311016 
2533.000000	99.311043 
2532.000000	99.311064 
2531.000000	99.311084 
2530.000000	99.311096 
2529.000000	99.311078 
2528.000000	99.311043 
2527.000000	99.311024 
2526.000000	99.311003 
2525.000000	99.310900 
2524.000000	99.310673 
2523.000000	99.310410 
2522.000000	99.310268 
2521.000000	99.310323 
2520.000000	99.310516 
2519.000000	99.310724 
2518.000000	99.310833 
2517.000000	99.310817 
2516.000000	99.310785 
2515.000000	99.310923 
2514.000000	99.311329 
2513.000000	99.311902 
2512.000000	99.312406 
2511.000000	99.312640 
2510.000000	99.312536 
2509.000000	99.312174 
2508.000000	99.311769 
2507.000000	99.311521 
2506.000000	99.311467 
2505.000000	99.311533 
2504.000000	99.311690 
2503.000000	99.311957 
2502.000000	99.312225 
2501.000000	99.312261 
2500.000000	99.311996 
2499.000000	99.311718 
2498.000000	99.311831 
2497.000000	99.312454 
2496.000000	99.313329 
2495.000000	99.314009 
2494.000000	99.314200 
2493.000000	99.313952 
2492.000000	99.313638 
2491.000000	99.313663 
2490.000000	99.314118 
2489.000000	99.314769 
2488.000000	99.315384 
2487.000000	99.315969 
2486.000000	99.316644 
2485.000000	99.317362 
2484.000000	99.317827 
2483.000000	99.317686 
2482.000000	99.316828 
2481.000000	99.315623 
2480.000000	99.314832 
2479.000000	99.315084 
2478.000000	99.316391 
2477.000000	99.318059 
2476.000000	99.319175 
2475.000000	99.319268 
2474.000000	99.318493 
2473.000000	99.317389 
2472.000000	99.316434 
2471.000000	99.315737 
2470.000000	99.315142 
2469.000000	99.314618 
2468.000000	99.314370 
2467.000000	99.314397 
2466.000000	99.314135 
2465.000000	99.312948 
2464.000000	99.311026 
2463.000000	99.309456 
2462.000000	99.309171 
2461.000000	99.310113 
2460.000000	99.311413 
2459.000000	99.312214 
2458.000000	99.312260 
2457.000000	99.311829 
2456.000000	99.311384 
2455.000000	99.311159 
2454.000000	99.310961 
2453.000000	99.310447 
2452.000000	99.309648 
2451.000000	99.309060 
2450.000000	99.309169 
2449.000000	99.310093 
2448.000000	99.311633 
2447.000000	99.313391 
2446.000000	99.314850 
2445.000000	99.315618 
2444.000000	99.315736 
2443.000000	99.315557 
2442.000000	99.315262 
2441.000000	99.314698 
2440.000000	99.313795 
2439.000000	99.312911 
2438.000000	99.312534 
2437.000000	99.312759 
2436.000000	99.313145 
2435.000000	99.313090 
2434.000000	99.312371 
2433.000000	99.311369 
2432.000000	99.310790 
2431.000000	99.311009 
2430.000000	99.311741 
2429.000000	99.312308 
2428.000000	99.312276 
2427.000000	99.311756 
2426.000000	99.311174 
2425.000000	99.310901 
2424.000000	99.311080 
2423.000000	99.311660 
2422.000000	99.312516 
2421.000000	99.313539 
2420.000000	99.314612 
2419.000000	99.315426 
2418.000000	99.315551 
2417.000000	99.314861 
2416.000000	99.313833 
2415.000000	99.313191 
2414.000000	99.313121 
2413.000000	99.313196 
2412.000000	99.313059 
2411.000000	99.312866 
2410.000000	99.312923 
2409.000000	99.313193 
2408.000000	99.313419 
2407.000000	99.313519 
2406.000000	99.313566 
2405.000000	99.313475 
2404.000000	99.312995 
2403.000000	99.312059 
2402.000000	99.310944 
2401.000000	99.310001 
2400.000000	99.309346 
2399.000000	99.308933 
2398.000000	99.308766 
2397.000000	99.308881 
2396.000000	99.309097 
2395.000000	99.308971 
2394.000000	99.308183 
2393.000000	99.306974 
2392.000000	99.306028 
2391.000000	99.305807 
2390.000000	99.306091 
2389.000000	99.306213 
2388.000000	99.305756 
2387.000000	99.304918 
2386.000000	99.304240 
2385.000000	99.304047 
2384.000000	99.304022 
2383.000000	99.303377 
2382.000000	99.301613 
2381.000000	99.298974 
2380.000000	99.296249 
2379.000000	99.294090 
2378.000000	99.292570 
2377.000000	99.291382 
2376.000000	99.290217 
2375.000000	99.288959 
2374.000000	99.287647 
2373.000000	99.286370 
2372.000000	99.285144 
2371.000000	99.283850 
2370.000000	99.282383 
2369.000000	99.280838 
2368.000000	99.279387 
2367.000000	99.278058 
2366.000000	99.276736 
2365.000000	99.275321 
2364.000000	99.273786 
2363.000000	99.272156 
2362.000000	99.270460 
2361.000000	99.268731 
2360.000000	99.267066 
2359.000000	99.265566 
2358.000000	99.264210 
2357.000000	99.262863 
2356.000000	99.261427 
2355.000000	99.259938 
2354.000000	99.258398 
2353.000000	99.256786 
2352.000000	99.255170 
2351.000000	99.253688 
2350.000000	99.252423 
2349.000000	99.251302 
2348.000000	99.250190 
2347.000000	99.248932 
2346.000000	99.247432 
2345.000000	99.245843 
2344.000000	99.244462 
2343.000000	99.243535 
2342.000000	99.242887 
2341.000000	99.242140 
2340.000000	99.241134 
2339.000000	99.240083 
2338.000000	99.239303 
2337.000000	99.238750 
2336.000000	99.238167 
2335.000000	99.237274 
2334.000000	99.236187 
2333.000000	99.235307 
2332.000000	99.235358 
2331.000000	99.236439 
2330.000000	99.237979 
2329.000000	99.238525 
2328.000000	99.237317 
2327.000000	99.234209 
2326.000000	99.230033 
2325.000000	99.226153 
2324.000000	99.223832 
2323.000000	99.223602 
2322.000000	99.224821 
2321.000000	99.226580 
2320.000000	99.228684 
2319.000000	99.231105 
2318.000000	99.233502 
2317.000000	99.234811 
2316.000000	99.234877 
2315.000000	99.233875 
2314.000000	99.232685 
2313.000000	99.231535 
2312.000000	99.231062 
2311.000000	99.231163 
2310.000000	99.231845 
2309.000000	99.232783 
2308.000000	99.234617 
2307.000000	99.237602 
2306.000000	99.241367 
2305.000000	99.244412 
2304.000000	99.245790 
2303.000000	99.245139 
2302.000000	99.243178 
2301.000000	99.240880 
2300.000000	99.239582 
2299.000000	99.239299 
2298.000000	99.239153 
2297.000000	99.238164 
2296.000000	99.236921 
2295.000000	99.235969 
2294.000000	99.234674 
2293.000000	99.231794 
2292.000000	99.227897 
2291.000000	99.224969 
2290.000000	99.223854 
2289.000000	99.223269 
2288.000000	99.221716 
2287.000000	99.219312 
2286.000000	99.217140 
2285.000000	99.216131 
2284.000000	99.216768 
2283.000000	99.219345 
2282.000000	99.223621 
2281.000000	99.228941 
2280.000000	99.234680 
2279.000000	99.240145 
2278.000000	99.244065 
2277.000000	99.245383 
2276.000000	99.244570 
2275.000000	99.243089 
2274.000000	99.241710 
2273.000000	99.240341 
2272.000000	99.239597 
2271.000000	99.240912 
2270.000000	99.244782 
2269.000000	99.249764 
2268.000000	99.253685 
2267.000000	99.255316 
2266.000000	99.254776 
2265.000000	99.253189 
2264.000000	99.252249 
2263.000000	99.253192 
2262.000000	99.255761 
2261.000000	99.258453 
2260.000000	99.259887 
2259.000000	99.259739 
2258.000000	99.258416 
2257.000000	99.256543 
2256.000000	99.254798 
2255.000000	99.253671 
2254.000000	99.253268 
2253.000000	99.253613 
2252.000000	99.254976 
2251.000000	99.257400 
2250.000000	99.260028 
2249.000000	99.261505 
2248.000000	99.261377 
2247.000000	99.260421 
2246.000000	99.259815 
2245.000000	99.260044 
2244.000000	99.260770 
2243.000000	99.261358 
2242.000000	99.261347 
2241.000000	99.260722 
2240.000000	99.260017 
2239.000000	99.259949 
2238.000000	99.260677 
2237.000000	99.261542 
2236.000000	99.261827 
2235.000000	99.261739 
2234.000000	99.262277 
2233.000000	99.264147 
2232.000000	99.267080 
2231.000000	99.269990 
2230.000000	99.271673 
2229.000000	99.271502 
2228.000000	99.269769 
2227.000000	99.267464 
2226.000000	99.265388 
2225.000000	99.263754 
2224.000000	99.262902 
2223.000000	99.263672 
2222.000000	99.266465 
2221.000000	99.270108 
2220.000000	99.272559 
2219.000000	99.273185 
2218.000000	99.273686 
2217.000000	99.276207 
2216.000000	99.280621 
2215.000000	99.284295 
2214.000000	99.284818 
2213.000000	99.282415 
2212.000000	99.279314 
2211.000000	99.277142 
2210.000000	99.275849 
2209.000000	99.275228 
2208.000000	99.276070 
2207.000000	99.279009 
2206.000000	99.283083 
2205.000000	99.286497 
2204.000000	99.288523 
2203.000000	99.289789 
2202.000000	99.290973 
2201.000000	99.291921 
2200.000000	99.292043 
2199.000000	99.291213 
2198.000000	99.290095 
2197.000000	99.289430 
2196.000000	99.289105 
2195.000000	99.288156 
2194.000000	99.285904 
2193.000000	99.282664 
2192.000000	99.278766 
2191.000000	99.273631 
2190.000000	99.267131 
2189.000000	99.261291 
2188.000000	99.258746 
2187.000000	99.259868 
2186.000000	99.263303 
2185.000000	99.268846 
2184.000000	99.277143 
2183.000000	99.286325 
2182.000000	99.292189 
2181.000000	99.293158 
2180.000000	99.292123 
2179.000000	99.291746 
2178.000000	99.290845 
2177.000000	99.288008 
2176.000000	99.285949 
2175.000000	99.288593 
2174.000000	99.295440 
2173.000000	99.302154 
2172.000000	99.306063 
2171.000000	99.307864 
2170.000000	99.308360 
2169.000000	99.307062 
2168.000000	99.304455 
2167.000000	99.302583 
2166.000000	99.302122 
2165.000000	99.301041 
2164.000000	99.297420 
2163.000000	99.292336 
2162.000000	99.289295 
2161.000000	99.291991 
2160.000000	99.302630 
2159.000000	99.320116 
2158.000000	99.338689 
2157.000000	99.351155 
2156.000000	99.354635 
2155.000000	99.351416 
2154.000000	99.345806 
2153.000000	99.341161 
2152.000000	99.338902 
2151.000000	99.338424 
2150.000000	99.337664 
2149.000000	99.335413 
2148.000000	99.333345 
2147.000000	99.334387 
2146.000000	99.339025 
2145.000000	99.344719 
2144.000000	99.349156 
2143.000000	99.352387 
2142.000000	99.355011 
2141.000000	99.355782 
2140.000000	99.352398 
2139.000000	99.344348 
2138.000000	99.334338 
2137.000000	99.326757 
2136.000000	99.324368 
2135.000000	99.326356 
2134.000000	99.329545 
2133.000000	99.331620 
2132.000000	99.332673 
2131.000000	99.333436 
2130.000000	99.333069 
2129.000000	99.329648 
2128.000000	99.322438 
2127.000000	99.313027 
2126.000000	99.304563 
2125.000000	99.299834 
2124.000000	99.299253 
2123.000000	99.300318 
2122.000000	99.299773 
2121.000000	99.296938 
2120.000000	99.293962 
2119.000000	99.292446 
2118.000000	99.291197 
2117.000000	99.288153 
2116.000000	99.283293 
2115.000000	99.278255 
2114.000000	99.274354 
2113.000000	99.272413 
2112.000000	99.273388 
2111.000000	99.277270 
2110.000000	99.281582 
2109.000000	99.282930 
2108.000000	99.280488 
2107.000000	99.276571 
2106.000000	99.273873 
2105.000000	99.273034 
2104.000000	99.272898 
2103.000000	99.272107 
2102.000000	99.270319 
2101.000000	99.268429 
2100.000000	99.267698 
2099.000000	99.268488 
2098.000000	99.270104 
2097.000000	99.272016 
2096.000000	99.274474 
2095.000000	99.277280 
2094.000000	99.278952 
2093.000000	99.278305 
2092.000000	99.276049 
2091.000000	99.273927 
2090.000000	99.272857 
2089.000000	99.272484 
2088.000000	99.272096 
2087.000000	99.271288 
2086.000000	99.270032 
2085.000000	99.268729 
2084.000000	99.268166 
2083.000000	99.268892 
2082.000000	99.270606 
2081.000000	99.272312 
2080.000000	99.273228 
2079.000000	99.273310 
2078.000000	99.272972 
2077.000000	99.272730 
2076.000000	99.273019 
2075.000000	99.273992 
2074.000000	99.275372 
2073.000000	99.276632 
2072.000000	99.277453 
2071.000000	99.277931 
2070.000000	99.278358 
2069.000000	99.278925 
2068.000000	99.279672 
2067.000000	99.280597 
2066.000000	99.281726 
2065.000000	99.283186 
2064.000000	99.285156 
2063.000000	99.287572 
2062.000000	99.289957 
2061.000000	99.291733 
2060.000000	99.292648 
2059.000000	99.292851 
2058.000000	99.292822 
2057.000000	99.293371 
2056.000000	99.295262 
2055.000000	99.298391 
2054.000000	99.301432 
2053.000000	99.302800 
2052.000000	99.301873 
2051.000000	99.299093 
2050.000000	99.295592 
2049.000000	99.293071 
2048.000000	99.293423 
2047.000000	99.297462 
2046.000000	99.303909 
2045.000000	99.310233 
2044.000000	99.314896 
2043.000000	99.317730 
2042.000000	99.318790 
2041.000000	99.318277 
2040.000000	99.317455 
2039.000000	99.318215 
2038.000000	99.321395 
2037.000000	99.326324 
2036.000000	99.331854 
2035.000000	99.337002 
2034.000000	99.340722 
2033.000000	99.342419 
2032.000000	99.342799 
2031.000000	99.342823 
2030.000000	99.342062 
2029.000000	99.339912 
2028.000000	99.338113 
2027.000000	99.339553 
2026.000000	99.344124 
2025.000000	99.347777 
2024.000000	99.347048 
2023.000000	99.342829 
2022.000000	99.338746 
2021.000000	99.336937 
2020.000000	99.336587 
2019.000000	99.335780 
2018.000000	99.333632 
2017.000000	99.331247 
2016.000000	99.331227 
2015.000000	99.335538 
2014.000000	99.343474 
2013.000000	99.351800 
2012.000000	99.356907 
2011.000000	99.356748 
2010.000000	99.351805 
2009.000000	99.345517 
2008.000000	99.341666 
2007.000000	99.339659 
2006.000000	99.335132 
2005.000000	99.327040 
2004.000000	99.320989 
2003.000000	99.321975 
2002.000000	99.327034 
2001.000000	99.328963 
2000.000000	99.325439 
1999.000000	99.319559 
1998.000000	99.313072 
1997.000000	99.304976 
1996.000000	99.296248 
1995.000000	99.290224 
1994.000000	99.287106 
1993.000000	99.282924 
1992.000000	99.275807 
1991.000000	99.269322 
1990.000000	99.267389 
1989.000000	99.269656 
1988.000000	99.273020 
1987.000000	99.274943 
1986.000000	99.274830 
1985.000000	99.274215 
1984.000000	99.275540 
1983.000000	99.278901 
1982.000000	99.281120 
1981.000000	99.280314 
1980.000000	99.279488 
1979.000000	99.282418 
1978.000000	99.287830 
1977.000000	99.291771 
1976.000000	99.294155 
1975.000000	99.297805 
1974.000000	99.302142 
1973.000000	99.303334 
1972.000000	99.300237 
1971.000000	99.295406 
1970.000000	99.290597 
1969.000000	99.285533 
1968.000000	99.281098 
1967.000000	99.279506 
1966.000000	99.280514 
1965.000000	99.281030 
1964.000000	99.279407 
1963.000000	99.277292 
1962.000000	99.276656 
1961.000000	99.277042 
1960.000000	99.276527 
1959.000000	99.274096 
1958.000000	99.270249 
1957.000000	99.266536 
1956.000000	99.264619 
1955.000000	99.264874 
1954.000000	99.265887 
1953.000000	99.265644 
1952.000000	99.263643 
1951.000000	99.260922 
1950.000000	99.258693 
1949.000000	99.257285 
1948.000000	99.256400 
1947.000000	99.255735 
1946.000000	99.255103 
1945.000000	99.254349 
1944.000000	99.253373 
1943.000000	99.252163 
1942.000000	99.250759 
1941.000000	99.249216 
1940.000000	99.247606 
1939.000000	99.246008 
1938.000000	99.244464 
1937.000000	99.242961 
1936.000000	99.241462 
1935.000000	99.239939 
1934.000000	99.238390 
1933.000000	99.236823 
1932.000000	99.235254 
1931.000000	99.233698 
1930.000000	99.232171 
1929.000000	99.230685 
1928.000000	99.229243 
1927.000000	99.227838 
1926.000000	99.226458 
1925.000000	99.225085 
1924.000000	99.223711 
1923.000000	99.222359 
1922.000000	99.221065 
1921.000000	99.219847 
1920.000000	99.218676 
1919.000000	99.217488 
1918.000000	99.216224 
1917.000000	99.214874 
1916.000000	99.213576 
1915.000000	99.212526 
1914.000000	99.211652 
1913.000000	99.210561 
1912.000000	99.209102 
1911.000000	99.207750 
1910.000000	99.206920 
1909.000000	99.206262 
1908.000000	99.205190 
1907.000000	99.203660 
1906.000000	99.201953 
1905.000000	99.200252 
1904.000000	99.198662 
1903.000000	99.197288 
1902.000000	99.195940 
1901.000000	99.194391 
1900.000000	99.192967 
1899.000000	99.192207 
1898.000000	99.191909 
1897.000000	99.191154 
1896.000000	99.189554 
1895.000000	99.187781 
1894.000000	99.186413 
1893.000000	99.185244 
1892.000000	99.184034 
1891.000000	99.183022 
1890.000000	99.182624 
1889.000000	99.183210 
1888.000000	99.185023 
1887.000000	99.187527 
1886.000000	99.189160 
1885.000000	99.188627 
1884.000000	99.186241 
1883.000000	99.183706 
1882.000000	99.182252 
1881.000000	99.181967 
1880.000000	99.182728 
1879.000000	99.184432 
1878.000000	99.186419 
1877.000000	99.187807 
1876.000000	99.188576 
1875.000000	99.189353 
1874.000000	99.190006 
1873.000000	99.189794 
1872.000000	99.189101 
1871.000000	99.189314 
1870.000000	99.190596 
1869.000000	99.191507 
1868.000000	99.191989 
1867.000000	99.193495 
1866.000000	99.195689 
1865.000000	99.197089 
1864.000000	99.197992 
1863.000000	99.200252 
1862.000000	99.204134 
1861.000000	99.207299 
1860.000000	99.207957 
1859.000000	99.207176 
1858.000000	99.207008 
1857.000000	99.208155 
1856.000000	99.210281 
1855.000000	99.212628 
1854.000000	99.214077 
1853.000000	99.214360 
1852.000000	99.214971 
1851.000000	99.217438 
1850.000000	99.221104 
1849.000000	99.224341 
1848.000000	99.227228 
1847.000000	99.231398 
1846.000000	99.237046 
1845.000000	99.241990 
1844.000000	99.244735 
1843.000000	99.246054 
1842.000000	99.246185 
1841.000000	99.244760 
1840.000000	99.242134 
1839.000000	99.239563 
1838.000000	99.238358 
1837.000000	99.238842 
1836.000000	99.240503 
1835.000000	99.242501 
1834.000000	99.243971 
1833.000000	99.244520 
1832.000000	99.243922 
1831.000000	99.242263 
1830.000000	99.240652 
1829.000000	99.240462 
1828.000000	99.241499 
1827.000000	99.242704 
1826.000000	99.243286 
1825.000000	99.242983 
1824.000000	99.242515 
1823.000000	99.242903 
1822.000000	99.244066 
1821.000000	99.245038 
1820.000000	99.245545 
1819.000000	99.246601 
1818.000000	99.248482 
1817.000000	99.249515 
1816.000000	99.248519 
1815.000000	99.246508 
1814.000000	99.245039 
1813.000000	99.244289 
1812.000000	99.243751 
1811.000000	99.243740 
1810.000000	99.244470 
1809.000000	99.244985 
1808.000000	99.244904 
1807.000000	99.244948 
1806.000000	99.245240 
1805.000000	99.245096 
1804.000000	99.244513 
1803.000000	99.244336 
1802.000000	99.244894 
1801.000000	99.245561 
1800.000000	99.246006 
1799.000000	99.246686 
1798.000000	99.247580 
1797.000000	99.248017 
1796.000000	99.248057 
1795.000000	99.248706 
1794.000000	99.250476 
1793.000000	99.252368 
1792.000000	99.253182 
1791.000000	99.253470 
1790.000000	99.254052 
1789.000000	99.254400 
1788.000000	99.254066 
1787.000000	99.253791 
1786.000000	99.254422 
1785.000000	99.255539 
1784.000000	99.256321 
1783.000000	99.256785 
1782.000000	99.257429 
1781.000000	99.258461 
1780.000000	99.260076 
1779.000000	99.262440 
1778.000000	99.264982 
1777.000000	99.266713 
1776.000000	99.267371 
1775.000000	99.267546 
1774.000000	99.267794 
1773.000000	99.268126 
1772.000000	99.268421 
1771.000000	99.269884 
1770.000000	99.273870 
1769.000000	99.279719 
1768.000000	99.284766 
1767.000000	99.287334 
1766.000000	99.288188 
1765.000000	99.288413 
1764.000000	99.287915 
1763.000000	99.286605 
1762.000000	99.286267 
1761.000000	99.288548 
1760.000000	99.292602 
1759.000000	99.297074 
1758.000000	99.301644 
1757.000000	99.306033 
1756.000000	99.309152 
1755.000000	99.310810 
1754.000000	99.313203 
1753.000000	99.318156 
1752.000000	99.323800 
1751.000000	99.326440 
1750.000000	99.326171 
1749.000000	99.326057 
1748.000000	99.326465 
1747.000000	99.325923 
1746.000000	99.325409 
1745.000000	99.326848 
1744.000000	99.329042 
1743.000000	99.329615 
1742.000000	99.329281 
1741.000000	99.329619 
1740.000000	99.329772 
1739.000000	99.328646 
1738.000000	99.327721 
1737.000000	99.328479 
1736.000000	99.330421 
1735.000000	99.331859 
1734.000000	99.331733 
1733.000000	99.331151 
1732.000000	99.330457 
1731.000000	99.329364 
1730.000000	99.328362 
1729.000000	99.328205 
1728.000000	99.328439 
1727.000000	99.327916 
1726.000000	99.326480 
1725.000000	99.324908 
1724.000000	99.323746 
1723.000000	99.322885 
1722.000000	99.322060 
1721.000000	99.321178 
1720.000000	99.320328 
1719.000000	99.319596 
1718.000000	99.318820 
1717.000000	99.317449 
1716.000000	99.315649 
1715.000000	99.314021 
1714.000000	99.312545 
1713.000000	99.310999 
1712.000000	99.309392 
1711.000000	99.307757 
1710.000000	99.306085 
1709.000000	99.304380 
1708.000000	99.302634 
1707.000000	99.300849 
1706.000000	99.299027 
1705.000000	99.297167 
1704.000000	99.295275 
1703.000000	99.293361 
1702.000000	99.291428 
1701.000000	99.289461 
1700.000000	99.287447 
1699.000000	99.285393 
1698.000000	99.283305 
1697.000000	99.281174 
1696.000000	99.278988 
1695.000000	99.276746 
1694.000000	99.274457 
1693.000000	99.272128 
1692.000000	99.269771 
1691.000000	99.267398 
1690.000000	99.265016 
1689.000000	99.262625 
1688.000000	99.260224 
1687.000000	99.257813 
1686.000000	99.255393 
1685.000000	99.252963 
1684.000000	99.250528 
1683.000000	99.248081 
1682.000000	99.245629 
1681.000000	99.243190 
1680.000000	99.240773 
1679.000000	99.238343 
1678.000000	99.235899 
1677.000000	99.233607 
1676.000000	99.231630 
1675.000000	99.229741 
1674.000000	99.227813 
1673.000000	99.225991 
1672.000000	99.224070 
1671.000000	99.221388 
1670.000000	99.217574 
1669.000000	99.213972 
1668.000000	99.212076 
1667.000000	99.210899 
1666.000000	99.209200 
1665.000000	99.206691 
1664.000000	99.203489 
1663.000000	99.199766 
1662.000000	99.195900 
1661.000000	99.192940 
1660.000000	99.191477 
1659.000000	99.189426 
1658.000000	99.184529 
1657.000000	99.177688 
1656.000000	99.172903 
1655.000000	99.171383 
1654.000000	99.170763 
1653.000000	99.169093 
1652.000000	99.169704 
1651.000000	99.168290 
1650.000000	99.166786 
1649.000000	99.166026 
1648.000000	99.165686 
1647.000000	99.164474 
1646.000000	99.163158 
1645.000000	99.161269 
1644.000000	99.159175 
1643.000000	99.158381 
1642.000000	99.158320 
1641.000000	99.157511 
1640.000000	99.156375 
1639.000000	99.156330 
1638.000000	99.157470 
1637.000000	99.158861 
1636.000000	99.160548 
1635.000000	99.161237 
1634.000000	99.159201 
1633.000000	99.156552 
1632.000000	99.157016 
1631.000000	99.160414 
1630.000000	99.163086 
1629.000000	99.162531 
1628.000000	99.160573 
1627.000000	99.159413 
1626.000000	99.159164 
1625.000000	99.160564 
1624.000000	99.165386 
1623.000000	99.172366 
1622.000000	99.177138 
1621.000000	99.179015 
1620.000000	99.181036 
1619.000000	99.184460 
1618.000000	99.187548 
1617.000000	99.189731 
1616.000000	99.193355 
1615.000000	99.197074 
1614.000000	99.198258 
1613.000000	99.199006 
1612.000000	99.202322 
1611.000000	99.207564 
1610.000000	99.211365 
1609.000000	99.213284 
1608.000000	99.215827 
1607.000000	99.219334 
1606.000000	99.222134 
1605.000000	99.224351 
1604.000000	99.227487 
1603.000000	99.231467 
1602.000000	99.235109 
1601.000000	99.238336 
1600.000000	99.241666 
1599.000000	99.244711 
1598.000000	99.246989 
1597.000000	99.249108 
1596.000000	99.252028 
1595.000000	99.255723 
1594.000000	99.259355 
1593.000000	99.262604 
1592.000000	99.265853 
1591.000000	99.269178 
1590.000000	99.272231 
1589.000000	99.275120 
1588.000000	99.278400 
1587.000000	99.282136 
1586.000000	99.285779 
1585.000000	99.289166 
1584.000000	99.292711 
1583.000000	99.296371 
1582.000000	99.299431 
1581.000000	99.301784 
1580.000000	99.304176 
1579.000000	99.306827 
1578.000000	99.309022 
1577.000000	99.310798 
1576.000000	99.313538 
1575.000000	99.316762 
1574.000000	99.318405 
1573.000000	99.318942 
1572.000000	99.319868 
1571.000000	99.321541 
1570.000000	99.323436 
1569.000000	99.326558 
1568.000000	99.331546 
1567.000000	99.336042 
1566.000000	99.338264 
1565.000000	99.338788 
1564.000000	99.338985 
1563.000000	99.339109 
1562.000000	99.339414 
1561.000000	99.342436 
1560.000000	99.350285 
1559.000000	99.355932 
1558.000000	99.353270 
1557.000000	99.347779 
1556.000000	99.345644 
1555.000000	99.345795 
1554.000000	99.345259 
1553.000000	99.343849 
1552.000000	99.342970 
1551.000000	99.343317 
1550.000000	99.344385 
1549.000000	99.345856 
1548.000000	99.347688 
1547.000000	99.349444 
1546.000000	99.349930 
1545.000000	99.348119 
1544.000000	99.345563 
1543.000000	99.345631 
1542.000000	99.348694 
1541.000000	99.349984 
1540.000000	99.347722 
1539.000000	99.345026 
1538.000000	99.340398 
1537.000000	99.333738 
1536.000000	99.327242 
1535.000000	99.321556 
1534.000000	99.315488 
1533.000000	99.308676 
1532.000000	99.303257 
1531.000000	99.300899 
1530.000000	99.300021 
1529.000000	99.297182 
1528.000000	99.291667 
1527.000000	99.285797 
1526.000000	99.281336 
1525.000000	99.277085 
1524.000000	99.272321 
1523.000000	99.268076 
1522.000000	99.263936 
1521.000000	99.257519 
1520.000000	99.249353 
1519.000000	99.242159 
1518.000000	99.237189 
1517.000000	99.232983 
1516.000000	99.228642 
1515.000000	99.224915 
1514.000000	99.222072 
1513.000000	99.217975 
1512.000000	99.210136 
1511.000000	99.200244 
1510.000000	99.192310 
1509.000000	99.187115 
1508.000000	99.181886 
1507.000000	99.176941 
1506.000000	99.173460 
1505.000000	99.166889 
1504.000000	99.157187 
1503.000000	99.147603 
1502.000000	99.139102 
1501.000000	99.130966 
1500.000000	99.122408 
1499.000000	99.114558 
1498.000000	99.109429 
1497.000000	99.105947 
1496.000000	99.100665 
1495.000000	99.093457 
1494.000000	99.086639 
1493.000000	99.080735 
1492.000000	99.074311 
1491.000000	99.066291 
1490.000000	99.057528 
1489.000000	99.048649 
1488.000000	99.039380 
1487.000000	99.031190 
1486.000000	99.024345 
1485.000000	99.017547 
1484.000000	99.010677 
1483.000000	99.004231 
1482.000000	98.998050 
1481.000000	98.991054 
1480.000000	98.983377 
1479.000000	98.977094 
1478.000000	98.973135 
1477.000000	98.969438 
1476.000000	98.964515 
1475.000000	98.960868 
1474.000000	98.959620 
1473.000000	98.956935 
1472.000000	98.949522 
1471.000000	98.941157 
1470.000000	98.935654 
1469.000000	98.931781 
1468.000000	98.926863 
1467.000000	98.921548 
1466.000000	98.918062 
1465.000000	98.915131 
1464.000000	98.909712 
1463.000000	98.901776 
1462.000000	98.893593 
1461.000000	98.885277 
1460.000000	98.876034 
1459.000000	98.866872 
1458.000000	98.861839 
1457.000000	98.860039 
1456.000000	98.850202 
1455.000000	98.829461 
1454.000000	98.808352 
1453.000000	98.791797 
1452.000000	98.777462 
1451.000000	98.765186 
1450.000000	98.760037 
1449.000000	98.763463 
1448.000000	98.768742 
1447.000000	98.770425 
1446.000000	98.770432 
1445.000000	98.771067 
1444.000000	98.770737 
1443.000000	98.767666 
1442.000000	98.763639 
1441.000000	98.760979 
1440.000000	98.758421 
1439.000000	98.754630 
1438.000000	98.753373 
1437.000000	98.756967 
1436.000000	98.759167 
1435.000000	98.756006 
1434.000000	98.751706 
1433.000000	98.748046 
1432.000000	98.742799 
1431.000000	98.734847 
1430.000000	98.727878 
1429.000000	98.724201 
1428.000000	98.719679 
1427.000000	98.710943 
1426.000000	98.700336 
1425.000000	98.692162 
1424.000000	98.685073 
1423.000000	98.674334 
1422.000000	98.661117 
1421.000000	98.649280 
1420.000000	98.636779 
1419.000000	98.618521 
1418.000000	98.599037 
1417.000000	98.581875 
1416.000000	98.561766 
1415.000000	98.535698 
1414.000000	98.507035 
1413.000000	98.480723 
1412.000000	98.457953 
1411.000000	98.438401 
1410.000000	98.424413 
1409.000000	98.416867 
1408.000000	98.412506 
1407.000000	98.409670 
1406.000000	98.411632 
1405.000000	98.423011 
1404.000000	98.442423 
1403.000000	98.464069 
1402.000000	98.485717 
1401.000000	98.508171 
1400.000000	98.530361 
1399.000000	98.546723 
1398.000000	98.549714 
1397.000000	98.532735 
1396.000000	98.495956 
1395.000000	98.456171 
1394.000000	98.442556 
1393.000000	98.469245 
1392.000000	98.521313 
1391.000000	98.573012 
1390.000000	98.609106 
1389.000000	98.628138 
1388.000000	98.634555 
1387.000000	98.633231 
1386.000000	98.629138 
1385.000000	98.626754 
1384.000000	98.627908 
1383.000000	98.632134 
1382.000000	98.639366 
1381.000000	98.650464 
1380.000000	98.665830 
1379.000000	98.684249 
1378.000000	98.704038 
1377.000000	98.725014 
1376.000000	98.747773 
1375.000000	98.771607 
1374.000000	98.795048 
1373.000000	98.817892 
1372.000000	98.840380 
1371.000000	98.862063 
1370.000000	98.882384 
1369.000000	98.902840 
1368.000000	98.924738 
1367.000000	98.946400 
1366.000000	98.965404 
1365.000000	98.981766 
1364.000000	98.997799 
1363.000000	99.015944 
1362.000000	99.036422 
1361.000000	99.057226 
1360.000000	99.076392 
1359.000000	99.093478 
1358.000000	99.109488 
1357.000000	99.126338 
1356.000000	99.144530 
1355.000000	99.161911 
1354.000000	99.176273 
1353.000000	99.188278 
1352.000000	99.200772 
1351.000000	99.214948 
1350.000000	99.228054 
1349.000000	99.238967 
1348.000000	99.247783 
1347.000000	99.253833 
1346.000000	99.257606 
1345.000000	99.262435 
1344.000000	99.270752 
1343.000000	99.280169 
1342.000000	99.285966 
1341.000000	99.287125 
1340.000000	99.287105 
1339.000000	99.288728 
1338.000000	99.291823 
1337.000000	99.295887 
1336.000000	99.301017 
1335.000000	99.306767 
1334.000000	99.312669 
1333.000000	99.319230 
1332.000000	99.326325 
1331.000000	99.331367 
1330.000000	99.331730 
1329.000000	99.328710 
1328.000000	99.325919 
1327.000000	99.324466 
1326.000000	99.322896 
1325.000000	99.322127 
1324.000000	99.324459 
1323.000000	99.329240 
1322.000000	99.333274 
1321.000000	99.334722 
1320.000000	99.333878 
1319.000000	99.331580 
1318.000000	99.329328 
1317.000000	99.329296 
1316.000000	99.332025 
1315.000000	99.335287 
1314.000000	99.337063 
1313.000000	99.338109 
1312.000000	99.340060 
1311.000000	99.342813 
1310.000000	99.345640 
1309.000000	99.348894 
1308.000000	99.352528 
1307.000000	99.354693 
1306.000000	99.353730 
1305.000000	99.351489 
1304.000000	99.350966 
1303.000000	99.352400 
1302.000000	99.353632 
1301.000000	99.353243 
1300.000000	99.351276 
1299.000000	99.348310 
1298.000000	99.345664 
1297.000000	99.345224 
1296.000000	99.347443 
1295.000000	99.350250 
1294.000000	99.351745 
1293.000000	99.352596 
1292.000000	99.354229 
1291.000000	99.356058 
1290.000000	99.356148 
1289.000000	99.353795 
1288.000000	99.350076 
1287.000000	99.346377 
1286.000000	99.343562 
1285.000000	99.341998 
1284.000000	99.341453 
1283.000000	99.341650 
1282.000000	99.342593 
1281.000000	99.343614 
1280.000000	99.343177 
1279.000000	99.340230 
1278.000000	99.335711 
1277.000000	99.331625 
1276.000000	99.328649 
1275.000000	99.325560 
1274.000000	99.321275 
1273.000000	99.316068 
1272.000000	99.310319 
1271.000000	99.303362 
1270.000000	99.294248 
1269.000000	99.282774 
1268.000000	99.269315 
1267.000000	99.254622 
1266.000000	99.240151 
1265.000000	99.227126 
1264.000000	99.215190 
1263.000000	99.203292 
1262.000000	99.191783 
1261.000000	99.182069 
1260.000000	99.174055 
1259.000000	99.165393 
1258.000000	99.154421 
1257.000000	99.142377 
1256.000000	99.131984 
1255.000000	99.124529 
1254.000000	99.118481 
1253.000000	99.110481 
1252.000000	99.098696 
1251.000000	99.086361 
1250.000000	99.080966 
1249.000000	99.087865 
1248.000000	99.105024 
1247.000000	99.124977 
1246.000000	99.140110 
1245.000000	99.143723 
1244.000000	99.130353 
1243.000000	99.102805 
1242.000000	99.078035 
1241.000000	99.076381 
1240.000000	99.100645 
1239.000000	99.131074 
1238.000000	99.144909 
1237.000000	99.136631 
1236.000000	99.115892 
1235.000000	99.092216 
1234.000000	99.067992 
1233.000000	99.043432 
1232.000000	99.020819 
1231.000000	99.002638 
1230.000000	98.989324 
1229.000000	98.979544 
1228.000000	98.970692 
1227.000000	98.959786 
1226.000000	98.946100 
1225.000000	98.932121 
1224.000000	98.919929 
1223.000000	98.907811 
1222.000000	98.892608 
1221.000000	98.874011 
1220.000000	98.853920 
1219.000000	98.832649 
1218.000000	98.808542 
1217.000000	98.780531 
1216.000000	98.748539 
1215.000000	98.712094 
1214.000000	98.671015 
1213.000000	98.626946 
1212.000000	98.581694 
1211.000000	98.534340 
1210.000000	98.482061 
1209.000000	98.423888 
1208.000000	98.362011 
1207.000000	98.299497 
1206.000000	98.238097 
1205.000000	98.177965 
1204.000000	98.117766 
1203.000000	98.054912 
1202.000000	97.987446 
1201.000000	97.916316 
1200.000000	97.844604 
1199.000000	97.774162 
1198.000000	97.704432 
1197.000000	97.634673 
1196.000000	97.565303 
1195.000000	97.496274 
1194.000000	97.425879 
1193.000000	97.352510 
1192.000000	97.276608 
1191.000000	97.199627 
1190.000000	97.121901 
1189.000000	97.042826 
1188.000000	96.962216 
1187.000000	96.879775 
1186.000000	96.794018 
1185.000000	96.703914 
1184.000000	96.611526 
1183.000000	96.520628 
1182.000000	96.431914 
1181.000000	96.341625 
1180.000000	96.246078 
1179.000000	96.145840 
1178.000000	96.044281 
1177.000000	95.943361 
1176.000000	95.841948 
1175.000000	95.737086 
1174.000000	95.625788 
1173.000000	95.506928 
1172.000000	95.382619 
1171.000000	95.257111 
1170.000000	95.133532 
1169.000000	95.012386 
1168.000000	94.893880 
1167.000000	94.780965 
1166.000000	94.679937 
1165.000000	94.599233 
1164.000000	94.547515 
1163.000000	94.530371 
1162.000000	94.546681 
1161.000000	94.587831 
1160.000000	94.639930 
1159.000000	94.686766 
1158.000000	94.713597 
1157.000000	94.711381 
1156.000000	94.678022 
1155.000000	94.616191 
1154.000000	94.531815 
1153.000000	94.434308 
1152.000000	94.334224 
1151.000000	94.237260 
1150.000000	94.141730 
1149.000000	94.044320 
1148.000000	93.946540 
1147.000000	93.852595 
1146.000000	93.762775 
1145.000000	93.672928 
1144.000000	93.579733 
1143.000000	93.482883 
1142.000000	93.382990 
1141.000000	93.281093 
1140.000000	93.179759 
1139.000000	93.081003 
1138.000000	92.983333 
1137.000000	92.883956 
1136.000000	92.783083 
1135.000000	92.682927 
1134.000000	92.583831 
1133.000000	92.484869 
1132.000000	92.386394 
1131.000000	92.287925 
1130.000000	92.185888 
1129.000000	92.078485 
1128.000000	91.970361 
1127.000000	91.866498 
1126.000000	91.763653 
1125.000000	91.654793 
1124.000000	91.540337 
1123.000000	91.427166 
1122.000000	91.317310 
1121.000000	91.205918 
1120.000000	91.090815 
1119.000000	90.975655 
1118.000000	90.862365 
1117.000000	90.748526 
1116.000000	90.633702 
1115.000000	90.520635 
1114.000000	90.408685 
1113.000000	90.293819 
1112.000000	90.176623 
1111.000000	90.062165 
1110.000000	89.951149 
1109.000000	89.839675 
1108.000000	89.727048 
1107.000000	89.616311 
1106.000000	89.506877 
1105.000000	89.395401 
1104.000000	89.284640 
1103.000000	89.181983 
1102.000000	89.087505 
1101.000000	88.993175 
1100.000000	88.894925 
1099.000000	88.798734 
1098.000000	88.708740 
1097.000000	88.620740 
1096.000000	88.530051 
1095.000000	88.437083 
1094.000000	88.340611 
1093.000000	88.233646 
1092.000000	88.111683 
1091.000000	87.979768 
1090.000000	87.847530 
1089.000000	87.721768 
1088.000000	87.605754 
1087.000000	87.499294 
1086.000000	87.396652 
1085.000000	87.290426 
1084.000000	87.179609 
1083.000000	87.068660 
1082.000000	86.958955 
1081.000000	86.848623 
1080.000000	86.740490 
1079.000000	86.640916 
1078.000000	86.550017 
1077.000000	86.462533 
1076.000000	86.378780 
1075.000000	86.303866 
1074.000000	86.235221 
1073.000000	86.162052 
1072.000000	86.076476 
1071.000000	85.970858 
1070.000000	85.824875 
1069.000000	85.616379 
1068.000000	85.355031 
1067.000000	85.092200 
1066.000000	84.882079 
1065.000000	84.736142 
1064.000000	84.623732 
1063.000000	84.504631 
1062.000000	84.350600 
1061.000000	84.149234 
1060.000000	83.907254 
1059.000000	83.651514 
1058.000000	83.414718 
1057.000000	83.214085 
1056.000000	83.043913 
1055.000000	82.884503 
1054.000000	82.716239 
1053.000000	82.532021 
1052.000000	82.340873 
1051.000000	82.155373 
1050.000000	81.974663 
1049.000000	81.787314 
1048.000000	81.589971 
1047.000000	81.391698 
1046.000000	81.200153 
1045.000000	81.015795 
1044.000000	80.839898 
1043.000000	80.675346 
1042.000000	80.517090 
1041.000000	80.353504 
1040.000000	80.181841 
1039.000000	80.014329 
1038.000000	79.866452 
1037.000000	79.745913 
1036.000000	79.652128 
1035.000000	79.577127 
1034.000000	79.507425 
1033.000000	79.433151 
1032.000000	79.352679 
1031.000000	79.261820 
1030.000000	79.149414 
1029.000000	79.019505 
1028.000000	78.908629 
1027.000000	78.857265 
1026.000000	78.863894 
1025.000000	78.886347 
1024.000000	78.888716 
1023.000000	78.867248 
1022.000000	78.831524 
1021.000000	78.785861 
1020.000000	78.735357 
1019.000000	78.688958 
1018.000000	78.646935 
1017.000000	78.599979 
1016.000000	78.546771 
1015.000000	78.498265 
1014.000000	78.460365 
1013.000000	78.427352 
1012.000000	78.396329 
1011.000000	78.372537 
1010.000000	78.355971 
1009.000000	78.338350 
1008.000000	78.318665 
1007.000000	78.307614 
1006.000000	78.311843 
1005.000000	78.327023 
1004.000000	78.350024 
1003.000000	78.384086 
1002.000000	78.427995 
1001.000000	78.473579 
1000.000000	78.518069 
999.000000	 78.566973 
998.000000	 78.622208 
997.000000	 78.679539 
996.000000	 78.739250 
995.000000	 78.806341 
994.000000	 78.878712 
993.000000	 78.948613 
992.000000	 79.017438 
991.000000	 79.095556 
990.000000	 79.185844 
989.000000	 79.280518 
988.000000	 79.375351 
987.000000	 79.473644 
986.000000	 79.575455 
985.000000	 79.677406 
984.000000	 79.784311 
983.000000	 79.906493 
982.000000	 80.044657 
981.000000	 80.190250 
980.000000	 80.341044 
979.000000	 80.503307 
978.000000	 80.677855 
977.000000	 80.858023 
976.000000	 81.042545 
975.000000	 81.236636 
974.000000	 81.439323 
973.000000	 81.643305 
972.000000	 81.848423 
971.000000	 82.061922 
970.000000	 82.284399 
969.000000	 82.508369 
968.000000	 82.731200 
967.000000	 82.956534 
966.000000	 83.182745 
965.000000	 83.403367 
964.000000	 83.619714 
963.000000	 83.840013 
962.000000	 84.064914 
961.000000	 84.286097 
960.000000	 84.499936 
959.000000	 84.710340 
958.000000	 84.917659 
957.000000	 85.117266 
956.000000	 85.310243 
955.000000	 85.503367 
954.000000	 85.696795 
953.000000	 85.882742 
952.000000	 86.057535 
951.000000	 86.224366 
950.000000	 86.383759 
949.000000	 86.532371 
948.000000	 86.672164 
947.000000	 86.810043 
946.000000	 86.946750 
945.000000	 87.075706 
944.000000	 87.194059 
943.000000	 87.305949 
942.000000	 87.414684 
941.000000	 87.520364 
940.000000	 87.624827 
939.000000	 87.729921 
938.000000	 87.831836 
937.000000	 87.926524 
936.000000	 88.019198 
935.000000	 88.118598 
934.000000	 88.223694 
933.000000	 88.326933 
932.000000	 88.428414 
931.000000	 88.534518 
930.000000	 88.643543 
929.000000	 88.745544 
928.000000	 88.836859 
927.000000	 88.922872 
926.000000	 89.006078 
925.000000	 89.083410 
924.000000	 89.156123 
923.000000	 89.229792 
922.000000	 89.302416 
921.000000	 89.364351 
920.000000	 89.413031 
919.000000	 89.457419 
918.000000	 89.505278 
917.000000	 89.555798 
916.000000	 89.607078 
915.000000	 89.660894 
914.000000	 89.717592 
913.000000	 89.776207 
912.000000	 89.842815 
911.000000	 89.929488 
910.000000	 90.041521 
909.000000	 90.173084 
908.000000	 90.317040 
907.000000	 90.471148 
906.000000	 90.633342 
905.000000	 90.799656 
904.000000	 90.969468 
903.000000	 91.146499 
902.000000	 91.333258 
901.000000	 91.528878 
900.000000	 91.730620 
899.000000	 91.932544 
898.000000	 92.125833 
897.000000	 92.307538 
896.000000	 92.484590 
895.000000	 92.662893 
894.000000	 92.838054 
893.000000	 93.004891 
892.000000	 93.169262 
891.000000	 93.339385 
890.000000	 93.510189 
889.000000	 93.668053 
888.000000	 93.807463 
887.000000	 93.931933 
886.000000	 94.042934 
885.000000	 94.140524 
884.000000	 94.231747 
883.000000	 94.324410 
882.000000	 94.414126 
881.000000	 94.492627 
880.000000	 94.568929 
879.000000	 94.665783 
878.000000	 94.791200 
877.000000	 94.928122 
876.000000	 95.057129 
875.000000	 95.176333 
874.000000	 95.294917 
873.000000	 95.420434 
872.000000	 95.558014 
871.000000	 95.710270 
870.000000	 95.871303 
869.000000	 96.029376 
868.000000	 96.180146 
867.000000	 96.329986 
866.000000	 96.483782 
865.000000	 96.637467 
864.000000	 96.785602 
863.000000	 96.928596 
862.000000	 97.068858 
861.000000	 97.206348 
860.000000	 97.341486 
859.000000	 97.476772 
858.000000	 97.611749 
857.000000	 97.740575 
856.000000	 97.857668 
855.000000	 97.962860 
854.000000	 98.059621 
853.000000	 98.150971 
852.000000	 98.237726 
851.000000	 98.318194 
850.000000	 98.389927 
849.000000	 98.454279 
848.000000	 98.517160 
847.000000	 98.581336 
846.000000	 98.640466 
845.000000	 98.686224 
844.000000	 98.719197 
843.000000	 98.746695 
842.000000	 98.771436 
841.000000	 98.789448 
840.000000	 98.798571 
839.000000	 98.801842 
838.000000	 98.801985 
837.000000	 98.798843 
836.000000	 98.792985 
835.000000	 98.786116 
834.000000	 98.777793 
833.000000	 98.767859 
832.000000	 98.761887 
831.000000	 98.766881 
830.000000	 98.781264 
829.000000	 98.797791 
828.000000	 98.817779 
827.000000	 98.852113 
826.000000	 98.903892 
825.000000	 98.960132 
824.000000	 99.006867 
823.000000	 99.042815 
822.000000	 99.071398 
821.000000	 99.089519 
820.000000	 99.093097 
819.000000	 99.086281 
818.000000	 99.076854 
817.000000	 99.065823 
816.000000	 99.046268 
815.000000	 99.008727 
814.000000	 98.942898 
813.000000	 98.836815 
812.000000	 98.680147 
811.000000	 98.468901 
810.000000	 98.204163 
809.000000	 97.886834 
808.000000	 97.516097 
807.000000	 97.092101 
806.000000	 96.618062 
805.000000	 96.103078 
804.000000	 95.567398 
803.000000	 95.042325 
802.000000	 94.559842 
801.000000	 94.142949 
800.000000	 93.806447 
799.000000	 93.559271 
798.000000	 93.401297 
797.000000	 93.323606 
796.000000	 93.314662 
795.000000	 93.360726 
794.000000	 93.441329 
793.000000	 93.534248 
792.000000	 93.626507 
791.000000	 93.712940 
790.000000	 93.784475 
789.000000	 93.826654 
788.000000	 93.829699 
787.000000	 93.791411 
786.000000	 93.710105 
785.000000	 93.584473 
784.000000	 93.422720 
783.000000	 93.243310 
782.000000	 93.063523 
781.000000	 92.893959 
780.000000	 92.745794 
779.000000	 92.634687 
778.000000	 92.574228 
777.000000	 92.572050 
776.000000	 92.632215 
775.000000	 92.751506 
774.000000	 92.912178 
773.000000	 93.088416 
772.000000	 93.262415 
771.000000	 93.427866 
770.000000	 93.580521 
769.000000	 93.715463 
768.000000	 93.832722 
767.000000	 93.935766 
766.000000	 94.024528 
765.000000	 94.098486 
764.000000	 94.165250 
763.000000	 94.236435 
762.000000	 94.315528 
761.000000	 94.398862 
760.000000	 94.486462 
759.000000	 94.580796 
758.000000	 94.676829 
757.000000	 94.766927 
756.000000	 94.855898 
755.000000	 94.957139 
754.000000	 95.071017 
753.000000	 95.180036 
752.000000	 95.270068 
751.000000	 95.345901 
750.000000	 95.421198 
749.000000	 95.502081 
748.000000	 95.585804 
747.000000	 95.668341 
746.000000	 95.747776 
745.000000	 95.824759 
744.000000	 95.903648 
743.000000	 95.990863 
742.000000	 96.091354 
741.000000	 96.208707 
740.000000	 96.344897 
739.000000	 96.493801 
738.000000	 96.638643 
737.000000	 96.764551 
736.000000	 96.871842 
735.000000	 96.969225 
734.000000	 97.057072 
733.000000	 97.127225 
732.000000	 97.177372 
731.000000	 97.215503 
730.000000	 97.249888 
729.000000	 97.283297 
728.000000	 97.316854 
727.000000	 97.351636 
726.000000	 97.386624 
725.000000	 97.421686 
724.000000	 97.462080 
723.000000	 97.513431 
722.000000	 97.573871 
721.000000	 97.638257 
720.000000	 97.707784 
719.000000	 97.786458 
718.000000	 97.869585 
717.000000	 97.945706 
716.000000	 98.009541 
715.000000	 98.064810 
714.000000	 98.115745 
713.000000	 98.164374 
712.000000	 98.214733 
711.000000	 98.270784 
710.000000	 98.330328 
709.000000	 98.388188 
708.000000	 98.442281 
707.000000	 98.487519 
706.000000	 98.508889 
705.000000	 98.492764 
704.000000	 98.442872 
703.000000	 98.371948 
702.000000	 98.276945 
701.000000	 98.136709 
700.000000	 97.937553 
699.000000	 97.688223 
698.000000	 97.410226 
697.000000	 97.129896 
696.000000	 96.884473 
695.000000	 96.717957 
694.000000	 96.655629 
693.000000	 96.689243 
692.000000	 96.791220 
691.000000	 96.934043 
690.000000	 97.095315 
689.000000	 97.257097 
688.000000	 97.410387 
687.000000	 97.554843 
686.000000	 97.687340 
685.000000	 97.799587 
684.000000	 97.891751 
683.000000	 97.976205 
682.000000	 98.062117 
681.000000	 98.145582 
680.000000	 98.220416 
679.000000	 98.288569 
678.000000	 98.352996 
677.000000	 98.411443 
676.000000	 98.461823 
675.000000	 98.508621 
674.000000	 98.558211 
673.000000	 98.609965 
672.000000	 98.654336 
671.000000	 98.681484 
670.000000	 98.693322 
669.000000	 98.716232 
668.000000	 98.795815 
667.000000	 98.924657 
666.000000	 99.035601 
665.000000	 99.107637 
664.000000	 99.160706 
663.000000	 99.213297 
662.000000	 99.267504 
661.000000	 99.318131 
660.000000	 99.366763 
659.000000	 99.415610 
658.000000	 99.455345 
657.000000	 99.474901 
656.000000	 99.474345 
655.000000	 99.458999 
654.000000	 99.427418 
653.000000	 99.374165 
652.000000	 99.304990 
651.000000	 99.246675 
650.000000	 99.235446 

