4000.000000	98.876327 
3999.000000	98.875945 
3998.000000	98.875783 
3997.000000	98.875930 
3996.000000	98.876332 
3995.000000	98.876795 
3994.000000	98.877043 
3993.000000	98.876894 
3992.000000	98.876397 
3991.000000	98.875824 
3990.000000	98.875529 
3989.000000	98.875763 
3988.000000	98.876502 
3987.000000	98.877351 
3986.000000	98.877745 
3985.000000	98.877336 
3984.000000	98.876236 
3983.000000	98.874968 
3982.000000	98.874075 
3981.000000	98.873740 
3980.000000	98.873764 
3979.000000	98.873810 
3978.000000	98.873631 
3977.000000	98.873115 
3976.000000	98.872271 
3975.000000	98.871276 
3974.000000	98.870457 
3973.000000	98.870107 
3972.000000	98.870293 
3971.000000	98.870852 
3970.000000	98.871586 
3969.000000	98.872452 
3968.000000	98.873465 
3967.000000	98.874479 
3966.000000	98.875155 
3965.000000	98.875136 
3964.000000	98.874302 
3963.000000	98.872946 
3962.000000	98.871676 
3961.000000	98.871033 
3960.000000	98.871178 
3959.000000	98.871760 
3958.000000	98.872133 
3957.000000	98.871948 
3956.000000	98.871463 
3955.000000	98.871280 
3954.000000	98.871745 
3953.000000	98.872576 
3952.000000	98.873103 
3951.000000	98.872917 
3950.000000	98.872412 
3949.000000	98.872493 
3948.000000	98.873471 
3947.000000	98.874576 
3946.000000	98.874705 
3945.000000	98.873317 
3944.000000	98.870652 
3943.000000	98.867618 
3942.000000	98.865249 
3941.000000	98.863953 
3940.000000	98.863503 
3939.000000	98.863609 
3938.000000	98.864228 
3937.000000	98.865510 
3936.000000	98.867507 
3935.000000	98.869951 
3934.000000	98.872304 
3933.000000	98.873925 
3932.000000	98.874310 
3931.000000	98.873285 
3930.000000	98.871145 
3929.000000	98.868451 
3928.000000	98.865612 
3927.000000	98.862994 
3926.000000	98.861072 
3925.000000	98.860368 
3924.000000	98.861409 
3923.000000	98.864063 
3922.000000	98.867286 
3921.000000	98.869815 
3920.000000	98.871126 
3919.000000	98.871627 
3918.000000	98.871771 
3917.000000	98.871404 
3916.000000	98.870247 
3915.000000	98.868531 
3914.000000	98.866799 
3913.000000	98.865372 
3912.000000	98.864476 
3911.000000	98.864383 
3910.000000	98.865166 
3909.000000	98.866643 
3908.000000	98.868674 
3907.000000	98.871152 
3906.000000	98.873988 
3905.000000	98.876851 
3904.000000	98.879331 
3903.000000	98.880854 
3902.000000	98.880557 
3901.000000	98.878188 
3900.000000	98.874557 
3899.000000	98.871232 
3898.000000	98.869535 
3897.000000	98.869471 
3896.000000	98.870055 
3895.000000	98.870287 
3894.000000	98.869637 
3893.000000	98.868186 
3892.000000	98.866532 
3891.000000	98.865333 
3890.000000	98.864937 
3889.000000	98.865350 
3888.000000	98.866305 
3887.000000	98.866990 
3886.000000	98.866796 
3885.000000	98.866208 
3884.000000	98.866154 
3883.000000	98.866518 
3882.000000	98.866363 
3881.000000	98.865477 
3880.000000	98.864720 
3879.000000	98.864728 
3878.000000	98.865182 
3877.000000	98.865335 
3876.000000	98.864465 
3875.000000	98.862381 
3874.000000	98.859973 
3873.000000	98.858691 
3872.000000	98.859001 
3871.000000	98.859787 
3870.000000	98.859743 
3869.000000	98.859056 
3868.000000	98.858756 
3867.000000	98.859004 
3866.000000	98.858667 
3865.000000	98.856748 
3864.000000	98.854433 
3863.000000	98.853444 
3862.000000	98.853752 
3861.000000	98.854547 
3860.000000	98.855365 
3859.000000	98.855379 
3858.000000	98.853802 
3857.000000	98.850988 
3856.000000	98.848852 
3855.000000	98.847440 
3854.000000	98.844522 
3853.000000	98.841348 
3852.000000	98.840974 
3851.000000	98.843006 
3850.000000	98.845621 
3849.000000	98.847612 
3848.000000	98.849217 
3847.000000	98.851289 
3846.000000	98.853707 
3845.000000	98.855792 
3844.000000	98.857428 
3843.000000	98.858368 
3842.000000	98.858380 
3841.000000	98.858125 
3840.000000	98.858348 
3839.000000	98.859076 
3838.000000	98.859916 
3837.000000	98.860216 
3836.000000	98.859752 
3835.000000	98.858525 
3834.000000	98.856885 
3833.000000	98.855452 
3832.000000	98.854642 
3831.000000	98.854603 
3830.000000	98.855090 
3829.000000	98.855402 
3828.000000	98.855146 
3827.000000	98.854649 
3826.000000	98.854716 
3825.000000	98.856279 
3824.000000	98.859450 
3823.000000	98.862161 
3822.000000	98.861828 
3821.000000	98.858943 
3820.000000	98.856706 
3819.000000	98.856387 
3818.000000	98.856709 
3817.000000	98.855828 
3816.000000	98.852938 
3815.000000	98.849177 
3814.000000	98.846311 
3813.000000	98.844715 
3812.000000	98.843702 
3811.000000	98.843310 
3810.000000	98.844353 
3809.000000	98.846874 
3808.000000	98.849419 
3807.000000	98.850474 
3806.000000	98.850402 
3805.000000	98.850463 
3804.000000	98.850597 
3803.000000	98.849334 
3802.000000	98.845863 
3801.000000	98.842007 
3800.000000	98.840328 
3799.000000	98.840621 
3798.000000	98.840742 
3797.000000	98.839382 
3796.000000	98.837010 
3795.000000	98.834609 
3794.000000	98.832344 
3793.000000	98.829728 
3792.000000	98.826705 
3791.000000	98.824310 
3790.000000	98.823563 
3789.000000	98.824251 
3788.000000	98.825179 
3787.000000	98.825478 
3786.000000	98.825319 
3785.000000	98.825604 
3784.000000	98.827033 
3783.000000	98.829736 
3782.000000	98.832874 
3781.000000	98.834552 
3780.000000	98.833421 
3779.000000	98.830298 
3778.000000	98.827169 
3777.000000	98.825403 
3776.000000	98.825458 
3775.000000	98.826554 
3774.000000	98.827785 
3773.000000	98.829334 
3772.000000	98.831960 
3771.000000	98.835222 
3770.000000	98.838322 
3769.000000	98.841604 
3768.000000	98.844630 
3767.000000	98.845829 
3766.000000	98.844611 
3765.000000	98.842110 
3764.000000	98.840807 
3763.000000	98.842628 
3762.000000	98.846521 
3761.000000	98.848970 
3760.000000	98.848383 
3759.000000	98.847861 
3758.000000	98.849978 
3757.000000	98.853077 
3756.000000	98.856033 
3755.000000	98.859891 
3754.000000	98.865541 
3753.000000	98.871583 
3752.000000	98.876118 
3751.000000	98.880456 
3750.000000	98.884590 
3749.000000	98.884837 
3748.000000	98.880944 
3747.000000	98.877558 
3746.000000	98.876488 
3745.000000	98.871750 
3744.000000	98.860162 
3743.000000	98.849445 
3742.000000	98.846670 
3741.000000	98.849498 
3740.000000	98.852458 
3739.000000	98.855694 
3738.000000	98.861363 
3737.000000	98.866545 
3736.000000	98.868490 
3735.000000	98.868823 
3734.000000	98.868014 
3733.000000	98.861214 
3732.000000	98.846355 
3731.000000	98.829669 
3730.000000	98.817984 
3729.000000	98.812336 
3728.000000	98.808594 
3727.000000	98.802467 
3726.000000	98.794183 
3725.000000	98.786916 
3724.000000	98.781462 
3723.000000	98.775419 
3722.000000	98.767790 
3721.000000	98.759537 
3720.000000	98.750796 
3719.000000	98.742222 
3718.000000	98.734831 
3717.000000	98.728862 
3716.000000	98.725146 
3715.000000	98.724011 
3714.000000	98.722748 
3713.000000	98.715198 
3712.000000	98.697510 
3711.000000	98.672509 
3710.000000	98.644520 
3709.000000	98.615332 
3708.000000	98.585409 
3707.000000	98.555314 
3706.000000	98.526177 
3705.000000	98.498333 
3704.000000	98.469915 
3703.000000	98.437624 
3702.000000	98.400409 
3701.000000	98.360467 
3700.000000	98.320169 
3699.000000	98.281406 
3698.000000	98.246611 
3697.000000	98.218156 
3696.000000	98.198339 
3695.000000	98.188382 
3694.000000	98.185294 
3693.000000	98.182479 
3692.000000	98.174908 
3691.000000	98.163101 
3690.000000	98.151668 
3689.000000	98.143503 
3688.000000	98.136017 
3687.000000	98.125619 
3686.000000	98.113830 
3685.000000	98.104329 
3684.000000	98.099236 
3683.000000	98.097924 
3682.000000	98.096127 
3681.000000	98.086934 
3680.000000	98.065583 
3679.000000	98.034525 
3678.000000	98.002420 
3677.000000	97.974736 
3676.000000	97.949861 
3675.000000	97.928022 
3674.000000	97.909037 
3673.000000	97.889390 
3672.000000	97.866883 
3671.000000	97.839300 
3670.000000	97.806825 
3669.000000	97.773391 
3668.000000	97.740303 
3667.000000	97.706373 
3666.000000	97.673241 
3665.000000	97.643658 
3664.000000	97.617166 
3663.000000	97.590362 
3662.000000	97.559953 
3661.000000	97.525969 
3660.000000	97.492389 
3659.000000	97.463725 
3658.000000	97.441474 
3657.000000	97.423320 
3656.000000	97.405769 
3655.000000	97.387083 
3654.000000	97.366969 
3653.000000	97.345818 
3652.000000	97.324491 
3651.000000	97.303881 
3650.000000	97.285823 
3649.000000	97.270804 
3648.000000	97.254008 
3647.000000	97.229968 
3646.000000	97.199239 
3645.000000	97.166139 
3644.000000	97.134095 
3643.000000	97.104873 
3642.000000	97.078031 
3641.000000	97.052556 
3640.000000	97.028333 
3639.000000	97.005797 
3638.000000	96.984987 
3637.000000	96.964755 
3636.000000	96.943355 
3635.000000	96.918932 
3634.000000	96.890632 
3633.000000	96.860684 
3632.000000	96.834565 
3631.000000	96.818262 
3630.000000	96.812455 
3629.000000	96.811526 
3628.000000	96.806677 
3627.000000	96.790732 
3626.000000	96.763964 
3625.000000	96.732034 
3624.000000	96.699838 
3623.000000	96.669810 
3622.000000	96.645047 
3621.000000	96.630719 
3620.000000	96.632678 
3619.000000	96.652618 
3618.000000	96.683239 
3617.000000	96.713531 
3616.000000	96.740507 
3615.000000	96.768240 
3614.000000	96.799798 
3613.000000	96.833399 
3612.000000	96.864392 
3611.000000	96.890040 
3610.000000	96.911718 
3609.000000	96.931751 
3608.000000	96.950218 
3607.000000	96.964777 
3606.000000	96.972410 
3605.000000	96.973061 
3604.000000	96.970455 
3603.000000	96.969245 
3602.000000	96.973211 
3601.000000	96.983898 
3600.000000	97.000943 
3599.000000	97.022466 
3598.000000	97.044425 
3597.000000	97.062232 
3596.000000	97.074864 
3595.000000	97.085277 
3594.000000	97.097329 
3593.000000	97.112079 
3592.000000	97.126822 
3591.000000	97.139071 
3590.000000	97.148645 
3589.000000	97.156450 
3588.000000	97.163404 
3587.000000	97.170115 
3586.000000	97.174860 
3585.000000	97.176106 
3584.000000	97.175604 
3583.000000	97.176235 
3582.000000	97.178354 
3581.000000	97.180056 
3580.000000	97.180085 
3579.000000	97.179683 
3578.000000	97.181371 
3577.000000	97.186456 
3576.000000	97.193923 
3575.000000	97.201131 
3574.000000	97.205076 
3573.000000	97.204744 
3572.000000	97.201994 
3571.000000	97.200532 
3570.000000	97.203386 
3569.000000	97.209751 
3568.000000	97.215221 
3567.000000	97.216899 
3566.000000	97.215355 
3565.000000	97.212290 
3564.000000	97.209486 
3563.000000	97.207757 
3562.000000	97.206023 
3561.000000	97.202943 
3560.000000	97.198699 
3559.000000	97.195038 
3558.000000	97.193006 
3557.000000	97.191669 
3556.000000	97.189574 
3555.000000	97.187275 
3554.000000	97.187144 
3553.000000	97.190759 
3552.000000	97.196696 
3551.000000	97.201578 
3550.000000	97.203537 
3549.000000	97.203736 
3548.000000	97.204259 
3547.000000	97.205944 
3546.000000	97.207980 
3545.000000	97.209248 
3544.000000	97.209634 
3543.000000	97.210033 
3542.000000	97.211190 
3541.000000	97.212816 
3540.000000	97.213745 
3539.000000	97.213343 
3538.000000	97.212498 
3537.000000	97.212895 
3536.000000	97.215247 
3535.000000	97.218397 
3534.000000	97.220670 
3533.000000	97.221504 
3532.000000	97.221461 
3531.000000	97.221153 
3530.000000	97.220796 
3529.000000	97.220653 
3528.000000	97.221214 
3527.000000	97.222645 
3526.000000	97.224344 
3525.000000	97.225412 
3524.000000	97.225497 
3523.000000	97.225073 
3522.000000	97.224888 
3521.000000	97.225365 
3520.000000	97.226460 
3519.000000	97.227828 
3518.000000	97.229008 
3517.000000	97.229633 
3516.000000	97.229746 
3515.000000	97.229790 
3514.000000	97.230355 
3513.000000	97.231793 
3512.000000	97.233996 
3511.000000	97.236526 
3510.000000	97.239010 
3509.000000	97.241068 
3508.000000	97.241964 
3507.000000	97.241006 
3506.000000	97.238560 
3505.000000	97.236444 
3504.000000	97.236681 
3503.000000	97.239494 
3502.000000	97.242772 
3501.000000	97.244025 
3500.000000	97.242658 
3499.000000	97.240054 
3498.000000	97.238127 
3497.000000	97.237974 
3496.000000	97.239527 
3495.000000	97.241737 
3494.000000	97.243038 
3493.000000	97.242222 
3492.000000	97.239135 
3491.000000	97.234664 
3490.000000	97.230269 
3489.000000	97.227271 
3488.000000	97.226182 
3487.000000	97.226376 
3486.000000	97.226375 
3485.000000	97.224816 
3484.000000	97.221496 
3483.000000	97.217529 
3482.000000	97.214432 
3481.000000	97.212784 
3480.000000	97.211744 
3479.000000	97.210071 
3478.000000	97.207494 
3477.000000	97.204803 
3476.000000	97.202669 
3475.000000	97.200774 
3474.000000	97.198370 
3473.000000	97.195369 
3472.000000	97.192372 
3471.000000	97.189663 
3470.000000	97.186846 
3469.000000	97.183613 
3468.000000	97.180116 
3467.000000	97.176369 
3466.000000	97.171857 
3465.000000	97.166325 
3464.000000	97.160648 
3463.000000	97.156204 
3462.000000	97.153366 
3461.000000	97.151051 
3460.000000	97.147923 
3459.000000	97.143749 
3458.000000	97.139309 
3457.000000	97.135377 
3456.000000	97.131988 
3455.000000	97.128609 
3454.000000	97.124900 
3453.000000	97.120985 
3452.000000	97.117153 
3451.000000	97.113419 
3450.000000	97.109575 
3449.000000	97.105636 
3448.000000	97.101941 
3447.000000	97.098594 
3446.000000	97.094989 
3445.000000	97.090397 
3444.000000	97.085067 
3443.000000	97.080340 
3442.000000	97.077415 
3441.000000	97.076243 
3440.000000	97.075575 
3439.000000	97.073892 
3438.000000	97.070395 
3437.000000	97.065352 
3436.000000	97.059874 
3435.000000	97.055166 
3434.000000	97.051832 
3433.000000	97.049647 
3432.000000	97.048011 
3431.000000	97.046395 
3430.000000	97.044237 
3429.000000	97.040822 
3428.000000	97.035763 
3427.000000	97.029757 
3426.000000	97.024383 
3425.000000	97.020790 
3424.000000	97.018715 
3423.000000	97.016938 
3422.000000	97.014628 
3421.000000	97.011885 
3420.000000	97.008980 
3419.000000	97.005700 
3418.000000	97.001885 
3417.000000	96.998074 
3416.000000	96.995011 
3415.000000	96.992813 
3414.000000	96.991112 
3413.000000	96.989811 
3412.000000	96.989077 
3411.000000	96.988689 
3410.000000	96.988126 
3409.000000	96.987324 
3408.000000	96.986604 
3407.000000	96.985790 
3406.000000	96.984233 
3405.000000	96.982121 
3404.000000	96.980878 
3403.000000	96.981462 
3402.000000	96.982808 
3401.000000	96.982749 
3400.000000	96.980496 
3399.000000	96.977411 
3398.000000	96.975353 
3397.000000	96.974921 
3396.000000	96.975547 
3395.000000	96.976719 
3394.000000	96.978556 
3393.000000	96.981178 
3392.000000	96.983883 
3391.000000	96.985390 
3390.000000	96.984965 
3389.000000	96.983059 
3388.000000	96.980790 
3387.000000	96.979101 
3386.000000	96.978564 
3385.000000	96.979604 
3384.000000	96.982360 
3383.000000	96.986202 
3382.000000	96.989870 
3381.000000	96.992321 
3380.000000	96.993368 
3379.000000	96.993505 
3378.000000	96.993390 
3377.000000	96.993453 
3376.000000	96.993624 
3375.000000	96.993493 
3374.000000	96.993045 
3373.000000	96.993192 
3372.000000	96.995006 
3371.000000	96.998403 
3370.000000	97.002010 
3369.000000	97.004621 
3368.000000	97.006324 
3367.000000	97.007805 
3366.000000	97.009147 
3365.000000	97.009991 
3364.000000	97.010602 
3363.000000	97.011906 
3362.000000	97.014292 
3361.000000	97.017038 
3360.000000	97.019237 
3359.000000	97.020917 
3358.000000	97.022867 
3357.000000	97.025550 
3356.000000	97.028574 
3355.000000	97.031191 
3354.000000	97.033054 
3353.000000	97.034431 
3352.000000	97.035881 
3351.000000	97.037809 
3350.000000	97.040243 
3349.000000	97.042931 
3348.000000	97.045580 
3347.000000	97.048061 
3346.000000	97.050416 
3345.000000	97.052703 
3344.000000	97.054893 
3343.000000	97.056910 
3342.000000	97.058760 
3341.000000	97.060553 
3340.000000	97.062356 
3339.000000	97.064027 
3338.000000	97.065342 
3337.000000	97.066376 
3336.000000	97.067641 
3335.000000	97.069695 
3334.000000	97.072567 
3333.000000	97.075643 
3332.000000	97.078152 
3331.000000	97.079749 
3330.000000	97.080658 
3329.000000	97.081458 
3328.000000	97.082781 
3327.000000	97.085043 
3326.000000	97.088207 
3325.000000	97.091661 
3324.000000	97.094555 
3323.000000	97.096470 
3322.000000	97.097785 
3321.000000	97.099385 
3320.000000	97.101945 
3319.000000	97.105489 
3318.000000	97.109494 
3317.000000	97.113271 
3316.000000	97.116376 
3315.000000	97.118838 
3314.000000	97.121088 
3313.000000	97.123597 
3312.000000	97.126434 
3311.000000	97.129229 
3310.000000	97.131643 
3309.000000	97.133759 
3308.000000	97.135939 
3307.000000	97.138334 
3306.000000	97.140659 
3305.000000	97.142482 
3304.000000	97.143701 
3303.000000	97.144710 
3302.000000	97.146133 
3301.000000	97.148290 
3300.000000	97.150923 
3299.000000	97.153428 
3298.000000	97.155445 
3297.000000	97.157194 
3296.000000	97.159213 
3295.000000	97.161811 
3294.000000	97.164847 
3293.000000	97.167917 
3292.000000	97.170653 
3291.000000	97.172918 
3290.000000	97.174861 
3289.000000	97.176827 
3288.000000	97.179098 
3287.000000	97.181642 
3286.000000	97.184159 
3285.000000	97.186393 
3284.000000	97.188343 
3283.000000	97.190208 
3282.000000	97.192192 
3281.000000	97.194362 
3280.000000	97.196649 
3279.000000	97.198965 
3278.000000	97.201312 
3277.000000	97.203742 
3276.000000	97.206190 
3275.000000	97.208440 
3274.000000	97.210328 
3273.000000	97.211953 
3272.000000	97.213617 
3271.000000	97.215533 
3270.000000	97.217696 
3269.000000	97.220009 
3268.000000	97.222433 
3267.000000	97.224981 
3266.000000	97.227624 
3265.000000	97.230268 
3264.000000	97.232785 
3263.000000	97.235039 
3262.000000	97.236963 
3261.000000	97.238669 
3260.000000	97.240411 
3259.000000	97.242397 
3258.000000	97.244686 
3257.000000	97.247300 
3256.000000	97.250285 
3255.000000	97.253535 
3254.000000	97.256702 
3253.000000	97.259439 
3252.000000	97.261712 
3251.000000	97.263780 
3250.000000	97.265948 
3249.000000	97.268402 
3248.000000	97.271185 
3247.000000	97.274202 
3246.000000	97.277231 
3245.000000	97.280045 
3244.000000	97.282573 
3243.000000	97.284914 
3242.000000	97.287225 
3241.000000	97.289664 
3240.000000	97.292379 
3239.000000	97.295420 
3238.000000	97.298659 
3237.000000	97.301931 
3236.000000	97.305218 
3235.000000	97.308616 
3234.000000	97.312124 
3233.000000	97.315516 
3232.000000	97.318492 
3231.000000	97.320973 
3230.000000	97.323247 
3229.000000	97.325762 
3228.000000	97.328720 
3227.000000	97.331934 
3226.000000	97.335136 
3225.000000	97.338387 
3224.000000	97.342032 
3223.000000	97.346209 
3222.000000	97.350498 
3221.000000	97.354226 
3220.000000	97.357136 
3219.000000	97.359624 
3218.000000	97.362340 
3217.000000	97.365573 
3216.000000	97.369151 
3215.000000	97.372782 
3214.000000	97.376332 
3213.000000	97.379793 
3212.000000	97.383177 
3211.000000	97.386572 
3210.000000	97.390146 
3209.000000	97.393936 
3208.000000	97.397636 
3207.000000	97.400836 
3206.000000	97.403509 
3205.000000	97.406159 
3204.000000	97.409317 
3203.000000	97.413037 
3202.000000	97.417030 
3201.000000	97.421192 
3200.000000	97.425670 
3199.000000	97.430366 
3198.000000	97.434683 
3197.000000	97.437998 
3196.000000	97.440284 
3195.000000	97.442192 
3194.000000	97.444575 
3193.000000	97.447966 
3192.000000	97.452424 
3191.000000	97.457611 
3190.000000	97.463024 
3189.000000	97.468348 
3188.000000	97.473552 
3187.000000	97.478586 
3186.000000	97.483121 
3185.000000	97.486901 
3184.000000	97.490310 
3183.000000	97.494266 
3182.000000	97.499271 
3181.000000	97.504759 
3180.000000	97.509642 
3179.000000	97.513477 
3178.000000	97.516851 
3177.000000	97.520699 
3176.000000	97.525351 
3175.000000	97.530328 
3174.000000	97.534836 
3173.000000	97.538395 
3172.000000	97.541183 
3171.000000	97.543941 
3170.000000	97.547407 
3169.000000	97.551705 
3168.000000	97.556347 
3167.000000	97.560854 
3166.000000	97.565260 
3165.000000	97.569924 
3164.000000	97.574964 
3163.000000	97.580070 
3162.000000	97.584828 
3161.000000	97.589118 
3160.000000	97.593232 
3159.000000	97.597674 
3158.000000	97.602755 
3157.000000	97.608253 
3156.000000	97.613463 
3155.000000	97.617767 
3154.000000	97.621198 
3153.000000	97.624399 
3152.000000	97.627962 
3151.000000	97.631849 
3150.000000	97.635527 
3149.000000	97.638572 
3148.000000	97.641133 
3147.000000	97.643882 
3146.000000	97.647531 
3145.000000	97.652399 
3144.000000	97.658368 
3143.000000	97.665064 
3142.000000	97.671982 
3141.000000	97.678499 
3140.000000	97.684066 
3139.000000	97.688566 
3138.000000	97.692461 
3137.000000	97.696405 
3136.000000	97.700728 
3135.000000	97.705392 
3134.000000	97.710278 
3133.000000	97.715234 
3132.000000	97.719877 
3131.000000	97.723723 
3130.000000	97.726708 
3129.000000	97.729456 
3128.000000	97.732819 
3127.000000	97.737173 
3126.000000	97.742306 
3125.000000	97.747779 
3124.000000	97.753215 
3123.000000	97.758316 
3122.000000	97.762831 
3121.000000	97.766681 
3120.000000	97.770081 
3119.000000	97.773453 
3118.000000	97.777182 
3117.000000	97.781433 
3116.000000	97.786122 
3115.000000	97.791001 
3114.000000	97.795807 
3113.000000	97.800419 
3112.000000	97.804891 
3111.000000	97.809351 
3110.000000	97.813848 
3109.000000	97.818262 
3108.000000	97.822351 
3107.000000	97.825942 
3106.000000	97.829166 
3105.000000	97.832458 
3104.000000	97.836189 
3103.000000	97.840305 
3102.000000	97.844407 
3101.000000	97.848294 
3100.000000	97.852286 
3099.000000	97.856766 
3098.000000	97.861441 
3097.000000	97.865468 
3096.000000	97.868534 
3095.000000	97.871608 
3094.000000	97.876216 
3093.000000	97.882897 
3092.000000	97.890423 
3091.000000	97.896583 
3090.000000	97.899885 
3089.000000	97.900723 
3088.000000	97.901264 
3087.000000	97.903847 
3086.000000	97.909136 
3085.000000	97.915723 
3084.000000	97.921482 
3083.000000	97.925359 
3082.000000	97.927874 
3081.000000	97.930265 
3080.000000	97.933447 
3079.000000	97.937625 
3078.000000	97.942294 
3077.000000	97.946330 
3076.000000	97.948565 
3075.000000	97.948843 
3074.000000	97.948502 
3073.000000	97.949169 
3072.000000	97.951085 
3071.000000	97.953212 
3070.000000	97.955043 
3069.000000	97.957397 
3068.000000	97.960776 
3067.000000	97.963923 
3066.000000	97.965396 
3065.000000	97.966185 
3064.000000	97.969027 
3063.000000	97.974667 
3062.000000	97.980344 
3061.000000	97.983093 
3060.000000	97.983482 
3059.000000	97.984708 
3058.000000	97.988345 
3057.000000	97.992364 
3056.000000	97.993768 
3055.000000	97.992060 
3054.000000	97.989468 
3053.000000	97.988260 
3052.000000	97.988595 
3051.000000	97.988965 
3050.000000	97.988089 
3049.000000	97.986096 
3048.000000	97.984124 
3047.000000	97.983193 
3046.000000	97.983524 
3045.000000	97.984617 
3044.000000	97.985679 
3043.000000	97.986028 
3042.000000	97.985009 
3041.000000	97.981682 
3040.000000	97.974952 
3039.000000	97.964737 
3038.000000	97.952950 
3037.000000	97.942400 
3036.000000	97.934058 
3035.000000	97.926031 
3034.000000	97.915994 
3033.000000	97.903804 
3032.000000	97.890798 
3031.000000	97.877234 
3030.000000	97.861625 
3029.000000	97.843008 
3028.000000	97.822924 
3027.000000	97.804215 
3026.000000	97.788143 
3025.000000	97.773452 
3024.000000	97.757965 
3023.000000	97.740371 
3022.000000	97.720633 
3021.000000	97.699578 
3020.000000	97.678309 
3019.000000	97.657417 
3018.000000	97.636324 
3017.000000	97.613679 
3016.000000	97.588641 
3015.000000	97.561676 
3014.000000	97.533919 
3013.000000	97.505868 
3012.000000	97.476945 
3011.000000	97.446439 
3010.000000	97.414746 
3009.000000	97.383251 
3008.000000	97.352745 
3007.000000	97.322363 
3006.000000	97.290851 
3005.000000	97.258905 
3004.000000	97.229146 
3003.000000	97.202958 
3002.000000	97.178154 
3001.000000	97.151008 
3000.000000	97.120556 
2999.000000	97.089812 
2998.000000	97.062774 
2997.000000	97.041465 
2996.000000	97.025594 
2995.000000	97.012411 
2994.000000	96.995175 
2993.000000	96.964306 
2992.000000	96.914706 
2991.000000	96.853550 
2990.000000	96.798343 
2989.000000	96.764591 
2988.000000	96.755604 
2987.000000	96.763810 
2986.000000	96.779140 
2985.000000	96.794861 
2984.000000	96.807563 
2983.000000	96.815981 
2982.000000	96.821014 
2981.000000	96.824587 
2980.000000	96.827077 
2979.000000	96.826965 
2978.000000	96.823540 
2977.000000	96.818293 
2976.000000	96.812750 
2975.000000	96.806570 
2974.000000	96.799473 
2973.000000	96.794081 
2972.000000	96.794977 
2971.000000	96.804891 
2970.000000	96.822746 
2969.000000	96.845134 
2968.000000	96.868814 
2967.000000	96.892198 
2966.000000	96.915669 
2965.000000	96.940712 
2964.000000	96.967943 
2963.000000	96.995680 
2962.000000	97.020863 
2961.000000	97.041510 
2960.000000	97.058065 
2959.000000	97.072769 
2958.000000	97.088282 
2957.000000	97.106525 
2956.000000	97.127725 
2955.000000	97.150248 
2954.000000	97.171826 
2953.000000	97.191250 
2952.000000	97.208687 
2951.000000	97.224685 
2950.000000	97.239470 
2949.000000	97.253193 
2948.000000	97.266005 
2947.000000	97.277475 
2946.000000	97.286564 
2945.000000	97.292600 
2944.000000	97.295786 
2943.000000	97.296963 
2942.000000	97.297414 
2941.000000	97.298458 
2940.000000	97.300697 
2939.000000	97.303451 
2938.000000	97.305174 
2937.000000	97.304937 
2936.000000	97.303688 
2935.000000	97.303879 
2934.000000	97.307413 
2933.000000	97.313524 
2932.000000	97.318488 
2931.000000	97.317945 
2930.000000	97.310174 
2929.000000	97.297473 
2928.000000	97.284380 
2927.000000	97.274450 
2926.000000	97.268558 
2925.000000	97.265471 
2924.000000	97.263350 
2923.000000	97.260885 
2922.000000	97.257724 
2921.000000	97.254191 
2920.000000	97.250616 
2919.000000	97.247094 
2918.000000	97.243964 
2917.000000	97.241978 
2916.000000	97.241324 
2915.000000	97.240642 
2914.000000	97.237894 
2913.000000	97.232691 
2912.000000	97.227518 
2911.000000	97.226032 
2910.000000	97.229907 
2909.000000	97.237319 
2908.000000	97.244529 
2907.000000	97.248473 
2906.000000	97.247439 
2905.000000	97.239883 
2904.000000	97.224814 
2903.000000	97.205336 
2902.000000	97.191009 
2901.000000	97.192890 
2900.000000	97.215396 
2899.000000	97.251690 
2898.000000	97.288181 
2897.000000	97.314172 
2896.000000	97.327578 
2895.000000	97.333097 
2894.000000	97.337315 
2893.000000	97.344738 
2892.000000	97.356133 
2891.000000	97.369066 
2890.000000	97.380365 
2889.000000	97.388573 
2888.000000	97.394271 
2887.000000	97.398830 
2886.000000	97.403898 
2885.000000	97.411770 
2884.000000	97.424695 
2883.000000	97.442996 
2882.000000	97.464516 
2881.000000	97.486548 
2880.000000	97.508007 
2879.000000	97.529537 
2878.000000	97.551883 
2877.000000	97.574524 
2876.000000	97.595684 
2875.000000	97.613631 
2874.000000	97.628316 
2873.000000	97.641638 
2872.000000	97.655584 
2871.000000	97.670096 
2870.000000	97.683522 
2869.000000	97.695263 
2868.000000	97.707182 
2867.000000	97.721948 
2866.000000	97.740571 
2865.000000	97.762038 
2864.000000	97.784786 
2863.000000	97.807948 
2862.000000	97.831382 
2861.000000	97.855086 
2860.000000	97.878762 
2859.000000	97.901762 
2858.000000	97.923302 
2857.000000	97.942636 
2856.000000	97.958867 
2855.000000	97.971070 
2854.000000	97.979787 
2853.000000	97.988016 
2852.000000	97.999180 
2851.000000	98.014025 
2850.000000	98.030439 
2849.000000	98.046105 
2848.000000	98.060516 
2847.000000	98.074685 
2846.000000	98.090134 
2845.000000	98.108202 
2844.000000	98.128948 
2843.000000	98.150278 
2842.000000	98.169162 
2841.000000	98.184124 
2840.000000	98.195764 
2839.000000	98.205012 
2838.000000	98.212413 
2837.000000	98.219319 
2836.000000	98.227672 
2835.000000	98.237469 
2834.000000	98.246238 
2833.000000	98.252387 
2832.000000	98.257598 
2831.000000	98.264290 
2830.000000	98.272038 
2829.000000	98.278665 
2828.000000	98.283918 
2827.000000	98.289593 
2826.000000	98.296160 
2825.000000	98.301728 
2824.000000	98.305068 
2823.000000	98.307852 
2822.000000	98.312785 
2821.000000	98.320535 
2820.000000	98.329288 
2819.000000	98.336536 
2818.000000	98.340646 
2817.000000	98.341501 
2816.000000	98.340543 
2815.000000	98.339961 
2814.000000	98.341247 
2813.000000	98.344561 
2812.000000	98.349396 
2811.000000	98.355157 
2810.000000	98.360829 
2809.000000	98.364939 
2808.000000	98.366762 
2807.000000	98.367353 
2806.000000	98.368686 
2805.000000	98.371692 
2804.000000	98.375532 
2803.000000	98.378836 
2802.000000	98.381212 
2801.000000	98.383335 
2800.000000	98.385954 
2799.000000	98.389224 
2798.000000	98.392960 
2797.000000	98.397032 
2796.000000	98.401272 
2795.000000	98.405332 
2794.000000	98.408981 
2793.000000	98.412344 
2792.000000	98.415473 
2791.000000	98.417854 
2790.000000	98.418904 
2789.000000	98.418949 
2788.000000	98.419111 
2787.000000	98.420058 
2786.000000	98.421383 
2785.000000	98.422559 
2784.000000	98.423956 
2783.000000	98.426350 
2782.000000	98.429693 
2781.000000	98.432941 
2780.000000	98.435199 
2779.000000	98.436686 
2778.000000	98.438442 
2777.000000	98.441170 
2776.000000	98.444550 
2775.000000	98.447620 
2774.000000	98.449784 
2773.000000	98.451378 
2772.000000	98.453238 
2771.000000	98.455709 
2770.000000	98.458252 
2769.000000	98.460153 
2768.000000	98.461384 
2767.000000	98.462507 
2766.000000	98.463877 
2765.000000	98.465238 
2764.000000	98.466208 
2763.000000	98.466931 
2762.000000	98.468043 
2761.000000	98.469959 
2760.000000	98.472415 
2759.000000	98.474723 
2758.000000	98.476503 
2757.000000	98.478059 
2756.000000	98.479965 
2755.000000	98.482399 
2754.000000	98.485001 
2753.000000	98.487313 
2752.000000	98.489252 
2751.000000	98.491042 
2750.000000	98.492804 
2749.000000	98.494388 
2748.000000	98.495655 
2747.000000	98.496758 
2746.000000	98.498043 
2745.000000	98.499694 
2744.000000	98.501590 
2743.000000	98.503505 
2742.000000	98.505336 
2741.000000	98.507064 
2740.000000	98.508613 
2739.000000	98.509931 
2738.000000	98.511178 
2737.000000	98.512665 
2736.000000	98.514499 
2735.000000	98.516434 
2734.000000	98.518127 
2733.000000	98.519499 
2732.000000	98.520727 
2731.000000	98.521983 
2730.000000	98.523311 
2729.000000	98.524734 
2728.000000	98.526313 
2727.000000	98.528036 
2726.000000	98.529770 
2725.000000	98.531394 
2724.000000	98.532906 
2723.000000	98.534353 
2722.000000	98.535754 
2721.000000	98.537118 
2720.000000	98.538470 
2719.000000	98.539807 
2718.000000	98.541105 
2717.000000	98.542380 
2716.000000	98.543654 
2715.000000	98.544851 
2714.000000	98.545833 
2713.000000	98.546547 
2712.000000	98.547107 
2711.000000	98.547715 
2710.000000	98.548520 
2709.000000	98.549587 
2708.000000	98.550929 
2707.000000	98.552460 
2706.000000	98.553950 
2705.000000	98.555117 
2704.000000	98.555839 
2703.000000	98.556311 
2702.000000	98.556985 
2701.000000	98.558203 
2700.000000	98.559862 
2699.000000	98.561436 
2698.000000	98.562447 
2697.000000	98.562890 
2696.000000	98.563155 
2695.000000	98.563619 
2694.000000	98.564396 
2693.000000	98.565348 
2692.000000	98.566143 
2691.000000	98.566440 
2690.000000	98.566241 
2689.000000	98.565960 
2688.000000	98.565900 
2687.000000	98.565839 
2686.000000	98.565481 
2685.000000	98.565217 
2684.000000	98.565896 
2683.000000	98.567725 
2682.000000	98.569782 
2681.000000	98.570902 
2680.000000	98.570720 
2679.000000	98.569688 
2678.000000	98.568528 
2677.000000	98.567894 
2676.000000	98.568231 
2675.000000	98.569506 
2674.000000	98.571077 
2673.000000	98.572097 
2672.000000	98.572095 
2671.000000	98.571180 
2670.000000	98.569994 
2669.000000	98.569504 
2668.000000	98.570342 
2667.000000	98.572002 
2666.000000	98.572997 
2665.000000	98.572240 
2664.000000	98.569986 
2663.000000	98.567264 
2662.000000	98.564729 
2661.000000	98.562473 
2660.000000	98.560696 
2659.000000	98.559830 
2658.000000	98.559882 
2657.000000	98.560118 
2656.000000	98.559637 
2655.000000	98.558121 
2654.000000	98.555999 
2653.000000	98.554100 
2652.000000	98.553146 
2651.000000	98.553314 
2650.000000	98.554090 
2649.000000	98.554602 
2648.000000	98.554264 
2647.000000	98.553212 
2646.000000	98.552234 
2645.000000	98.552259 
2644.000000	98.553675 
2643.000000	98.555962 
2642.000000	98.557955 
2641.000000	98.558692 
2640.000000	98.558053 
2639.000000	98.556691 
2638.000000	98.555520 
2637.000000	98.555134 
2636.000000	98.555511 
2635.000000	98.556210 
2634.000000	98.556861 
2633.000000	98.557441 
2632.000000	98.557998 
2631.000000	98.558350 
2630.000000	98.558371 
2629.000000	98.558374 
2628.000000	98.558830 
2627.000000	98.559718 
2626.000000	98.560494 
2625.000000	98.560751 
2624.000000	98.560609 
2623.000000	98.560440 
2622.000000	98.560516 
2621.000000	98.560910 
2620.000000	98.561558 
2619.000000	98.562311 
2618.000000	98.563050 
2617.000000	98.563763 
2616.000000	98.564482 
2615.000000	98.565193 
2614.000000	98.565894 
2613.000000	98.566647 
2612.000000	98.567487 
2611.000000	98.568351 
2610.000000	98.569159 
2609.000000	98.569911 
2608.000000	98.570648 
2607.000000	98.571397 
2606.000000	98.572164 
2605.000000	98.572959 
2604.000000	98.573788 
2603.000000	98.574633 
2602.000000	98.575479 
2601.000000	98.576324 
2600.000000	98.577178 
2599.000000	98.578051 
2598.000000	98.578948 
2597.000000	98.579872 
2596.000000	98.580817 
2595.000000	98.581774 
2594.000000	98.582735 
2593.000000	98.583696 
2592.000000	98.584655 
2591.000000	98.585616 
2590.000000	98.586583 
2589.000000	98.587561 
2588.000000	98.588551 
2587.000000	98.589549 
2586.000000	98.590546 
2585.000000	98.591534 
2584.000000	98.592512 
2583.000000	98.593486 
2582.000000	98.594466 
2581.000000	98.595462 
2580.000000	98.596477 
2579.000000	98.597509 
2578.000000	98.598550 
2577.000000	98.599588 
2576.000000	98.600616 
2575.000000	98.601627 
2574.000000	98.602617 
2573.000000	98.603583 
2572.000000	98.604530 
2571.000000	98.605461 
2570.000000	98.606371 
2569.000000	98.607258 
2568.000000	98.608133 
2567.000000	98.609001 
2566.000000	98.609849 
2565.000000	98.610649 
2564.000000	98.611384 
2563.000000	98.612072 
2562.000000	98.612760 
2561.000000	98.613490 
2560.000000	98.614272 
2559.000000	98.615077 
2558.000000	98.615834 
2557.000000	98.616463 
2556.000000	98.616952 
2555.000000	98.617367 
2554.000000	98.617745 
2553.000000	98.618094 
2552.000000	98.618519 
2551.000000	98.619146 
2550.000000	98.619879 
2549.000000	98.620429 
2548.000000	98.620703 
2547.000000	98.620915 
2546.000000	98.621245 
2545.000000	98.621618 
2544.000000	98.621945 
2543.000000	98.622344 
2542.000000	98.623005 
2541.000000	98.623978 
2540.000000	98.625131 
2539.000000	98.626097 
2538.000000	98.626329 
2537.000000	98.625605 
2536.000000	98.624518 
2535.000000	98.624052 
2534.000000	98.624572 
2533.000000	98.625583 
2532.000000	98.626336 
2531.000000	98.626365 
2530.000000	98.625504 
2529.000000	98.623946 
2528.000000	98.622357 
2527.000000	98.621431 
2526.000000	98.621181 
2525.000000	98.621007 
2524.000000	98.620502 
2523.000000	98.619863 
2522.000000	98.619489 
2521.000000	98.619598 
2520.000000	98.620254 
2519.000000	98.621257 
2518.000000	98.621981 
2517.000000	98.621905 
2516.000000	98.621369 
2515.000000	98.621423 
2514.000000	98.622814 
2513.000000	98.625351 
2512.000000	98.628084 
2511.000000	98.629846 
2510.000000	98.629923 
2509.000000	98.628649 
2508.000000	98.627353 
2507.000000	98.627155 
2506.000000	98.627882 
2505.000000	98.628590 
2504.000000	98.628832 
2503.000000	98.628775 
2502.000000	98.628316 
2501.000000	98.627098 
2500.000000	98.625574 
2499.000000	98.625135 
2498.000000	98.626760 
2497.000000	98.630036 
2496.000000	98.633566 
2495.000000	98.636008 
2494.000000	98.636794 
2493.000000	98.636493 
2492.000000	98.636673 
2491.000000	98.638711 
2490.000000	98.642474 
2489.000000	98.646467 
2488.000000	98.649354 
2487.000000	98.650957 
2486.000000	98.651700 
2485.000000	98.651828 
2484.000000	98.651463 
2483.000000	98.650896 
2482.000000	98.650456 
2481.000000	98.650413 
2480.000000	98.651129 
2479.000000	98.652854 
2478.000000	98.655264 
2477.000000	98.657603 
2476.000000	98.659461 
2475.000000	98.660961 
2474.000000	98.662085 
2473.000000	98.662368 
2472.000000	98.661554 
2471.000000	98.660197 
2470.000000	98.659246 
2469.000000	98.659174 
2468.000000	98.659719 
2467.000000	98.660265 
2466.000000	98.660330 
2465.000000	98.659843 
2464.000000	98.659139 
2463.000000	98.658696 
2462.000000	98.658881 
2461.000000	98.659844 
2460.000000	98.661329 
2459.000000	98.662507 
2458.000000	98.662469 
2457.000000	98.661228 
2456.000000	98.659990 
2455.000000	98.659988 
2454.000000	98.661158 
2453.000000	98.662371 
2452.000000	98.662868 
2451.000000	98.663066 
2450.000000	98.663835 
2449.000000	98.665526 
2448.000000	98.667796 
2447.000000	98.669905 
2446.000000	98.671161 
2445.000000	98.671330 
2444.000000	98.670838 
2443.000000	98.670453 
2442.000000	98.670622 
2441.000000	98.671224 
2440.000000	98.671901 
2439.000000	98.672425 
2438.000000	98.672746 
2437.000000	98.672879 
2436.000000	98.672853 
2435.000000	98.672686 
2434.000000	98.672436 
2433.000000	98.672307 
2432.000000	98.672612 
2431.000000	98.673439 
2430.000000	98.674438 
2429.000000	98.675077 
2428.000000	98.675214 
2427.000000	98.675240 
2426.000000	98.675675 
2425.000000	98.676723 
2424.000000	98.678166 
2423.000000	98.679516 
2422.000000	98.680314 
2421.000000	98.680511 
2420.000000	98.680578 
2419.000000	98.681062 
2418.000000	98.682054 
2417.000000	98.683202 
2416.000000	98.684108 
2415.000000	98.684499 
2414.000000	98.684221 
2413.000000	98.683411 
2412.000000	98.682657 
2411.000000	98.682623 
2410.000000	98.683393 
2409.000000	98.684458 
2408.000000	98.685305 
2407.000000	98.685757 
2406.000000	98.685682 
2405.000000	98.684881 
2404.000000	98.683475 
2403.000000	98.682031 
2402.000000	98.681058 
2401.000000	98.680526 
2400.000000	98.680077 
2399.000000	98.679606 
2398.000000	98.679399 
2397.000000	98.679702 
2396.000000	98.680294 
2395.000000	98.680642 
2394.000000	98.680467 
2393.000000	98.680001 
2392.000000	98.679575 
2391.000000	98.679076 
2390.000000	98.678106 
2389.000000	98.676581 
2388.000000	98.674897 
2387.000000	98.673595 
2386.000000	98.672903 
2385.000000	98.672652 
2384.000000	98.672348 
2383.000000	98.671453 
2382.000000	98.669798 
2381.000000	98.667726 
2380.000000	98.665817 
2379.000000	98.664336 
2378.000000	98.663084 
2377.000000	98.661779 
2376.000000	98.660379 
2375.000000	98.658987 
2374.000000	98.657622 
2373.000000	98.656277 
2372.000000	98.654997 
2371.000000	98.653754 
2370.000000	98.652327 
2369.000000	98.650541 
2368.000000	98.648505 
2367.000000	98.646494 
2366.000000	98.644687 
2365.000000	98.643070 
2364.000000	98.641508 
2363.000000	98.639799 
2362.000000	98.637752 
2361.000000	98.635444 
2360.000000	98.633291 
2359.000000	98.631559 
2358.000000	98.630137 
2357.000000	98.628743 
2356.000000	98.627331 
2355.000000	98.626092 
2354.000000	98.624891 
2353.000000	98.623439 
2352.000000	98.621678 
2351.000000	98.619967 
2350.000000	98.618433 
2349.000000	98.616534 
2348.000000	98.613869 
2347.000000	98.610606 
2346.000000	98.607611 
2345.000000	98.605775 
2344.000000	98.605243 
2343.000000	98.605463 
2342.000000	98.605164 
2341.000000	98.603818 
2340.000000	98.601791 
2339.000000	98.600036 
2338.000000	98.599224 
2337.000000	98.599090 
2336.000000	98.598902 
2335.000000	98.598038 
2334.000000	98.596734 
2333.000000	98.595647 
2332.000000	98.595589 
2331.000000	98.596495 
2330.000000	98.597737 
2329.000000	98.597750 
2328.000000	98.595870 
2327.000000	98.591547 
2326.000000	98.585541 
2325.000000	98.579508 
2324.000000	98.575799 
2323.000000	98.575791 
2322.000000	98.578457 
2321.000000	98.581819 
2320.000000	98.584845 
2319.000000	98.587880 
2318.000000	98.590971 
2317.000000	98.592934 
2316.000000	98.593154 
2315.000000	98.591594 
2314.000000	98.589307 
2313.000000	98.586602 
2312.000000	98.584375 
2311.000000	98.582864 
2310.000000	98.582725 
2309.000000	98.583669 
2308.000000	98.585940 
2307.000000	98.588993 
2306.000000	98.592287 
2305.000000	98.594801 
2304.000000	98.596539 
2303.000000	98.597334 
2302.000000	98.596908 
2301.000000	98.594782 
2300.000000	98.592103 
2299.000000	98.590203 
2298.000000	98.589714 
2297.000000	98.589447 
2296.000000	98.588414 
2295.000000	98.585886 
2294.000000	98.581956 
2293.000000	98.577186 
2292.000000	98.573162 
2291.000000	98.570803 
2290.000000	98.569189 
2289.000000	98.566580 
2288.000000	98.562987 
2287.000000	98.560449 
2286.000000	98.560684 
2285.000000	98.563765 
2284.000000	98.568616 
2283.000000	98.573921 
2282.000000	98.578408 
2281.000000	98.581909 
2280.000000	98.585482 
2279.000000	98.589390 
2278.000000	98.591503 
2277.000000	98.589993 
2276.000000	98.587003 
2275.000000	98.587079 
2274.000000	98.591766 
2273.000000	98.597846 
2272.000000	98.601521 
2271.000000	98.602584 
2270.000000	98.603760 
2269.000000	98.607299 
2268.000000	98.612998 
2267.000000	98.618527 
2266.000000	98.621309 
2265.000000	98.620858 
2264.000000	98.619256 
2263.000000	98.618609 
2262.000000	98.618604 
2261.000000	98.617548 
2260.000000	98.615177 
2259.000000	98.613034 
2258.000000	98.612226 
2257.000000	98.612402 
2256.000000	98.612974 
2255.000000	98.614179 
2254.000000	98.616525 
2253.000000	98.620072 
2252.000000	98.624471 
2251.000000	98.628997 
2250.000000	98.632665 
2249.000000	98.634941 
2248.000000	98.636382 
2247.000000	98.637816 
2246.000000	98.639337 
2245.000000	98.640524 
2244.000000	98.641367 
2243.000000	98.642238 
2242.000000	98.643251 
2241.000000	98.644393 
2240.000000	98.646147 
2239.000000	98.649076 
2238.000000	98.652539 
2237.000000	98.654768 
2236.000000	98.654767 
2235.000000	98.653457 
2234.000000	98.652801 
2233.000000	98.654001 
2232.000000	98.656818 
2231.000000	98.660068 
2230.000000	98.662448 
2229.000000	98.663293 
2228.000000	98.662760 
2227.000000	98.661224 
2226.000000	98.658806 
2225.000000	98.656066 
2224.000000	98.654781 
2223.000000	98.656623 
2222.000000	98.661152 
2221.000000	98.666004 
2220.000000	98.669367 
2219.000000	98.671600 
2218.000000	98.673997 
2217.000000	98.676911 
2216.000000	98.679606 
2215.000000	98.681375 
2214.000000	98.682213 
2213.000000	98.682495 
2212.000000	98.682486 
2211.000000	98.682290 
2210.000000	98.682161 
2209.000000	98.682676 
2208.000000	98.684325 
2207.000000	98.686868 
2206.000000	98.689488 
2205.000000	98.691873 
2204.000000	98.694702 
2203.000000	98.698460 
2202.000000	98.702230 
2201.000000	98.704566 
2200.000000	98.704714 
2199.000000	98.702803 
2198.000000	98.699438 
2197.000000	98.695701 
2196.000000	98.693450 
2195.000000	98.694189 
2194.000000	98.697634 
2193.000000	98.701987 
2192.000000	98.705182 
2191.000000	98.705438 
2190.000000	98.701953 
2189.000000	98.696329 
2188.000000	98.691983 
2187.000000	98.690870 
2186.000000	98.692295 
2185.000000	98.695801 
2184.000000	98.702680 
2183.000000	98.712456 
2182.000000	98.720437 
2181.000000	98.722218 
2180.000000	98.718881 
2179.000000	98.714597 
2178.000000	98.711166 
2177.000000	98.708789 
2176.000000	98.709959 
2175.000000	98.717309 
2174.000000	98.728067 
2173.000000	98.735437 
2172.000000	98.736144 
2171.000000	98.732715 
2170.000000	98.728395 
2169.000000	98.723902 
2168.000000	98.719650 
2167.000000	98.717049 
2166.000000	98.716057 
2165.000000	98.714259 
2164.000000	98.709837 
2163.000000	98.704063 
2162.000000	98.701362 
2161.000000	98.708881 
2160.000000	98.733515 
2159.000000	98.774032 
2158.000000	98.815919 
2157.000000	98.842279 
2156.000000	98.849735 
2155.000000	98.847026 
2154.000000	98.841885 
2153.000000	98.834492 
2152.000000	98.823218 
2151.000000	98.809869 
2150.000000	98.797489 
2149.000000	98.787847 
2148.000000	98.782876 
2147.000000	98.784723 
2146.000000	98.792456 
2145.000000	98.801682 
2144.000000	98.809170 
2143.000000	98.815217 
2142.000000	98.820047 
2141.000000	98.820920 
2140.000000	98.815073 
2139.000000	98.803860 
2138.000000	98.792393 
2137.000000	98.785619 
2136.000000	98.784902 
2135.000000	98.787399 
2134.000000	98.788626 
2133.000000	98.786733 
2132.000000	98.783976 
2131.000000	98.782841 
2130.000000	98.781707 
2129.000000	98.776355 
2128.000000	98.765377 
2127.000000	98.752145 
2126.000000	98.741506 
2125.000000	98.735749 
2124.000000	98.733623 
2123.000000	98.731869 
2122.000000	98.727784 
2121.000000	98.721445 
2120.000000	98.715178 
2119.000000	98.710113 
2118.000000	98.704447 
2117.000000	98.696455 
2116.000000	98.687875 
2115.000000	98.682283 
2114.000000	98.681310 
2113.000000	98.683962 
2112.000000	98.689043 
2111.000000	98.695284 
2110.000000	98.699454 
2109.000000	98.698225 
2108.000000	98.692274 
2107.000000	98.686055 
2106.000000	98.682923 
2105.000000	98.682320 
2104.000000	98.682043 
2103.000000	98.681161 
2102.000000	98.679983 
2101.000000	98.678812 
2100.000000	98.677719 
2099.000000	98.676903 
2098.000000	98.676994 
2097.000000	98.679285 
2096.000000	98.684889 
2095.000000	98.692698 
2094.000000	98.698968 
2093.000000	98.700504 
2092.000000	98.697719 
2091.000000	98.693795 
2090.000000	98.691487 
2089.000000	98.691079 
2088.000000	98.691088 
2087.000000	98.690048 
2086.000000	98.687861 
2085.000000	98.686115 
2084.000000	98.686780 
2083.000000	98.690191 
2082.000000	98.694595 
2081.000000	98.697824 
2080.000000	98.699243 
2079.000000	98.699582 
2078.000000	98.699677 
2077.000000	98.700025 
2076.000000	98.701002 
2075.000000	98.702701 
2074.000000	98.704686 
2073.000000	98.706432 
2072.000000	98.708027 
2071.000000	98.710047 
2070.000000	98.712777 
2069.000000	98.715863 
2068.000000	98.718783 
2067.000000	98.721300 
2066.000000	98.723443 
2065.000000	98.725729 
2064.000000	98.729230 
2063.000000	98.734381 
2062.000000	98.739712 
2061.000000	98.742874 
2060.000000	98.743208 
2059.000000	98.742526 
2058.000000	98.743381 
2057.000000	98.747306 
2056.000000	98.754434 
2055.000000	98.763107 
2054.000000	98.769785 
2053.000000	98.771276 
2052.000000	98.767550 
2051.000000	98.761619 
2050.000000	98.756800 
2049.000000	98.755190 
2048.000000	98.758411 
2047.000000	98.767112 
2046.000000	98.779054 
2045.000000	98.790072 
2044.000000	98.797827 
2043.000000	98.802564 
2042.000000	98.804456 
2041.000000	98.803321 
2040.000000	98.801248 
2039.000000	98.802169 
2038.000000	98.808136 
2037.000000	98.818373 
2036.000000	98.831571 
2035.000000	98.846143 
2034.000000	98.858831 
2033.000000	98.867333 
2032.000000	98.874037 
2031.000000	98.882204 
2030.000000	98.888974 
2029.000000	98.888430 
2028.000000	98.881243 
2027.000000	98.874727 
2026.000000	98.872392 
2025.000000	98.869888 
2024.000000	98.863568 
2023.000000	98.857109 
2022.000000	98.856564 
2021.000000	98.862694 
2020.000000	98.870732 
2019.000000	98.875173 
2018.000000	98.873312 
2017.000000	98.866966 
2016.000000	98.861974 
2015.000000	98.863394 
2014.000000	98.870935 
2013.000000	98.880342 
2012.000000	98.887487 
2011.000000	98.889338 
2010.000000	98.884256 
2009.000000	98.875464 
2008.000000	98.870829 
2007.000000	98.873476 
2006.000000	98.876216 
2005.000000	98.871514 
2004.000000	98.862654 
2003.000000	98.857504 
2002.000000	98.855361 
2001.000000	98.849232 
2000.000000	98.838833 
1999.000000	98.831386 
1998.000000	98.829580 
1997.000000	98.828118 
1996.000000	98.823359 
1995.000000	98.818141 
1994.000000	98.814508 
1993.000000	98.809381 
1992.000000	98.801440 
1991.000000	98.796144 
1990.000000	98.798738 
1989.000000	98.806915 
1988.000000	98.813633 
1987.000000	98.814474 
1986.000000	98.810804 
1985.000000	98.808051 
1984.000000	98.811366 
1983.000000	98.820219 
1982.000000	98.827344 
1981.000000	98.826743 
1980.000000	98.822161 
1979.000000	98.823175 
1978.000000	98.833516 
1977.000000	98.848390 
1976.000000	98.862786 
1975.000000	98.876024 
1974.000000	98.887016 
1973.000000	98.892354 
1972.000000	98.891154 
1971.000000	98.886247 
1970.000000	98.879165 
1969.000000	98.868833 
1968.000000	98.856364 
1967.000000	98.846439 
1966.000000	98.842052 
1965.000000	98.841771 
1964.000000	98.843142 
1963.000000	98.845303 
1962.000000	98.847976 
1961.000000	98.850702 
1960.000000	98.852956 
1959.000000	98.852935 
1958.000000	98.847795 
1957.000000	98.838031 
1956.000000	98.829749 
1955.000000	98.828550 
1954.000000	98.832247 
1953.000000	98.833182 
1952.000000	98.827468 
1951.000000	98.818330 
1950.000000	98.810885 
1949.000000	98.807168 
1948.000000	98.806879 
1947.000000	98.809108 
1946.000000	98.811850 
1945.000000	98.812659 
1944.000000	98.811105 
1943.000000	98.808808 
1942.000000	98.806301 
1941.000000	98.802142 
1940.000000	98.795916 
1939.000000	98.789607 
1938.000000	98.785353 
1937.000000	98.783311 
1936.000000	98.782325 
1935.000000	98.781398 
1934.000000	98.779879 
1933.000000	98.777253 
1932.000000	98.773644 
1931.000000	98.769895 
1930.000000	98.766616 
1929.000000	98.763840 
1928.000000	98.761603 
1927.000000	98.760018 
1926.000000	98.758742 
1925.000000	98.757015 
1924.000000	98.754628 
1923.000000	98.752445 
1922.000000	98.751209 
1921.000000	98.750503 
1920.000000	98.749472 
1919.000000	98.747752 
1918.000000	98.745323 
1917.000000	98.742256 
1916.000000	98.739162 
1915.000000	98.736802 
1914.000000	98.734956 
1913.000000	98.732703 
1912.000000	98.730021 
1911.000000	98.727923 
1910.000000	98.726257 
1909.000000	98.723386 
1908.000000	98.718825 
1907.000000	98.714001 
1906.000000	98.710036 
1905.000000	98.706596 
1904.000000	98.703551 
1903.000000	98.701588 
1902.000000	98.700186 
1901.000000	98.697813 
1900.000000	98.694733 
1899.000000	98.693099 
1898.000000	98.693758 
1897.000000	98.694834 
1896.000000	98.694290 
1895.000000	98.692218 
1894.000000	98.689470 
1893.000000	98.686375 
1892.000000	98.683419 
1891.000000	98.681232 
1890.000000	98.679810 
1889.000000	98.679139 
1888.000000	98.680322 
1887.000000	98.683585 
1886.000000	98.685931 
1885.000000	98.683716 
1884.000000	98.677448 
1883.000000	98.671714 
1882.000000	98.669552 
1881.000000	98.670093 
1880.000000	98.671614 
1879.000000	98.673624 
1878.000000	98.675529 
1877.000000	98.676207 
1876.000000	98.676064 
1875.000000	98.677075 
1874.000000	98.679465 
1873.000000	98.680872 
1872.000000	98.680131 
1871.000000	98.679064 
1870.000000	98.679213 
1869.000000	98.679580 
1868.000000	98.679895 
1867.000000	98.681985 
1866.000000	98.685553 
1865.000000	98.688215 
1864.000000	98.689951 
1863.000000	98.693415 
1862.000000	98.698953 
1861.000000	98.702736 
1860.000000	98.702095 
1859.000000	98.699521 
1858.000000	98.698935 
1857.000000	98.701223 
1856.000000	98.705453 
1855.000000	98.710943 
1854.000000	98.716259 
1853.000000	98.719300 
1852.000000	98.720268 
1851.000000	98.721877 
1850.000000	98.725957 
1849.000000	98.732111 
1848.000000	98.739349 
1847.000000	98.747146 
1846.000000	98.754128 
1845.000000	98.758262 
1844.000000	98.759701 
1843.000000	98.760722 
1842.000000	98.761587 
1841.000000	98.760838 
1840.000000	98.758430 
1839.000000	98.756216 
1838.000000	98.755609 
1837.000000	98.755900 
1836.000000	98.756501 
1835.000000	98.758470 
1834.000000	98.762198 
1833.000000	98.765892 
1832.000000	98.766901 
1831.000000	98.764177 
1830.000000	98.759691 
1829.000000	98.756583 
1828.000000	98.756145 
1827.000000	98.757760 
1826.000000	98.759725 
1825.000000	98.760044 
1824.000000	98.758497 
1823.000000	98.757467 
1822.000000	98.758755 
1821.000000	98.761534 
1820.000000	98.764627 
1819.000000	98.768867 
1818.000000	98.774227 
1817.000000	98.776603 
1816.000000	98.772705 
1815.000000	98.765267 
1814.000000	98.759215 
1813.000000	98.755649 
1812.000000	98.752981 
1811.000000	98.752066 
1810.000000	98.754022 
1809.000000	98.755332 
1808.000000	98.752771 
1807.000000	98.748090 
1806.000000	98.743684 
1805.000000	98.738920 
1804.000000	98.733542 
1803.000000	98.730022 
1802.000000	98.729425 
1801.000000	98.728568 
1800.000000	98.725173 
1799.000000	98.722251 
1798.000000	98.722136 
1797.000000	98.722701 
1796.000000	98.723018 
1795.000000	98.725950 
1794.000000	98.732819 
1793.000000	98.739206 
1792.000000	98.740187 
1791.000000	98.738388 
1790.000000	98.737771 
1789.000000	98.737273 
1788.000000	98.736033 
1787.000000	98.736857 
1786.000000	98.741878 
1785.000000	98.748116 
1784.000000	98.751639 
1783.000000	98.752804 
1782.000000	98.754259 
1781.000000	98.757909 
1780.000000	98.764368 
1779.000000	98.773326 
1778.000000	98.783186 
1777.000000	98.791464 
1776.000000	98.796563 
1775.000000	98.798217 
1774.000000	98.797585 
1773.000000	98.797825 
1772.000000	98.801334 
1771.000000	98.808034 
1770.000000	98.817157 
1769.000000	98.826521 
1768.000000	98.832563 
1767.000000	98.834129 
1766.000000	98.833508 
1765.000000	98.832647 
1764.000000	98.831106 
1763.000000	98.828762 
1762.000000	98.828463 
1761.000000	98.832582 
1760.000000	98.839438 
1759.000000	98.846270 
1758.000000	98.851690 
1757.000000	98.855727 
1756.000000	98.858656 
1755.000000	98.861051 
1754.000000	98.864957 
1753.000000	98.871725 
1752.000000	98.879166 
1751.000000	98.882850 
1750.000000	98.882335 
1749.000000	98.881214 
1748.000000	98.880342 
1747.000000	98.877696 
1746.000000	98.874062 
1745.000000	98.872997 
1744.000000	98.874601 
1743.000000	98.875482 
1742.000000	98.874612 
1741.000000	98.873888 
1740.000000	98.874294 
1739.000000	98.875392 
1738.000000	98.877039 
1737.000000	98.878208 
1736.000000	98.876728 
1735.000000	98.872876 
1734.000000	98.870289 
1733.000000	98.871001 
1732.000000	98.873897 
1731.000000	98.876392 
1730.000000	98.877316 
1729.000000	98.878133 
1728.000000	98.879836 
1727.000000	98.880856 
1726.000000	98.879714 
1725.000000	98.877094 
1724.000000	98.874237 
1723.000000	98.872210 
1722.000000	98.871697 
1721.000000	98.871788 
1720.000000	98.870978 
1719.000000	98.869835 
1718.000000	98.870654 
1717.000000	98.869348 
1716.000000	98.863251 
1715.000000	98.858578 
1714.000000	98.857427 
1713.000000	98.855826 
1712.000000	98.852768 
1711.000000	98.850773 
1710.000000	98.850722 
1709.000000	98.849955 
1708.000000	98.846061 
1707.000000	98.840261 
1706.000000	98.834310 
1705.000000	98.827031 
1704.000000	98.818654 
1703.000000	98.812896 
1702.000000	98.810689 
1701.000000	98.808564 
1700.000000	98.801809 
1699.000000	98.795693 
1698.000000	98.793959 
1697.000000	98.790388 
1696.000000	98.781951 
1695.000000	98.773345 
1694.000000	98.767298 
1693.000000	98.761214 
1692.000000	98.754241 
1691.000000	98.748427 
1690.000000	98.744870 
1689.000000	98.741694 
1688.000000	98.736699 
1687.000000	98.729499 
1686.000000	98.719973 
1685.000000	98.708797 
1684.000000	98.699425 
1683.000000	98.694377 
1682.000000	98.690603 
1681.000000	98.686336 
1680.000000	98.681438 
1679.000000	98.676172 
1678.000000	98.669924 
1677.000000	98.662663 
1676.000000	98.656447 
1675.000000	98.652407 
1674.000000	98.649245 
1673.000000	98.645609 
1672.000000	98.640029 
1671.000000	98.631514 
1670.000000	98.620544 
1669.000000	98.610814 
1668.000000	98.606168 
1667.000000	98.604196 
1666.000000	98.600117 
1665.000000	98.591315 
1664.000000	98.579432 
1663.000000	98.568886 
1662.000000	98.560374 
1661.000000	98.552531 
1660.000000	98.546318 
1659.000000	98.540754 
1658.000000	98.533619 
1657.000000	98.524792 
1656.000000	98.515951 
1655.000000	98.504746 
1654.000000	98.491569 
1653.000000	98.482061 
1652.000000	98.477709 
1651.000000	98.476268 
1650.000000	98.476303 
1649.000000	98.473542 
1648.000000	98.469168 
1647.000000	98.465514 
1646.000000	98.461212 
1645.000000	98.454216 
1644.000000	98.447887 
1643.000000	98.444998 
1642.000000	98.443040 
1641.000000	98.439677 
1640.000000	98.437087 
1639.000000	98.437017 
1638.000000	98.437190 
1637.000000	98.435728 
1636.000000	98.436799 
1635.000000	98.439752 
1634.000000	98.440082 
1633.000000	98.439823 
1632.000000	98.443438 
1631.000000	98.451098 
1630.000000	98.458060 
1629.000000	98.460591 
1628.000000	98.461526 
1627.000000	98.464286 
1626.000000	98.467520 
1625.000000	98.471372 
1624.000000	98.481450 
1623.000000	98.499745 
1622.000000	98.517847 
1621.000000	98.530118 
1620.000000	98.539536 
1619.000000	98.548787 
1618.000000	98.557342 
1617.000000	98.567040 
1616.000000	98.581784 
1615.000000	98.596635 
1614.000000	98.604548 
1613.000000	98.608987 
1612.000000	98.618879 
1611.000000	98.635855 
1610.000000	98.650707 
1609.000000	98.658655 
1608.000000	98.666025 
1607.000000	98.676285 
1606.000000	98.684424 
1605.000000	98.689168 
1604.000000	98.696090 
1603.000000	98.706539 
1602.000000	98.715760 
1601.000000	98.722543 
1600.000000	98.730541 
1599.000000	98.738991 
1598.000000	98.742811 
1597.000000	98.742496 
1596.000000	98.745185 
1595.000000	98.753974 
1594.000000	98.763550 
1593.000000	98.770497 
1592.000000	98.778495 
1591.000000	98.789333 
1590.000000	98.798291 
1589.000000	98.803339 
1588.000000	98.809399 
1587.000000	98.818816 
1586.000000	98.826787 
1585.000000	98.831121 
1584.000000	98.836919 
1583.000000	98.845733 
1582.000000	98.851781 
1581.000000	98.854041 
1580.000000	98.858046 
1579.000000	98.863067 
1578.000000	98.860494 
1577.000000	98.849364 
1576.000000	98.842391 
1575.000000	98.843772 
1574.000000	98.844402 
1573.000000	98.841379 
1572.000000	98.837177 
1571.000000	98.833584 
1570.000000	98.830413 
1569.000000	98.831138 
1568.000000	98.839300 
1567.000000	98.847513 
1566.000000	98.847470 
1565.000000	98.841130 
1564.000000	98.836920 
1563.000000	98.836161 
1562.000000	98.832552 
1561.000000	98.825939 
1560.000000	98.825005 
1559.000000	98.822404 
1558.000000	98.795129 
1557.000000	98.762085 
1556.000000	98.742233 
1555.000000	98.726553 
1554.000000	98.704717 
1553.000000	98.680093 
1552.000000	98.659686 
1551.000000	98.642164 
1550.000000	98.621132 
1549.000000	98.595382 
1548.000000	98.569938 
1547.000000	98.546268 
1546.000000	98.518641 
1545.000000	98.482748 
1544.000000	98.443964 
1543.000000	98.410521 
1542.000000	98.379891 
1541.000000	98.337667 
1540.000000	98.279522 
1539.000000	98.220921 
1538.000000	98.174272 
1537.000000	98.139165 
1536.000000	98.107875 
1535.000000	98.071429 
1534.000000	98.023822 
1533.000000	97.969285 
1532.000000	97.920776 
1531.000000	97.884443 
1530.000000	97.853170 
1529.000000	97.816319 
1528.000000	97.770791 
1527.000000	97.720839 
1526.000000	97.671716 
1525.000000	97.626141 
1524.000000	97.584518 
1523.000000	97.542025 
1522.000000	97.489737 
1521.000000	97.427150 
1520.000000	97.369814 
1519.000000	97.326807 
1518.000000	97.288600 
1517.000000	97.242929 
1516.000000	97.191315 
1515.000000	97.144278 
1514.000000	97.104193 
1513.000000	97.063711 
1512.000000	97.017918 
1511.000000	96.973307 
1510.000000	96.937423 
1509.000000	96.904011 
1508.000000	96.853003 
1507.000000	96.774368 
1506.000000	96.685984 
1505.000000	96.613595 
1504.000000	96.565932 
1503.000000	96.532966 
1502.000000	96.500071 
1501.000000	96.458715 
1500.000000	96.408714 
1499.000000	96.356044 
1498.000000	96.305500 
1497.000000	96.252757 
1496.000000	96.193616 
1495.000000	96.139463 
1494.000000	96.101431 
1493.000000	96.073973 
1492.000000	96.042567 
1491.000000	95.996984 
1490.000000	95.939190 
1489.000000	95.878258 
1488.000000	95.822301 
1487.000000	95.776966 
1486.000000	95.740315 
1485.000000	95.708320 
1484.000000	95.681763 
1483.000000	95.659507 
1482.000000	95.636881 
1481.000000	95.611850 
1480.000000	95.589510 
1479.000000	95.575492 
1478.000000	95.567557 
1477.000000	95.559155 
1476.000000	95.549525 
1475.000000	95.543699 
1474.000000	95.537847 
1473.000000	95.522027 
1472.000000	95.499436 
1471.000000	95.488279 
1470.000000	95.495454 
1469.000000	95.511595 
1468.000000	95.526510 
1467.000000	95.537670 
1466.000000	95.544767 
1465.000000	95.545389 
1464.000000	95.541389 
1463.000000	95.540164 
1462.000000	95.546084 
1461.000000	95.555176 
1460.000000	95.560582 
1459.000000	95.555764 
1458.000000	95.537343 
1457.000000	95.508072 
1456.000000	95.478209 
1455.000000	95.461205 
1454.000000	95.459614 
1453.000000	95.464592 
1452.000000	95.468499 
1451.000000	95.472026 
1450.000000	95.480917 
1449.000000	95.495792 
1448.000000	95.510467 
1447.000000	95.522035 
1446.000000	95.533814 
1445.000000	95.548912 
1444.000000	95.566008 
1443.000000	95.582064 
1442.000000	95.597721 
1441.000000	95.615946 
1440.000000	95.635962 
1439.000000	95.652824 
1438.000000	95.664305 
1437.000000	95.672140 
1436.000000	95.678476 
1435.000000	95.686810 
1434.000000	95.700115 
1433.000000	95.715480 
1432.000000	95.728386 
1431.000000	95.737397 
1430.000000	95.745976 
1429.000000	95.757413 
1428.000000	95.770331 
1427.000000	95.782924 
1426.000000	95.795585 
1425.000000	95.810659 
1424.000000	95.827495 
1423.000000	95.841981 
1422.000000	95.854117 
1421.000000	95.866868 
1420.000000	95.879701 
1419.000000	95.888737 
1418.000000	95.896411 
1417.000000	95.906273 
1416.000000	95.915194 
1415.000000	95.920743 
1414.000000	95.925625 
1413.000000	95.934122 
1412.000000	95.946537 
1411.000000	95.960938 
1410.000000	95.978975 
1409.000000	96.003266 
1408.000000	96.032702 
1407.000000	96.065743 
1406.000000	96.103792 
1405.000000	96.150018 
1404.000000	96.203029 
1403.000000	96.257195 
1402.000000	96.310440 
1401.000000	96.364302 
1400.000000	96.418515 
1399.000000	96.467121 
1398.000000	96.501839 
1397.000000	96.517000 
1396.000000	96.514030 
1395.000000	96.509084 
1394.000000	96.529502 
1393.000000	96.589825 
1392.000000	96.677005 
1391.000000	96.765767 
1390.000000	96.839502 
1389.000000	96.895237 
1388.000000	96.936517 
1387.000000	96.967827 
1386.000000	96.994817 
1385.000000	97.023565 
1384.000000	97.056362 
1383.000000	97.091502 
1382.000000	97.128087 
1381.000000	97.167646 
1380.000000	97.211251 
1379.000000	97.257032 
1378.000000	97.302372 
1377.000000	97.347393 
1376.000000	97.393904 
1375.000000	97.441968 
1374.000000	97.489694 
1373.000000	97.535963 
1372.000000	97.580443 
1371.000000	97.622562 
1370.000000	97.662356 
1369.000000	97.702822 
1368.000000	97.746477 
1367.000000	97.791227 
1366.000000	97.833465 
1365.000000	97.872388 
1364.000000	97.909399 
1363.000000	97.945552 
1362.000000	97.980861 
1361.000000	98.015537 
1360.000000	98.049973 
1359.000000	98.083839 
1358.000000	98.116860 
1357.000000	98.149930 
1356.000000	98.183089 
1355.000000	98.214282 
1354.000000	98.242339 
1353.000000	98.269018 
1352.000000	98.296574 
1351.000000	98.324930 
1350.000000	98.351510 
1349.000000	98.376032 
1348.000000	98.398751 
1347.000000	98.418216 
1346.000000	98.434560 
1345.000000	98.451628 
1344.000000	98.472414 
1343.000000	98.495035 
1342.000000	98.515908 
1341.000000	98.534623 
1340.000000	98.552563 
1339.000000	98.568817 
1338.000000	98.582051 
1337.000000	98.594060 
1336.000000	98.607079 
1335.000000	98.620715 
1334.000000	98.634324 
1333.000000	98.649326 
1332.000000	98.666104 
1331.000000	98.681042 
1330.000000	98.690272 
1329.000000	98.695050 
1328.000000	98.699664 
1327.000000	98.705629 
1326.000000	98.711450 
1325.000000	98.717546 
1324.000000	98.725606 
1323.000000	98.734805 
1322.000000	98.742831 
1321.000000	98.749425 
1320.000000	98.755934 
1319.000000	98.762807 
1318.000000	98.770084 
1317.000000	98.778534 
1316.000000	98.788156 
1315.000000	98.797214 
1314.000000	98.804743 
1313.000000	98.812069 
1312.000000	98.820346 
1311.000000	98.828819 
1310.000000	98.837031 
1309.000000	98.846073 
1308.000000	98.855828 
1307.000000	98.863616 
1306.000000	98.867418 
1305.000000	98.869265 
1304.000000	98.872093 
1303.000000	98.875645 
1302.000000	98.877773 
1301.000000	98.877968 
1300.000000	98.877347 
1299.000000	98.876867 
1298.000000	98.877489 
1297.000000	98.880276 
1296.000000	98.884597 
1295.000000	98.887542 
1294.000000	98.887130 
1293.000000	98.884745 
1292.000000	98.883037 
1291.000000	98.882811 
1290.000000	98.883189 
1289.000000	98.883458 
1288.000000	98.883328 
1287.000000	98.882265 
1286.000000	98.879864 
1285.000000	98.876337 
1284.000000	98.872404 
1283.000000	98.869616 
1282.000000	98.869884 
1281.000000	98.873363 
1280.000000	98.877670 
1279.000000	98.880142 
1278.000000	98.880656 
1277.000000	98.880838 
1276.000000	98.881301 
1275.000000	98.881397 
1274.000000	98.881292 
1273.000000	98.882026 
1272.000000	98.883491 
1271.000000	98.884389 
1270.000000	98.884255 
1269.000000	98.883572 
1268.000000	98.882027 
1267.000000	98.878932 
1266.000000	98.875415 
1265.000000	98.873370 
1264.000000	98.872349 
1263.000000	98.870382 
1262.000000	98.867720 
1261.000000	98.866516 
1260.000000	98.866628 
1259.000000	98.864893 
1258.000000	98.859910 
1257.000000	98.854277 
1256.000000	98.850939 
1255.000000	98.849744 
1254.000000	98.848493 
1253.000000	98.845414 
1252.000000	98.840447 
1251.000000	98.836200 
1250.000000	98.837647 
1249.000000	98.848256 
1248.000000	98.865996 
1247.000000	98.884639 
1246.000000	98.898123 
1245.000000	98.901353 
1244.000000	98.890303 
1243.000000	98.867971 
1242.000000	98.849130 
1241.000000	98.850458 
1240.000000	98.872778 
1239.000000	98.898542 
1238.000000	98.909721 
1237.000000	98.903377 
1236.000000	98.887581 
1235.000000	98.868663 
1234.000000	98.847666 
1233.000000	98.825471 
1232.000000	98.805000 
1231.000000	98.788520 
1230.000000	98.775919 
1229.000000	98.764971 
1228.000000	98.751488 
1227.000000	98.731116 
1226.000000	98.703449 
1225.000000	98.672960 
1224.000000	98.643758 
1223.000000	98.614777 
1222.000000	98.581914 
1221.000000	98.543111 
1220.000000	98.499070 
1219.000000	98.450428 
1218.000000	98.396821 
1217.000000	98.338016 
1216.000000	98.273975 
1215.000000	98.204195 
1214.000000	98.128475 
1213.000000	98.047958 
1212.000000	97.964150 
1211.000000	97.877226 
1210.000000	97.786049 
1209.000000	97.689650 
1208.000000	97.588454 
1207.000000	97.484635 
1206.000000	97.381394 
1205.000000	97.280823 
1204.000000	97.181706 
1203.000000	97.080029 
1202.000000	96.972720 
1201.000000	96.860814 
1200.000000	96.748239 
1199.000000	96.637653 
1198.000000	96.528581 
1197.000000	96.419645 
1196.000000	96.310796 
1195.000000	96.202202 
1194.000000	96.092270 
1193.000000	95.978878 
1192.000000	95.862124 
1191.000000	95.743898 
1190.000000	95.624868 
1189.000000	95.503968 
1188.000000	95.380945 
1187.000000	95.257047 
1186.000000	95.132546 
1185.000000	95.005921 
1184.000000	94.876575 
1183.000000	94.746128 
1182.000000	94.615612 
1181.000000	94.483409 
1180.000000	94.347511 
1179.000000	94.207986 
1178.000000	94.065712 
1177.000000	93.920156 
1176.000000	93.769660 
1175.000000	93.612566 
1174.000000	93.447336 
1173.000000	93.273580 
1172.000000	93.093777 
1171.000000	92.911967 
1170.000000	92.730019 
1169.000000	92.547574 
1168.000000	92.366718 
1167.000000	92.194586 
1166.000000	92.041280 
1165.000000	91.918410 
1164.000000	91.839358 
1163.000000	91.815067 
1162.000000	91.845617 
1161.000000	91.916964 
1160.000000	92.005836 
1159.000000	92.086068 
1158.000000	92.133931 
1157.000000	92.134623 
1156.000000	92.086274 
1155.000000	91.996497 
1154.000000	91.875440 
1153.000000	91.733292 
1152.000000	91.581216 
1151.000000	91.428438 
1150.000000	91.277285 
1149.000000	91.125373 
1148.000000	90.973040 
1147.000000	90.823907 
1146.000000	90.678001 
1145.000000	90.530063 
1144.000000	90.376025 
1143.000000	90.216341 
1142.000000	90.052424 
1141.000000	89.885289 
1140.000000	89.718559 
1139.000000	89.556865 
1138.000000	89.399453 
1137.000000	89.240326 
1136.000000	89.075677 
1135.000000	88.906386 
1134.000000	88.733486 
1133.000000	88.557226 
1132.000000	88.380441 
1131.000000	88.205953 
1130.000000	88.030590 
1129.000000	87.849027 
1128.000000	87.663105 
1127.000000	87.478985 
1126.000000	87.295345 
1125.000000	87.104319 
1124.000000	86.905088 
1123.000000	86.706013 
1122.000000	86.511243 
1121.000000	86.315858 
1120.000000	86.117387 
1119.000000	85.921473 
1118.000000	85.732055 
1117.000000	85.545966 
1116.000000	85.361249 
1115.000000	85.181294 
1114.000000	85.007091 
1113.000000	84.834732 
1112.000000	84.663411 
1111.000000	84.496001 
1110.000000	84.330589 
1109.000000	84.162203 
1108.000000	83.992674 
1107.000000	83.827977 
1106.000000	83.665441 
1105.000000	83.496403 
1104.000000	83.322719 
1103.000000	83.156575 
1102.000000	83.001744 
1101.000000	82.849379 
1100.000000	82.693976 
1099.000000	82.540965 
1098.000000	82.392775 
1097.000000	82.243717 
1096.000000	82.092068 
1095.000000	81.943106 
1094.000000	81.795784 
1093.000000	81.640439 
1092.000000	81.474464 
1091.000000	81.307218 
1090.000000	81.145722 
1089.000000	80.988749 
1088.000000	80.837421 
1087.000000	80.696115 
1086.000000	80.559471 
1085.000000	80.415033 
1084.000000	80.263625 
1083.000000	80.121728 
1082.000000	79.999096 
1081.000000	79.889137 
1080.000000	79.784815 
1079.000000	79.687113 
1078.000000	79.593822 
1077.000000	79.497540 
1076.000000	79.399474 
1075.000000	79.307770 
1074.000000	79.217665 
1073.000000	79.110494 
1072.000000	78.974653 
1071.000000	78.807706 
1070.000000	78.596208 
1069.000000	78.319515 
1068.000000	77.984526 
1067.000000	77.637079 
1066.000000	77.323532 
1065.000000	77.052094 
1064.000000	76.801771 
1063.000000	76.549575 
1062.000000	76.276334 
1061.000000	75.966913 
1060.000000	75.624537 
1059.000000	75.275877 
1058.000000	74.948533 
1057.000000	74.649017 
1056.000000	74.367620 
1055.000000	74.091320 
1054.000000	73.805583 
1053.000000	73.499552 
1052.000000	73.179216 
1051.000000	72.862180 
1050.000000	72.552039 
1049.000000	72.234102 
1048.000000	71.901458 
1047.000000	71.564633 
1046.000000	71.230809 
1045.000000	70.894954 
1044.000000	70.555999 
1043.000000	70.221100 
1042.000000	69.888758 
1041.000000	69.547571 
1040.000000	69.198280 
1039.000000	68.858793 
1038.000000	68.541294 
1037.000000	68.241968 
1036.000000	67.957315 
1035.000000	67.691229 
1034.000000	67.441425 
1033.000000	67.197534 
1032.000000	66.955627 
1031.000000	66.717174 
1030.000000	66.476131 
1029.000000	66.230585 
1028.000000	66.005291 
1027.000000	65.833464 
1026.000000	65.712174 
1025.000000	65.602360 
1024.000000	65.477001 
1023.000000	65.342048 
1022.000000	65.207138 
1021.000000	65.067395 
1020.000000	64.921922 
1019.000000	64.781523 
1018.000000	64.647804 
1017.000000	64.508778 
1016.000000	64.362988 
1015.000000	64.224222 
1014.000000	64.096075 
1013.000000	63.966313 
1012.000000	63.832128 
1011.000000	63.706119 
1010.000000	63.591772 
1009.000000	63.478341 
1008.000000	63.365595 
1007.000000	63.268247 
1006.000000	63.190245 
1005.000000	63.119886 
1004.000000	63.055458 
1003.000000	63.010012 
1002.000000	62.985462 
1001.000000	62.967902 
1000.000000	62.953854 
999.000000	 62.955221 
998.000000	 62.973047 
997.000000	 62.992634 
996.000000	 63.010282 
995.000000	 63.038891 
994.000000	 63.081496 
993.000000	 63.125512 
992.000000	 63.168983 
991.000000	 63.226481 
990.000000	 63.302535 
989.000000	 63.384288 
988.000000	 63.466348 
987.000000	 63.558373 
986.000000	 63.662911 
985.000000	 63.770994 
984.000000	 63.884788 
983.000000	 64.019292 
982.000000	 64.176527 
981.000000	 64.342396 
980.000000	 64.513680 
979.000000	 64.703766 
978.000000	 64.917028 
977.000000	 65.142320 
976.000000	 65.376176 
975.000000	 65.627929 
974.000000	 65.897600 
973.000000	 66.173198 
972.000000	 66.454048 
971.000000	 66.752605 
970.000000	 67.069299 
969.000000	 67.389601 
968.000000	 67.709508 
967.000000	 68.039865 
966.000000	 68.381885 
965.000000	 68.722614 
964.000000	 69.058618 
963.000000	 69.400510 
962.000000	 69.749902 
961.000000	 70.094670 
960.000000	 70.430911 
959.000000	 70.767406 
958.000000	 71.105189 
957.000000	 71.434858 
956.000000	 71.757033 
955.000000	 72.082931 
954.000000	 72.411143 
953.000000	 72.725815 
952.000000	 73.021445 
951.000000	 73.308106 
950.000000	 73.589413 
949.000000	 73.857019 
948.000000	 74.110207 
947.000000	 74.359159 
946.000000	 74.604372 
945.000000	 74.833107 
944.000000	 75.040513 
943.000000	 75.235243 
942.000000	 75.421447 
941.000000	 75.594534 
940.000000	 75.757552 
939.000000	 75.921987 
938.000000	 76.088978 
937.000000	 76.249045 
936.000000	 76.403068 
935.000000	 76.563675 
934.000000	 76.733178 
933.000000	 76.900337 
932.000000	 77.061737 
931.000000	 77.225613 
930.000000	 77.391441 
929.000000	 77.546960 
928.000000	 77.689943 
927.000000	 77.832542 
926.000000	 77.979234 
925.000000	 78.119912 
924.000000	 78.249298 
923.000000	 78.373657 
922.000000	 78.493463 
921.000000	 78.598604 
920.000000	 78.686194 
919.000000	 78.765354 
918.000000	 78.840110 
917.000000	 78.905665 
916.000000	 78.965507 
915.000000	 79.033256 
914.000000	 79.113288 
913.000000	 79.199322 
912.000000	 79.297612 
911.000000	 79.430968 
910.000000	 79.612140 
909.000000	 79.831200 
908.000000	 80.075365 
907.000000	 80.343493 
906.000000	 80.634950 
905.000000	 80.942107 
904.000000	 81.261600 
903.000000	 81.598859 
902.000000	 81.956119 
901.000000	 82.327972 
900.000000	 82.710013 
899.000000	 83.098858 
898.000000	 83.483975 
897.000000	 83.854548 
896.000000	 84.213196 
895.000000	 84.568735 
894.000000	 84.918232 
893.000000	 85.252083 
892.000000	 85.573266 
891.000000	 85.892310 
890.000000	 86.203108 
889.000000	 86.481700 
888.000000	 86.710578 
887.000000	 86.889570 
886.000000	 87.024857 
885.000000	 87.124462 
884.000000	 87.203965 
883.000000	 87.277338 
882.000000	 87.339256 
881.000000	 87.375203 
880.000000	 87.392495 
879.000000	 87.422071 
878.000000	 87.484652 
877.000000	 87.575126 
876.000000	 87.686606 
875.000000	 87.829230 
874.000000	 88.017305 
873.000000	 88.255830 
872.000000	 88.544824 
871.000000	 88.876906 
870.000000	 89.224092 
869.000000	 89.546414 
868.000000	 89.823040 
867.000000	 90.063503 
866.000000	 90.286890 
865.000000	 90.505296 
864.000000	 90.730541 
863.000000	 90.979297 
862.000000	 91.261877 
861.000000	 91.575902 
860.000000	 91.915705 
859.000000	 92.277279 
858.000000	 92.650797 
857.000000	 93.020344 
856.000000	 93.376443 
855.000000	 93.720721 
854.000000	 94.055129 
853.000000	 94.373368 
852.000000	 94.664414 
851.000000	 94.919080 
850.000000	 95.134561 
849.000000	 95.318461 
848.000000	 95.484994 
847.000000	 95.639684 
846.000000	 95.771911 
845.000000	 95.871504 
844.000000	 95.947178 
843.000000	 96.016251 
842.000000	 96.079951 
841.000000	 96.123536 
840.000000	 96.139545 
839.000000	 96.135773 
838.000000	 96.119305 
837.000000	 96.087102 
836.000000	 96.036232 
835.000000	 95.971932 
834.000000	 95.902276 
833.000000	 95.835090 
832.000000	 95.781729 
831.000000	 95.751705 
830.000000	 95.740728 
829.000000	 95.736782 
828.000000	 95.741116 
827.000000	 95.769243 
826.000000	 95.827570 
825.000000	 95.904905 
824.000000	 95.991434 
823.000000	 96.087191 
822.000000	 96.185483 
821.000000	 96.267764 
820.000000	 96.322956 
819.000000	 96.356426 
818.000000	 96.375012 
817.000000	 96.376196 
816.000000	 96.355145 
815.000000	 96.308342 
814.000000	 96.223894 
813.000000	 96.079304 
812.000000	 95.855774 
811.000000	 95.546654 
810.000000	 95.147944 
809.000000	 94.651268 
808.000000	 94.053069 
807.000000	 93.361597 
806.000000	 92.588852 
805.000000	 91.747757 
804.000000	 90.867015 
803.000000	 89.996847 
802.000000	 89.188148 
801.000000	 88.475618 
800.000000	 87.888327 
799.000000	 87.457718 
798.000000	 87.200124 
797.000000	 87.104308 
796.000000	 87.145445 
795.000000	 87.296618 
794.000000	 87.521402 
793.000000	 87.775742 
792.000000	 88.028216 
791.000000	 88.265290 
790.000000	 88.471663 
789.000000	 88.621111 
788.000000	 88.692946 
787.000000	 88.683454 
786.000000	 88.595086 
785.000000	 88.427935 
784.000000	 88.189394 
783.000000	 87.900903 
782.000000	 87.588778 
781.000000	 87.279335 
780.000000	 87.007645 
779.000000	 86.815931 
778.000000	 86.733827 
777.000000	 86.769462 
776.000000	 86.920402 
775.000000	 87.175569 
774.000000	 87.503193 
773.000000	 87.857453 
772.000000	 88.206579 
771.000000	 88.543011 
770.000000	 88.864342 
769.000000	 89.159348 
768.000000	 89.416219 
767.000000	 89.631146 
766.000000	 89.805771 
765.000000	 89.948076 
764.000000	 90.076685 
763.000000	 90.210604 
762.000000	 90.351855 
761.000000	 90.489652 
760.000000	 90.621144 
759.000000	 90.753525 
758.000000	 90.886686 
757.000000	 91.011983 
756.000000	 91.130824 
755.000000	 91.257278 
754.000000	 91.397942 
753.000000	 91.544647 
752.000000	 91.690484 
751.000000	 91.837328 
750.000000	 91.983892 
749.000000	 92.122392 
748.000000	 92.252819 
747.000000	 92.386922 
746.000000	 92.532776 
745.000000	 92.687835 
744.000000	 92.851458 
743.000000	 93.031090 
742.000000	 93.231086 
741.000000	 93.446802 
740.000000	 93.672906 
739.000000	 93.906058 
738.000000	 94.137298 
737.000000	 94.354021 
736.000000	 94.552225 
735.000000	 94.735825 
734.000000	 94.902813 
733.000000	 95.044164 
732.000000	 95.157490 
731.000000	 95.249618 
730.000000	 95.324313 
729.000000	 95.380487 
728.000000	 95.425383 
727.000000	 95.476487 
726.000000	 95.545387 
725.000000	 95.629704 
724.000000	 95.723486 
723.000000	 95.824076 
722.000000	 95.926309 
721.000000	 96.022456 
720.000000	 96.112442 
719.000000	 96.201743 
718.000000	 96.282132 
717.000000	 96.326023 
716.000000	 96.310412 
715.000000	 96.245871 
714.000000	 96.181074 
713.000000	 96.177801 
712.000000	 96.272915 
711.000000	 96.452219 
710.000000	 96.660326 
709.000000	 96.844373 
708.000000	 96.986491 
707.000000	 97.090100 
706.000000	 97.148505 
705.000000	 97.144091 
704.000000	 97.070489 
703.000000	 96.933628 
702.000000	 96.731776 
701.000000	 96.455166 
700.000000	 96.108385 
699.000000	 95.715263 
698.000000	 95.301765 
697.000000	 94.897264 
696.000000	 94.555244 
695.000000	 94.343079 
694.000000	 94.295559 
693.000000	 94.392850 
692.000000	 94.589036 
691.000000	 94.846043 
690.000000	 95.134774 
689.000000	 95.424222 
688.000000	 95.686769 
687.000000	 95.907751 
686.000000	 96.082401 
685.000000	 96.214415 
684.000000	 96.323503 
683.000000	 96.438142 
682.000000	 96.570534 
681.000000	 96.708235 
680.000000	 96.835577 
679.000000	 96.951501 
678.000000	 97.060245 
677.000000	 97.158423 
676.000000	 97.243817 
675.000000	 97.325733 
674.000000	 97.415602 
673.000000	 97.512415 
672.000000	 97.604619 
671.000000	 97.685149 
670.000000	 97.763282 
669.000000	 97.869980 
668.000000	 98.034737 
667.000000	 98.214756 
666.000000	 98.337309 
665.000000	 98.408201 
664.000000	 98.477063 
663.000000	 98.573481 
662.000000	 98.682989 
661.000000	 98.772423 
660.000000	 98.835988 
659.000000	 98.893361 
658.000000	 98.953159 
657.000000	 99.004522 
656.000000	 99.038855 
655.000000	 99.050633 
654.000000	 99.022636 
653.000000	 98.941615 
652.000000	 98.831481 
651.000000	 98.750472 
650.000000	 98.742154 

