4000.000000	99.088242 
3999.000000	99.086860 
3998.000000	99.085750 
3997.000000	99.085151 
3996.000000	99.085274 
3995.000000	99.086085 
3994.000000	99.087222 
3993.000000	99.088209 
3992.000000	99.088731 
3991.000000	99.088738 
3990.000000	99.088495 
3989.000000	99.088441 
3988.000000	99.088754 
3987.000000	99.089050 
3986.000000	99.088749 
3985.000000	99.087719 
3984.000000	99.086484 
3983.000000	99.085798 
3982.000000	99.086041 
3981.000000	99.086922 
3980.000000	99.087665 
3979.000000	99.087625 
3978.000000	99.086719 
3977.000000	99.085321 
3976.000000	99.083799 
3975.000000	99.082266 
3974.000000	99.080767 
3973.000000	99.079600 
3972.000000	99.079189 
3971.000000	99.079639 
3970.000000	99.080683 
3969.000000	99.082063 
3968.000000	99.083646 
3967.000000	99.085203 
3966.000000	99.086389 
3965.000000	99.086968 
3964.000000	99.086982 
3963.000000	99.086719 
3962.000000	99.086486 
3961.000000	99.086427 
3960.000000	99.086458 
3959.000000	99.086173 
3958.000000	99.085128 
3957.000000	99.083456 
3956.000000	99.081914 
3955.000000	99.081236 
3954.000000	99.081604 
3953.000000	99.082579 
3952.000000	99.083471 
3951.000000	99.083849 
3950.000000	99.084043 
3949.000000	99.084846 
3948.000000	99.086284 
3947.000000	99.087324 
3946.000000	99.086949 
3945.000000	99.085033 
3944.000000	99.082192 
3943.000000	99.079355 
3942.000000	99.077226 
3941.000000	99.075927 
3940.000000	99.075207 
3939.000000	99.074864 
3938.000000	99.074993 
3937.000000	99.076044 
3936.000000	99.078328 
3935.000000	99.081358 
3934.000000	99.084023 
3933.000000	99.085429 
3932.000000	99.085417 
3931.000000	99.084164 
3930.000000	99.081888 
3929.000000	99.078974 
3928.000000	99.076040 
3927.000000	99.073915 
3926.000000	99.073056 
3925.000000	99.073336 
3924.000000	99.074798 
3923.000000	99.077411 
3922.000000	99.080377 
3921.000000	99.082565 
3920.000000	99.083731 
3919.000000	99.084717 
3918.000000	99.085848 
3917.000000	99.086177 
3916.000000	99.084912 
3915.000000	99.082609 
3914.000000	99.080386 
3913.000000	99.078731 
3912.000000	99.077737 
3911.000000	99.077546 
3910.000000	99.078044 
3909.000000	99.078904 
3908.000000	99.080081 
3907.000000	99.081697 
3906.000000	99.083959 
3905.000000	99.086633 
3904.000000	99.089292 
3903.000000	99.091275 
3902.000000	99.091712 
3901.000000	99.090372 
3900.000000	99.087835 
3899.000000	99.085357 
3898.000000	99.084102 
3897.000000	99.083944 
3896.000000	99.083784 
3895.000000	99.082855 
3894.000000	99.081271 
3893.000000	99.079822 
3892.000000	99.079051 
3891.000000	99.078635 
3890.000000	99.078287 
3889.000000	99.078279 
3888.000000	99.078777 
3887.000000	99.079145 
3886.000000	99.078848 
3885.000000	99.078191 
3884.000000	99.077745 
3883.000000	99.077364 
3882.000000	99.076603 
3881.000000	99.075688 
3880.000000	99.075199 
3879.000000	99.075146 
3878.000000	99.075102 
3877.000000	99.074762 
3876.000000	99.074039 
3875.000000	99.073002 
3874.000000	99.071928 
3873.000000	99.071229 
3872.000000	99.071047 
3871.000000	99.071011 
3870.000000	99.070646 
3869.000000	99.070015 
3868.000000	99.069510 
3867.000000	99.069150 
3866.000000	99.068510 
3865.000000	99.067480 
3864.000000	99.066720 
3863.000000	99.066656 
3862.000000	99.066893 
3861.000000	99.066909 
3860.000000	99.066684 
3859.000000	99.066278 
3858.000000	99.065615 
3857.000000	99.064626 
3856.000000	99.063682 
3855.000000	99.062725 
3854.000000	99.061548 
3853.000000	99.060824 
3852.000000	99.060998 
3851.000000	99.061755 
3850.000000	99.062600 
3849.000000	99.063200 
3848.000000	99.063833 
3847.000000	99.064872 
3846.000000	99.065871 
3845.000000	99.066249 
3844.000000	99.066145 
3843.000000	99.065789 
3842.000000	99.065307 
3841.000000	99.065117 
3840.000000	99.065467 
3839.000000	99.066198 
3838.000000	99.066959 
3837.000000	99.067231 
3836.000000	99.066876 
3835.000000	99.066067 
3834.000000	99.065252 
3833.000000	99.064896 
3832.000000	99.065110 
3831.000000	99.065710 
3830.000000	99.066289 
3829.000000	99.066366 
3828.000000	99.065943 
3827.000000	99.065455 
3826.000000	99.065346 
3825.000000	99.066058 
3824.000000	99.067651 
3823.000000	99.069059 
3822.000000	99.069206 
3821.000000	99.068539 
3820.000000	99.068391 
3819.000000	99.069004 
3818.000000	99.069433 
3817.000000	99.068554 
3816.000000	99.066226 
3815.000000	99.063663 
3814.000000	99.062085 
3813.000000	99.061298 
3812.000000	99.060401 
3811.000000	99.059474 
3810.000000	99.059373 
3809.000000	99.060308 
3808.000000	99.061375 
3807.000000	99.061557 
3806.000000	99.061029 
3805.000000	99.060617 
3804.000000	99.060267 
3803.000000	99.059173 
3802.000000	99.057234 
3801.000000	99.055612 
3800.000000	99.055369 
3799.000000	99.055953 
3798.000000	99.056053 
3797.000000	99.055411 
3796.000000	99.054981 
3795.000000	99.055286 
3794.000000	99.055418 
3793.000000	99.054033 
3792.000000	99.051010 
3791.000000	99.048078 
3790.000000	99.046917 
3789.000000	99.047439 
3788.000000	99.048272 
3787.000000	99.048510 
3786.000000	99.048314 
3785.000000	99.048206 
3784.000000	99.048387 
3783.000000	99.049018 
3782.000000	99.049989 
3781.000000	99.050697 
3780.000000	99.050920 
3779.000000	99.051146 
3778.000000	99.051613 
3777.000000	99.052196 
3776.000000	99.052846 
3775.000000	99.053255 
3774.000000	99.053468 
3773.000000	99.054334 
3772.000000	99.056660 
3771.000000	99.059825 
3770.000000	99.062681 
3769.000000	99.064982 
3768.000000	99.066577 
3767.000000	99.067119 
3766.000000	99.066634 
3765.000000	99.065448 
3764.000000	99.064533 
3763.000000	99.064829 
3762.000000	99.065729 
3761.000000	99.065876 
3760.000000	99.065973 
3759.000000	99.068563 
3758.000000	99.073143 
3757.000000	99.076268 
3756.000000	99.077265 
3755.000000	99.077988 
3754.000000	99.079545 
3753.000000	99.081306 
3752.000000	99.083920 
3751.000000	99.089684 
3750.000000	99.095324 
3749.000000	99.094958 
3748.000000	99.089660 
3747.000000	99.085836 
3746.000000	99.086143 
3745.000000	99.085641 
3744.000000	99.080285 
3743.000000	99.074140 
3742.000000	99.072125 
3741.000000	99.072604 
3740.000000	99.072222 
3739.000000	99.072768 
3738.000000	99.076767 
3737.000000	99.080861 
3736.000000	99.082143 
3735.000000	99.082837 
3734.000000	99.084743 
3733.000000	99.083809 
3732.000000	99.076804 
3731.000000	99.067730 
3730.000000	99.061988 
3729.000000	99.060067 
3728.000000	99.057975 
3727.000000	99.052430 
3726.000000	99.045101 
3725.000000	99.039858 
3724.000000	99.037142 
3723.000000	99.034341 
3722.000000	99.030578 
3721.000000	99.026711 
3720.000000	99.022528 
3719.000000	99.018551 
3718.000000	99.015600 
3717.000000	99.013719 
3716.000000	99.014001 
3715.000000	99.017024 
3714.000000	99.020672 
3713.000000	99.020903 
3712.000000	99.016507 
3711.000000	99.009673 
3710.000000	99.001584 
3709.000000	98.992827 
3708.000000	98.984337 
3707.000000	98.976357 
3706.000000	98.968708 
3705.000000	98.960815 
3704.000000	98.951590 
3703.000000	98.940424 
3702.000000	98.928493 
3701.000000	98.916937 
3700.000000	98.904784 
3699.000000	98.891237 
3698.000000	98.877183 
3697.000000	98.864091 
3696.000000	98.854529 
3695.000000	98.850561 
3694.000000	98.849667 
3693.000000	98.846102 
3692.000000	98.837423 
3691.000000	98.827233 
3690.000000	98.820369 
3689.000000	98.816090 
3688.000000	98.809127 
3687.000000	98.798516 
3686.000000	98.789579 
3685.000000	98.786174 
3684.000000	98.788218 
3683.000000	98.794195 
3682.000000	98.801372 
3681.000000	98.804319 
3680.000000	98.798021 
3679.000000	98.783863 
3678.000000	98.770043 
3677.000000	98.762261 
3676.000000	98.760166 
3675.000000	98.763006 
3674.000000	98.768219 
3673.000000	98.771998 
3672.000000	98.771545 
3671.000000	98.765500 
3670.000000	98.758542 
3669.000000	98.756407 
3668.000000	98.757381 
3667.000000	98.757299 
3666.000000	98.756803 
3665.000000	98.758602 
3664.000000	98.762485 
3663.000000	98.765687 
3662.000000	98.765875 
3661.000000	98.763752 
3660.000000	98.763167 
3659.000000	98.767487 
3658.000000	98.776918 
3657.000000	98.788724 
3656.000000	98.800173 
3655.000000	98.811483 
3654.000000	98.823896 
3653.000000	98.836440 
3652.000000	98.845988 
3651.000000	98.851383 
3650.000000	98.857079 
3649.000000	98.866307 
3648.000000	98.874543 
3647.000000	98.877774 
3646.000000	98.878794 
3645.000000	98.881727 
3644.000000	98.887132 
3643.000000	98.893299 
3642.000000	98.897917 
3641.000000	98.900282 
3640.000000	98.901810 
3639.000000	98.904611 
3638.000000	98.910497 
3637.000000	98.919816 
3636.000000	98.931162 
3635.000000	98.941737 
3634.000000	98.950051 
3633.000000	98.958410 
3632.000000	98.969826 
3631.000000	98.982961 
3630.000000	98.992036 
3629.000000	98.995196 
3628.000000	98.995659 
3627.000000	98.996099 
3626.000000	98.997013 
3625.000000	98.997686 
3624.000000	98.997762 
3623.000000	98.997445 
3622.000000	98.996699 
3621.000000	98.994569 
3620.000000	98.991914 
3619.000000	98.991973 
3618.000000	98.995308 
3617.000000	98.999177 
3616.000000	99.002961 
3615.000000	99.008035 
3614.000000	99.015427 
3613.000000	99.024973 
3612.000000	99.034829 
3611.000000	99.042155 
3610.000000	99.044873 
3609.000000	99.042911 
3608.000000	99.038587 
3607.000000	99.034520 
3606.000000	99.030922 
3605.000000	99.026778 
3604.000000	99.021812 
3603.000000	99.016671 
3602.000000	99.012822 
3601.000000	99.011546 
3600.000000	99.013798 
3599.000000	99.019631 
3598.000000	99.026634 
3597.000000	99.031207 
3596.000000	99.032243 
3595.000000	99.031574 
3594.000000	99.031953 
3593.000000	99.034794 
3592.000000	99.038966 
3591.000000	99.042476 
3590.000000	99.043683 
3589.000000	99.042124 
3588.000000	99.039225 
3587.000000	99.036881 
3586.000000	99.034777 
3585.000000	99.032009 
3584.000000	99.029123 
3583.000000	99.027354 
3582.000000	99.026965 
3581.000000	99.027055 
3580.000000	99.026690 
3579.000000	99.026019 
3578.000000	99.026028 
3577.000000	99.027425 
3576.000000	99.030000 
3575.000000	99.032690 
3574.000000	99.034106 
3573.000000	99.033739 
3572.000000	99.032340 
3571.000000	99.031342 
3570.000000	99.031711 
3569.000000	99.032952 
3568.000000	99.033794 
3567.000000	99.033791 
3566.000000	99.033262 
3565.000000	99.032639 
3564.000000	99.032389 
3563.000000	99.032567 
3562.000000	99.032568 
3561.000000	99.031784 
3560.000000	99.030265 
3559.000000	99.028848 
3558.000000	99.028284 
3557.000000	99.028420 
3556.000000	99.028448 
3555.000000	99.028047 
3554.000000	99.027840 
3553.000000	99.028651 
3552.000000	99.030442 
3551.000000	99.032289 
3550.000000	99.033480 
3549.000000	99.034185 
3548.000000	99.034951 
3547.000000	99.036025 
3546.000000	99.036970 
3545.000000	99.037068 
3544.000000	99.036181 
3543.000000	99.035050 
3542.000000	99.034592 
3541.000000	99.034974 
3540.000000	99.035439 
3539.000000	99.035148 
3538.000000	99.034026 
3537.000000	99.032763 
3536.000000	99.032088 
3535.000000	99.031978 
3534.000000	99.031957 
3533.000000	99.031765 
3532.000000	99.031521 
3531.000000	99.031374 
3530.000000	99.031347 
3529.000000	99.031655 
3528.000000	99.032664 
3527.000000	99.034334 
3526.000000	99.035920 
3525.000000	99.036543 
3524.000000	99.036025 
3523.000000	99.035020 
3522.000000	99.034276 
3521.000000	99.034082 
3520.000000	99.034354 
3519.000000	99.034929 
3518.000000	99.035571 
3517.000000	99.035939 
3516.000000	99.035888 
3515.000000	99.035697 
3514.000000	99.035985 
3513.000000	99.037202 
3512.000000	99.039178 
3511.000000	99.041272 
3510.000000	99.042976 
3509.000000	99.044120 
3508.000000	99.044609 
3507.000000	99.044409 
3506.000000	99.043791 
3505.000000	99.043412 
3504.000000	99.043840 
3503.000000	99.044984 
3502.000000	99.046137 
3501.000000	99.046729 
3500.000000	99.046879 
3499.000000	99.047134 
3498.000000	99.047951 
3497.000000	99.049429 
3496.000000	99.051286 
3495.000000	99.052914 
3494.000000	99.053689 
3493.000000	99.053439 
3492.000000	99.052549 
3491.000000	99.051608 
3490.000000	99.051016 
3489.000000	99.050904 
3488.000000	99.051206 
3487.000000	99.051673 
3486.000000	99.051938 
3485.000000	99.051768 
3484.000000	99.051302 
3483.000000	99.050978 
3482.000000	99.051139 
3481.000000	99.051712 
3480.000000	99.052313 
3479.000000	99.052637 
3478.000000	99.052732 
3477.000000	99.052846 
3476.000000	99.053112 
3475.000000	99.053412 
3474.000000	99.053564 
3473.000000	99.053540 
3472.000000	99.053477 
3471.000000	99.053502 
3470.000000	99.053629 
3469.000000	99.053799 
3468.000000	99.053947 
3467.000000	99.054013 
3466.000000	99.053963 
3465.000000	99.053824 
3464.000000	99.053708 
3463.000000	99.053730 
3462.000000	99.053899 
3461.000000	99.054110 
3460.000000	99.054246 
3459.000000	99.054297 
3458.000000	99.054327 
3457.000000	99.054401 
3456.000000	99.054527 
3455.000000	99.054677 
3454.000000	99.054827 
3453.000000	99.054975 
3452.000000	99.055133 
3451.000000	99.055303 
3450.000000	99.055477 
3449.000000	99.055642 
3448.000000	99.055810 
3447.000000	99.056029 
3446.000000	99.056322 
3445.000000	99.056629 
3444.000000	99.056862 
3443.000000	99.057025 
3442.000000	99.057243 
3441.000000	99.057643 
3440.000000	99.058224 
3439.000000	99.058815 
3438.000000	99.059218 
3437.000000	99.059390 
3436.000000	99.059472 
3435.000000	99.059639 
3434.000000	99.059922 
3433.000000	99.060216 
3432.000000	99.060456 
3431.000000	99.060664 
3430.000000	99.060820 
3429.000000	99.060811 
3428.000000	99.060568 
3427.000000	99.060220 
3426.000000	99.060007 
3425.000000	99.060060 
3424.000000	99.060332 
3423.000000	99.060706 
3422.000000	99.061117 
3421.000000	99.061549 
3420.000000	99.061931 
3419.000000	99.062149 
3418.000000	99.062190 
3417.000000	99.062200 
3416.000000	99.062355 
3415.000000	99.062699 
3414.000000	99.063142 
3413.000000	99.063591 
3412.000000	99.064025 
3411.000000	99.064439 
3410.000000	99.064803 
3409.000000	99.065085 
3408.000000	99.065249 
3407.000000	99.065228 
3406.000000	99.064977 
3405.000000	99.064614 
3404.000000	99.064417 
3403.000000	99.064576 
3402.000000	99.065006 
3401.000000	99.065403 
3400.000000	99.065552 
3399.000000	99.065496 
3398.000000	99.065419 
3397.000000	99.065431 
3396.000000	99.065500 
3395.000000	99.065587 
3394.000000	99.065756 
3393.000000	99.066101 
3392.000000	99.066577 
3391.000000	99.066970 
3390.000000	99.067087 
3389.000000	99.066930 
3388.000000	99.066680 
3387.000000	99.066538 
3386.000000	99.066624 
3385.000000	99.066991 
3384.000000	99.067634 
3383.000000	99.068446 
3382.000000	99.069242 
3381.000000	99.069898 
3380.000000	99.070410 
3379.000000	99.070802 
3378.000000	99.071022 
3377.000000	99.071001 
3376.000000	99.070734 
3375.000000	99.070305 
3374.000000	99.069884 
3373.000000	99.069715 
3372.000000	99.069988 
3371.000000	99.070671 
3370.000000	99.071470 
3369.000000	99.072049 
3368.000000	99.072286 
3367.000000	99.072234 
3366.000000	99.071984 
3365.000000	99.071666 
3364.000000	99.071530 
3363.000000	99.071853 
3362.000000	99.072680 
3361.000000	99.073735 
3360.000000	99.074634 
3359.000000	99.075214 
3358.000000	99.075582 
3357.000000	99.075927 
3356.000000	99.076336 
3355.000000	99.076750 
3354.000000	99.077057 
3353.000000	99.077217 
3352.000000	99.077288 
3351.000000	99.077360 
3350.000000	99.077476 
3349.000000	99.077641 
3348.000000	99.077853 
3347.000000	99.078113 
3346.000000	99.078412 
3345.000000	99.078731 
3344.000000	99.079066 
3343.000000	99.079407 
3342.000000	99.079709 
3341.000000	99.079902 
3340.000000	99.079899 
3339.000000	99.079624 
3338.000000	99.079130 
3337.000000	99.078734 
3336.000000	99.078876 
3335.000000	99.079728 
3334.000000	99.080975 
3333.000000	99.082076 
3332.000000	99.082718 
3331.000000	99.082897 
3330.000000	99.082681 
3329.000000	99.082189 
3328.000000	99.081776 
3327.000000	99.081908 
3326.000000	99.082657 
3325.000000	99.083431 
3324.000000	99.083468 
3323.000000	99.082578 
3322.000000	99.081316 
3321.000000	99.080540 
3320.000000	99.080821 
3319.000000	99.082226 
3318.000000	99.084378 
3317.000000	99.086590 
3316.000000	99.088149 
3315.000000	99.088750 
3314.000000	99.088715 
3313.000000	99.088708 
3312.000000	99.089019 
3311.000000	99.089244 
3310.000000	99.088860 
3309.000000	99.087967 
3308.000000	99.087197 
3307.000000	99.086844 
3306.000000	99.086414 
3305.000000	99.085264 
3304.000000	99.083464 
3303.000000	99.081803 
3302.000000	99.081000 
3301.000000	99.081120 
3300.000000	99.081684 
3299.000000	99.082134 
3298.000000	99.082199 
3297.000000	99.081972 
3296.000000	99.081813 
3295.000000	99.082098 
3294.000000	99.082932 
3293.000000	99.084019 
3292.000000	99.084775 
3291.000000	99.084686 
3290.000000	99.083712 
3289.000000	99.082404 
3288.000000	99.081500 
3287.000000	99.081288 
3286.000000	99.081439 
3285.000000	99.081505 
3284.000000	99.081458 
3283.000000	99.081623 
3282.000000	99.082158 
3281.000000	99.082862 
3280.000000	99.083450 
3279.000000	99.083904 
3278.000000	99.084425 
3277.000000	99.085077 
3276.000000	99.085574 
3275.000000	99.085524 
3274.000000	99.084875 
3273.000000	99.083979 
3272.000000	99.083279 
3271.000000	99.082961 
3270.000000	99.082973 
3269.000000	99.083213 
3268.000000	99.083589 
3267.000000	99.083954 
3266.000000	99.084141 
3265.000000	99.084102 
3264.000000	99.083932 
3263.000000	99.083749 
3262.000000	99.083582 
3261.000000	99.083418 
3260.000000	99.083285 
3259.000000	99.083243 
3258.000000	99.083300 
3257.000000	99.083404 
3256.000000	99.083482 
3255.000000	99.083485 
3254.000000	99.083411 
3253.000000	99.083298 
3252.000000	99.083212 
3251.000000	99.083194 
3250.000000	99.083238 
3249.000000	99.083310 
3248.000000	99.083383 
3247.000000	99.083442 
3246.000000	99.083450 
3245.000000	99.083372 
3244.000000	99.083219 
3243.000000	99.083065 
3242.000000	99.082971 
3241.000000	99.082929 
3240.000000	99.082866 
3239.000000	99.082741 
3238.000000	99.082596 
3237.000000	99.082523 
3236.000000	99.082578 
3235.000000	99.082739 
3234.000000	99.082891 
3233.000000	99.082891 
3232.000000	99.082666 
3231.000000	99.082281 
3230.000000	99.081899 
3229.000000	99.081626 
3228.000000	99.081435 
3227.000000	99.081244 
3226.000000	99.081058 
3225.000000	99.081014 
3224.000000	99.081269 
3223.000000	99.081821 
3222.000000	99.082397 
3221.000000	99.082610 
3220.000000	99.082287 
3219.000000	99.081628 
3218.000000	99.081035 
3217.000000	99.080724 
3216.000000	99.080604 
3215.000000	99.080505 
3214.000000	99.080402 
3213.000000	99.080351 
3212.000000	99.080334 
3211.000000	99.080261 
3210.000000	99.080099 
3209.000000	99.079851 
3208.000000	99.079426 
3207.000000	99.078681 
3206.000000	99.077673 
3205.000000	99.076772 
3204.000000	99.076382 
3203.000000	99.076581 
3202.000000	99.077089 
3201.000000	99.077562 
3200.000000	99.077824 
3199.000000	99.077803 
3198.000000	99.077398 
3197.000000	99.076551 
3196.000000	99.075431 
3195.000000	99.074422 
3194.000000	99.073867 
3193.000000	99.073825 
3192.000000	99.074107 
3191.000000	99.074543 
3190.000000	99.075156 
3189.000000	99.076036 
3188.000000	99.077087 
3187.000000	99.077924 
3186.000000	99.078080 
3185.000000	99.077428 
3184.000000	99.076406 
3183.000000	99.075766 
3182.000000	99.075919 
3181.000000	99.076617 
3180.000000	99.077224 
3179.000000	99.077333 
3178.000000	99.077047 
3177.000000	99.076775 
3176.000000	99.076829 
3175.000000	99.077198 
3174.000000	99.077592 
3173.000000	99.077653 
3172.000000	99.077247 
3171.000000	99.076606 
3170.000000	99.076153 
3169.000000	99.076109 
3168.000000	99.076281 
3167.000000	99.076297 
3166.000000	99.076015 
3165.000000	99.075696 
3164.000000	99.075724 
3163.000000	99.076206 
3162.000000	99.076841 
3161.000000	99.077187 
3160.000000	99.077132 
3159.000000	99.077078 
3158.000000	99.077594 
3157.000000	99.078822 
3156.000000	99.080269 
3155.000000	99.081206 
3154.000000	99.081262 
3153.000000	99.080567 
3152.000000	99.079397 
3151.000000	99.077798 
3150.000000	99.075618 
3149.000000	99.072914 
3148.000000	99.070292 
3147.000000	99.068711 
3146.000000	99.068795 
3145.000000	99.070359 
3144.000000	99.072670 
3143.000000	99.075179 
3142.000000	99.077770 
3141.000000	99.080217 
3140.000000	99.081795 
3139.000000	99.081849 
3138.000000	99.080638 
3137.000000	99.079233 
3136.000000	99.078534 
3135.000000	99.078633 
3134.000000	99.079105 
3133.000000	99.079490 
3132.000000	99.079388 
3131.000000	99.078550 
3130.000000	99.077233 
3129.000000	99.076250 
3128.000000	99.076300 
3127.000000	99.077313 
3126.000000	99.078653 
3125.000000	99.079823 
3124.000000	99.080751 
3123.000000	99.081456 
3122.000000	99.081786 
3121.000000	99.081608 
3120.000000	99.081049 
3119.000000	99.080408 
3118.000000	99.079954 
3117.000000	99.079840 
3116.000000	99.080052 
3115.000000	99.080371 
3114.000000	99.080522 
3113.000000	99.080440 
3112.000000	99.080328 
3111.000000	99.080421 
3110.000000	99.080758 
3109.000000	99.081154 
3108.000000	99.081343 
3107.000000	99.081119 
3106.000000	99.080484 
3105.000000	99.079665 
3104.000000	99.078888 
3103.000000	99.078177 
3102.000000	99.077423 
3101.000000	99.076726 
3100.000000	99.076495 
3099.000000	99.077024 
3098.000000	99.077937 
3097.000000	99.078295 
3096.000000	99.077542 
3095.000000	99.076186 
3094.000000	99.075358 
3093.000000	99.075701 
3092.000000	99.076883 
3091.000000	99.077915 
3090.000000	99.077843 
3089.000000	99.076393 
3088.000000	99.074326 
3087.000000	99.073024 
3086.000000	99.073426 
3085.000000	99.075275 
3084.000000	99.077347 
3083.000000	99.078394 
3082.000000	99.077920 
3081.000000	99.076504 
3080.000000	99.075466 
3079.000000	99.075813 
3078.000000	99.077163 
3077.000000	99.077941 
3076.000000	99.077026 
3075.000000	99.075117 
3074.000000	99.074142 
3073.000000	99.074999 
3072.000000	99.076249 
3071.000000	99.075501 
3070.000000	99.072060 
3069.000000	99.067681 
3068.000000	99.064347 
3067.000000	99.062001 
3066.000000	99.059438 
3065.000000	99.057052 
3064.000000	99.057033 
3063.000000	99.060179 
3062.000000	99.063891 
3061.000000	99.064779 
3060.000000	99.062642 
3059.000000	99.060424 
3058.000000	99.060188 
3057.000000	99.060469 
3056.000000	99.058316 
3055.000000	99.052957 
3054.000000	99.046589 
3053.000000	99.041870 
3052.000000	99.039473 
3051.000000	99.038095 
3050.000000	99.036116 
3049.000000	99.032920 
3048.000000	99.028940 
3047.000000	99.024984 
3046.000000	99.021638 
3045.000000	99.019005 
3044.000000	99.016767 
3043.000000	99.014458 
3042.000000	99.011470 
3041.000000	99.006775 
3040.000000	98.999046 
3039.000000	98.987946 
3038.000000	98.975238 
3037.000000	98.963595 
3036.000000	98.953660 
3035.000000	98.943202 
3034.000000	98.930188 
3033.000000	98.915632 
3032.000000	98.902138 
3031.000000	98.890203 
3030.000000	98.877241 
3029.000000	98.860731 
3028.000000	98.841180 
3027.000000	98.821231 
3026.000000	98.802616 
3025.000000	98.784887 
3024.000000	98.766654 
3023.000000	98.747120 
3022.000000	98.726486 
3021.000000	98.705583 
3020.000000	98.685085 
3019.000000	98.664722 
3018.000000	98.643303 
3017.000000	98.619888 
3016.000000	98.594684 
3015.000000	98.568591 
3014.000000	98.542217 
3013.000000	98.515655 
3012.000000	98.488747 
3011.000000	98.461121 
3010.000000	98.432474 
3009.000000	98.403189 
3008.000000	98.374124 
3007.000000	98.345329 
3006.000000	98.315830 
3005.000000	98.285470 
3004.000000	98.256029 
3003.000000	98.229030 
3002.000000	98.203055 
3001.000000	98.175104 
3000.000000	98.144821 
2999.000000	98.115658 
2998.000000	98.091386 
2997.000000	98.073056 
2996.000000	98.059510 
2995.000000	98.048017 
2994.000000	98.032434 
2993.000000	98.003560 
2992.000000	97.956343 
2991.000000	97.898052 
2990.000000	97.846238 
2989.000000	97.815851 
2988.000000	97.809045 
2987.000000	97.817292 
2986.000000	97.830635 
2985.000000	97.843540 
2984.000000	97.853909 
2983.000000	97.860900 
2982.000000	97.864978 
2981.000000	97.867689 
2980.000000	97.869703 
2979.000000	97.869961 
2978.000000	97.867526 
2977.000000	97.863078 
2976.000000	97.857655 
2975.000000	97.851141 
2974.000000	97.843632 
2973.000000	97.837821 
2972.000000	97.838297 
2971.000000	97.847937 
2970.000000	97.865567 
2969.000000	97.887202 
2968.000000	97.909103 
2967.000000	97.929976 
2966.000000	97.951081 
2965.000000	97.974446 
2964.000000	98.000311 
2963.000000	98.025948 
2962.000000	98.047346 
2961.000000	98.062472 
2960.000000	98.072897 
2959.000000	98.082567 
2958.000000	98.095240 
2957.000000	98.112606 
2956.000000	98.133601 
2955.000000	98.154987 
2954.000000	98.173335 
2953.000000	98.187463 
2952.000000	98.199183 
2951.000000	98.211454 
2950.000000	98.225622 
2949.000000	98.240383 
2948.000000	98.253202 
2947.000000	98.262446 
2946.000000	98.268507 
2945.000000	98.273217 
2944.000000	98.278170 
2943.000000	98.283833 
2942.000000	98.290113 
2941.000000	98.297010 
2940.000000	98.304407 
2939.000000	98.311729 
2938.000000	98.318358 
2937.000000	98.324414 
2936.000000	98.330779 
2935.000000	98.338182 
2934.000000	98.346409 
2933.000000	98.354332 
2932.000000	98.360390 
2931.000000	98.363084 
2930.000000	98.361624 
2929.000000	98.356606 
2928.000000	98.350110 
2927.000000	98.344756 
2926.000000	98.342248 
2925.000000	98.342313 
2924.000000	98.342935 
2923.000000	98.341964 
2922.000000	98.338855 
2921.000000	98.334725 
2920.000000	98.330503 
2919.000000	98.325427 
2918.000000	98.317737 
2917.000000	98.306525 
2916.000000	98.292319 
2915.000000	98.276176 
2914.000000	98.259079 
2913.000000	98.242410 
2912.000000	98.228102 
2911.000000	98.217590 
2910.000000	98.210733 
2909.000000	98.206087 
2908.000000	98.202185 
2907.000000	98.197867 
2906.000000	98.191203 
2905.000000	98.178882 
2904.000000	98.158580 
2903.000000	98.133510 
2902.000000	98.114108 
2901.000000	98.111915 
2900.000000	98.131091 
2899.000000	98.163966 
2898.000000	98.196318 
2897.000000	98.217623 
2896.000000	98.226588 
2895.000000	98.228328 
2894.000000	98.228695 
2893.000000	98.231058 
2892.000000	98.236220 
2891.000000	98.243241 
2890.000000	98.250323 
2889.000000	98.255861 
2888.000000	98.259225 
2887.000000	98.260917 
2886.000000	98.262437 
2885.000000	98.266028 
2884.000000	98.273860 
2883.000000	98.286822 
2882.000000	98.304049 
2881.000000	98.323754 
2880.000000	98.344418 
2879.000000	98.365322 
2878.000000	98.386198 
2877.000000	98.406465 
2876.000000	98.424789 
2875.000000	98.439819 
2874.000000	98.451769 
2873.000000	98.462778 
2872.000000	98.474803 
2871.000000	98.487290 
2870.000000	98.498003 
2869.000000	98.506274 
2868.000000	98.514466 
2867.000000	98.525860 
2866.000000	98.542019 
2865.000000	98.562669 
2864.000000	98.587000 
2863.000000	98.613950 
2862.000000	98.641721 
2861.000000	98.668263 
2860.000000	98.692648 
2859.000000	98.715520 
2858.000000	98.738060 
2857.000000	98.760666 
2856.000000	98.782344 
2855.000000	98.801256 
2854.000000	98.816393 
2853.000000	98.828684 
2852.000000	98.839597 
2851.000000	98.848911 
2850.000000	98.854981 
2849.000000	98.857237 
2848.000000	98.857477 
2847.000000	98.858441 
2846.000000	98.861875 
2845.000000	98.868163 
2844.000000	98.876668 
2843.000000	98.885800 
2842.000000	98.893621 
2841.000000	98.899156 
2840.000000	98.902715 
2839.000000	98.904860 
2838.000000	98.906082 
2837.000000	98.907744 
2836.000000	98.911746 
2835.000000	98.918199 
2834.000000	98.924710 
2833.000000	98.929210 
2832.000000	98.932477 
2831.000000	98.936440 
2830.000000	98.940913 
2829.000000	98.943895 
2828.000000	98.944733 
2827.000000	98.945057 
2826.000000	98.946442 
2825.000000	98.948718 
2824.000000	98.951146 
2823.000000	98.953888 
2822.000000	98.957484 
2821.000000	98.961694 
2820.000000	98.965627 
2819.000000	98.968581 
2818.000000	98.970316 
2817.000000	98.970939 
2816.000000	98.970901 
2815.000000	98.970842 
2814.000000	98.971265 
2813.000000	98.972474 
2812.000000	98.974700 
2811.000000	98.977859 
2810.000000	98.981253 
2809.000000	98.984009 
2808.000000	98.985901 
2807.000000	98.987318 
2806.000000	98.988426 
2805.000000	98.988865 
2804.000000	98.988430 
2803.000000	98.987635 
2802.000000	98.987343 
2801.000000	98.987984 
2800.000000	98.989293 
2799.000000	98.990657 
2798.000000	98.991651 
2797.000000	98.992312 
2796.000000	98.992979 
2795.000000	98.993901 
2794.000000	98.995071 
2793.000000	98.996332 
2792.000000	98.997458 
2791.000000	98.998157 
2790.000000	98.998303 
2789.000000	98.998221 
2788.000000	98.998482 
2787.000000	98.999322 
2786.000000	99.000482 
2785.000000	99.001660 
2784.000000	99.002836 
2783.000000	99.004037 
2782.000000	99.005049 
2781.000000	99.005643 
2780.000000	99.005968 
2779.000000	99.006498 
2778.000000	99.007523 
2777.000000	99.008887 
2776.000000	99.010167 
2775.000000	99.011066 
2774.000000	99.011639 
2773.000000	99.012191 
2772.000000	99.012992 
2771.000000	99.014033 
2770.000000	99.015051 
2769.000000	99.015812 
2768.000000	99.016340 
2767.000000	99.016819 
2766.000000	99.017362 
2765.000000	99.017927 
2764.000000	99.018456 
2763.000000	99.018968 
2762.000000	99.019543 
2761.000000	99.020232 
2760.000000	99.021015 
2759.000000	99.021820 
2758.000000	99.022582 
2757.000000	99.023294 
2756.000000	99.023989 
2755.000000	99.024687 
2754.000000	99.025371 
2753.000000	99.026024 
2752.000000	99.026677 
2751.000000	99.027394 
2750.000000	99.028181 
2749.000000	99.028955 
2748.000000	99.029636 
2747.000000	99.030251 
2746.000000	99.030906 
2745.000000	99.031665 
2744.000000	99.032489 
2743.000000	99.033289 
2742.000000	99.034032 
2741.000000	99.034732 
2740.000000	99.035385 
2739.000000	99.035970 
2738.000000	99.036519 
2737.000000	99.037147 
2736.000000	99.037929 
2735.000000	99.038799 
2734.000000	99.039586 
2733.000000	99.040198 
2732.000000	99.040699 
2731.000000	99.041240 
2730.000000	99.041918 
2729.000000	99.042729 
2728.000000	99.043600 
2727.000000	99.044454 
2726.000000	99.045239 
2725.000000	99.045933 
2724.000000	99.046545 
2723.000000	99.047098 
2722.000000	99.047619 
2721.000000	99.048123 
2720.000000	99.048613 
2719.000000	99.049086 
2718.000000	99.049567 
2717.000000	99.050101 
2716.000000	99.050693 
2715.000000	99.051256 
2714.000000	99.051673 
2713.000000	99.051921 
2712.000000	99.052117 
2711.000000	99.052418 
2710.000000	99.052877 
2709.000000	99.053419 
2708.000000	99.053955 
2707.000000	99.054470 
2706.000000	99.054982 
2705.000000	99.055460 
2704.000000	99.055846 
2703.000000	99.056152 
2702.000000	99.056488 
2701.000000	99.056956 
2700.000000	99.057519 
2699.000000	99.057994 
2698.000000	99.058218 
2697.000000	99.058183 
2696.000000	99.058039 
2695.000000	99.057996 
2694.000000	99.058190 
2693.000000	99.058595 
2692.000000	99.059006 
2691.000000	99.059183 
2690.000000	99.059080 
2689.000000	99.058898 
2688.000000	99.058841 
2687.000000	99.058873 
2686.000000	99.058807 
2685.000000	99.058631 
2684.000000	99.058579 
2683.000000	99.058794 
2682.000000	99.059081 
2681.000000	99.059135 
2680.000000	99.058845 
2679.000000	99.058328 
2678.000000	99.057785 
2677.000000	99.057440 
2676.000000	99.057451 
2675.000000	99.057756 
2674.000000	99.058091 
2673.000000	99.058223 
2672.000000	99.058055 
2671.000000	99.057545 
2670.000000	99.056774 
2669.000000	99.056098 
2668.000000	99.055906 
2667.000000	99.056119 
2666.000000	99.056230 
2665.000000	99.055946 
2664.000000	99.055445 
2663.000000	99.054879 
2662.000000	99.054057 
2661.000000	99.052889 
2660.000000	99.051788 
2659.000000	99.051216 
2658.000000	99.051046 
2657.000000	99.050727 
2656.000000	99.049926 
2655.000000	99.048742 
2654.000000	99.047463 
2653.000000	99.046397 
2652.000000	99.045783 
2651.000000	99.045519 
2650.000000	99.045093 
2649.000000	99.044086 
2648.000000	99.042658 
2647.000000	99.041378 
2646.000000	99.040737 
2645.000000	99.040987 
2644.000000	99.042146 
2643.000000	99.043818 
2642.000000	99.045147 
2641.000000	99.045417 
2640.000000	99.044691 
2639.000000	99.043708 
2638.000000	99.043195 
2637.000000	99.043380 
2636.000000	99.044089 
2635.000000	99.045001 
2634.000000	99.045778 
2633.000000	99.046175 
2632.000000	99.046144 
2631.000000	99.045795 
2630.000000	99.045277 
2629.000000	99.044738 
2628.000000	99.044349 
2627.000000	99.044239 
2626.000000	99.044346 
2625.000000	99.044429 
2624.000000	99.044304 
2623.000000	99.044042 
2622.000000	99.043896 
2621.000000	99.044030 
2620.000000	99.044368 
2619.000000	99.044698 
2618.000000	99.044871 
2617.000000	99.044876 
2616.000000	99.044756 
2615.000000	99.044589 
2614.000000	99.044509 
2613.000000	99.044650 
2612.000000	99.044997 
2611.000000	99.045402 
2610.000000	99.045729 
2609.000000	99.045977 
2608.000000	99.046203 
2607.000000	99.046425 
2606.000000	99.046644 
2605.000000	99.046867 
2604.000000	99.047089 
2603.000000	99.047306 
2602.000000	99.047520 
2601.000000	99.047738 
2600.000000	99.047965 
2599.000000	99.048205 
2598.000000	99.048459 
2597.000000	99.048725 
2596.000000	99.049002 
2595.000000	99.049289 
2594.000000	99.049581 
2593.000000	99.049880 
2592.000000	99.050189 
2591.000000	99.050512 
2590.000000	99.050852 
2589.000000	99.051208 
2588.000000	99.051581 
2587.000000	99.051969 
2586.000000	99.052365 
2585.000000	99.052764 
2584.000000	99.053165 
2583.000000	99.053573 
2582.000000	99.053991 
2581.000000	99.054423 
2580.000000	99.054866 
2579.000000	99.055313 
2578.000000	99.055760 
2577.000000	99.056204 
2576.000000	99.056645 
2575.000000	99.057082 
2574.000000	99.057512 
2573.000000	99.057934 
2572.000000	99.058345 
2571.000000	99.058746 
2570.000000	99.059132 
2569.000000	99.059508 
2568.000000	99.059882 
2567.000000	99.060257 
2566.000000	99.060629 
2565.000000	99.060989 
2564.000000	99.061338 
2563.000000	99.061682 
2562.000000	99.062031 
2561.000000	99.062387 
2560.000000	99.062749 
2559.000000	99.063111 
2558.000000	99.063462 
2557.000000	99.063791 
2556.000000	99.064097 
2555.000000	99.064384 
2554.000000	99.064658 
2553.000000	99.064924 
2552.000000	99.065191 
2551.000000	99.065466 
2550.000000	99.065734 
2549.000000	99.065965 
2548.000000	99.066146 
2547.000000	99.066296 
2546.000000	99.066449 
2545.000000	99.066617 
2544.000000	99.066795 
2543.000000	99.066977 
2542.000000	99.067163 
2541.000000	99.067347 
2540.000000	99.067527 
2539.000000	99.067685 
2538.000000	99.067740 
2537.000000	99.067620 
2536.000000	99.067382 
2535.000000	99.067208 
2534.000000	99.067209 
2533.000000	99.067320 
2532.000000	99.067390 
2531.000000	99.067331 
2530.000000	99.067137 
2529.000000	99.066854 
2528.000000	99.066603 
2527.000000	99.066522 
2526.000000	99.066604 
2525.000000	99.066657 
2524.000000	99.066535 
2523.000000	99.066329 
2522.000000	99.066235 
2521.000000	99.066318 
2520.000000	99.066503 
2519.000000	99.066670 
2518.000000	99.066678 
2517.000000	99.066466 
2516.000000	99.066233 
2515.000000	99.066379 
2514.000000	99.067148 
2513.000000	99.068360 
2512.000000	99.069491 
2511.000000	99.070035 
2510.000000	99.069765 
2509.000000	99.068883 
2508.000000	99.067982 
2507.000000	99.067539 
2506.000000	99.067458 
2505.000000	99.067257 
2504.000000	99.066712 
2503.000000	99.066039 
2502.000000	99.065448 
2501.000000	99.064963 
2500.000000	99.064740 
2499.000000	99.065131 
2498.000000	99.066229 
2497.000000	99.067649 
2496.000000	99.068853 
2495.000000	99.069462 
2494.000000	99.069300 
2493.000000	99.068574 
2492.000000	99.068084 
2491.000000	99.068684 
2490.000000	99.070351 
2489.000000	99.072080 
2488.000000	99.072920 
2487.000000	99.072846 
2486.000000	99.072457 
2485.000000	99.072175 
2484.000000	99.071945 
2483.000000	99.071484 
2482.000000	99.070618 
2481.000000	99.069568 
2480.000000	99.068991 
2479.000000	99.069480 
2478.000000	99.071003 
2477.000000	99.072969 
2476.000000	99.074753 
2475.000000	99.075881 
2474.000000	99.075963 
2473.000000	99.075042 
2472.000000	99.073900 
2471.000000	99.073273 
2470.000000	99.072781 
2469.000000	99.071495 
2468.000000	99.069517 
2467.000000	99.068042 
2466.000000	99.067618 
2465.000000	99.067325 
2464.000000	99.066128 
2463.000000	99.064342 
2462.000000	99.063165 
2461.000000	99.063168 
2460.000000	99.063798 
2459.000000	99.064061 
2458.000000	99.063430 
2457.000000	99.062243 
2456.000000	99.061448 
2455.000000	99.061716 
2454.000000	99.062654 
2453.000000	99.063139 
2452.000000	99.062574 
2451.000000	99.061460 
2450.000000	99.060614 
2449.000000	99.060310 
2448.000000	99.060377 
2447.000000	99.060629 
2446.000000	99.060913 
2445.000000	99.061116 
2444.000000	99.061388 
2443.000000	99.061980 
2442.000000	99.062688 
2441.000000	99.062909 
2440.000000	99.062469 
2439.000000	99.061871 
2438.000000	99.061464 
2437.000000	99.060865 
2436.000000	99.059594 
2435.000000	99.057806 
2434.000000	99.056019 
2433.000000	99.054595 
2432.000000	99.053827 
2431.000000	99.054026 
2430.000000	99.055062 
2429.000000	99.056149 
2428.000000	99.056580 
2427.000000	99.056489 
2426.000000	99.056563 
2425.000000	99.057225 
2424.000000	99.058366 
2423.000000	99.059635 
2422.000000	99.060722 
2421.000000	99.061465 
2420.000000	99.061935 
2419.000000	99.062263 
2418.000000	99.062309 
2417.000000	99.061792 
2416.000000	99.060786 
2415.000000	99.059830 
2414.000000	99.059430 
2413.000000	99.059717 
2412.000000	99.060598 
2411.000000	99.061822 
2410.000000	99.062815 
2409.000000	99.062940 
2408.000000	99.062139 
2407.000000	99.061007 
2406.000000	99.060084 
2405.000000	99.059318 
2404.000000	99.058446 
2403.000000	99.057547 
2402.000000	99.056935 
2401.000000	99.056708 
2400.000000	99.056708 
2399.000000	99.056829 
2398.000000	99.057066 
2397.000000	99.057329 
2396.000000	99.057423 
2395.000000	99.057229 
2394.000000	99.056832 
2393.000000	99.056443 
2392.000000	99.056241 
2391.000000	99.056259 
2390.000000	99.056364 
2389.000000	99.056300 
2388.000000	99.055859 
2387.000000	99.055114 
2386.000000	99.054475 
2385.000000	99.054392 
2384.000000	99.054850 
2383.000000	99.055188 
2382.000000	99.054693 
2381.000000	99.053268 
2380.000000	99.051546 
2379.000000	99.050238 
2378.000000	99.049467 
2377.000000	99.048861 
2376.000000	99.048059 
2375.000000	99.047001 
2374.000000	99.045874 
2373.000000	99.044918 
2372.000000	99.044230 
2371.000000	99.043646 
2370.000000	99.042902 
2369.000000	99.041979 
2368.000000	99.041058 
2367.000000	99.040159 
2366.000000	99.039071 
2365.000000	99.037723 
2364.000000	99.036379 
2363.000000	99.035277 
2362.000000	99.034230 
2361.000000	99.032961 
2360.000000	99.031674 
2359.000000	99.030782 
2358.000000	99.030267 
2357.000000	99.029629 
2356.000000	99.028556 
2355.000000	99.027218 
2354.000000	99.025758 
2353.000000	99.024019 
2352.000000	99.021991 
2351.000000	99.020089 
2350.000000	99.018626 
2349.000000	99.017430 
2348.000000	99.016294 
2347.000000	99.015234 
2346.000000	99.014240 
2345.000000	99.013184 
2344.000000	99.012155 
2343.000000	99.011386 
2342.000000	99.010531 
2341.000000	99.009016 
2340.000000	99.006938 
2339.000000	99.005200 
2338.000000	99.004510 
2337.000000	99.004499 
2336.000000	99.004129 
2335.000000	99.002821 
2334.000000	99.001101 
2333.000000	99.000058 
2332.000000	99.000436 
2331.000000	99.001934 
2330.000000	99.003324 
2329.000000	99.003258 
2328.000000	99.001336 
2327.000000	98.997892 
2326.000000	98.993712 
2325.000000	98.989834 
2324.000000	98.987515 
2323.000000	98.987549 
2322.000000	98.989266 
2321.000000	98.991037 
2320.000000	98.991943 
2319.000000	98.992507 
2318.000000	98.993568 
2317.000000	98.995111 
2316.000000	98.996468 
2315.000000	98.996767 
2314.000000	98.995527 
2313.000000	98.992917 
2312.000000	98.990210 
2311.000000	98.988677 
2310.000000	98.988532 
2309.000000	98.988821 
2308.000000	98.989035 
2307.000000	98.989558 
2306.000000	98.990909 
2305.000000	98.992707 
2304.000000	98.994068 
2303.000000	98.994178 
2302.000000	98.992831 
2301.000000	98.990621 
2300.000000	98.988777 
2299.000000	98.987684 
2298.000000	98.986220 
2297.000000	98.983166 
2296.000000	98.979188 
2295.000000	98.975832 
2294.000000	98.973110 
2293.000000	98.969539 
2292.000000	98.964949 
2291.000000	98.961097 
2290.000000	98.958981 
2289.000000	98.957230 
2288.000000	98.954191 
2287.000000	98.950335 
2286.000000	98.947524 
2285.000000	98.946954 
2284.000000	98.948546 
2283.000000	98.951240 
2282.000000	98.953152 
2281.000000	98.952890 
2280.000000	98.951231 
2279.000000	98.950110 
2278.000000	98.949667 
2277.000000	98.948198 
2276.000000	98.945403 
2275.000000	98.943382 
2274.000000	98.943418 
2273.000000	98.943988 
2272.000000	98.943299 
2271.000000	98.942007 
2270.000000	98.941848 
2269.000000	98.942820 
2268.000000	98.943279 
2267.000000	98.942125 
2266.000000	98.939698 
2265.000000	98.937049 
2264.000000	98.935078 
2263.000000	98.933954 
2262.000000	98.932936 
2261.000000	98.931069 
2260.000000	98.928245 
2259.000000	98.925210 
2258.000000	98.922586 
2257.000000	98.920301 
2256.000000	98.918077 
2255.000000	98.916017 
2254.000000	98.914464 
2253.000000	98.913565 
2252.000000	98.913170 
2251.000000	98.912951 
2250.000000	98.912533 
2249.000000	98.911682 
2248.000000	98.910451 
2247.000000	98.909024 
2246.000000	98.907522 
2245.000000	98.906005 
2244.000000	98.904555 
2243.000000	98.903224 
2242.000000	98.901948 
2241.000000	98.900631 
2240.000000	98.899301 
2239.000000	98.898112 
2238.000000	98.897118 
2237.000000	98.896137 
2236.000000	98.894942 
2235.000000	98.893526 
2234.000000	98.892143 
2233.000000	98.891035 
2232.000000	98.890229 
2231.000000	98.889589 
2230.000000	98.888894 
2229.000000	98.887924 
2228.000000	98.886531 
2227.000000	98.884703 
2226.000000	98.882544 
2225.000000	98.880237 
2224.000000	98.878184 
2223.000000	98.876897 
2222.000000	98.876579 
2221.000000	98.876794 
2220.000000	98.876685 
2219.000000	98.875750 
2218.000000	98.874140 
2217.000000	98.872402 
2216.000000	98.870978 
2215.000000	98.869939 
2214.000000	98.869085 
2213.000000	98.868160 
2212.000000	98.867010 
2211.000000	98.865619 
2210.000000	98.864098 
2209.000000	98.862638 
2208.000000	98.861328 
2207.000000	98.859964 
2206.000000	98.858261 
2205.000000	98.856492 
2204.000000	98.855703 
2203.000000	98.856806 
2202.000000	98.859108 
2201.000000	98.860442 
2200.000000	98.859293 
2199.000000	98.855999 
2198.000000	98.851893 
2197.000000	98.848136 
2196.000000	98.845714 
2195.000000	98.845062 
2194.000000	98.844852 
2193.000000	98.842298 
2192.000000	98.835580 
2191.000000	98.825606 
2190.000000	98.815420 
2189.000000	98.808170 
2188.000000	98.805287 
2187.000000	98.806007 
2186.000000	98.808772 
2185.000000	98.813363 
2184.000000	98.820444 
2183.000000	98.828139 
2182.000000	98.831282 
2181.000000	98.826638 
2180.000000	98.817320 
2179.000000	98.809300 
2178.000000	98.804451 
2177.000000	98.800857 
2176.000000	98.798700 
2175.000000	98.800922 
2174.000000	98.807584 
2173.000000	98.814069 
2172.000000	98.816629 
2171.000000	98.816058 
2170.000000	98.814271 
2169.000000	98.810931 
2168.000000	98.805485 
2167.000000	98.799367 
2166.000000	98.793609 
2165.000000	98.786620 
2164.000000	98.776757 
2163.000000	98.765460 
2162.000000	98.756401 
2161.000000	98.753680 
2160.000000	98.761416 
2159.000000	98.781158 
2158.000000	98.807248 
2157.000000	98.828655 
2156.000000	98.839136 
2155.000000	98.841344 
2154.000000	98.840743 
2153.000000	98.839930 
2152.000000	98.839388 
2151.000000	98.839732 
2150.000000	98.840818 
2149.000000	98.841290 
2148.000000	98.841378 
2147.000000	98.844142 
2146.000000	98.851976 
2145.000000	98.863743 
2144.000000	98.876867 
2143.000000	98.889909 
2142.000000	98.900940 
2141.000000	98.906027 
2140.000000	98.902722 
2139.000000	98.894184 
2138.000000	98.887477 
2137.000000	98.887192 
2136.000000	98.892122 
2135.000000	98.897938 
2134.000000	98.901649 
2133.000000	98.903592 
2132.000000	98.906101 
2131.000000	98.910351 
2130.000000	98.914268 
2129.000000	98.914074 
2128.000000	98.908181 
2127.000000	98.899061 
2126.000000	98.891200 
2125.000000	98.887474 
2124.000000	98.887691 
2123.000000	98.889920 
2122.000000	98.892488 
2121.000000	98.894783 
2120.000000	98.896545 
2119.000000	98.896895 
2118.000000	98.894766 
2117.000000	98.890455 
2116.000000	98.886021 
2115.000000	98.883402 
2114.000000	98.882789 
2113.000000	98.883509 
2112.000000	98.885606 
2111.000000	98.889209 
2110.000000	98.892721 
2109.000000	98.893545 
2108.000000	98.890937 
2107.000000	98.886792 
2106.000000	98.883381 
2105.000000	98.881209 
2104.000000	98.879424 
2103.000000	98.877345 
2102.000000	98.875056 
2101.000000	98.873053 
2100.000000	98.871726 
2099.000000	98.871032 
2098.000000	98.870677 
2097.000000	98.870674 
2096.000000	98.871309 
2095.000000	98.872174 
2094.000000	98.871891 
2093.000000	98.869661 
2092.000000	98.866240 
2091.000000	98.863030 
2090.000000	98.860592 
2089.000000	98.858439 
2088.000000	98.855958 
2087.000000	98.853027 
2086.000000	98.849997 
2085.000000	98.847413 
2084.000000	98.845782 
2083.000000	98.845284 
2082.000000	98.845391 
2081.000000	98.845033 
2080.000000	98.843503 
2079.000000	98.840912 
2078.000000	98.837787 
2077.000000	98.834576 
2076.000000	98.831628 
2075.000000	98.829132 
2074.000000	98.826769 
2073.000000	98.823907 
2072.000000	98.820502 
2071.000000	98.817385 
2070.000000	98.815302 
2069.000000	98.814066 
2068.000000	98.812919 
2067.000000	98.811303 
2066.000000	98.808979 
2065.000000	98.805979 
2064.000000	98.802879 
2063.000000	98.800521 
2062.000000	98.798968 
2061.000000	98.797126 
2060.000000	98.793919 
2059.000000	98.789545 
2058.000000	98.785353 
2057.000000	98.782757 
2056.000000	98.782343 
2055.000000	98.783364 
2054.000000	98.783650 
2053.000000	98.780860 
2052.000000	98.774200 
2051.000000	98.764846 
2050.000000	98.755131 
2049.000000	98.747304 
2048.000000	98.742955 
2047.000000	98.742595 
2046.000000	98.744916 
2045.000000	98.747081 
2044.000000	98.746905 
2043.000000	98.744347 
2042.000000	98.740720 
2041.000000	98.737354 
2040.000000	98.735150 
2039.000000	98.734481 
2038.000000	98.734993 
2037.000000	98.736038 
2036.000000	98.737494 
2035.000000	98.739392 
2034.000000	98.740852 
2033.000000	98.740694 
2032.000000	98.739132 
2031.000000	98.737250 
2030.000000	98.734807 
2029.000000	98.730649 
2028.000000	98.725420 
2027.000000	98.721695 
2026.000000	98.720702 
2025.000000	98.720689 
2024.000000	98.719386 
2023.000000	98.716898 
2022.000000	98.714992 
2021.000000	98.714431 
2020.000000	98.714317 
2019.000000	98.713559 
2018.000000	98.712122 
2017.000000	98.710875 
2016.000000	98.710712 
2015.000000	98.711776 
2014.000000	98.713353 
2013.000000	98.714481 
2012.000000	98.714556 
2011.000000	98.713381 
2010.000000	98.711148 
2009.000000	98.708727 
2008.000000	98.707190 
2007.000000	98.706580 
2006.000000	98.705934 
2005.000000	98.704684 
2004.000000	98.703377 
2003.000000	98.702683 
2002.000000	98.702350 
2001.000000	98.701587 
2000.000000	98.700285 
1999.000000	98.699131 
1998.000000	98.698571 
1997.000000	98.698356 
1996.000000	98.698091 
1995.000000	98.697683 
1994.000000	98.697064 
1993.000000	98.695983 
1992.000000	98.694460 
1991.000000	98.693135 
1990.000000	98.692633 
1989.000000	98.692875 
1988.000000	98.693197 
1987.000000	98.693020 
1986.000000	98.692319 
1985.000000	98.691536 
1984.000000	98.691227 
1983.000000	98.691591 
1982.000000	98.692225 
1981.000000	98.692467 
1980.000000	98.692114 
1979.000000	98.691624 
1978.000000	98.691624 
1977.000000	98.692452 
1976.000000	98.694175 
1975.000000	98.696569 
1974.000000	98.698988 
1973.000000	98.700739 
1972.000000	98.701710 
1971.000000	98.702302 
1970.000000	98.702848 
1969.000000	98.703375 
1968.000000	98.704011 
1967.000000	98.705162 
1966.000000	98.707016 
1965.000000	98.709229 
1964.000000	98.711314 
1963.000000	98.713173 
1962.000000	98.715009 
1961.000000	98.716996 
1960.000000	98.719157 
1959.000000	98.721379 
1958.000000	98.723487 
1957.000000	98.725432 
1956.000000	98.727408 
1955.000000	98.729637 
1954.000000	98.732064 
1953.000000	98.734382 
1952.000000	98.736427 
1951.000000	98.738301 
1950.000000	98.740247 
1949.000000	98.742428 
1948.000000	98.744843 
1947.000000	98.747408 
1946.000000	98.749980 
1945.000000	98.752450 
1944.000000	98.754815 
1943.000000	98.757137 
1942.000000	98.759435 
1941.000000	98.761675 
1940.000000	98.763852 
1939.000000	98.766003 
1938.000000	98.768151 
1937.000000	98.770288 
1936.000000	98.772398 
1935.000000	98.774470 
1934.000000	98.776499 
1933.000000	98.778484 
1932.000000	98.780422 
1931.000000	98.782326 
1930.000000	98.784223 
1929.000000	98.786103 
1928.000000	98.787940 
1927.000000	98.789739 
1926.000000	98.791523 
1925.000000	98.793245 
1924.000000	98.794856 
1923.000000	98.796456 
1922.000000	98.798228 
1921.000000	98.800182 
1920.000000	98.802064 
1919.000000	98.803649 
1918.000000	98.804916 
1917.000000	98.805983 
1916.000000	98.807040 
1915.000000	98.808267 
1914.000000	98.809653 
1913.000000	98.810972 
1912.000000	98.812145 
1911.000000	98.813468 
1910.000000	98.815032 
1909.000000	98.816332 
1908.000000	98.817063 
1907.000000	98.817556 
1906.000000	98.818184 
1905.000000	98.818890 
1904.000000	98.819560 
1903.000000	98.820347 
1902.000000	98.821282 
1901.000000	98.822165 
1900.000000	98.822951 
1899.000000	98.823829 
1898.000000	98.824872 
1897.000000	98.825928 
1896.000000	98.826862 
1895.000000	98.827706 
1894.000000	98.828533 
1893.000000	98.829364 
1892.000000	98.830191 
1891.000000	98.831020 
1890.000000	98.831857 
1889.000000	98.832709 
1888.000000	98.833587 
1887.000000	98.834495 
1886.000000	98.835410 
1885.000000	98.836304 
1884.000000	98.837152 
1883.000000	98.837990 
1882.000000	98.838906 
1881.000000	98.839947 
1880.000000	98.841051 
1879.000000	98.842118 
1878.000000	98.843103 
1877.000000	98.844018 
1876.000000	98.844972 
1875.000000	98.846172 
1874.000000	98.847666 
1873.000000	98.849130 
1872.000000	98.850230 
1871.000000	98.851036 
1870.000000	98.851776 
1869.000000	98.852363 
1868.000000	98.852823 
1867.000000	98.853664 
1866.000000	98.855037 
1865.000000	98.856413 
1864.000000	98.857494 
1863.000000	98.858817 
1862.000000	98.860824 
1861.000000	98.862847 
1860.000000	98.864002 
1859.000000	98.864532 
1858.000000	98.865092 
1857.000000	98.865341 
1856.000000	98.864603 
1855.000000	98.863379 
1854.000000	98.862991 
1853.000000	98.864131 
1852.000000	98.866673 
1851.000000	98.870108 
1850.000000	98.873642 
1849.000000	98.876572 
1848.000000	98.878884 
1847.000000	98.881192 
1846.000000	98.883701 
1845.000000	98.885859 
1844.000000	98.887511 
1843.000000	98.889141 
1842.000000	98.890310 
1841.000000	98.890098 
1840.000000	98.888497 
1839.000000	98.886532 
1838.000000	98.885367 
1837.000000	98.885307 
1836.000000	98.886292 
1835.000000	98.888405 
1834.000000	98.891213 
1833.000000	98.893596 
1832.000000	98.894546 
1831.000000	98.893939 
1830.000000	98.892754 
1829.000000	98.892150 
1828.000000	98.892318 
1827.000000	98.893045 
1826.000000	98.894193 
1825.000000	98.895354 
1824.000000	98.896126 
1823.000000	98.896796 
1822.000000	98.897838 
1821.000000	98.899117 
1820.000000	98.900211 
1819.000000	98.901282 
1818.000000	98.902686 
1817.000000	98.903898 
1816.000000	98.904202 
1815.000000	98.903868 
1814.000000	98.903640 
1813.000000	98.903713 
1812.000000	98.903842 
1811.000000	98.904147 
1810.000000	98.904790 
1809.000000	98.905321 
1808.000000	98.905385 
1807.000000	98.905270 
1806.000000	98.905322 
1805.000000	98.905470 
1804.000000	98.905621 
1803.000000	98.905978 
1802.000000	98.906664 
1801.000000	98.907408 
1800.000000	98.907863 
1799.000000	98.908120 
1798.000000	98.908452 
1797.000000	98.908851 
1796.000000	98.909249 
1795.000000	98.909880 
1794.000000	98.910950 
1793.000000	98.911993 
1792.000000	98.912322 
1791.000000	98.912213 
1790.000000	98.912381 
1789.000000	98.912642 
1788.000000	98.912524 
1787.000000	98.912290 
1786.000000	98.912610 
1785.000000	98.913395 
1784.000000	98.913947 
1783.000000	98.914089 
1782.000000	98.914232 
1781.000000	98.914805 
1780.000000	98.915844 
1779.000000	98.917119 
1778.000000	98.918331 
1777.000000	98.919185 
1776.000000	98.919589 
1775.000000	98.919582 
1774.000000	98.919372 
1773.000000	98.919521 
1772.000000	98.920321 
1771.000000	98.921677 
1770.000000	98.923877 
1769.000000	98.926942 
1768.000000	98.929741 
1767.000000	98.931063 
1766.000000	98.931020 
1765.000000	98.930586 
1764.000000	98.930298 
1763.000000	98.930181 
1762.000000	98.930660 
1761.000000	98.932187 
1760.000000	98.934197 
1759.000000	98.936096 
1758.000000	98.937993 
1757.000000	98.940288 
1756.000000	98.942706 
1755.000000	98.944507 
1754.000000	98.946006 
1753.000000	98.948222 
1752.000000	98.951095 
1751.000000	98.953099 
1750.000000	98.953630 
1749.000000	98.953703 
1748.000000	98.953995 
1747.000000	98.954254 
1746.000000	98.954620 
1745.000000	98.955711 
1744.000000	98.957291 
1743.000000	98.958511 
1742.000000	98.959258 
1741.000000	98.960031 
1740.000000	98.961013 
1739.000000	98.962052 
1738.000000	98.963052 
1737.000000	98.964024 
1736.000000	98.965029 
1735.000000	98.966114 
1734.000000	98.967226 
1733.000000	98.968285 
1732.000000	98.969311 
1731.000000	98.970332 
1730.000000	98.971352 
1729.000000	98.972370 
1728.000000	98.973381 
1727.000000	98.974375 
1726.000000	98.975354 
1725.000000	98.976328 
1724.000000	98.977308 
1723.000000	98.978299 
1722.000000	98.979300 
1721.000000	98.980306 
1720.000000	98.981310 
1719.000000	98.982309 
1718.000000	98.983303 
1717.000000	98.984293 
1716.000000	98.985282 
1715.000000	98.986283 
1714.000000	98.987308 
1713.000000	98.988356 
1712.000000	98.989420 
1711.000000	98.990497 
1710.000000	98.991588 
1709.000000	98.992698 
1708.000000	98.993828 
1707.000000	98.994981 
1706.000000	98.996159 
1705.000000	98.997364 
1704.000000	98.998595 
1703.000000	98.999858 
1702.000000	99.001160 
1701.000000	99.002495 
1700.000000	99.003852 
1699.000000	99.005225 
1698.000000	99.006619 
1697.000000	99.008034 
1696.000000	99.009465 
1695.000000	99.010910 
1694.000000	99.012365 
1693.000000	99.013826 
1692.000000	99.015299 
1691.000000	99.016792 
1690.000000	99.018311 
1689.000000	99.019849 
1688.000000	99.021393 
1687.000000	99.022933 
1686.000000	99.024470 
1685.000000	99.026008 
1684.000000	99.027560 
1683.000000	99.029128 
1682.000000	99.030707 
1681.000000	99.032293 
1680.000000	99.033887 
1679.000000	99.035485 
1678.000000	99.037085 
1677.000000	99.038688 
1676.000000	99.040293 
1675.000000	99.041894 
1674.000000	99.043480 
1673.000000	99.045042 
1672.000000	99.046575 
1671.000000	99.048077 
1670.000000	99.049554 
1669.000000	99.051015 
1668.000000	99.052463 
1667.000000	99.053891 
1666.000000	99.055289 
1665.000000	99.056655 
1664.000000	99.057991 
1663.000000	99.059301 
1662.000000	99.060585 
1661.000000	99.061844 
1660.000000	99.063075 
1659.000000	99.064275 
1658.000000	99.065442 
1657.000000	99.066575 
1656.000000	99.067674 
1655.000000	99.068732 
1654.000000	99.069743 
1653.000000	99.070723 
1652.000000	99.071698 
1651.000000	99.072664 
1650.000000	99.073614 
1649.000000	99.074537 
1648.000000	99.075422 
1647.000000	99.076258 
1646.000000	99.077048 
1645.000000	99.077800 
1644.000000	99.078534 
1643.000000	99.079256 
1642.000000	99.079960 
1641.000000	99.080637 
1640.000000	99.081282 
1639.000000	99.081891 
1638.000000	99.082453 
1637.000000	99.082967 
1636.000000	99.083438 
1635.000000	99.083868 
1634.000000	99.084257 
1633.000000	99.084608 
1632.000000	99.084932 
1631.000000	99.085236 
1630.000000	99.085520 
1629.000000	99.085782 
1628.000000	99.086029 
1627.000000	99.086261 
1626.000000	99.086480 
1625.000000	99.086688 
1624.000000	99.086894 
1623.000000	99.087100 
1622.000000	99.087301 
1621.000000	99.087490 
1620.000000	99.087661 
1619.000000	99.087807 
1618.000000	99.087924 
1617.000000	99.088013 
1616.000000	99.088081 
1615.000000	99.088130 
1614.000000	99.088161 
1613.000000	99.088181 
1612.000000	99.088200 
1611.000000	99.088223 
1610.000000	99.088239 
1609.000000	99.088243 
1608.000000	99.088236 
1607.000000	99.088225 
1606.000000	99.088209 
1605.000000	99.088194 
1604.000000	99.088185 
1603.000000	99.088180 
1602.000000	99.088177 
1601.000000	99.088180 
1600.000000	99.088189 
1599.000000	99.088197 
1598.000000	99.088194 
1597.000000	99.088181 
1596.000000	99.088169 
1595.000000	99.088161 
1594.000000	99.088152 
1593.000000	99.088140 
1592.000000	99.088129 
1591.000000	99.088122 
1590.000000	99.088118 
1589.000000	99.088113 
1588.000000	99.088111 
1587.000000	99.088111 
1586.000000	99.088103 
1585.000000	99.088077 
1584.000000	99.088031 
1583.000000	99.087964 
1582.000000	99.087870 
1581.000000	99.087751 
1580.000000	99.087610 
1579.000000	99.087448 
1578.000000	99.087261 
1577.000000	99.087048 
1576.000000	99.086819 
1575.000000	99.086578 
1574.000000	99.086320 
1573.000000	99.086047 
1572.000000	99.085765 
1571.000000	99.085480 
1570.000000	99.085189 
1569.000000	99.084884 
1568.000000	99.084563 
1567.000000	99.084225 
1566.000000	99.083866 
1565.000000	99.083486 
1564.000000	99.083088 
1563.000000	99.082672 
1562.000000	99.082235 
1561.000000	99.081777 
1560.000000	99.081299 
1559.000000	99.080787 
1558.000000	99.080221 
1557.000000	99.079604 
1556.000000	99.078958 
1555.000000	99.078299 
1554.000000	99.077626 
1553.000000	99.076938 
1552.000000	99.076228 
1551.000000	99.075506 
1550.000000	99.074793 
1549.000000	99.074098 
1548.000000	99.073407 
1547.000000	99.072699 
1546.000000	99.071947 
1545.000000	99.071102 
1544.000000	99.070168 
1543.000000	99.069249 
1542.000000	99.068430 
1541.000000	99.067549 
1540.000000	99.066586 
1539.000000	99.065771 
1538.000000	99.064635 
1537.000000	99.062825 
1536.000000	99.060542 
1535.000000	99.058341 
1534.000000	99.056633 
1533.000000	99.055284 
1532.000000	99.053843 
1531.000000	99.052399 
1530.000000	99.051109 
1529.000000	99.049496 
1528.000000	99.047304 
1527.000000	99.045263 
1526.000000	99.044035 
1525.000000	99.042799 
1524.000000	99.040541 
1523.000000	99.037831 
1522.000000	99.035947 
1521.000000	99.034427 
1520.000000	99.031752 
1519.000000	99.028334 
1518.000000	99.025851 
1517.000000	99.024732 
1516.000000	99.023789 
1515.000000	99.022309 
1514.000000	99.021207 
1513.000000	99.020866 
1512.000000	99.019611 
1511.000000	99.017034 
1510.000000	99.015029 
1509.000000	99.014092 
1508.000000	99.011690 
1507.000000	99.008241 
1506.000000	99.006792 
1505.000000	99.004035 
1504.000000	98.999062 
1503.000000	98.993870 
1502.000000	98.989553 
1501.000000	98.985747 
1500.000000	98.980868 
1499.000000	98.975075 
1498.000000	98.972271 
1497.000000	98.974139 
1496.000000	98.976692 
1495.000000	98.977858 
1494.000000	98.979738 
1493.000000	98.982527 
1492.000000	98.983664 
1491.000000	98.981628 
1490.000000	98.978085 
1489.000000	98.973934 
1488.000000	98.968251 
1487.000000	98.963254 
1486.000000	98.960582 
1485.000000	98.958757 
1484.000000	98.957155 
1483.000000	98.956399 
1482.000000	98.956802 
1481.000000	98.956872 
1480.000000	98.955405 
1479.000000	98.954174 
1478.000000	98.955328 
1477.000000	98.957751 
1476.000000	98.958760 
1475.000000	98.959313 
1474.000000	98.961117 
1473.000000	98.962519 
1472.000000	98.960671 
1471.000000	98.957672 
1470.000000	98.957062 
1469.000000	98.958008 
1468.000000	98.957508 
1467.000000	98.956057 
1466.000000	98.956793 
1465.000000	98.959470 
1464.000000	98.960277 
1463.000000	98.957557 
1462.000000	98.954310 
1461.000000	98.952263 
1460.000000	98.950108 
1459.000000	98.946231 
1458.000000	98.943366 
1457.000000	98.944086 
1456.000000	98.940318 
1455.000000	98.927917 
1454.000000	98.915021 
1453.000000	98.906999 
1452.000000	98.902094 
1451.000000	98.897812 
1450.000000	98.896809 
1449.000000	98.901508 
1448.000000	98.907306 
1447.000000	98.909064 
1446.000000	98.907549 
1445.000000	98.906370 
1444.000000	98.906112 
1443.000000	98.904954 
1442.000000	98.904377 
1441.000000	98.907345 
1440.000000	98.911772 
1439.000000	98.912488 
1438.000000	98.911218 
1437.000000	98.913829 
1436.000000	98.918647 
1435.000000	98.919861 
1434.000000	98.918969 
1433.000000	98.918379 
1432.000000	98.916841 
1431.000000	98.911622 
1430.000000	98.904543 
1429.000000	98.899404 
1428.000000	98.894673 
1427.000000	98.887153 
1426.000000	98.877393 
1425.000000	98.869962 
1424.000000	98.865651 
1423.000000	98.858905 
1422.000000	98.848067 
1421.000000	98.837017 
1420.000000	98.826813 
1419.000000	98.812964 
1418.000000	98.796145 
1417.000000	98.779576 
1416.000000	98.760942 
1415.000000	98.738052 
1414.000000	98.713027 
1413.000000	98.690117 
1412.000000	98.670582 
1411.000000	98.653052 
1410.000000	98.638592 
1409.000000	98.629027 
1408.000000	98.622841 
1407.000000	98.618286 
1406.000000	98.616626 
1405.000000	98.621330 
1404.000000	98.632167 
1403.000000	98.644428 
1402.000000	98.655942 
1401.000000	98.667933 
1400.000000	98.680449 
1399.000000	98.688874 
1398.000000	98.686765 
1397.000000	98.669952 
1396.000000	98.639756 
1395.000000	98.608179 
1394.000000	98.594648 
1393.000000	98.608917 
1392.000000	98.641276 
1391.000000	98.673548 
1390.000000	98.694210 
1389.000000	98.702077 
1388.000000	98.701015 
1387.000000	98.695197 
1386.000000	98.688198 
1385.000000	98.683245 
1384.000000	98.681897 
1383.000000	98.683255 
1382.000000	98.685943 
1381.000000	98.689750 
1380.000000	98.695541 
1379.000000	98.703568 
1378.000000	98.712929 
1377.000000	98.723203 
1376.000000	98.735158 
1375.000000	98.749134 
1374.000000	98.763801 
1373.000000	98.777589 
1372.000000	98.789911 
1371.000000	98.801093 
1370.000000	98.811485 
1369.000000	98.822450 
1368.000000	98.835140 
1367.000000	98.848327 
1366.000000	98.859846 
1365.000000	98.869127 
1364.000000	98.877427 
1363.000000	98.886374 
1362.000000	98.896320 
1361.000000	98.906415 
1360.000000	98.915969 
1359.000000	98.924812 
1358.000000	98.932955 
1357.000000	98.941164 
1356.000000	98.950400 
1355.000000	98.960414 
1354.000000	98.970004 
1353.000000	98.978546 
1352.000000	98.986438 
1351.000000	98.994123 
1350.000000	99.000172 
1349.000000	99.004566 
1348.000000	99.008015 
1347.000000	99.009875 
1346.000000	99.009881 
1345.000000	99.010566 
1344.000000	99.014951 
1343.000000	99.022262 
1342.000000	99.028476 
1341.000000	99.031393 
1340.000000	99.032673 
1339.000000	99.034182 
1338.000000	99.035607 
1337.000000	99.036584 
1336.000000	99.037657 
1335.000000	99.038887 
1334.000000	99.039905 
1333.000000	99.041331 
1332.000000	99.043932 
1331.000000	99.046229 
1330.000000	99.045400 
1329.000000	99.041467 
1328.000000	99.037693 
1327.000000	99.036300 
1326.000000	99.036220 
1325.000000	99.036751 
1324.000000	99.038749 
1323.000000	99.041884 
1322.000000	99.044044 
1321.000000	99.044159 
1320.000000	99.043511 
1319.000000	99.043910 
1318.000000	99.046185 
1317.000000	99.050249 
1316.000000	99.055200 
1315.000000	99.059414 
1314.000000	99.061999 
1313.000000	99.063868 
1312.000000	99.066198 
1311.000000	99.068490 
1310.000000	99.069544 
1309.000000	99.069539 
1308.000000	99.069501 
1307.000000	99.069440 
1306.000000	99.068244 
1305.000000	99.066175 
1304.000000	99.064617 
1303.000000	99.063817 
1302.000000	99.062551 
1301.000000	99.060120 
1300.000000	99.057261 
1299.000000	99.055185 
1298.000000	99.054694 
1297.000000	99.055778 
1296.000000	99.057296 
1295.000000	99.057256 
1294.000000	99.054663 
1293.000000	99.050693 
1292.000000	99.047235 
1291.000000	99.044817 
1290.000000	99.042616 
1289.000000	99.039770 
1288.000000	99.035862 
1287.000000	99.030849 
1286.000000	99.025516 
1285.000000	99.021294 
1284.000000	99.018754 
1283.000000	99.017070 
1282.000000	99.015155 
1281.000000	99.012318 
1280.000000	99.008053 
1279.000000	99.001859 
1278.000000	98.994018 
1277.000000	98.985720 
1276.000000	98.977753 
1275.000000	98.969611 
1274.000000	98.960693 
1273.000000	98.951630 
1272.000000	98.943537 
1271.000000	98.936340 
1270.000000	98.928576 
1269.000000	98.918636 
1268.000000	98.905917 
1267.000000	98.891302 
1266.000000	98.876831 
1265.000000	98.863861 
1264.000000	98.851536 
1263.000000	98.838250 
1262.000000	98.824459 
1261.000000	98.812404 
1260.000000	98.802903 
1259.000000	98.793981 
1258.000000	98.783809 
1257.000000	98.773233 
1256.000000	98.764218 
1255.000000	98.757034 
1254.000000	98.750213 
1253.000000	98.742645 
1252.000000	98.735034 
1251.000000	98.729688 
1250.000000	98.729192 
1249.000000	98.734509 
1248.000000	98.743900 
1247.000000	98.753907 
1246.000000	98.761182 
1245.000000	98.762649 
1244.000000	98.755805 
1243.000000	98.742281 
1242.000000	98.730620 
1241.000000	98.730664 
1240.000000	98.743497 
1239.000000	98.759258 
1238.000000	98.766861 
1237.000000	98.764206 
1236.000000	98.756509 
1235.000000	98.747926 
1234.000000	98.738393 
1233.000000	98.727580 
1232.000000	98.717872 
1231.000000	98.712389 
1230.000000	98.712112 
1229.000000	98.715501 
1228.000000	98.719677 
1227.000000	98.722117 
1226.000000	98.722599 
1225.000000	98.723523 
1224.000000	98.727343 
1223.000000	98.734059 
1222.000000	98.742117 
1221.000000	98.750910 
1220.000000	98.760839 
1219.000000	98.771436 
1218.000000	98.781254 
1217.000000	98.789481 
1216.000000	98.796350 
1215.000000	98.802204 
1214.000000	98.807418 
1213.000000	98.812906 
1212.000000	98.819344 
1211.000000	98.826044 
1210.000000	98.831517 
1209.000000	98.834960 
1208.000000	98.836604 
1207.000000	98.837372 
1206.000000	98.838816 
1205.000000	98.842209 
1204.000000	98.846626 
1203.000000	98.848953 
1202.000000	98.847094 
1201.000000	98.842379 
1200.000000	98.837650 
1199.000000	98.833926 
1198.000000	98.830757 
1197.000000	98.828777 
1196.000000	98.829435 
1195.000000	98.832638 
1194.000000	98.836536 
1193.000000	98.839547 
1192.000000	98.841149 
1191.000000	98.840968 
1190.000000	98.838557 
1189.000000	98.834182 
1188.000000	98.828867 
1187.000000	98.823580 
1186.000000	98.818876 
1185.000000	98.815078 
1184.000000	98.812287 
1183.000000	98.810332 
1182.000000	98.808906 
1181.000000	98.807551 
1180.000000	98.805767 
1179.000000	98.803859 
1178.000000	98.803403 
1177.000000	98.805537 
1176.000000	98.808594 
1175.000000	98.808963 
1174.000000	98.804775 
1173.000000	98.797468 
1172.000000	98.789367 
1171.000000	98.781400 
1170.000000	98.773825 
1169.000000	98.767224 
1168.000000	98.761465 
1167.000000	98.755470 
1166.000000	98.749537 
1165.000000	98.746338 
1164.000000	98.747802 
1163.000000	98.752160 
1162.000000	98.755636 
1161.000000	98.756152 
1160.000000	98.753963 
1159.000000	98.750009 
1158.000000	98.745522 
1157.000000	98.741903 
1156.000000	98.738891 
1155.000000	98.733995 
1154.000000	98.725918 
1153.000000	98.717424 
1152.000000	98.712352 
1151.000000	98.710529 
1150.000000	98.708249 
1149.000000	98.703378 
1148.000000	98.697450 
1147.000000	98.692764 
1146.000000	98.689546 
1145.000000	98.686109 
1144.000000	98.680021 
1143.000000	98.669084 
1142.000000	98.653103 
1141.000000	98.635009 
1140.000000	98.618833 
1139.000000	98.606427 
1138.000000	98.596940 
1137.000000	98.588606 
1136.000000	98.579677 
1135.000000	98.568830 
1134.000000	98.556864 
1133.000000	98.547034 
1132.000000	98.541148 
1131.000000	98.535921 
1130.000000	98.526151 
1129.000000	98.511393 
1128.000000	98.496506 
1127.000000	98.485163 
1126.000000	98.475694 
1125.000000	98.464470 
1124.000000	98.450565 
1123.000000	98.435206 
1122.000000	98.418855 
1121.000000	98.401203 
1120.000000	98.383008 
1119.000000	98.365732 
1118.000000	98.349334 
1117.000000	98.331638 
1116.000000	98.310041 
1115.000000	98.283634 
1114.000000	98.254001 
1113.000000	98.223911 
1112.000000	98.194638 
1111.000000	98.164930 
1110.000000	98.133344 
1109.000000	98.101367 
1108.000000	98.072311 
1107.000000	98.046655 
1106.000000	98.020869 
1105.000000	97.992501 
1104.000000	97.964296 
1103.000000	97.941147 
1102.000000	97.924185 
1101.000000	97.910303 
1100.000000	97.895883 
1099.000000	97.880712 
1098.000000	97.865742 
1097.000000	97.850644 
1096.000000	97.833645 
1095.000000	97.812673 
1094.000000	97.785802 
1093.000000	97.751379 
1092.000000	97.708818 
1091.000000	97.659629 
1090.000000	97.607459 
1089.000000	97.556635 
1088.000000	97.509952 
1087.000000	97.467216 
1086.000000	97.425930 
1085.000000	97.383778 
1084.000000	97.340271 
1083.000000	97.295950 
1082.000000	97.251208 
1081.000000	97.206960 
1080.000000	97.165431 
1079.000000	97.128737 
1078.000000	97.097508 
1077.000000	97.072687 
1076.000000	97.057345 
1075.000000	97.053911 
1074.000000	97.060386 
1073.000000	97.072031 
1072.000000	97.084992 
1071.000000	97.093437 
1070.000000	97.084719 
1069.000000	97.046540 
1068.000000	96.984585 
1067.000000	96.928221 
1066.000000	96.909521 
1065.000000	96.935875 
1064.000000	96.986164 
1063.000000	97.030341 
1062.000000	97.049151 
1061.000000	97.037531 
1060.000000	97.000430 
1059.000000	96.952170 
1058.000000	96.913191 
1057.000000	96.897609 
1056.000000	96.902815 
1055.000000	96.914297 
1054.000000	96.920666 
1053.000000	96.922062 
1052.000000	96.925202 
1051.000000	96.934548 
1050.000000	96.949219 
1049.000000	96.965150 
1048.000000	96.978601 
1047.000000	96.989732 
1046.000000	97.003692 
1045.000000	97.026282 
1044.000000	97.057954 
1043.000000	97.093398 
1042.000000	97.126799 
1041.000000	97.155626 
1040.000000	97.180104 
1039.000000	97.203142 
1038.000000	97.231653 
1037.000000	97.273099 
1036.000000	97.327576 
1035.000000	97.386211 
1034.000000	97.440040 
1033.000000	97.486870 
1032.000000	97.525695 
1031.000000	97.549340 
1030.000000	97.550998 
1029.000000	97.538515 
1028.000000	97.535173 
1027.000000	97.560606 
1026.000000	97.612740 
1025.000000	97.671216 
1024.000000	97.716903 
1023.000000	97.745400 
1022.000000	97.764223 
1021.000000	97.781678 
1020.000000	97.799949 
1019.000000	97.817190 
1018.000000	97.832556 
1017.000000	97.847601 
1016.000000	97.864071 
1015.000000	97.882256 
1014.000000	97.901658 
1013.000000	97.921994 
1012.000000	97.943147 
1011.000000	97.965080 
1010.000000	97.988050 
1009.000000	98.011930 
1008.000000	98.035263 
1007.000000	98.056376 
1006.000000	98.075897 
1005.000000	98.096689 
1004.000000	98.120433 
1003.000000	98.145562 
1002.000000	98.169541 
1001.000000	98.191870 
1000.000000	98.213488 
999.000000	 98.234412 
998.000000	 98.253902 
997.000000	 98.272361 
996.000000	 98.291005 
995.000000	 98.309671 
994.000000	 98.326771 
993.000000	 98.341660 
992.000000	 98.355646 
991.000000	 98.370799 
990.000000	 98.389058 
989.000000	 98.411564 
988.000000	 98.436560 
987.000000	 98.458581 
986.000000	 98.472806 
985.000000	 98.479962 
984.000000	 98.485491 
983.000000	 98.493509 
982.000000	 98.503197 
981.000000	 98.512666 
980.000000	 98.522867 
979.000000	 98.535674 
978.000000	 98.550887 
977.000000	 98.566846 
976.000000	 98.582156 
975.000000	 98.595619 
974.000000	 98.606161 
973.000000	 98.614256 
972.000000	 98.622430 
971.000000	 98.633189 
970.000000	 98.646839 
969.000000	 98.661736 
968.000000	 98.675816 
967.000000	 98.687505 
966.000000	 98.696177 
965.000000	 98.702579 
964.000000	 98.708512 
963.000000	 98.715783 
962.000000	 98.725385 
961.000000	 98.736951 
960.000000	 98.748232 
959.000000	 98.755916 
958.000000	 98.758590 
957.000000	 98.758906 
956.000000	 98.761602 
955.000000	 98.768933 
954.000000	 98.778584 
953.000000	 98.785983 
952.000000	 98.788110 
951.000000	 98.785660 
950.000000	 98.782693 
949.000000	 98.783806 
948.000000	 98.790560 
947.000000	 98.800735 
946.000000	 98.811272 
945.000000	 98.820863 
944.000000	 98.828902 
943.000000	 98.833937 
942.000000	 98.835512 
941.000000	 98.836164 
940.000000	 98.838749 
939.000000	 98.842196 
938.000000	 98.842827 
937.000000	 98.840025 
936.000000	 98.837735 
935.000000	 98.839786 
934.000000	 98.846322 
933.000000	 98.855758 
932.000000	 98.867362 
931.000000	 98.880051 
930.000000	 98.890856 
929.000000	 98.896950 
928.000000	 98.898215 
927.000000	 98.896511 
926.000000	 98.893554 
925.000000	 98.890751 
924.000000	 98.889835 
923.000000	 98.891605 
922.000000	 98.894205 
921.000000	 98.894171 
920.000000	 98.889393 
919.000000	 98.880572 
918.000000	 98.870537 
917.000000	 98.862562 
916.000000	 98.858393 
915.000000	 98.856642 
914.000000	 98.853229 
913.000000	 98.844708 
912.000000	 98.831887 
911.000000	 98.819797 
910.000000	 98.813282 
909.000000	 98.812472 
908.000000	 98.812952 
907.000000	 98.810366 
906.000000	 98.804108 
905.000000	 98.796027 
904.000000	 98.787006 
903.000000	 98.777171 
902.000000	 98.768951 
901.000000	 98.766354 
900.000000	 98.769527 
899.000000	 98.772884 
898.000000	 98.771210 
897.000000	 98.766235 
896.000000	 98.763384 
895.000000	 98.763794 
894.000000	 98.764021 
893.000000	 98.763516 
892.000000	 98.767354 
891.000000	 98.779418 
890.000000	 98.796438 
889.000000	 98.811235 
888.000000	 98.819816 
887.000000	 98.822879 
886.000000	 98.822659 
885.000000	 98.821033 
884.000000	 98.819268 
883.000000	 98.816984 
882.000000	 98.812230 
881.000000	 98.805089 
880.000000	 98.800518 
879.000000	 98.804587 
878.000000	 98.817576 
877.000000	 98.832676 
876.000000	 98.842191 
875.000000	 98.843871 
874.000000	 98.841060 
873.000000	 98.838807 
872.000000	 98.840410 
871.000000	 98.845956 
870.000000	 98.852927 
869.000000	 98.859124 
868.000000	 98.865569 
867.000000	 98.875410 
866.000000	 98.889511 
865.000000	 98.904399 
864.000000	 98.915663 
863.000000	 98.922713 
862.000000	 98.929055 
861.000000	 98.938365 
860.000000	 98.951567 
859.000000	 98.967436 
858.000000	 98.984109 
857.000000	 98.999095 
856.000000	 99.009439 
855.000000	 99.014095 
854.000000	 99.016025 
853.000000	 99.019711 
852.000000	 99.025837 
851.000000	 99.030446 
850.000000	 99.030735 
849.000000	 99.029992 
848.000000	 99.034490 
847.000000	 99.045772 
846.000000	 99.058282 
845.000000	 99.065236 
844.000000	 99.065107 
843.000000	 99.061865 
842.000000	 99.060494 
841.000000	 99.063146 
840.000000	 99.068792 
839.000000	 99.075239 
838.000000	 99.081374 
837.000000	 99.087618 
836.000000	 99.093934 
835.000000	 99.097926 
834.000000	 99.096540 
833.000000	 99.090258 
832.000000	 99.084055 
831.000000	 99.082407 
830.000000	 99.084034 
829.000000	 99.083631 
828.000000	 99.078902 
827.000000	 99.073917 
826.000000	 99.074613 
825.000000	 99.082219 
824.000000	 99.092396 
823.000000	 99.099650 
822.000000	 99.100835 
821.000000	 99.095339 
820.000000	 99.084674 
819.000000	 99.072815 
818.000000	 99.065062 
817.000000	 99.064745 
816.000000	 99.070850 
815.000000	 99.078926 
814.000000	 99.083903 
813.000000	 99.082021 
812.000000	 99.071464 
811.000000	 99.053217 
810.000000	 99.031755 
809.000000	 99.013160 
808.000000	 99.000735 
807.000000	 98.991983 
806.000000	 98.980154 
805.000000	 98.959331 
804.000000	 98.928849 
803.000000	 98.893768 
802.000000	 98.861676 
801.000000	 98.838496 
800.000000	 98.826338 
799.000000	 98.823842 
798.000000	 98.827729 
797.000000	 98.834962 
796.000000	 98.844462 
795.000000	 98.856779 
794.000000	 98.871786 
793.000000	 98.887148 
792.000000	 98.899857 
791.000000	 98.909051 
790.000000	 98.916048 
789.000000	 98.921122 
788.000000	 98.921654 
787.000000	 98.915005 
786.000000	 98.902580 
785.000000	 98.889490 
784.000000	 98.880138 
783.000000	 98.875158 
782.000000	 98.872327 
781.000000	 98.869003 
780.000000	 98.863657 
779.000000	 98.856858 
778.000000	 98.851805 
777.000000	 98.852880 
776.000000	 98.862617 
775.000000	 98.879829 
774.000000	 98.900208 
773.000000	 98.918374 
772.000000	 98.930424 
771.000000	 98.936498 
770.000000	 98.940992 
769.000000	 98.947997 
768.000000	 98.956023 
767.000000	 98.959703 
766.000000	 98.957585 
765.000000	 98.955319 
764.000000	 98.959006 
763.000000	 98.967910 
762.000000	 98.976577 
761.000000	 98.982398 
760.000000	 98.987629 
759.000000	 98.994660 
758.000000	 99.002958 
757.000000	 99.010927 
756.000000	 99.017643 
755.000000	 99.022040 
754.000000	 99.023180 
753.000000	 99.022527 
752.000000	 99.023668 
751.000000	 99.028143 
750.000000	 99.032936 
749.000000	 99.033947 
748.000000	 99.031096 
747.000000	 99.028423 
746.000000	 99.029226 
745.000000	 99.032749 
744.000000	 99.036068 
743.000000	 99.038020 
742.000000	 99.040523 
741.000000	 99.046101 
740.000000	 99.054769 
739.000000	 99.063752 
738.000000	 99.070285 
737.000000	 99.074126 
736.000000	 99.076752 
735.000000	 99.078575 
734.000000	 99.078100 
733.000000	 99.074100 
732.000000	 99.067611 
731.000000	 99.061368 
730.000000	 99.057786 
729.000000	 99.057911 
728.000000	 99.061458 
727.000000	 99.066885 
726.000000	 99.071908 
725.000000	 99.074846 
724.000000	 99.075510 
723.000000	 99.074592 
722.000000	 99.072791 
721.000000	 99.071081 
720.000000	 99.071021 
719.000000	 99.073390 
718.000000	 99.076700 
717.000000	 99.078499 
716.000000	 99.078338 
715.000000	 99.078172 
714.000000	 99.079358 
713.000000	 99.080373 
712.000000	 99.078657 
711.000000	 99.074502 
710.000000	 99.072112 
709.000000	 99.076306 
708.000000	 99.087856 
707.000000	 99.101502 
706.000000	 99.109231 
705.000000	 99.106412 
704.000000	 99.094499 
703.000000	 99.078501 
702.000000	 99.062306 
701.000000	 99.047224 
700.000000	 99.034527 
699.000000	 99.026530 
698.000000	 99.024275 
697.000000	 99.026106 
696.000000	 99.029842 
695.000000	 99.035079 
694.000000	 99.041369 
693.000000	 99.046193 
692.000000	 99.048160 
691.000000	 99.050593 
690.000000	 99.058345 
689.000000	 99.071537 
688.000000	 99.085363 
687.000000	 99.096016 
686.000000	 99.102680 
685.000000	 99.104133 
684.000000	 99.099284 
683.000000	 99.091458 
682.000000	 99.086904 
681.000000	 99.087348 
680.000000	 99.088195 
679.000000	 99.085775 
678.000000	 99.081904 
677.000000	 99.078862 
676.000000	 99.073956 
675.000000	 99.061841 
674.000000	 99.041645 
673.000000	 99.019152 
672.000000	 99.001098 
671.000000	 98.990425 
670.000000	 98.990232 
669.000000	 99.005294 
668.000000	 99.029148 
667.000000	 99.046004 
666.000000	 99.052320 
665.000000	 99.049312 
664.000000	 99.044066 
663.000000	 99.045025 
662.000000	 99.055786 
661.000000	 99.075437 
660.000000	 99.101436 
659.000000	 99.129310 
658.000000	 99.152849 
657.000000	 99.167192 
656.000000	 99.168167 
655.000000	 99.149160 
654.000000	 99.105374 
653.000000	 99.041118 
652.000000	 98.969954 
651.000000	 98.909698 
650.000000	 98.875300 

