4000.000000	98.892443 
3999.000000	98.891387 
3998.000000	98.890617 
3997.000000	98.890272 
3996.000000	98.890492 
3995.000000	98.891294 
3994.000000	98.892477 
3993.000000	98.893688 
3992.000000	98.894602 
3991.000000	98.895005 
3990.000000	98.894857 
3989.000000	98.894280 
3988.000000	98.893450 
3987.000000	98.892452 
3986.000000	98.891339 
3985.000000	98.890309 
3984.000000	98.889662 
3983.000000	98.889553 
3982.000000	98.889850 
3981.000000	98.890191 
3980.000000	98.890233 
3979.000000	98.889891 
3978.000000	98.889296 
3977.000000	98.888561 
3976.000000	98.887653 
3975.000000	98.886544 
3974.000000	98.885417 
3973.000000	98.884616 
3972.000000	98.884370 
3971.000000	98.884606 
3970.000000	98.885106 
3969.000000	98.885806 
3968.000000	98.886746 
3967.000000	98.887785 
3966.000000	98.888510 
3965.000000	98.888454 
3964.000000	98.887447 
3963.000000	98.885837 
3962.000000	98.884363 
3961.000000	98.883682 
3960.000000	98.883927 
3959.000000	98.884545 
3958.000000	98.884696 
3957.000000	98.884061 
3956.000000	98.883088 
3955.000000	98.882501 
3954.000000	98.882633 
3953.000000	98.883168 
3952.000000	98.883508 
3951.000000	98.883368 
3950.000000	98.883197 
3949.000000	98.883715 
3948.000000	98.884836 
3947.000000	98.885540 
3946.000000	98.884865 
3945.000000	98.882657 
3944.000000	98.879519 
3943.000000	98.876532 
3942.000000	98.874590 
3941.000000	98.873898 
3940.000000	98.874115 
3939.000000	98.874727 
3938.000000	98.875387 
3937.000000	98.876174 
3936.000000	98.877380 
3935.000000	98.879035 
3934.000000	98.880717 
3933.000000	98.881785 
3932.000000	98.881744 
3931.000000	98.880421 
3930.000000	98.878193 
3929.000000	98.875861 
3928.000000	98.874106 
3927.000000	98.873290 
3926.000000	98.873280 
3925.000000	98.873729 
3924.000000	98.874755 
3923.000000	98.876514 
3922.000000	98.878595 
3921.000000	98.880314 
3920.000000	98.881597 
3919.000000	98.883132 
3918.000000	98.885097 
3917.000000	98.886605 
3916.000000	98.886765 
3915.000000	98.885652 
3914.000000	98.883905 
3913.000000	98.882069 
3912.000000	98.880735 
3911.000000	98.880504 
3910.000000	98.881421 
3909.000000	98.883024 
3908.000000	98.884827 
3907.000000	98.886511 
3906.000000	98.888089 
3905.000000	98.889735 
3904.000000	98.891740 
3903.000000	98.893755 
3902.000000	98.894613 
3901.000000	98.893576 
3900.000000	98.890959 
3899.000000	98.888125 
3898.000000	98.886479 
3897.000000	98.886162 
3896.000000	98.886336 
3895.000000	98.886249 
3894.000000	98.885747 
3893.000000	98.885263 
3892.000000	98.885175 
3891.000000	98.885294 
3890.000000	98.885372 
3889.000000	98.885497 
3888.000000	98.885705 
3887.000000	98.885685 
3886.000000	98.885360 
3885.000000	98.885057 
3884.000000	98.884990 
3883.000000	98.884941 
3882.000000	98.884653 
3881.000000	98.884230 
3880.000000	98.883909 
3879.000000	98.883712 
3878.000000	98.883522 
3877.000000	98.883257 
3876.000000	98.882882 
3875.000000	98.882434 
3874.000000	98.882032 
3873.000000	98.881790 
3872.000000	98.881701 
3871.000000	98.881622 
3870.000000	98.881419 
3869.000000	98.881108 
3868.000000	98.880777 
3867.000000	98.880423 
3866.000000	98.879958 
3865.000000	98.879399 
3864.000000	98.878948 
3863.000000	98.878708 
3862.000000	98.878601 
3861.000000	98.878471 
3860.000000	98.878283 
3859.000000	98.878052 
3858.000000	98.877807 
3857.000000	98.877593 
3856.000000	98.877492 
3855.000000	98.877202 
3854.000000	98.876527 
3853.000000	98.875966 
3852.000000	98.875715 
3851.000000	98.875557 
3850.000000	98.875390 
3849.000000	98.875126 
3848.000000	98.874978 
3847.000000	98.875259 
3846.000000	98.875786 
3845.000000	98.876230 
3844.000000	98.876625 
3843.000000	98.876929 
3842.000000	98.877067 
3841.000000	98.877353 
3840.000000	98.877992 
3839.000000	98.878797 
3838.000000	98.879384 
3837.000000	98.879336 
3836.000000	98.878710 
3835.000000	98.877762 
3834.000000	98.876777 
3833.000000	98.875917 
3832.000000	98.875182 
3831.000000	98.874639 
3830.000000	98.874269 
3829.000000	98.873808 
3828.000000	98.873170 
3827.000000	98.872584 
3826.000000	98.872436 
3825.000000	98.873269 
3824.000000	98.875073 
3823.000000	98.876354 
3822.000000	98.875829 
3821.000000	98.874414 
3820.000000	98.873984 
3819.000000	98.874856 
3818.000000	98.875780 
3817.000000	98.874994 
3816.000000	98.871931 
3815.000000	98.867980 
3814.000000	98.864948 
3813.000000	98.863020 
3812.000000	98.861333 
3811.000000	98.860045 
3810.000000	98.860236 
3809.000000	98.862070 
3808.000000	98.864164 
3807.000000	98.865062 
3806.000000	98.865056 
3805.000000	98.865331 
3804.000000	98.865631 
3803.000000	98.864226 
3802.000000	98.860455 
3801.000000	98.856240 
3800.000000	98.853941 
3799.000000	98.853671 
3798.000000	98.853927 
3797.000000	98.853627 
3796.000000	98.852950 
3795.000000	98.852155 
3794.000000	98.850682 
3793.000000	98.847731 
3792.000000	98.843543 
3791.000000	98.839870 
3790.000000	98.838125 
3789.000000	98.837928 
3788.000000	98.837925 
3787.000000	98.837561 
3786.000000	98.837359 
3785.000000	98.837910 
3784.000000	98.839137 
3783.000000	98.840792 
3782.000000	98.842264 
3781.000000	98.842530 
3780.000000	98.841640 
3779.000000	98.841009 
3778.000000	98.841502 
3777.000000	98.842938 
3776.000000	98.844743 
3775.000000	98.845964 
3774.000000	98.846498 
3773.000000	98.847577 
3772.000000	98.850186 
3771.000000	98.853342 
3770.000000	98.855733 
3769.000000	98.857377 
3768.000000	98.858140 
3767.000000	98.857496 
3766.000000	98.855402 
3765.000000	98.852552 
3764.000000	98.850710 
3763.000000	98.851183 
3762.000000	98.852600 
3761.000000	98.852443 
3760.000000	98.851570 
3759.000000	98.854022 
3758.000000	98.860153 
3757.000000	98.866315 
3756.000000	98.871401 
3755.000000	98.876602 
3754.000000	98.882000 
3753.000000	98.886157 
3752.000000	98.890025 
3751.000000	98.896670 
3750.000000	98.902399 
3749.000000	98.901262 
3748.000000	98.895597 
3747.000000	98.892115 
3746.000000	98.891671 
3745.000000	98.888557 
3744.000000	98.880454 
3743.000000	98.872773 
3742.000000	98.870530 
3741.000000	98.872065 
3740.000000	98.873601 
3739.000000	98.875799 
3738.000000	98.879957 
3737.000000	98.883031 
3736.000000	98.883455 
3735.000000	98.883868 
3734.000000	98.885359 
3733.000000	98.883632 
3732.000000	98.875675 
3731.000000	98.864989 
3730.000000	98.856657 
3729.000000	98.852012 
3728.000000	98.848472 
3727.000000	98.843644 
3726.000000	98.838694 
3725.000000	98.835961 
3724.000000	98.835002 
3723.000000	98.833467 
3722.000000	98.830799 
3721.000000	98.827647 
3720.000000	98.823661 
3719.000000	98.818932 
3718.000000	98.814085 
3717.000000	98.810187 
3716.000000	98.809481 
3715.000000	98.813104 
3714.000000	98.818868 
3713.000000	98.822106 
3712.000000	98.820493 
3711.000000	98.814761 
3710.000000	98.805462 
3709.000000	98.793653 
3708.000000	98.781388 
3707.000000	98.770410 
3706.000000	98.761650 
3705.000000	98.754758 
3704.000000	98.748157 
3703.000000	98.740400 
3702.000000	98.731723 
3701.000000	98.722664 
3700.000000	98.712606 
3699.000000	98.701995 
3698.000000	98.692704 
3697.000000	98.686249 
3696.000000	98.683933 
3695.000000	98.686069 
3694.000000	98.689707 
3693.000000	98.690314 
3692.000000	98.686899 
3691.000000	98.683362 
3690.000000	98.683797 
3689.000000	98.686050 
3688.000000	98.683441 
3687.000000	98.674509 
3686.000000	98.664700 
3685.000000	98.657879 
3684.000000	98.653500 
3683.000000	98.649902 
3682.000000	98.645875 
3681.000000	98.639949 
3680.000000	98.631765 
3679.000000	98.624615 
3678.000000	98.623271 
3677.000000	98.625479 
3676.000000	98.623715 
3675.000000	98.615867 
3674.000000	98.604315 
3673.000000	98.591756 
3672.000000	98.578151 
3671.000000	98.560398 
3670.000000	98.540574 
3669.000000	98.523125 
3668.000000	98.506722 
3667.000000	98.488996 
3666.000000	98.471929 
3665.000000	98.458525 
3664.000000	98.448359 
3663.000000	98.437903 
3662.000000	98.423867 
3661.000000	98.406763 
3660.000000	98.390904 
3659.000000	98.379515 
3658.000000	98.371206 
3657.000000	98.361627 
3656.000000	98.348850 
3655.000000	98.336014 
3654.000000	98.327126 
3653.000000	98.321442 
3652.000000	98.313348 
3651.000000	98.298917 
3650.000000	98.282658 
3649.000000	98.269796 
3648.000000	98.256397 
3647.000000	98.237762 
3646.000000	98.216227 
3645.000000	98.195998 
3644.000000	98.178097 
3643.000000	98.161508 
3642.000000	98.144591 
3641.000000	98.127034 
3640.000000	98.109882 
3639.000000	98.094373 
3638.000000	98.081517 
3637.000000	98.071390 
3636.000000	98.063027 
3635.000000	98.054523 
3634.000000	98.045264 
3633.000000	98.037630 
3632.000000	98.033641 
3631.000000	98.030807 
3630.000000	98.024070 
3629.000000	98.014596 
3628.000000	98.005650 
3627.000000	97.996358 
3626.000000	97.985671 
3625.000000	97.973407 
3624.000000	97.959904 
3623.000000	97.946360 
3622.000000	97.934595 
3621.000000	97.926280 
3620.000000	97.924870 
3619.000000	97.933665 
3618.000000	97.949154 
3617.000000	97.963771 
3616.000000	97.975482 
3615.000000	97.987373 
3614.000000	98.003138 
3613.000000	98.023843 
3612.000000	98.046027 
3611.000000	98.063870 
3610.000000	98.073744 
3609.000000	98.076617 
3608.000000	98.077172 
3607.000000	98.078933 
3606.000000	98.080890 
3605.000000	98.080707 
3604.000000	98.078084 
3603.000000	98.074776 
3602.000000	98.073605 
3601.000000	98.076484 
3600.000000	98.084192 
3599.000000	98.096013 
3598.000000	98.108189 
3597.000000	98.115980 
3596.000000	98.118595 
3595.000000	98.119786 
3594.000000	98.124462 
3593.000000	98.134259 
3592.000000	98.145986 
3591.000000	98.155112 
3590.000000	98.158657 
3589.000000	98.157041 
3588.000000	98.154736 
3587.000000	98.155808 
3586.000000	98.158533 
3585.000000	98.159527 
3584.000000	98.158587 
3583.000000	98.157741 
3582.000000	98.158186 
3581.000000	98.159454 
3580.000000	98.160556 
3579.000000	98.161371 
3578.000000	98.162651 
3577.000000	98.165057 
3576.000000	98.168632 
3575.000000	98.172567 
3574.000000	98.175342 
3573.000000	98.176048 
3572.000000	98.175278 
3571.000000	98.174930 
3570.000000	98.176794 
3569.000000	98.180515 
3568.000000	98.183987 
3567.000000	98.185731 
3566.000000	98.185254 
3565.000000	98.183067 
3564.000000	98.180769 
3563.000000	98.179120 
3562.000000	98.177192 
3561.000000	98.174132 
3560.000000	98.170577 
3559.000000	98.168229 
3558.000000	98.167807 
3557.000000	98.168156 
3556.000000	98.167723 
3555.000000	98.166623 
3554.000000	98.166458 
3553.000000	98.168337 
3552.000000	98.171364 
3551.000000	98.173552 
3550.000000	98.174202 
3549.000000	98.174452 
3548.000000	98.175533 
3547.000000	98.177371 
3546.000000	98.178564 
3545.000000	98.177938 
3544.000000	98.175910 
3543.000000	98.174096 
3542.000000	98.173583 
3541.000000	98.173982 
3540.000000	98.174067 
3539.000000	98.173212 
3538.000000	98.171964 
3537.000000	98.171298 
3536.000000	98.171554 
3535.000000	98.172193 
3534.000000	98.172603 
3533.000000	98.172704 
3532.000000	98.172763 
3531.000000	98.172935 
3530.000000	98.173204 
3529.000000	98.173653 
3528.000000	98.174403 
3527.000000	98.175299 
3526.000000	98.175860 
3525.000000	98.175693 
3524.000000	98.174872 
3523.000000	98.173913 
3522.000000	98.173301 
3521.000000	98.173169 
3520.000000	98.173399 
3519.000000	98.173880 
3518.000000	98.174550 
3517.000000	98.175253 
3516.000000	98.175747 
3515.000000	98.175916 
3514.000000	98.176005 
3513.000000	98.176436 
3512.000000	98.177352 
3511.000000	98.178461 
3510.000000	98.179375 
3509.000000	98.179858 
3508.000000	98.179742 
3507.000000	98.178947 
3506.000000	98.177729 
3505.000000	98.176810 
3504.000000	98.176883 
3503.000000	98.177901 
3502.000000	98.178975 
3501.000000	98.179241 
3500.000000	98.178636 
3499.000000	98.177738 
3498.000000	98.177230 
3497.000000	98.177573 
3496.000000	98.178871 
3495.000000	98.180623 
3494.000000	98.181761 
3493.000000	98.181383 
3492.000000	98.179437 
3491.000000	98.176692 
3490.000000	98.174186 
3489.000000	98.172557 
3488.000000	98.171803 
3487.000000	98.171433 
3486.000000	98.170796 
3485.000000	98.169534 
3484.000000	98.167837 
3483.000000	98.166254 
3482.000000	98.165193 
3481.000000	98.164572 
3480.000000	98.163973 
3479.000000	98.163114 
3478.000000	98.162079 
3477.000000	98.161104 
3476.000000	98.160213 
3475.000000	98.159155 
3474.000000	98.157680 
3473.000000	98.155830 
3472.000000	98.153902 
3471.000000	98.152174 
3470.000000	98.150754 
3469.000000	98.149608 
3468.000000	98.148560 
3467.000000	98.147298 
3466.000000	98.145576 
3465.000000	98.143476 
3464.000000	98.141402 
3463.000000	98.139726 
3462.000000	98.138435 
3461.000000	98.137184 
3460.000000	98.135677 
3459.000000	98.133947 
3458.000000	98.132223 
3457.000000	98.130658 
3456.000000	98.129215 
3455.000000	98.127769 
3454.000000	98.126248 
3453.000000	98.124680 
3452.000000	98.123111 
3451.000000	98.121556 
3450.000000	98.120006 
3449.000000	98.118463 
3448.000000	98.116959 
3447.000000	98.115544 
3446.000000	98.114209 
3445.000000	98.112857 
3444.000000	98.111422 
3443.000000	98.109951 
3442.000000	98.108566 
3441.000000	98.107332 
3440.000000	98.106201 
3439.000000	98.105051 
3438.000000	98.103790 
3437.000000	98.102427 
3436.000000	98.101047 
3435.000000	98.099724 
3434.000000	98.098468 
3433.000000	98.097257 
3432.000000	98.096124 
3431.000000	98.095139 
3430.000000	98.094242 
3429.000000	98.093189 
3428.000000	98.091746 
3427.000000	98.089964 
3426.000000	98.088174 
3425.000000	98.086677 
3424.000000	98.085520 
3423.000000	98.084599 
3422.000000	98.083864 
3421.000000	98.083289 
3420.000000	98.082676 
3419.000000	98.081735 
3418.000000	98.080451 
3417.000000	98.079221 
3416.000000	98.078484 
3415.000000	98.078302 
3414.000000	98.078354 
3413.000000	98.078240 
3412.000000	98.077781 
3411.000000	98.077049 
3410.000000	98.076246 
3409.000000	98.075556 
3408.000000	98.074996 
3407.000000	98.074420 
3406.000000	98.073701 
3405.000000	98.072939 
3404.000000	98.072383 
3403.000000	98.072135 
3402.000000	98.072009 
3401.000000	98.071731 
3400.000000	98.071246 
3399.000000	98.070745 
3398.000000	98.070428 
3397.000000	98.070300 
3396.000000	98.070213 
3395.000000	98.070079 
3394.000000	98.069983 
3393.000000	98.070056 
3392.000000	98.070273 
3391.000000	98.070437 
3390.000000	98.070380 
3389.000000	98.070125 
3388.000000	98.069856 
3387.000000	98.069775 
3386.000000	98.069963 
3385.000000	98.070379 
3384.000000	98.070901 
3383.000000	98.071382 
3382.000000	98.071716 
3381.000000	98.071884 
3380.000000	98.071960 
3379.000000	98.072057 
3378.000000	98.072256 
3377.000000	98.072560 
3376.000000	98.072905 
3375.000000	98.073223 
3374.000000	98.073526 
3373.000000	98.073929 
3372.000000	98.074515 
3371.000000	98.075212 
3370.000000	98.075826 
3369.000000	98.076238 
3368.000000	98.076506 
3367.000000	98.076750 
3366.000000	98.076995 
3365.000000	98.077202 
3364.000000	98.077439 
3363.000000	98.077865 
3362.000000	98.078524 
3361.000000	98.079247 
3360.000000	98.079858 
3359.000000	98.080408 
3358.000000	98.081103 
3357.000000	98.082022 
3356.000000	98.082973 
3355.000000	98.083670 
3354.000000	98.084029 
3353.000000	98.084297 
3352.000000	98.084851 
3351.000000	98.085857 
3350.000000	98.087127 
3349.000000	98.088323 
3348.000000	98.089266 
3347.000000	98.090004 
3346.000000	98.090682 
3345.000000	98.091412 
3344.000000	98.092258 
3343.000000	98.093199 
3342.000000	98.094093 
3341.000000	98.094728 
3340.000000	98.094925 
3339.000000	98.094619 
3338.000000	98.093982 
3337.000000	98.093480 
3336.000000	98.093681 
3335.000000	98.094830 
3334.000000	98.096624 
3333.000000	98.098435 
3332.000000	98.099719 
3331.000000	98.100172 
3330.000000	98.099727 
3329.000000	98.098718 
3328.000000	98.097933 
3327.000000	98.098102 
3326.000000	98.099189 
3325.000000	98.100344 
3324.000000	98.100762 
3323.000000	98.100544 
3322.000000	98.100591 
3321.000000	98.101732 
3320.000000	98.104072 
3319.000000	98.107020 
3318.000000	98.109769 
3317.000000	98.111768 
3316.000000	98.112940 
3315.000000	98.113652 
3314.000000	98.114501 
3313.000000	98.115886 
3312.000000	98.117605 
3311.000000	98.119011 
3310.000000	98.119712 
3309.000000	98.120026 
3308.000000	98.120553 
3307.000000	98.121355 
3306.000000	98.121835 
3305.000000	98.121489 
3304.000000	98.120517 
3303.000000	98.119602 
3302.000000	98.119261 
3301.000000	98.119517 
3300.000000	98.120099 
3299.000000	98.120764 
3298.000000	98.121486 
3297.000000	98.122389 
3296.000000	98.123563 
3295.000000	98.124987 
3294.000000	98.126640 
3293.000000	98.128506 
3292.000000	98.130300 
3291.000000	98.131439 
3290.000000	98.131618 
3289.000000	98.131312 
3288.000000	98.131416 
3287.000000	98.132257 
3286.000000	98.133294 
3285.000000	98.133887 
3284.000000	98.134071 
3283.000000	98.134394 
3282.000000	98.135223 
3281.000000	98.136464 
3280.000000	98.137788 
3279.000000	98.138951 
3278.000000	98.139901 
3277.000000	98.140713 
3276.000000	98.141447 
3275.000000	98.142048 
3274.000000	98.142404 
3273.000000	98.142526 
3272.000000	98.142569 
3271.000000	98.142687 
3270.000000	98.142961 
3269.000000	98.143484 
3268.000000	98.144358 
3267.000000	98.145552 
3266.000000	98.146830 
3265.000000	98.147931 
3264.000000	98.148789 
3263.000000	98.149500 
3262.000000	98.150115 
3261.000000	98.150600 
3260.000000	98.150966 
3259.000000	98.151357 
3258.000000	98.151965 
3257.000000	98.152890 
3256.000000	98.154096 
3255.000000	98.155420 
3254.000000	98.156619 
3253.000000	98.157513 
3252.000000	98.158115 
3251.000000	98.158625 
3250.000000	98.159286 
3249.000000	98.160199 
3248.000000	98.161309 
3247.000000	98.162501 
3246.000000	98.163662 
3245.000000	98.164732 
3244.000000	98.165716 
3243.000000	98.166664 
3242.000000	98.167612 
3241.000000	98.168557 
3240.000000	98.169500 
3239.000000	98.170486 
3238.000000	98.171579 
3237.000000	98.172807 
3236.000000	98.174134 
3235.000000	98.175478 
3234.000000	98.176749 
3233.000000	98.177881 
3232.000000	98.178874 
3231.000000	98.179774 
3230.000000	98.180644 
3229.000000	98.181537 
3228.000000	98.182495 
3227.000000	98.183560 
3226.000000	98.184764 
3225.000000	98.186112 
3224.000000	98.187565 
3223.000000	98.189039 
3222.000000	98.190428 
3221.000000	98.191666 
3220.000000	98.192794 
3219.000000	98.193928 
3218.000000	98.195166 
3217.000000	98.196495 
3216.000000	98.197825 
3215.000000	98.199098 
3214.000000	98.200354 
3213.000000	98.201681 
3212.000000	98.203131 
3211.000000	98.204675 
3210.000000	98.206228 
3209.000000	98.207691 
3208.000000	98.209004 
3207.000000	98.210171 
3206.000000	98.211276 
3205.000000	98.212459 
3204.000000	98.213832 
3203.000000	98.215416 
3202.000000	98.217127 
3201.000000	98.218842 
3200.000000	98.220471 
3199.000000	98.221972 
3198.000000	98.223342 
3197.000000	98.224619 
3196.000000	98.225880 
3195.000000	98.227210 
3194.000000	98.228660 
3193.000000	98.230231 
3192.000000	98.231906 
3191.000000	98.233677 
3190.000000	98.235534 
3189.000000	98.237446 
3188.000000	98.239356 
3187.000000	98.241168 
3186.000000	98.242769 
3185.000000	98.244123 
3184.000000	98.245390 
3183.000000	98.246886 
3182.000000	98.248824 
3181.000000	98.251112 
3180.000000	98.253391 
3179.000000	98.255389 
3178.000000	98.257127 
3177.000000	98.258783 
3176.000000	98.260414 
3175.000000	98.261951 
3174.000000	98.263376 
3173.000000	98.264770 
3172.000000	98.266218 
3171.000000	98.267793 
3170.000000	98.269585 
3169.000000	98.271608 
3168.000000	98.273677 
3167.000000	98.275505 
3166.000000	98.276976 
3165.000000	98.278279 
3164.000000	98.279720 
3163.000000	98.281452 
3162.000000	98.283387 
3161.000000	98.285317 
3160.000000	98.287121 
3159.000000	98.288913 
3158.000000	98.290979 
3157.000000	98.293465 
3156.000000	98.296129 
3155.000000	98.298519 
3154.000000	98.300424 
3153.000000	98.302020 
3152.000000	98.303524 
3151.000000	98.304808 
3150.000000	98.305515 
3149.000000	98.305560 
3148.000000	98.305437 
3147.000000	98.305952 
3146.000000	98.307638 
3145.000000	98.310490 
3144.000000	98.314180 
3143.000000	98.318392 
3142.000000	98.322828 
3141.000000	98.326963 
3140.000000	98.330091 
3139.000000	98.331870 
3138.000000	98.332743 
3137.000000	98.333611 
3136.000000	98.335074 
3135.000000	98.337112 
3134.000000	98.339425 
3133.000000	98.341742 
3132.000000	98.343791 
3131.000000	98.345296 
3130.000000	98.346271 
3129.000000	98.347181 
3128.000000	98.348591 
3127.000000	98.350713 
3126.000000	98.353416 
3125.000000	98.356519 
3124.000000	98.359834 
3123.000000	98.363019 
3122.000000	98.365625 
3121.000000	98.367412 
3120.000000	98.368566 
3119.000000	98.369597 
3118.000000	98.371062 
3117.000000	98.373307 
3116.000000	98.376287 
3115.000000	98.379571 
3114.000000	98.382627 
3113.000000	98.385221 
3112.000000	98.387518 
3111.000000	98.389837 
3110.000000	98.392356 
3109.000000	98.394946 
3108.000000	98.397237 
3107.000000	98.398879 
3106.000000	98.399898 
3105.000000	98.400732 
3104.000000	98.401816 
3103.000000	98.403204 
3102.000000	98.404706 
3101.000000	98.406306 
3100.000000	98.408234 
3099.000000	98.410575 
3098.000000	98.413050 
3097.000000	98.415296 
3096.000000	98.417258 
3095.000000	98.419152 
3094.000000	98.421174 
3093.000000	98.423319 
3092.000000	98.425431 
3091.000000	98.427325 
3090.000000	98.428909 
3089.000000	98.430268 
3088.000000	98.431661 
3087.000000	98.433335 
3086.000000	98.435329 
3085.000000	98.437489 
3084.000000	98.439588 
3083.000000	98.441486 
3082.000000	98.443186 
3081.000000	98.444818 
3080.000000	98.446536 
3079.000000	98.448384 
3078.000000	98.450244 
3077.000000	98.451944 
3076.000000	98.453417 
3075.000000	98.454752 
3074.000000	98.456131 
3073.000000	98.457664 
3072.000000	98.459296 
3071.000000	98.460874 
3070.000000	98.462329 
3069.000000	98.463752 
3068.000000	98.465278 
3067.000000	98.466912 
3066.000000	98.468539 
3065.000000	98.470102 
3064.000000	98.471679 
3063.000000	98.473342 
3062.000000	98.474987 
3061.000000	98.476424 
3060.000000	98.477641 
3059.000000	98.478865 
3058.000000	98.480290 
3057.000000	98.481835 
3056.000000	98.483230 
3055.000000	98.484346 
3054.000000	98.485353 
3053.000000	98.486539 
3052.000000	98.488003 
3051.000000	98.489563 
3050.000000	98.490944 
3049.000000	98.492040 
3048.000000	98.493000 
3047.000000	98.494091 
3046.000000	98.495504 
3045.000000	98.497273 
3044.000000	98.499307 
3043.000000	98.501446 
3042.000000	98.503473 
3041.000000	98.505075 
3040.000000	98.505923 
3039.000000	98.505992 
3038.000000	98.505779 
3037.000000	98.506014 
3036.000000	98.506955 
3035.000000	98.508144 
3034.000000	98.509011 
3033.000000	98.509592 
3032.000000	98.510374 
3031.000000	98.511482 
3030.000000	98.512447 
3029.000000	98.512904 
3028.000000	98.513110 
3027.000000	98.513582 
3026.000000	98.514426 
3025.000000	98.515301 
3024.000000	98.515893 
3023.000000	98.516186 
3022.000000	98.516338 
3021.000000	98.516536 
3020.000000	98.516952 
3019.000000	98.517662 
3018.000000	98.518530 
3017.000000	98.519260 
3016.000000	98.519647 
3015.000000	98.519767 
3014.000000	98.519942 
3013.000000	98.520482 
3012.000000	98.521310 
3011.000000	98.521855 
3010.000000	98.521601 
3009.000000	98.520794 
3008.000000	98.520296 
3007.000000	98.520561 
3006.000000	98.521142 
3005.000000	98.521530 
3004.000000	98.521970 
3003.000000	98.522850 
3002.000000	98.523625 
3001.000000	98.523219 
3000.000000	98.521552 
2999.000000	98.519935 
2998.000000	98.519634 
2997.000000	98.520639 
2996.000000	98.522118 
2995.000000	98.523570 
2994.000000	98.524994 
2993.000000	98.526160 
2992.000000	98.526515 
2991.000000	98.525936 
2990.000000	98.525106 
2989.000000	98.524858 
2988.000000	98.525328 
2987.000000	98.525912 
2986.000000	98.525885 
2985.000000	98.524952 
2984.000000	98.523403 
2983.000000	98.522050 
2982.000000	98.521891 
2981.000000	98.523392 
2980.000000	98.525883 
2979.000000	98.527952 
2978.000000	98.528757 
2977.000000	98.528750 
2976.000000	98.528807 
2975.000000	98.528985 
2974.000000	98.528774 
2973.000000	98.528497 
2972.000000	98.529589 
2971.000000	98.533026 
2970.000000	98.537942 
2969.000000	98.542221 
2968.000000	98.544433 
2967.000000	98.544977 
2966.000000	98.545528 
2965.000000	98.547692 
2964.000000	98.551845 
2963.000000	98.556803 
2962.000000	98.560626 
2961.000000	98.562234 
2960.000000	98.562305 
2959.000000	98.562595 
2958.000000	98.564407 
2957.000000	98.567795 
2956.000000	98.571860 
2955.000000	98.575313 
2954.000000	98.576973 
2953.000000	98.576397 
2952.000000	98.574392 
2951.000000	98.572718 
2950.000000	98.572923 
2949.000000	98.575375 
2948.000000	98.579183 
2947.000000	98.582810 
2946.000000	98.584998 
2945.000000	98.585536 
2944.000000	98.585237 
2943.000000	98.584938 
2942.000000	98.584557 
2941.000000	98.583450 
2940.000000	98.581576 
2939.000000	98.579749 
2938.000000	98.578627 
2937.000000	98.578009 
2936.000000	98.577503 
2935.000000	98.577462 
2934.000000	98.578641 
2933.000000	98.581005 
2932.000000	98.583319 
2931.000000	98.584100 
2930.000000	98.582814 
2929.000000	98.580180 
2928.000000	98.577669 
2927.000000	98.576733 
2926.000000	98.578151 
2925.000000	98.581528 
2924.000000	98.585318 
2923.000000	98.587903 
2922.000000	98.588982 
2921.000000	98.589692 
2920.000000	98.591132 
2919.000000	98.593040 
2918.000000	98.594306 
2917.000000	98.594690 
2916.000000	98.595385 
2915.000000	98.597606 
2914.000000	98.601099 
2913.000000	98.604514 
2912.000000	98.606990 
2911.000000	98.608902 
2910.000000	98.611092 
2909.000000	98.613847 
2908.000000	98.616861 
2907.000000	98.619715 
2906.000000	98.622098 
2905.000000	98.623685 
2904.000000	98.624318 
2903.000000	98.624489 
2902.000000	98.625399 
2901.000000	98.627853 
2900.000000	98.631758 
2899.000000	98.635938 
2898.000000	98.639229 
2897.000000	98.641323 
2896.000000	98.642620 
2895.000000	98.643587 
2894.000000	98.644445 
2893.000000	98.645261 
2892.000000	98.646026 
2891.000000	98.646663 
2890.000000	98.647152 
2889.000000	98.647649 
2888.000000	98.648364 
2887.000000	98.649380 
2886.000000	98.650716 
2885.000000	98.652439 
2884.000000	98.654453 
2883.000000	98.656320 
2882.000000	98.657615 
2881.000000	98.658469 
2880.000000	98.659539 
2879.000000	98.661394 
2878.000000	98.664056 
2877.000000	98.667103 
2876.000000	98.669983 
2875.000000	98.672295 
2874.000000	98.674085 
2873.000000	98.675867 
2872.000000	98.678017 
2871.000000	98.680020 
2870.000000	98.680756 
2869.000000	98.679762 
2868.000000	98.677943 
2867.000000	98.676854 
2866.000000	98.677330 
2865.000000	98.679110 
2864.000000	98.681430 
2863.000000	98.683655 
2862.000000	98.685460 
2861.000000	98.686783 
2860.000000	98.687779 
2859.000000	98.688715 
2858.000000	98.689794 
2857.000000	98.690994 
2856.000000	98.692001 
2855.000000	98.692440 
2854.000000	98.692370 
2853.000000	98.692475 
2852.000000	98.693420 
2851.000000	98.694997 
2850.000000	98.696236 
2849.000000	98.696511 
2848.000000	98.696306 
2847.000000	98.696831 
2846.000000	98.699123 
2845.000000	98.703530 
2844.000000	98.709504 
2843.000000	98.715650 
2842.000000	98.720492 
2841.000000	98.723473 
2840.000000	98.724970 
2839.000000	98.725465 
2838.000000	98.725235 
2837.000000	98.724903 
2836.000000	98.725446 
2835.000000	98.727063 
2834.000000	98.728713 
2833.000000	98.729430 
2832.000000	98.729563 
2831.000000	98.730017 
2830.000000	98.730741 
2829.000000	98.730962 
2828.000000	98.730652 
2827.000000	98.730755 
2826.000000	98.731844 
2825.000000	98.733463 
2824.000000	98.735060 
2823.000000	98.736786 
2822.000000	98.738932 
2821.000000	98.741139 
2820.000000	98.742708 
2819.000000	98.743384 
2818.000000	98.743443 
2817.000000	98.743258 
2816.000000	98.743096 
2815.000000	98.743182 
2814.000000	98.743668 
2813.000000	98.744546 
2812.000000	98.745680 
2811.000000	98.746895 
2810.000000	98.747999 
2809.000000	98.748883 
2808.000000	98.749648 
2807.000000	98.750519 
2806.000000	98.751529 
2805.000000	98.752408 
2804.000000	98.752853 
2803.000000	98.752892 
2802.000000	98.752922 
2801.000000	98.753370 
2800.000000	98.754331 
2799.000000	98.755543 
2798.000000	98.756686 
2797.000000	98.757666 
2796.000000	98.758555 
2795.000000	98.759385 
2794.000000	98.760113 
2793.000000	98.760755 
2792.000000	98.761423 
2791.000000	98.762177 
2790.000000	98.762922 
2789.000000	98.763525 
2788.000000	98.763968 
2787.000000	98.764351 
2786.000000	98.764783 
2785.000000	98.765321 
2784.000000	98.765981 
2783.000000	98.766732 
2782.000000	98.767472 
2781.000000	98.768108 
2780.000000	98.768651 
2779.000000	98.769217 
2778.000000	98.769901 
2777.000000	98.770696 
2776.000000	98.771516 
2775.000000	98.772275 
2774.000000	98.772949 
2773.000000	98.773579 
2772.000000	98.774237 
2771.000000	98.774963 
2770.000000	98.775728 
2769.000000	98.776464 
2768.000000	98.777139 
2767.000000	98.777774 
2766.000000	98.778399 
2765.000000	98.779002 
2764.000000	98.779557 
2763.000000	98.780077 
2762.000000	98.780628 
2761.000000	98.781269 
2760.000000	98.781993 
2759.000000	98.782733 
2758.000000	98.783422 
2757.000000	98.784056 
2756.000000	98.784682 
2755.000000	98.785340 
2754.000000	98.786025 
2753.000000	98.786704 
2752.000000	98.787360 
2751.000000	98.788009 
2750.000000	98.788662 
2749.000000	98.789291 
2748.000000	98.789855 
2747.000000	98.790352 
2746.000000	98.790845 
2745.000000	98.791397 
2744.000000	98.792017 
2743.000000	98.792652 
2742.000000	98.793242 
2741.000000	98.793761 
2740.000000	98.794214 
2739.000000	98.794632 
2738.000000	98.795079 
2737.000000	98.795632 
2736.000000	98.796309 
2735.000000	98.797022 
2734.000000	98.797625 
2733.000000	98.798034 
2732.000000	98.798281 
2731.000000	98.798477 
2730.000000	98.798742 
2729.000000	98.799185 
2728.000000	98.799875 
2727.000000	98.800773 
2726.000000	98.801718 
2725.000000	98.802532 
2724.000000	98.803149 
2723.000000	98.803622 
2722.000000	98.804029 
2721.000000	98.804374 
2720.000000	98.804588 
2719.000000	98.804617 
2718.000000	98.804538 
2717.000000	98.804560 
2716.000000	98.804830 
2715.000000	98.805257 
2714.000000	98.805568 
2713.000000	98.805601 
2712.000000	98.805477 
2711.000000	98.805436 
2710.000000	98.805598 
2709.000000	98.805950 
2708.000000	98.806504 
2707.000000	98.807297 
2706.000000	98.808242 
2705.000000	98.809057 
2704.000000	98.809478 
2703.000000	98.809576 
2702.000000	98.809832 
2701.000000	98.810765 
2700.000000	98.812386 
2699.000000	98.814039 
2698.000000	98.814915 
2697.000000	98.814735 
2696.000000	98.813900 
2695.000000	98.813092 
2694.000000	98.812797 
2693.000000	98.813080 
2692.000000	98.813536 
2691.000000	98.813550 
2690.000000	98.812906 
2689.000000	98.812135 
2688.000000	98.811929 
2687.000000	98.812274 
2686.000000	98.812564 
2685.000000	98.812618 
2684.000000	98.812992 
2683.000000	98.814009 
2682.000000	98.814956 
2681.000000	98.814802 
2680.000000	98.813384 
2679.000000	98.811510 
2678.000000	98.810095 
2677.000000	98.809501 
2676.000000	98.809643 
2675.000000	98.810237 
2674.000000	98.810874 
2673.000000	98.811170 
2672.000000	98.810989 
2671.000000	98.810450 
2670.000000	98.809781 
2669.000000	98.809281 
2668.000000	98.809196 
2667.000000	98.809380 
2666.000000	98.809215 
2665.000000	98.808197 
2664.000000	98.806482 
2663.000000	98.804572 
2662.000000	98.802588 
2661.000000	98.800264 
2660.000000	98.797716 
2659.000000	98.795717 
2658.000000	98.794926 
2657.000000	98.795086 
2656.000000	98.795200 
2655.000000	98.794446 
2654.000000	98.792796 
2653.000000	98.790890 
2652.000000	98.789521 
2651.000000	98.789152 
2650.000000	98.789615 
2649.000000	98.790152 
2648.000000	98.789931 
2647.000000	98.788740 
2646.000000	98.787224 
2645.000000	98.786372 
2644.000000	98.786699 
2643.000000	98.787883 
2642.000000	98.789024 
2641.000000	98.789257 
2640.000000	98.788259 
2639.000000	98.786386 
2638.000000	98.784481 
2637.000000	98.783341 
2636.000000	98.783218 
2635.000000	98.783859 
2634.000000	98.784921 
2633.000000	98.786234 
2632.000000	98.787618 
2631.000000	98.788684 
2630.000000	98.789075 
2629.000000	98.788802 
2628.000000	98.788106 
2627.000000	98.787106 
2626.000000	98.785784 
2625.000000	98.784293 
2624.000000	98.783035 
2623.000000	98.782403 
2622.000000	98.782550 
2621.000000	98.783347 
2620.000000	98.784407 
2619.000000	98.785292 
2618.000000	98.785865 
2617.000000	98.786370 
2616.000000	98.787032 
2615.000000	98.787711 
2614.000000	98.788139 
2613.000000	98.788321 
2612.000000	98.788421 
2611.000000	98.788422 
2610.000000	98.788226 
2609.000000	98.787970 
2608.000000	98.787867 
2607.000000	98.787862 
2606.000000	98.787835 
2605.000000	98.788086 
2604.000000	98.789096 
2603.000000	98.790814 
2602.000000	98.792614 
2601.000000	98.793948 
2600.000000	98.794785 
2599.000000	98.795315 
2598.000000	98.795639 
2597.000000	98.795867 
2596.000000	98.796215 
2595.000000	98.796824 
2594.000000	98.797606 
2593.000000	98.798366 
2592.000000	98.798985 
2591.000000	98.799469 
2590.000000	98.799917 
2589.000000	98.800466 
2588.000000	98.801201 
2587.000000	98.802082 
2586.000000	98.802989 
2585.000000	98.803822 
2584.000000	98.804546 
2583.000000	98.805168 
2582.000000	98.805719 
2581.000000	98.806259 
2580.000000	98.806842 
2579.000000	98.807484 
2578.000000	98.808161 
2577.000000	98.808847 
2576.000000	98.809525 
2575.000000	98.810194 
2574.000000	98.810860 
2573.000000	98.811527 
2572.000000	98.812194 
2571.000000	98.812859 
2570.000000	98.813518 
2569.000000	98.814177 
2568.000000	98.814843 
2567.000000	98.815517 
2566.000000	98.816193 
2565.000000	98.816858 
2564.000000	98.817502 
2563.000000	98.818123 
2562.000000	98.818721 
2561.000000	98.819297 
2560.000000	98.819853 
2559.000000	98.820391 
2558.000000	98.820911 
2557.000000	98.821413 
2556.000000	98.821904 
2555.000000	98.822389 
2554.000000	98.822877 
2553.000000	98.823360 
2552.000000	98.823829 
2551.000000	98.824290 
2550.000000	98.824742 
2549.000000	98.825159 
2548.000000	98.825525 
2547.000000	98.825871 
2546.000000	98.826223 
2545.000000	98.826550 
2544.000000	98.826800 
2543.000000	98.826975 
2542.000000	98.827143 
2541.000000	98.827395 
2540.000000	98.827782 
2539.000000	98.828250 
2538.000000	98.828630 
2537.000000	98.828781 
2536.000000	98.828789 
2535.000000	98.828954 
2534.000000	98.829484 
2533.000000	98.830285 
2532.000000	98.831024 
2531.000000	98.831370 
2530.000000	98.831175 
2529.000000	98.830596 
2528.000000	98.830091 
2527.000000	98.830058 
2526.000000	98.830423 
2525.000000	98.830705 
2524.000000	98.830543 
2523.000000	98.830009 
2522.000000	98.829403 
2521.000000	98.828980 
2520.000000	98.828866 
2519.000000	98.829021 
2518.000000	98.829179 
2517.000000	98.829112 
2516.000000	98.829020 
2515.000000	98.829438 
2514.000000	98.830641 
2513.000000	98.832290 
2512.000000	98.833626 
2511.000000	98.834019 
2510.000000	98.833385 
2509.000000	98.832333 
2508.000000	98.831757 
2507.000000	98.831983 
2506.000000	98.832472 
2505.000000	98.832550 
2504.000000	98.832227 
2503.000000	98.831924 
2502.000000	98.831671 
2501.000000	98.831207 
2500.000000	98.830770 
2499.000000	98.831122 
2498.000000	98.832660 
2497.000000	98.834963 
2496.000000	98.837222 
2495.000000	98.838761 
2494.000000	98.839254 
2493.000000	98.838956 
2492.000000	98.838790 
2491.000000	98.839666 
2490.000000	98.841533 
2489.000000	98.843404 
2488.000000	98.844438 
2487.000000	98.844713 
2486.000000	98.844854 
2485.000000	98.845224 
2484.000000	98.845586 
2483.000000	98.845390 
2482.000000	98.844319 
2481.000000	98.842807 
2480.000000	98.841941 
2479.000000	98.842501 
2478.000000	98.844198 
2477.000000	98.845964 
2476.000000	98.847013 
2475.000000	98.847319 
2474.000000	98.847146 
2473.000000	98.846673 
2472.000000	98.846133 
2471.000000	98.845847 
2470.000000	98.845887 
2469.000000	98.845992 
2468.000000	98.845931 
2467.000000	98.845671 
2466.000000	98.845149 
2465.000000	98.844299 
2464.000000	98.843412 
2463.000000	98.843059 
2462.000000	98.843476 
2461.000000	98.844288 
2460.000000	98.844908 
2459.000000	98.845015 
2458.000000	98.844601 
2457.000000	98.843892 
2456.000000	98.843335 
2455.000000	98.843312 
2454.000000	98.843628 
2453.000000	98.843572 
2452.000000	98.842785 
2451.000000	98.841874 
2450.000000	98.841785 
2449.000000	98.842783 
2448.000000	98.844364 
2447.000000	98.845886 
2446.000000	98.847082 
2445.000000	98.847866 
2444.000000	98.848124 
2443.000000	98.847849 
2442.000000	98.847293 
2441.000000	98.846848 
2440.000000	98.846784 
2439.000000	98.847109 
2438.000000	98.847625 
2437.000000	98.848073 
2436.000000	98.848248 
2435.000000	98.848041 
2434.000000	98.847500 
2433.000000	98.846983 
2432.000000	98.847084 
2431.000000	98.848190 
2430.000000	98.850048 
2429.000000	98.851878 
2428.000000	98.853036 
2427.000000	98.853458 
2426.000000	98.853500 
2425.000000	98.853567 
2424.000000	98.853906 
2423.000000	98.854566 
2422.000000	98.855495 
2421.000000	98.856727 
2420.000000	98.858384 
2419.000000	98.860308 
2418.000000	98.861864 
2417.000000	98.862457 
2416.000000	98.862226 
2415.000000	98.861944 
2414.000000	98.862200 
2413.000000	98.863025 
2412.000000	98.864240 
2411.000000	98.865648 
2410.000000	98.866789 
2409.000000	98.867116 
2408.000000	98.866569 
2407.000000	98.865584 
2406.000000	98.864566 
2405.000000	98.863525 
2404.000000	98.862410 
2403.000000	98.861456 
2402.000000	98.860938 
2401.000000	98.860819 
2400.000000	98.860890 
2399.000000	98.861172 
2398.000000	98.861885 
2397.000000	98.863024 
2396.000000	98.864112 
2395.000000	98.864504 
2394.000000	98.863986 
2393.000000	98.862965 
2392.000000	98.862144 
2391.000000	98.861857 
2390.000000	98.861862 
2389.000000	98.861695 
2388.000000	98.861101 
2387.000000	98.860167 
2386.000000	98.859189 
2385.000000	98.858407 
2384.000000	98.857803 
2383.000000	98.857155 
2382.000000	98.856292 
2381.000000	98.855256 
2380.000000	98.854218 
2379.000000	98.853274 
2378.000000	98.852384 
2377.000000	98.851476 
2376.000000	98.850527 
2375.000000	98.849562 
2374.000000	98.848594 
2373.000000	98.847617 
2372.000000	98.846607 
2371.000000	98.845542 
2370.000000	98.844437 
2369.000000	98.843322 
2368.000000	98.842192 
2367.000000	98.841036 
2366.000000	98.839843 
2365.000000	98.838607 
2364.000000	98.837325 
2363.000000	98.836005 
2362.000000	98.834656 
2361.000000	98.833282 
2360.000000	98.831903 
2359.000000	98.830544 
2358.000000	98.829224 
2357.000000	98.827930 
2356.000000	98.826636 
2355.000000	98.825341 
2354.000000	98.824023 
2353.000000	98.822634 
2352.000000	98.821161 
2351.000000	98.819698 
2350.000000	98.818351 
2349.000000	98.817050 
2348.000000	98.815648 
2347.000000	98.814068 
2346.000000	98.812406 
2345.000000	98.810910 
2344.000000	98.809737 
2343.000000	98.808924 
2342.000000	98.808173 
2341.000000	98.807209 
2340.000000	98.806011 
2339.000000	98.804786 
2338.000000	98.803788 
2337.000000	98.802944 
2336.000000	98.801991 
2335.000000	98.800656 
2334.000000	98.799111 
2333.000000	98.797783 
2332.000000	98.797222 
2331.000000	98.797423 
2330.000000	98.798000 
2329.000000	98.797898 
2328.000000	98.796615 
2327.000000	98.793874 
2326.000000	98.790123 
2325.000000	98.786269 
2324.000000	98.783432 
2323.000000	98.782472 
2322.000000	98.783063 
2321.000000	98.784380 
2320.000000	98.785967 
2319.000000	98.787821 
2318.000000	98.789833 
2317.000000	98.791037 
2316.000000	98.791163 
2315.000000	98.790097 
2314.000000	98.788544 
2313.000000	98.786540 
2312.000000	98.784914 
2311.000000	98.783898 
2310.000000	98.783801 
2309.000000	98.783889 
2308.000000	98.784320 
2307.000000	98.785227 
2306.000000	98.786862 
2305.000000	98.788417 
2304.000000	98.789497 
2303.000000	98.789665 
2302.000000	98.788747 
2301.000000	98.786246 
2300.000000	98.783007 
2299.000000	98.780199 
2298.000000	98.778804 
2297.000000	98.778337 
2296.000000	98.778456 
2295.000000	98.778638 
2294.000000	98.778215 
2293.000000	98.776211 
2292.000000	98.772834 
2291.000000	98.769087 
2290.000000	98.765271 
2289.000000	98.760863 
2288.000000	98.756240 
2287.000000	98.753182 
2286.000000	98.752735 
2285.000000	98.754192 
2284.000000	98.756523 
2283.000000	98.759906 
2282.000000	98.764508 
2281.000000	98.769522 
2280.000000	98.773849 
2279.000000	98.776855 
2278.000000	98.777880 
2277.000000	98.776780 
2276.000000	98.775426 
2275.000000	98.776596 
2274.000000	98.780550 
2273.000000	98.784163 
2272.000000	98.784811 
2271.000000	98.783521 
2270.000000	98.783252 
2269.000000	98.785268 
2268.000000	98.788438 
2267.000000	98.791000 
2266.000000	98.791877 
2265.000000	98.791146 
2264.000000	98.790255 
2263.000000	98.790795 
2262.000000	98.792359 
2261.000000	98.792531 
2260.000000	98.789771 
2259.000000	98.785419 
2258.000000	98.782214 
2257.000000	98.781368 
2256.000000	98.781953 
2255.000000	98.782629 
2254.000000	98.783020 
2253.000000	98.783527 
2252.000000	98.784574 
2251.000000	98.786188 
2250.000000	98.787982 
2249.000000	98.789404 
2248.000000	98.790193 
2247.000000	98.790362 
2246.000000	98.790012 
2245.000000	98.789315 
2244.000000	98.788676 
2243.000000	98.788527 
2242.000000	98.788852 
2241.000000	98.789122 
2240.000000	98.788894 
2239.000000	98.788369 
2238.000000	98.788068 
2237.000000	98.788022 
2236.000000	98.787741 
2235.000000	98.787084 
2234.000000	98.786755 
2233.000000	98.787635 
2232.000000	98.789779 
2231.000000	98.792131 
2230.000000	98.793330 
2229.000000	98.792844 
2228.000000	98.791186 
2227.000000	98.789035 
2226.000000	98.786421 
2225.000000	98.783347 
2224.000000	98.781054 
2223.000000	98.781395 
2222.000000	98.784646 
2221.000000	98.788713 
2220.000000	98.790971 
2219.000000	98.790726 
2218.000000	98.789169 
2217.000000	98.787740 
2216.000000	98.787128 
2215.000000	98.787632 
2214.000000	98.789372 
2213.000000	98.791771 
2212.000000	98.793537 
2211.000000	98.793718 
2210.000000	98.792739 
2209.000000	98.792223 
2208.000000	98.793616 
2207.000000	98.796891 
2206.000000	98.800589 
2205.000000	98.803298 
2204.000000	98.804910 
2203.000000	98.806278 
2202.000000	98.808080 
2201.000000	98.810110 
2200.000000	98.811196 
2199.000000	98.809932 
2198.000000	98.806110 
2197.000000	98.801326 
2196.000000	98.798200 
2195.000000	98.798321 
2194.000000	98.800613 
2193.000000	98.802135 
2192.000000	98.800561 
2191.000000	98.795814 
2190.000000	98.789886 
2189.000000	98.785395 
2188.000000	98.783487 
2187.000000	98.782914 
2186.000000	98.782006 
2185.000000	98.781694 
2184.000000	98.784895 
2183.000000	98.792042 
2182.000000	98.799110 
2181.000000	98.801908 
2180.000000	98.800817 
2179.000000	98.798982 
2178.000000	98.797513 
2177.000000	98.795594 
2176.000000	98.794275 
2175.000000	98.796328 
2174.000000	98.801937 
2173.000000	98.807526 
2172.000000	98.809802 
2171.000000	98.808606 
2170.000000	98.805254 
2169.000000	98.800706 
2168.000000	98.796422 
2167.000000	98.794575 
2166.000000	98.795578 
2165.000000	98.796607 
2164.000000	98.794130 
2163.000000	98.787721 
2162.000000	98.781383 
2161.000000	98.782040 
2160.000000	98.795735 
2159.000000	98.822595 
2158.000000	98.853670 
2157.000000	98.876395 
2156.000000	98.885420 
2155.000000	98.884248 
2154.000000	98.879026 
2153.000000	98.873296 
2152.000000	98.868131 
2151.000000	98.863977 
2150.000000	98.860642 
2149.000000	98.857658 
2148.000000	98.856195 
2147.000000	98.858944 
2146.000000	98.866859 
2145.000000	98.877389 
2144.000000	98.887039 
2143.000000	98.894159 
2142.000000	98.897960 
2141.000000	98.896895 
2140.000000	98.890353 
2139.000000	98.881147 
2138.000000	98.874297 
2137.000000	98.872936 
2136.000000	98.876087 
2135.000000	98.880270 
2134.000000	98.882657 
2133.000000	98.883059 
2132.000000	98.883464 
2131.000000	98.885471 
2130.000000	98.887862 
2129.000000	98.887158 
2128.000000	98.881135 
2127.000000	98.871491 
2126.000000	98.862733 
2125.000000	98.858311 
2124.000000	98.857886 
2123.000000	98.858238 
2122.000000	98.856551 
2121.000000	98.852725 
2120.000000	98.848499 
2119.000000	98.844803 
2118.000000	98.840978 
2117.000000	98.836669 
2116.000000	98.833105 
2115.000000	98.831612 
2114.000000	98.832009 
2113.000000	98.833298 
2112.000000	98.835468 
2111.000000	98.838907 
2110.000000	98.842105 
2109.000000	98.842190 
2108.000000	98.838286 
2107.000000	98.832856 
2106.000000	98.829106 
2105.000000	98.827913 
2104.000000	98.827908 
2103.000000	98.827640 
2102.000000	98.826877 
2101.000000	98.826165 
2100.000000	98.825830 
2099.000000	98.825756 
2098.000000	98.826071 
2097.000000	98.827652 
2096.000000	98.831258 
2095.000000	98.835924 
2094.000000	98.839066 
2093.000000	98.839017 
2092.000000	98.836481 
2091.000000	98.833401 
2090.000000	98.831106 
2089.000000	98.829641 
2088.000000	98.828376 
2087.000000	98.826650 
2086.000000	98.824260 
2085.000000	98.821936 
2084.000000	98.821049 
2083.000000	98.822321 
2082.000000	98.824996 
2081.000000	98.827469 
2080.000000	98.828830 
2079.000000	98.829302 
2078.000000	98.829449 
2077.000000	98.829596 
2076.000000	98.829836 
2075.000000	98.830089 
2074.000000	98.830110 
2073.000000	98.829805 
2072.000000	98.829549 
2071.000000	98.829917 
2070.000000	98.831025 
2069.000000	98.832365 
2068.000000	98.833342 
2067.000000	98.833774 
2066.000000	98.833905 
2065.000000	98.834367 
2064.000000	98.835961 
2063.000000	98.838910 
2062.000000	98.842168 
2061.000000	98.844031 
2060.000000	98.843668 
2059.000000	98.841750 
2058.000000	98.839818 
2057.000000	98.839281 
2056.000000	98.840845 
2055.000000	98.844010 
2054.000000	98.846824 
2053.000000	98.847115 
2052.000000	98.844322 
2051.000000	98.839873 
2050.000000	98.835978 
2049.000000	98.834459 
2048.000000	98.836592 
2047.000000	98.842529 
2046.000000	98.850331 
2045.000000	98.856704 
2044.000000	98.859627 
2043.000000	98.859465 
2042.000000	98.857706 
2041.000000	98.855839 
2040.000000	98.855453 
2039.000000	98.857924 
2038.000000	98.863367 
2037.000000	98.870569 
2036.000000	98.878108 
2035.000000	98.884752 
2034.000000	98.889175 
2033.000000	98.891071 
2032.000000	98.892237 
2031.000000	98.894276 
2030.000000	98.895597 
2029.000000	98.893674 
2028.000000	98.889861 
2027.000000	98.888537 
2026.000000	98.891052 
2025.000000	98.893859 
2024.000000	98.893710 
2023.000000	98.891799 
2022.000000	98.891140 
2021.000000	98.892084 
2020.000000	98.892449 
2019.000000	98.890738 
2018.000000	98.887638 
2017.000000	98.885313 
2016.000000	98.885925 
2015.000000	98.889933 
2014.000000	98.895382 
2013.000000	98.899355 
2012.000000	98.900064 
2011.000000	98.897120 
2010.000000	98.891344 
2009.000000	98.885643 
2008.000000	98.883797 
2007.000000	98.885810 
2006.000000	98.886583 
2005.000000	98.882254 
2004.000000	98.875687 
2003.000000	98.872116 
2002.000000	98.871440 
2001.000000	98.869483 
2000.000000	98.865507 
1999.000000	98.862949 
1998.000000	98.862887 
1997.000000	98.862441 
1996.000000	98.860436 
1995.000000	98.859427 
1994.000000	98.860207 
1993.000000	98.858929 
1992.000000	98.852784 
1991.000000	98.845378 
1990.000000	98.842597 
1989.000000	98.845443 
1988.000000	98.849676 
1987.000000	98.850727 
1986.000000	98.847680 
1985.000000	98.843298 
1984.000000	98.841371 
1983.000000	98.843081 
1982.000000	98.845529 
1981.000000	98.845123 
1980.000000	98.842421 
1979.000000	98.841551 
1978.000000	98.844910 
1977.000000	98.851200 
1976.000000	98.858733 
1975.000000	98.867368 
1974.000000	98.875956 
1973.000000	98.881440 
1972.000000	98.882372 
1971.000000	98.880446 
1970.000000	98.877231 
1969.000000	98.871967 
1968.000000	98.864334 
1967.000000	98.857069 
1966.000000	98.853537 
1965.000000	98.854078 
1964.000000	98.856540 
1963.000000	98.859215 
1962.000000	98.861925 
1961.000000	98.864751 
1960.000000	98.866763 
1959.000000	98.866336 
1958.000000	98.862797 
1957.000000	98.857840 
1956.000000	98.854747 
1955.000000	98.855252 
1954.000000	98.857786 
1953.000000	98.859152 
1952.000000	98.857913 
1951.000000	98.855220 
1950.000000	98.852779 
1949.000000	98.851267 
1948.000000	98.850733 
1947.000000	98.851153 
1946.000000	98.852068 
1945.000000	98.852643 
1944.000000	98.852477 
1943.000000	98.851746 
1942.000000	98.850471 
1941.000000	98.848399 
1940.000000	98.845739 
1939.000000	98.843243 
1938.000000	98.841476 
1937.000000	98.840368 
1936.000000	98.839519 
1935.000000	98.838592 
1934.000000	98.837405 
1933.000000	98.835904 
1932.000000	98.834183 
1931.000000	98.832405 
1930.000000	98.830638 
1929.000000	98.828880 
1928.000000	98.827150 
1927.000000	98.825489 
1926.000000	98.823902 
1925.000000	98.822306 
1924.000000	98.820615 
1923.000000	98.818947 
1922.000000	98.817513 
1921.000000	98.816285 
1920.000000	98.814997 
1919.000000	98.813426 
1918.000000	98.811510 
1917.000000	98.809352 
1916.000000	98.807332 
1915.000000	98.805905 
1914.000000	98.804977 
1913.000000	98.803782 
1912.000000	98.801924 
1911.000000	98.800075 
1910.000000	98.798709 
1909.000000	98.797133 
1908.000000	98.794616 
1907.000000	98.791433 
1906.000000	98.788228 
1905.000000	98.785211 
1904.000000	98.782614 
1903.000000	98.780974 
1902.000000	98.779992 
1901.000000	98.778511 
1900.000000	98.776273 
1899.000000	98.774457 
1898.000000	98.773812 
1897.000000	98.773251 
1896.000000	98.771338 
1895.000000	98.768237 
1894.000000	98.764985 
1893.000000	98.762056 
1892.000000	98.759702 
1891.000000	98.758424 
1890.000000	98.758376 
1889.000000	98.759103 
1888.000000	98.760326 
1887.000000	98.761708 
1886.000000	98.761869 
1885.000000	98.759276 
1884.000000	98.754517 
1883.000000	98.750361 
1882.000000	98.748599 
1881.000000	98.748738 
1880.000000	98.749741 
1879.000000	98.751188 
1878.000000	98.752512 
1877.000000	98.752939 
1876.000000	98.752923 
1875.000000	98.754032 
1874.000000	98.756457 
1873.000000	98.758323 
1872.000000	98.758499 
1871.000000	98.757954 
1870.000000	98.757259 
1869.000000	98.755183 
1868.000000	98.752010 
1867.000000	98.750630 
1866.000000	98.752200 
1865.000000	98.755045 
1864.000000	98.757699 
1863.000000	98.760692 
1862.000000	98.764328 
1861.000000	98.766829 
1860.000000	98.766868 
1859.000000	98.766100 
1858.000000	98.766779 
1857.000000	98.768474 
1856.000000	98.769302 
1855.000000	98.768835 
1854.000000	98.768030 
1853.000000	98.767683 
1852.000000	98.768308 
1851.000000	98.770347 
1850.000000	98.773643 
1849.000000	98.777454 
1848.000000	98.781315 
1847.000000	98.785354 
1846.000000	98.789119 
1845.000000	98.791269 
1844.000000	98.791830 
1843.000000	98.792775 
1842.000000	98.794446 
1841.000000	98.795479 
1840.000000	98.795116 
1839.000000	98.793772 
1838.000000	98.792404 
1837.000000	98.791482 
1836.000000	98.791269 
1835.000000	98.792264 
1834.000000	98.794428 
1833.000000	98.796750 
1832.000000	98.797650 
1831.000000	98.796109 
1830.000000	98.793053 
1829.000000	98.790643 
1828.000000	98.789454 
1827.000000	98.788848 
1826.000000	98.788633 
1825.000000	98.788952 
1824.000000	98.789999 
1823.000000	98.791795 
1822.000000	98.793717 
1821.000000	98.794792 
1820.000000	98.794938 
1819.000000	98.795652 
1818.000000	98.797891 
1817.000000	98.799871 
1816.000000	98.799541 
1815.000000	98.797542 
1814.000000	98.795730 
1813.000000	98.794413 
1812.000000	98.792797 
1811.000000	98.791430 
1810.000000	98.791301 
1809.000000	98.791539 
1808.000000	98.791136 
1807.000000	98.790691 
1806.000000	98.790790 
1805.000000	98.790851 
1804.000000	98.790523 
1803.000000	98.790556 
1802.000000	98.791419 
1801.000000	98.792334 
1800.000000	98.792553 
1799.000000	98.792536 
1798.000000	98.792782 
1797.000000	98.793071 
1796.000000	98.793385 
1795.000000	98.794185 
1794.000000	98.795506 
1793.000000	98.796454 
1792.000000	98.796441 
1791.000000	98.796365 
1790.000000	98.796987 
1789.000000	98.797792 
1788.000000	98.798242 
1787.000000	98.798655 
1786.000000	98.799521 
1785.000000	98.800569 
1784.000000	98.801246 
1783.000000	98.801591 
1782.000000	98.802016 
1781.000000	98.802801 
1780.000000	98.804009 
1779.000000	98.805611 
1778.000000	98.807365 
1777.000000	98.808849 
1776.000000	98.809817 
1775.000000	98.810330 
1774.000000	98.810652 
1773.000000	98.811124 
1772.000000	98.812000 
1771.000000	98.813471 
1770.000000	98.815633 
1769.000000	98.818243 
1768.000000	98.820576 
1767.000000	98.822077 
1766.000000	98.822907 
1765.000000	98.823505 
1764.000000	98.823968 
1763.000000	98.824202 
1762.000000	98.824642 
1761.000000	98.825927 
1760.000000	98.827848 
1759.000000	98.829848 
1758.000000	98.831720 
1757.000000	98.833439 
1756.000000	98.834820 
1755.000000	98.835772 
1754.000000	98.837006 
1753.000000	98.839313 
1752.000000	98.841903 
1751.000000	98.842772 
1750.000000	98.841598 
1749.000000	98.840138 
1748.000000	98.839481 
1747.000000	98.839172 
1746.000000	98.839024 
1745.000000	98.839626 
1744.000000	98.840810 
1743.000000	98.841670 
1742.000000	98.842094 
1741.000000	98.842592 
1740.000000	98.843083 
1739.000000	98.843280 
1738.000000	98.843397 
1737.000000	98.843631 
1736.000000	98.843889 
1735.000000	98.843861 
1734.000000	98.843474 
1733.000000	98.843191 
1732.000000	98.842743 
1731.000000	98.841949 
1730.000000	98.841452 
1729.000000	98.841781 
1728.000000	98.842510 
1727.000000	98.842663 
1726.000000	98.841878 
1725.000000	98.840506 
1724.000000	98.838913 
1723.000000	98.837375 
1722.000000	98.836126 
1721.000000	98.835117 
1720.000000	98.834120 
1719.000000	98.833002 
1718.000000	98.831770 
1717.000000	98.830119 
1716.000000	98.828095 
1715.000000	98.826345 
1714.000000	98.824993 
1713.000000	98.823673 
1712.000000	98.822190 
1711.000000	98.820604 
1710.000000	98.818973 
1709.000000	98.817260 
1708.000000	98.815453 
1707.000000	98.813603 
1706.000000	98.811736 
1705.000000	98.809836 
1704.000000	98.807899 
1703.000000	98.805924 
1702.000000	98.803910 
1701.000000	98.801851 
1700.000000	98.799736 
1699.000000	98.797570 
1698.000000	98.795361 
1697.000000	98.793110 
1696.000000	98.790811 
1695.000000	98.788457 
1694.000000	98.786049 
1693.000000	98.783586 
1692.000000	98.781078 
1691.000000	98.778531 
1690.000000	98.775949 
1689.000000	98.773331 
1688.000000	98.770688 
1687.000000	98.768010 
1686.000000	98.765282 
1685.000000	98.762391 
1684.000000	98.759278 
1683.000000	98.756491 
1682.000000	98.753934 
1681.000000	98.751298 
1680.000000	98.748790 
1679.000000	98.746452 
1678.000000	98.743944 
1677.000000	98.741370 
1676.000000	98.739480 
1675.000000	98.738374 
1674.000000	98.737290 
1673.000000	98.735398 
1672.000000	98.731923 
1671.000000	98.726328 
1670.000000	98.718892 
1669.000000	98.712969 
1668.000000	98.711607 
1667.000000	98.712498 
1666.000000	98.712331 
1665.000000	98.709945 
1664.000000	98.705704 
1663.000000	98.700842 
1662.000000	98.696286 
1661.000000	98.692901 
1660.000000	98.691778 
1659.000000	98.691700 
1658.000000	98.689796 
1657.000000	98.685627 
1656.000000	98.681998 
1655.000000	98.679282 
1654.000000	98.672207 
1653.000000	98.661814 
1652.000000	98.659298 
1651.000000	98.658901 
1650.000000	98.657481 
1649.000000	98.656438 
1648.000000	98.655722 
1647.000000	98.653960 
1646.000000	98.652964 
1645.000000	98.652383 
1644.000000	98.651154 
1643.000000	98.651111 
1642.000000	98.653196 
1641.000000	98.656291 
1640.000000	98.659126 
1639.000000	98.660685 
1638.000000	98.660657 
1637.000000	98.660048 
1636.000000	98.661791 
1635.000000	98.665607 
1634.000000	98.666968 
1633.000000	98.666099 
1632.000000	98.668203 
1631.000000	98.674846 
1630.000000	98.681506 
1629.000000	98.683607 
1628.000000	98.682778 
1627.000000	98.682784 
1626.000000	98.683943 
1625.000000	98.686389 
1624.000000	98.692602 
1623.000000	98.703000 
1622.000000	98.712861 
1621.000000	98.719522 
1620.000000	98.725608 
1619.000000	98.733020 
1618.000000	98.739753 
1617.000000	98.744359 
1616.000000	98.750345 
1615.000000	98.756293 
1614.000000	98.758046 
1613.000000	98.759321 
1612.000000	98.766602 
1611.000000	98.779458 
1610.000000	98.790148 
1609.000000	98.795532 
1608.000000	98.800422 
1607.000000	98.806819 
1606.000000	98.810976 
1605.000000	98.812427 
1604.000000	98.815410 
1603.000000	98.821124 
1602.000000	98.826839 
1601.000000	98.831931 
1600.000000	98.838070 
1599.000000	98.843834 
1598.000000	98.846016 
1597.000000	98.845532 
1596.000000	98.846886 
1595.000000	98.851719 
1594.000000	98.856923 
1593.000000	98.860466 
1592.000000	98.863824 
1591.000000	98.867620 
1590.000000	98.870060 
1589.000000	98.871348 
1588.000000	98.874355 
1587.000000	98.879376 
1586.000000	98.883099 
1585.000000	98.884447 
1584.000000	98.886410 
1583.000000	98.890133 
1582.000000	98.892815 
1581.000000	98.893420 
1580.000000	98.894015 
1579.000000	98.894760 
1578.000000	98.893303 
1577.000000	98.890159 
1576.000000	98.890325 
1575.000000	98.893459 
1574.000000	98.893435 
1573.000000	98.890401 
1572.000000	98.888031 
1571.000000	98.887256 
1570.000000	98.886416 
1569.000000	98.887521 
1568.000000	98.892859 
1567.000000	98.897934 
1566.000000	98.898459 
1565.000000	98.895580 
1564.000000	98.893006 
1563.000000	98.891514 
1562.000000	98.889962 
1561.000000	98.890619 
1560.000000	98.896038 
1559.000000	98.897855 
1558.000000	98.891185 
1557.000000	98.882164 
1556.000000	98.876401 
1555.000000	98.873971 
1554.000000	98.871836 
1553.000000	98.869084 
1552.000000	98.866655 
1551.000000	98.865378 
1550.000000	98.865326 
1549.000000	98.866106 
1548.000000	98.867111 
1547.000000	98.867272 
1546.000000	98.864946 
1545.000000	98.858991 
1544.000000	98.851513 
1543.000000	98.846414 
1542.000000	98.844408 
1541.000000	98.841092 
1540.000000	98.836102 
1539.000000	98.834047 
1538.000000	98.830510 
1537.000000	98.822466 
1536.000000	98.812964 
1535.000000	98.804962 
1534.000000	98.797972 
1533.000000	98.790996 
1532.000000	98.784913 
1531.000000	98.780773 
1530.000000	98.777199 
1529.000000	98.770892 
1528.000000	98.761167 
1527.000000	98.751264 
1526.000000	98.743884 
1525.000000	98.737453 
1524.000000	98.729998 
1523.000000	98.722405 
1522.000000	98.715584 
1521.000000	98.708448 
1520.000000	98.700157 
1519.000000	98.691358 
1518.000000	98.683380 
1517.000000	98.676260 
1516.000000	98.669514 
1515.000000	98.663207 
1514.000000	98.657777 
1513.000000	98.652551 
1512.000000	98.645103 
1511.000000	98.635079 
1510.000000	98.624813 
1509.000000	98.615242 
1508.000000	98.604586 
1507.000000	98.594274 
1506.000000	98.588190 
1505.000000	98.581758 
1504.000000	98.572363 
1503.000000	98.562043 
1502.000000	98.552044 
1501.000000	98.541996 
1500.000000	98.531047 
1499.000000	98.519894 
1498.000000	98.511029 
1497.000000	98.504919 
1496.000000	98.498804 
1495.000000	98.491529 
1494.000000	98.484425 
1493.000000	98.477811 
1492.000000	98.470277 
1491.000000	98.460494 
1490.000000	98.449214 
1489.000000	98.437804 
1488.000000	98.426605 
1487.000000	98.417078 
1486.000000	98.409507 
1485.000000	98.402217 
1484.000000	98.394823 
1483.000000	98.387976 
1482.000000	98.381863 
1481.000000	98.375313 
1480.000000	98.367675 
1479.000000	98.360506 
1478.000000	98.355022 
1477.000000	98.349569 
1476.000000	98.342554 
1475.000000	98.336458 
1474.000000	98.331749 
1473.000000	98.323869 
1472.000000	98.310701 
1471.000000	98.297865 
1470.000000	98.289060 
1469.000000	98.282035 
1468.000000	98.273632 
1467.000000	98.264499 
1466.000000	98.256822 
1465.000000	98.249750 
1464.000000	98.241644 
1463.000000	98.232755 
1462.000000	98.224572 
1461.000000	98.216648 
1460.000000	98.207613 
1459.000000	98.197353 
1458.000000	98.190176 
1457.000000	98.191222 
1456.000000	98.194269 
1455.000000	98.190067 
1454.000000	98.182161 
1453.000000	98.175754 
1452.000000	98.170161 
1451.000000	98.163532 
1450.000000	98.157674 
1449.000000	98.153588 
1448.000000	98.147909 
1447.000000	98.139592 
1446.000000	98.132139 
1445.000000	98.128289 
1444.000000	98.127004 
1443.000000	98.125755 
1442.000000	98.124651 
1441.000000	98.124980 
1440.000000	98.124906 
1439.000000	98.121294 
1438.000000	98.116932 
1437.000000	98.117892 
1436.000000	98.124368 
1435.000000	98.130604 
1434.000000	98.134690 
1433.000000	98.137349 
1432.000000	98.138204 
1431.000000	98.136405 
1430.000000	98.135865 
1429.000000	98.141449 
1428.000000	98.150453 
1427.000000	98.157048 
1426.000000	98.160679 
1425.000000	98.167138 
1424.000000	98.178201 
1423.000000	98.187409 
1422.000000	98.192326 
1421.000000	98.198281 
1420.000000	98.208062 
1419.000000	98.216991 
1418.000000	98.225449 
1417.000000	98.235674 
1416.000000	98.244090 
1415.000000	98.248314 
1414.000000	98.250630 
1413.000000	98.255302 
1412.000000	98.262812 
1411.000000	98.270502 
1410.000000	98.279284 
1409.000000	98.291260 
1408.000000	98.303657 
1407.000000	98.312849 
1406.000000	98.320201 
1405.000000	98.331367 
1404.000000	98.346940 
1403.000000	98.361141 
1402.000000	98.372294 
1401.000000	98.383833 
1400.000000	98.397198 
1399.000000	98.408919 
1398.000000	98.417173 
1397.000000	98.424364 
1396.000000	98.432589 
1395.000000	98.441686 
1394.000000	98.452413 
1393.000000	98.467840 
1392.000000	98.486951 
1391.000000	98.505395 
1390.000000	98.520506 
1389.000000	98.532479 
1388.000000	98.542373 
1387.000000	98.551016 
1386.000000	98.559396 
1385.000000	98.568548 
1384.000000	98.578321 
1383.000000	98.587263 
1382.000000	98.594916 
1381.000000	98.602391 
1380.000000	98.610849 
1379.000000	98.619591 
1378.000000	98.626860 
1377.000000	98.632553 
1376.000000	98.638502 
1375.000000	98.646204 
1374.000000	98.655678 
1373.000000	98.666073 
1372.000000	98.675530 
1371.000000	98.682483 
1370.000000	98.686978 
1369.000000	98.692210 
1368.000000	98.700967 
1367.000000	98.711319 
1366.000000	98.719084 
1365.000000	98.722595 
1364.000000	98.723784 
1363.000000	98.726429 
1362.000000	98.732851 
1361.000000	98.741940 
1360.000000	98.750906 
1359.000000	98.758100 
1358.000000	98.763903 
1357.000000	98.770209 
1356.000000	98.777965 
1355.000000	98.785574 
1354.000000	98.790853 
1353.000000	98.793714 
1352.000000	98.796269 
1351.000000	98.800703 
1350.000000	98.806197 
1349.000000	98.811308 
1348.000000	98.815456 
1347.000000	98.818539 
1346.000000	98.821130 
1345.000000	98.824866 
1344.000000	98.830535 
1343.000000	98.836275 
1342.000000	98.839304 
1341.000000	98.839404 
1340.000000	98.839270 
1339.000000	98.841169 
1338.000000	98.845120 
1337.000000	98.850420 
1336.000000	98.856340 
1335.000000	98.861658 
1334.000000	98.865588 
1333.000000	98.868937 
1332.000000	98.872620 
1331.000000	98.875413 
1330.000000	98.875283 
1329.000000	98.873008 
1328.000000	98.871726 
1327.000000	98.872857 
1326.000000	98.874874 
1325.000000	98.877100 
1324.000000	98.880251 
1323.000000	98.883483 
1322.000000	98.884352 
1321.000000	98.882068 
1320.000000	98.878541 
1319.000000	98.876211 
1318.000000	98.876384 
1317.000000	98.879133 
1316.000000	98.883247 
1315.000000	98.886553 
1314.000000	98.887947 
1313.000000	98.888717 
1312.000000	98.890615 
1311.000000	98.893320 
1310.000000	98.895354 
1309.000000	98.896493 
1308.000000	98.897499 
1307.000000	98.898341 
1306.000000	98.898046 
1305.000000	98.896889 
1304.000000	98.895930 
1303.000000	98.895145 
1302.000000	98.893681 
1301.000000	98.891631 
1300.000000	98.889954 
1299.000000	98.889112 
1298.000000	98.889148 
1297.000000	98.890485 
1296.000000	98.893347 
1295.000000	98.896492 
1294.000000	98.898126 
1293.000000	98.897845 
1292.000000	98.896611 
1291.000000	98.895268 
1290.000000	98.893938 
1289.000000	98.892448 
1288.000000	98.890505 
1287.000000	98.887794 
1286.000000	98.884559 
1285.000000	98.881639 
1284.000000	98.879620 
1283.000000	98.878746 
1282.000000	98.879601 
1281.000000	98.882382 
1280.000000	98.885383 
1279.000000	98.885719 
1278.000000	98.882880 
1277.000000	98.879739 
1276.000000	98.878992 
1275.000000	98.880113 
1274.000000	98.881384 
1273.000000	98.883046 
1272.000000	98.886240 
1271.000000	98.890111 
1270.000000	98.892436 
1269.000000	98.892609 
1268.000000	98.891980 
1267.000000	98.891844 
1266.000000	98.892849 
1265.000000	98.895062 
1264.000000	98.897184 
1263.000000	98.897233 
1262.000000	98.895514 
1261.000000	98.895151 
1260.000000	98.897877 
1259.000000	98.900825 
1258.000000	98.900393 
1257.000000	98.897288 
1256.000000	98.894976 
1255.000000	98.894593 
1254.000000	98.894523 
1253.000000	98.894151 
1252.000000	98.894826 
1251.000000	98.896861 
1250.000000	98.898425 
1249.000000	98.898096 
1248.000000	98.896509 
1247.000000	98.894977 
1246.000000	98.894235 
1245.000000	98.894327 
1244.000000	98.894244 
1243.000000	98.891941 
1242.000000	98.886286 
1241.000000	98.878997 
1240.000000	98.873300 
1239.000000	98.870535 
1238.000000	98.869087 
1237.000000	98.866586 
1236.000000	98.862057 
1235.000000	98.855826 
1234.000000	98.848431 
1233.000000	98.840240 
1232.000000	98.831778 
1231.000000	98.823861 
1230.000000	98.816762 
1229.000000	98.808553 
1228.000000	98.795018 
1227.000000	98.772965 
1226.000000	98.743928 
1225.000000	98.713139 
1224.000000	98.684080 
1223.000000	98.655268 
1222.000000	98.623109 
1221.000000	98.586333 
1220.000000	98.546221 
1219.000000	98.503566 
1218.000000	98.457272 
1217.000000	98.405837 
1216.000000	98.348963 
1215.000000	98.287572 
1214.000000	98.223130 
1213.000000	98.157127 
1212.000000	98.090429 
1211.000000	98.022712 
1210.000000	97.952636 
1209.000000	97.879023 
1208.000000	97.802225 
1207.000000	97.724358 
1206.000000	97.647825 
1205.000000	97.573218 
1204.000000	97.498658 
1203.000000	97.421348 
1202.000000	97.340048 
1201.000000	97.256117 
1200.000000	97.171954 
1199.000000	97.088580 
1198.000000	97.005455 
1197.000000	96.922585 
1196.000000	96.841363 
1195.000000	96.762318 
1194.000000	96.683104 
1193.000000	96.600572 
1192.000000	96.514245 
1191.000000	96.425966 
1190.000000	96.336594 
1189.000000	96.245293 
1188.000000	96.152052 
1187.000000	96.058340 
1186.000000	95.964504 
1185.000000	95.868825 
1184.000000	95.770296 
1183.000000	95.670273 
1182.000000	95.569990 
1181.000000	95.468354 
1180.000000	95.363838 
1179.000000	95.257000 
1178.000000	95.149463 
1177.000000	95.041396 
1176.000000	94.931099 
1175.000000	94.816164 
1174.000000	94.694494 
1173.000000	94.565776 
1172.000000	94.432601 
1171.000000	94.298763 
1170.000000	94.166013 
1169.000000	94.034124 
1168.000000	93.904531 
1167.000000	93.782209 
1166.000000	93.674181 
1165.000000	93.588690 
1164.000000	93.535253 
1163.000000	93.520935 
1162.000000	93.544069 
1161.000000	93.593011 
1160.000000	93.651127 
1159.000000	93.701417 
1158.000000	93.728863 
1157.000000	93.723686 
1156.000000	93.684140 
1155.000000	93.614862 
1154.000000	93.522804 
1153.000000	93.415807 
1152.000000	93.302878 
1151.000000	93.191338 
1150.000000	93.082950 
1149.000000	92.975845 
1148.000000	92.870055 
1147.000000	92.767616 
1146.000000	92.667703 
1145.000000	92.566282 
1144.000000	92.461271 
1143.000000	92.354133 
1142.000000	92.246184 
1141.000000	92.137459 
1140.000000	92.029417 
1139.000000	91.924156 
1138.000000	91.820299 
1137.000000	91.714040 
1136.000000	91.604781 
1135.000000	91.495446 
1134.000000	91.387175 
1133.000000	91.278456 
1132.000000	91.169417 
1131.000000	91.061560 
1130.000000	90.953164 
1129.000000	90.840740 
1128.000000	90.725342 
1127.000000	90.611298 
1126.000000	90.498279 
1125.000000	90.381331 
1124.000000	90.259732 
1123.000000	90.138825 
1122.000000	90.021578 
1121.000000	89.905391 
1120.000000	89.789241 
1119.000000	89.676629 
1118.000000	89.568747 
1117.000000	89.461712 
1116.000000	89.353289 
1115.000000	89.246014 
1114.000000	89.141436 
1113.000000	89.037898 
1112.000000	88.935727 
1111.000000	88.837391 
1110.000000	88.741203 
1109.000000	88.642527 
1108.000000	88.541663 
1107.000000	88.443169 
1106.000000	88.346711 
1105.000000	88.247408 
1104.000000	88.146054 
1103.000000	88.049300 
1102.000000	87.958088 
1101.000000	87.865960 
1100.000000	87.770076 
1099.000000	87.676555 
1098.000000	87.589256 
1097.000000	87.504466 
1096.000000	87.418718 
1095.000000	87.333614 
1094.000000	87.250654 
1093.000000	87.169595 
1092.000000	87.093420 
1091.000000	87.026155 
1090.000000	86.964627 
1089.000000	86.901790 
1088.000000	86.839026 
1087.000000	86.784920 
1086.000000	86.740818 
1085.000000	86.698170 
1084.000000	86.651429 
1083.000000	86.602840 
1082.000000	86.553341 
1081.000000	86.499876 
1080.000000	86.443332 
1079.000000	86.387944 
1078.000000	86.331183 
1077.000000	86.265265 
1076.000000	86.189755 
1075.000000	86.110743 
1074.000000	86.026283 
1073.000000	85.925124 
1072.000000	85.801412 
1071.000000	85.658091 
1070.000000	85.494497 
1069.000000	85.304302 
1068.000000	85.089140 
1067.000000	84.861480 
1066.000000	84.629338 
1065.000000	84.389645 
1064.000000	84.141027 
1063.000000	83.890491 
1062.000000	83.643099 
1061.000000	83.397527 
1060.000000	83.155950 
1059.000000	82.925467 
1058.000000	82.705074 
1057.000000	82.483679 
1056.000000	82.255262 
1055.000000	82.023567 
1054.000000	81.788820 
1053.000000	81.544309 
1052.000000	81.290781 
1051.000000	81.038698 
1050.000000	80.789620 
1049.000000	80.531855 
1048.000000	80.261415 
1047.000000	79.990088 
1046.000000	79.727054 
1045.000000	79.468967 
1044.000000	79.211993 
1043.000000	78.957613 
1042.000000	78.703195 
1041.000000	78.442827 
1040.000000	78.181674 
1039.000000	77.934018 
1038.000000	77.703160 
1037.000000	77.479060 
1036.000000	77.259193 
1035.000000	77.054434 
1034.000000	76.870135 
1033.000000	76.699117 
1032.000000	76.538058 
1031.000000	76.393536 
1030.000000	76.266848 
1029.000000	76.149806 
1028.000000	76.040406 
1027.000000	75.945889 
1026.000000	75.865491 
1025.000000	75.787201 
1024.000000	75.706241 
1023.000000	75.629943 
1022.000000	75.560382 
1021.000000	75.489174 
1020.000000	75.413402 
1019.000000	75.339691 
1018.000000	75.268658 
1017.000000	75.192523 
1016.000000	75.111814 
1015.000000	75.036985 
1014.000000	74.969708 
1013.000000	74.900204 
1012.000000	74.827002 
1011.000000	74.761498 
1010.000000	74.708610 
1009.000000	74.660587 
1008.000000	74.614476 
1007.000000	74.578430 
1006.000000	74.556168 
1005.000000	74.542028 
1004.000000	74.535602 
1003.000000	74.544549 
1002.000000	74.568838 
1001.000000	74.598544 
1000.000000	74.630867 
999.000000	 74.673271 
998.000000	 74.726864 
997.000000	 74.783081 
996.000000	 74.839532 
995.000000	 74.902657 
994.000000	 74.972397 
993.000000	 75.041211 
992.000000	 75.110756 
991.000000	 75.192443 
990.000000	 75.288618 
989.000000	 75.389608 
988.000000	 75.491639 
987.000000	 75.601182 
986.000000	 75.719812 
985.000000	 75.842090 
984.000000	 75.970619 
983.000000	 76.115791 
982.000000	 76.278145 
981.000000	 76.447836 
980.000000	 76.623685 
979.000000	 76.815485 
978.000000	 77.025043 
977.000000	 77.242386 
976.000000	 77.463697 
975.000000	 77.696280 
974.000000	 77.942570 
973.000000	 78.195456 
972.000000	 78.452459 
971.000000	 78.718892 
970.000000	 78.993910 
969.000000	 79.268526 
968.000000	 79.540200 
967.000000	 79.815078 
966.000000	 80.093638 
965.000000	 80.368384 
964.000000	 80.637638 
963.000000	 80.907396 
962.000000	 81.177468 
961.000000	 81.439478 
960.000000	 81.690632 
959.000000	 81.936491 
958.000000	 82.178800 
957.000000	 82.413521 
956.000000	 82.641846 
955.000000	 82.869545 
954.000000	 83.093674 
953.000000	 83.303236 
952.000000	 83.495182 
951.000000	 83.677555 
950.000000	 83.855368 
949.000000	 84.025462 
948.000000	 84.186860 
947.000000	 84.343649 
946.000000	 84.495082 
945.000000	 84.634178 
944.000000	 84.758756 
943.000000	 84.873992 
942.000000	 84.982857 
941.000000	 85.083739 
940.000000	 85.178165 
939.000000	 85.270946 
938.000000	 85.362549 
937.000000	 85.451157 
936.000000	 85.541208 
935.000000	 85.639058 
934.000000	 85.741631 
933.000000	 85.841078 
932.000000	 85.938917 
931.000000	 86.042647 
930.000000	 86.149721 
929.000000	 86.248842 
928.000000	 86.337066 
927.000000	 86.421984 
926.000000	 86.506936 
925.000000	 86.587976 
924.000000	 86.665885 
923.000000	 86.746308 
922.000000	 86.826051 
921.000000	 86.893705 
920.000000	 86.947183 
919.000000	 86.997733 
918.000000	 87.053548 
917.000000	 87.111928 
916.000000	 87.170458 
915.000000	 87.233109 
914.000000	 87.301896 
913.000000	 87.375255 
912.000000	 87.459068 
911.000000	 87.567286 
910.000000	 87.706789 
909.000000	 87.871536 
908.000000	 88.054330 
907.000000	 88.253500 
906.000000	 88.465196 
905.000000	 88.680828 
904.000000	 88.897085 
903.000000	 89.120047 
902.000000	 89.355864 
901.000000	 89.603563 
900.000000	 89.857106 
899.000000	 90.107714 
898.000000	 90.345488 
897.000000	 90.567595 
896.000000	 90.782894 
895.000000	 91.000362 
894.000000	 91.215594 
893.000000	 91.417966 
892.000000	 91.607610 
891.000000	 91.793557 
890.000000	 91.976540 
889.000000	 92.145759 
888.000000	 92.293407 
887.000000	 92.421819 
886.000000	 92.535509 
885.000000	 92.635919 
884.000000	 92.725457 
883.000000	 92.807806 
882.000000	 92.882956 
881.000000	 92.950443 
880.000000	 93.018022 
879.000000	 93.097944 
878.000000	 93.193854 
877.000000	 93.300645 
876.000000	 93.417441 
875.000000	 93.550725 
874.000000	 93.704965 
873.000000	 93.880521 
872.000000	 94.079584 
871.000000	 94.302023 
870.000000	 94.535256 
869.000000	 94.760372 
868.000000	 94.969976 
867.000000	 95.170329 
866.000000	 95.365708 
865.000000	 95.550766 
864.000000	 95.720300 
863.000000	 95.877579 
862.000000	 96.029566 
861.000000	 96.179989 
860.000000	 96.329450 
859.000000	 96.476939 
858.000000	 96.618866 
857.000000	 96.750619 
856.000000	 96.870652 
855.000000	 96.980881 
854.000000	 97.083764 
853.000000	 97.181234 
852.000000	 97.274276 
851.000000	 97.360564 
850.000000	 97.435818 
849.000000	 97.501302 
848.000000	 97.565749 
847.000000	 97.634655 
846.000000	 97.701593 
845.000000	 97.756007 
844.000000	 97.795528 
843.000000	 97.824267 
842.000000	 97.843550 
841.000000	 97.852336 
840.000000	 97.853501 
839.000000	 97.851271 
838.000000	 97.844237 
837.000000	 97.828291 
836.000000	 97.804652 
835.000000	 97.778223 
834.000000	 97.751075 
833.000000	 97.725664 
832.000000	 97.711176 
831.000000	 97.716007 
830.000000	 97.734859 
829.000000	 97.754477 
828.000000	 97.772806 
827.000000	 97.801188 
826.000000	 97.846150 
825.000000	 97.900870 
824.000000	 97.957110 
823.000000	 98.012676 
822.000000	 98.063465 
821.000000	 98.100858 
820.000000	 98.121663 
819.000000	 98.131570 
818.000000	 98.136240 
817.000000	 98.135538 
816.000000	 98.126113 
815.000000	 98.100960 
814.000000	 98.045076 
813.000000	 97.939752 
812.000000	 97.774595 
811.000000	 97.550263 
810.000000	 97.268173 
809.000000	 96.923972 
808.000000	 96.513649 
807.000000	 96.039924 
806.000000	 95.510194 
805.000000	 94.936234 
804.000000	 94.341299 
803.000000	 93.760157 
802.000000	 93.225221 
801.000000	 92.757344 
800.000000	 92.372484 
799.000000	 92.086283 
798.000000	 91.905672 
797.000000	 91.824366 
796.000000	 91.829957 
795.000000	 91.906003 
794.000000	 92.026497 
793.000000	 92.161326 
792.000000	 92.291174 
791.000000	 92.408816 
790.000000	 92.506338 
789.000000	 92.571357 
788.000000	 92.595352 
787.000000	 92.575046 
786.000000	 92.505704 
785.000000	 92.384131 
784.000000	 92.219470 
783.000000	 92.030934 
782.000000	 91.833945 
781.000000	 91.638801 
780.000000	 91.463488 
779.000000	 91.335214 
778.000000	 91.275528 
777.000000	 91.292691 
776.000000	 91.386954 
775.000000	 91.549129 
774.000000	 91.753599 
773.000000	 91.968131 
772.000000	 92.174450 
771.000000	 92.369540 
770.000000	 92.549136 
769.000000	 92.703774 
768.000000	 92.831135 
767.000000	 92.938703 
766.000000	 93.032261 
765.000000	 93.112883 
764.000000	 93.185889 
763.000000	 93.260843 
762.000000	 93.340875 
761.000000	 93.422514 
760.000000	 93.506722 
759.000000	 93.599137 
758.000000	 93.699175 
757.000000	 93.800230 
756.000000	 93.900817 
755.000000	 94.004457 
754.000000	 94.109340 
753.000000	 94.209918 
752.000000	 94.307540 
751.000000	 94.406860 
750.000000	 94.502404 
749.000000	 94.582574 
748.000000	 94.648432 
747.000000	 94.715893 
746.000000	 94.797272 
745.000000	 94.892373 
744.000000	 94.999336 
743.000000	 95.121333 
742.000000	 95.258843 
741.000000	 95.405992 
740.000000	 95.557495 
739.000000	 95.710396 
738.000000	 95.858410 
737.000000	 95.994112 
736.000000	 96.116989 
735.000000	 96.230040 
734.000000	 96.329239 
733.000000	 96.406127 
732.000000	 96.459932 
731.000000	 96.498233 
730.000000	 96.527501 
729.000000	 96.552383 
728.000000	 96.581066 
727.000000	 96.619121 
726.000000	 96.659782 
725.000000	 96.692977 
724.000000	 96.723157 
723.000000	 96.765740 
722.000000	 96.826738 
721.000000	 96.898675 
720.000000	 96.975950 
719.000000	 97.059240 
718.000000	 97.142717 
717.000000	 97.212607 
716.000000	 97.263410 
715.000000	 97.304546 
714.000000	 97.347738 
713.000000	 97.397225 
712.000000	 97.454123 
711.000000	 97.519332 
710.000000	 97.588726 
709.000000	 97.654408 
708.000000	 97.712102 
707.000000	 97.758314 
706.000000	 97.782129 
705.000000	 97.772376 
704.000000	 97.732292 
703.000000	 97.672171 
702.000000	 97.585035 
701.000000	 97.444164 
700.000000	 97.230385 
699.000000	 96.951627 
698.000000	 96.635905 
697.000000	 96.321093 
696.000000	 96.054607 
695.000000	 95.882832 
694.000000	 95.826459 
693.000000	 95.872090 
692.000000	 95.991096 
691.000000	 96.157961 
690.000000	 96.350683 
689.000000	 96.548759 
688.000000	 96.738430 
687.000000	 96.911980 
686.000000	 97.059568 
685.000000	 97.174092 
684.000000	 97.266407 
683.000000	 97.359405 
682.000000	 97.461450 
681.000000	 97.558531 
680.000000	 97.638260 
679.000000	 97.708289 
678.000000	 97.782620 
677.000000	 97.861465 
676.000000	 97.935627 
675.000000	 98.000115 
674.000000	 98.055131 
673.000000	 98.101627 
672.000000	 98.142837 
671.000000	 98.186688 
670.000000	 98.245836 
669.000000	 98.337465 
668.000000	 98.465660 
667.000000	 98.588987 
666.000000	 98.660548 
665.000000	 98.685381 
664.000000	 98.698938 
663.000000	 98.730995 
662.000000	 98.786627 
661.000000	 98.847753 
660.000000	 98.900513 
659.000000	 98.947973 
658.000000	 98.994412 
657.000000	 99.031935 
656.000000	 99.047212 
655.000000	 99.030540 
654.000000	 98.979454 
653.000000	 98.904072 
652.000000	 98.829030 
651.000000	 98.782769 
650.000000	 98.780132 

