4000.000000	99.216134 
3999.000000	99.216462 
3998.000000	99.217717 
3997.000000	99.218683 
3996.000000	99.218617 
3995.000000	99.217655 
3994.000000	99.216478 
3993.000000	99.215628 
3992.000000	99.215068 
3991.000000	99.214490 
3990.000000	99.213890 
3989.000000	99.213647 
3988.000000	99.214072 
3987.000000	99.214935 
3986.000000	99.215550 
3985.000000	99.215326 
3984.000000	99.214219 
3983.000000	99.212732 
3982.000000	99.211457 
3981.000000	99.210592 
3980.000000	99.209991 
3979.000000	99.209536 
3978.000000	99.209204 
3977.000000	99.208800 
3976.000000	99.207909 
3975.000000	99.206285 
3974.000000	99.204214 
3973.000000	99.202374 
3972.000000	99.201342 
3971.000000	99.201222 
3970.000000	99.201729 
3969.000000	99.202511 
3968.000000	99.203345 
3967.000000	99.204139 
3966.000000	99.204878 
3965.000000	99.205507 
3964.000000	99.205919 
3963.000000	99.206055 
3962.000000	99.205923 
3961.000000	99.205551 
3960.000000	99.204971 
3959.000000	99.204131 
3958.000000	99.202967 
3957.000000	99.201691 
3956.000000	99.200843 
3955.000000	99.200964 
3954.000000	99.202127 
3953.000000	99.203700 
3952.000000	99.204688 
3951.000000	99.204521 
3950.000000	99.203734 
3949.000000	99.203566 
3948.000000	99.204547 
3947.000000	99.205895 
3946.000000	99.206331 
3945.000000	99.205100 
3944.000000	99.202282 
3943.000000	99.198857 
3942.000000	99.196077 
3941.000000	99.194472 
3940.000000	99.193766 
3939.000000	99.193532 
3938.000000	99.193705 
3937.000000	99.194644 
3936.000000	99.196637 
3935.000000	99.199453 
3934.000000	99.202321 
3933.000000	99.204262 
3932.000000	99.204576 
3931.000000	99.203208 
3930.000000	99.200879 
3929.000000	99.198533 
3928.000000	99.196649 
3927.000000	99.195328 
3926.000000	99.194472 
3925.000000	99.194095 
3924.000000	99.194757 
3923.000000	99.196890 
3922.000000	99.200177 
3921.000000	99.203668 
3920.000000	99.206516 
3919.000000	99.208382 
3918.000000	99.208860 
3917.000000	99.207397 
3916.000000	99.204145 
3915.000000	99.200371 
3914.000000	99.197398 
3913.000000	99.195509 
3912.000000	99.194322 
3911.000000	99.193571 
3910.000000	99.193446 
3909.000000	99.194598 
3908.000000	99.197694 
3907.000000	99.202769 
3906.000000	99.209086 
3905.000000	99.215379 
3904.000000	99.220729 
3903.000000	99.224412 
3902.000000	99.225419 
3901.000000	99.223251 
3900.000000	99.218532 
3899.000000	99.213254 
3898.000000	99.209630 
3897.000000	99.208243 
3896.000000	99.208115 
3895.000000	99.207922 
3894.000000	99.206783 
3893.000000	99.204730 
3892.000000	99.202575 
3891.000000	99.201283 
3890.000000	99.201476 
3889.000000	99.203239 
3888.000000	99.205758 
3887.000000	99.207236 
3886.000000	99.206664 
3885.000000	99.205207 
3884.000000	99.204791 
3883.000000	99.205587 
3882.000000	99.206089 
3881.000000	99.205375 
3880.000000	99.204133 
3879.000000	99.203619 
3878.000000	99.204291 
3877.000000	99.205493 
3876.000000	99.205882 
3875.000000	99.204772 
3874.000000	99.203083 
3873.000000	99.202536 
3872.000000	99.203600 
3871.000000	99.204842 
3870.000000	99.204719 
3869.000000	99.203428 
3868.000000	99.202301 
3867.000000	99.201853 
3866.000000	99.201089 
3865.000000	99.199224 
3864.000000	99.197462 
3863.000000	99.197107 
3862.000000	99.197720 
3861.000000	99.198146 
3860.000000	99.197784 
3859.000000	99.196475 
3858.000000	99.194487 
3857.000000	99.192564 
3856.000000	99.191747 
3855.000000	99.191315 
3854.000000	99.189952 
3853.000000	99.188914 
3852.000000	99.189674 
3851.000000	99.191550 
3850.000000	99.193277 
3849.000000	99.193906 
3848.000000	99.193823 
3847.000000	99.194136 
3846.000000	99.195212 
3845.000000	99.196806 
3844.000000	99.198681 
3843.000000	99.200240 
3842.000000	99.201118 
3841.000000	99.201679 
3840.000000	99.202118 
3839.000000	99.202262 
3838.000000	99.202123 
3837.000000	99.201823 
3836.000000	99.201502 
3835.000000	99.200881 
3834.000000	99.199786 
3833.000000	99.198394 
3832.000000	99.197069 
3831.000000	99.196237 
3830.000000	99.195850 
3829.000000	99.195200 
3828.000000	99.193733 
3827.000000	99.191739 
3826.000000	99.190486 
3825.000000	99.191599 
3824.000000	99.195504 
3823.000000	99.199772 
3822.000000	99.200979 
3821.000000	99.198875 
3820.000000	99.196482 
3819.000000	99.195833 
3818.000000	99.196062 
3817.000000	99.194692 
3816.000000	99.190301 
3815.000000	99.184402 
3814.000000	99.179740 
3813.000000	99.177056 
3812.000000	99.175263 
3811.000000	99.173986 
3810.000000	99.174138 
3809.000000	99.176117 
3808.000000	99.178624 
3807.000000	99.180077 
3806.000000	99.180989 
3805.000000	99.182822 
3804.000000	99.185111 
3803.000000	99.185151 
3802.000000	99.181240 
3801.000000	99.175835 
3800.000000	99.173003 
3799.000000	99.173237 
3798.000000	99.173666 
3797.000000	99.171754 
3796.000000	99.167696 
3795.000000	99.163414 
3794.000000	99.160096 
3793.000000	99.157201 
3792.000000	99.153844 
3791.000000	99.150497 
3790.000000	99.148406 
3789.000000	99.148010 
3788.000000	99.148522 
3787.000000	99.148985 
3786.000000	99.149237 
3785.000000	99.149880 
3784.000000	99.151561 
3783.000000	99.154598 
3782.000000	99.158185 
3781.000000	99.160145 
3780.000000	99.158920 
3779.000000	99.155375 
3778.000000	99.151805 
3777.000000	99.149970 
3776.000000	99.150358 
3775.000000	99.152055 
3774.000000	99.154538 
3773.000000	99.158525 
3772.000000	99.164091 
3771.000000	99.168883 
3770.000000	99.170894 
3769.000000	99.171316 
3768.000000	99.171893 
3767.000000	99.172602 
3766.000000	99.172360 
3765.000000	99.171046 
3764.000000	99.170908 
3763.000000	99.174446 
3762.000000	99.180637 
3761.000000	99.185073 
3760.000000	99.185524 
3759.000000	99.185021 
3758.000000	99.186544 
3757.000000	99.189470 
3756.000000	99.193155 
3755.000000	99.198105 
3754.000000	99.204457 
3753.000000	99.210784 
3752.000000	99.215962 
3751.000000	99.221033 
3750.000000	99.224648 
3749.000000	99.223946 
3748.000000	99.220796 
3747.000000	99.219828 
3746.000000	99.220502 
3745.000000	99.216150 
3744.000000	99.204859 
3743.000000	99.194920 
3742.000000	99.193260 
3741.000000	99.197171 
3740.000000	99.201041 
3739.000000	99.205490 
3738.000000	99.213347 
3737.000000	99.221730 
3736.000000	99.225603 
3735.000000	99.223726 
3734.000000	99.217210 
3733.000000	99.205248 
3732.000000	99.188794 
3731.000000	99.174111 
3730.000000	99.167089 
3729.000000	99.167808 
3728.000000	99.169976 
3727.000000	99.166621 
3726.000000	99.157426 
3725.000000	99.148004 
3724.000000	99.141985 
3723.000000	99.137564 
3722.000000	99.132305 
3721.000000	99.125482 
3720.000000	99.117109 
3719.000000	99.108508 
3718.000000	99.100920 
3717.000000	99.095259 
3716.000000	99.093459 
3715.000000	99.096760 
3714.000000	99.103008 
3713.000000	99.106274 
3712.000000	99.102331 
3711.000000	99.091445 
3710.000000	99.074713 
3709.000000	99.053078 
3708.000000	99.028146 
3707.000000	99.002559 
3706.000000	98.979297 
3705.000000	98.959442 
3704.000000	98.940624 
3703.000000	98.918861 
3702.000000	98.893714 
3701.000000	98.868663 
3700.000000	98.846362 
3699.000000	98.827026 
3698.000000	98.809600 
3697.000000	98.793705 
3696.000000	98.782186 
3695.000000	98.779183 
3694.000000	98.784397 
3693.000000	98.792177 
3692.000000	98.797175 
3691.000000	98.798783 
3690.000000	98.799715 
3689.000000	98.800398 
3688.000000	98.797258 
3687.000000	98.789073 
3686.000000	98.779826 
3685.000000	98.772840 
3684.000000	98.768677 
3683.000000	98.767166 
3682.000000	98.767259 
3681.000000	98.765849 
3680.000000	98.759879 
3679.000000	98.750891 
3678.000000	98.744091 
3677.000000	98.738883 
3676.000000	98.729217 
3675.000000	98.715809 
3674.000000	98.702894 
3673.000000	98.690462 
3672.000000	98.674837 
3671.000000	98.650560 
3670.000000	98.620274 
3669.000000	98.593953 
3668.000000	98.574486 
3667.000000	98.557027 
3666.000000	98.538354 
3665.000000	98.518806 
3664.000000	98.499272 
3663.000000	98.479445 
3662.000000	98.458221 
3661.000000	98.435978 
3660.000000	98.415144 
3659.000000	98.397502 
3658.000000	98.382120 
3657.000000	98.367027 
3656.000000	98.352980 
3655.000000	98.343097 
3654.000000	98.338482 
3653.000000	98.335827 
3652.000000	98.329493 
3651.000000	98.316385 
3650.000000	98.300823 
3649.000000	98.288501 
3648.000000	98.276024 
3647.000000	98.256719 
3646.000000	98.230688 
3645.000000	98.202585 
3644.000000	98.175667 
3643.000000	98.150705 
3642.000000	98.126624 
3641.000000	98.103228 
3640.000000	98.081867 
3639.000000	98.064060 
3638.000000	98.050190 
3637.000000	98.038812 
3636.000000	98.027356 
3635.000000	98.013341 
3634.000000	97.996843 
3633.000000	97.981726 
3632.000000	97.972493 
3631.000000	97.969747 
3630.000000	97.968705 
3629.000000	97.965803 
3628.000000	97.960572 
3627.000000	97.950815 
3626.000000	97.934326 
3625.000000	97.910701 
3624.000000	97.881440 
3623.000000	97.850071 
3622.000000	97.821899 
3621.000000	97.802652 
3620.000000	97.798756 
3619.000000	97.814169 
3618.000000	97.843316 
3617.000000	97.873758 
3616.000000	97.898127 
3615.000000	97.916813 
3614.000000	97.934098 
3613.000000	97.953938 
3612.000000	97.976669 
3611.000000	97.999342 
3610.000000	98.018530 
3609.000000	98.031839 
3608.000000	98.039148 
3607.000000	98.042059 
3606.000000	98.041743 
3605.000000	98.039413 
3604.000000	98.036909 
3603.000000	98.035914 
3602.000000	98.037966 
3601.000000	98.043817 
3600.000000	98.054099 
3599.000000	98.068915 
3598.000000	98.085785 
3597.000000	98.100655 
3596.000000	98.111961 
3595.000000	98.121549 
3594.000000	98.132571 
3593.000000	98.145889 
3592.000000	98.158836 
3591.000000	98.168608 
3590.000000	98.174352 
3589.000000	98.177470 
3588.000000	98.181486 
3587.000000	98.189069 
3586.000000	98.197192 
3585.000000	98.200955 
3584.000000	98.199276 
3583.000000	98.194792 
3582.000000	98.190411 
3581.000000	98.187550 
3580.000000	98.186443 
3579.000000	98.187094 
3578.000000	98.189628 
3577.000000	98.193966 
3576.000000	98.199893 
3575.000000	98.206663 
3574.000000	98.212636 
3573.000000	98.216478 
3572.000000	98.218565 
3571.000000	98.221327 
3570.000000	98.227472 
3569.000000	98.236761 
3568.000000	98.245806 
3567.000000	98.251957 
3566.000000	98.254592 
3565.000000	98.254025 
3564.000000	98.251365 
3563.000000	98.247334 
3562.000000	98.241579 
3561.000000	98.234076 
3560.000000	98.226187 
3559.000000	98.220265 
3558.000000	98.217657 
3557.000000	98.217546 
3556.000000	98.218020 
3555.000000	98.218339 
3554.000000	98.219472 
3553.000000	98.222788 
3552.000000	98.228105 
3551.000000	98.233661 
3550.000000	98.238208 
3549.000000	98.242167 
3548.000000	98.246276 
3547.000000	98.250322 
3546.000000	98.252989 
3545.000000	98.253194 
3544.000000	98.251325 
3543.000000	98.249008 
3542.000000	98.247580 
3541.000000	98.247025 
3540.000000	98.246266 
3539.000000	98.244704 
3538.000000	98.243069 
3537.000000	98.242756 
3536.000000	98.244406 
3535.000000	98.247230 
3534.000000	98.250180 
3533.000000	98.253017 
3532.000000	98.256026 
3531.000000	98.259097 
3530.000000	98.261748 
3529.000000	98.263931 
3528.000000	98.266116 
3527.000000	98.268512 
3526.000000	98.270558 
3525.000000	98.271492 
3524.000000	98.271239 
3523.000000	98.270536 
3522.000000	98.270168 
3521.000000	98.270444 
3520.000000	98.271321 
3519.000000	98.272760 
3518.000000	98.274678 
3517.000000	98.276689 
3516.000000	98.278246 
3515.000000	98.279133 
3514.000000	98.279842 
3513.000000	98.281195 
3512.000000	98.283573 
3511.000000	98.286593 
3510.000000	98.289489 
3509.000000	98.291602 
3508.000000	98.292601 
3507.000000	98.292596 
3506.000000	98.292199 
3505.000000	98.292336 
3504.000000	98.293655 
3503.000000	98.295965 
3502.000000	98.298273 
3501.000000	98.299607 
3500.000000	98.299757 
3499.000000	98.299211 
3498.000000	98.298747 
3497.000000	98.299015 
3496.000000	98.300258 
3495.000000	98.302102 
3494.000000	98.303632 
3493.000000	98.304029 
3492.000000	98.303194 
3491.000000	98.301813 
3490.000000	98.300858 
3489.000000	98.300832 
3488.000000	98.301456 
3487.000000	98.301994 
3486.000000	98.301870 
3485.000000	98.301068 
3484.000000	98.300048 
3483.000000	98.299341 
3482.000000	98.299187 
3481.000000	98.299404 
3480.000000	98.299558 
3479.000000	98.299348 
3478.000000	98.298849 
3477.000000	98.298345 
3476.000000	98.297927 
3475.000000	98.297357 
3474.000000	98.296368 
3473.000000	98.295010 
3472.000000	98.293615 
3471.000000	98.292444 
3470.000000	98.291535 
3469.000000	98.290835 
3468.000000	98.290221 
3467.000000	98.289378 
3466.000000	98.287908 
3465.000000	98.285740 
3464.000000	98.283386 
3463.000000	98.281593 
3462.000000	98.280683 
3461.000000	98.280311 
3460.000000	98.279819 
3459.000000	98.278894 
3458.000000	98.277678 
3457.000000	98.276423 
3456.000000	98.275203 
3455.000000	98.273926 
3454.000000	98.272593 
3453.000000	98.271362 
3452.000000	98.270347 
3451.000000	98.269406 
3450.000000	98.268209 
3449.000000	98.266572 
3448.000000	98.264667 
3447.000000	98.262825 
3446.000000	98.261150 
3445.000000	98.259435 
3444.000000	98.257501 
3443.000000	98.255505 
3442.000000	98.253841 
3441.000000	98.252795 
3440.000000	98.252269 
3439.000000	98.251761 
3438.000000	98.250735 
3437.000000	98.249122 
3436.000000	98.247380 
3435.000000	98.246012 
3434.000000	98.245133 
3433.000000	98.244462 
3432.000000	98.243769 
3431.000000	98.243044 
3430.000000	98.242273 
3429.000000	98.241297 
3428.000000	98.239975 
3427.000000	98.238368 
3426.000000	98.236582 
3425.000000	98.234569 
3424.000000	98.232292 
3423.000000	98.230111 
3422.000000	98.228769 
3421.000000	98.228720 
3420.000000	98.229412 
3419.000000	98.229467 
3418.000000	98.228001 
3417.000000	98.225538 
3416.000000	98.223422 
3415.000000	98.222440 
3414.000000	98.222296 
3413.000000	98.222348 
3412.000000	98.222437 
3411.000000	98.222840 
3410.000000	98.223728 
3409.000000	98.224886 
3408.000000	98.225785 
3407.000000	98.225844 
3406.000000	98.224850 
3405.000000	98.223359 
3404.000000	98.222458 
3403.000000	98.222820 
3402.000000	98.224096 
3401.000000	98.225303 
3400.000000	98.225832 
3399.000000	98.225841 
3398.000000	98.225774 
3397.000000	98.225811 
3396.000000	98.225912 
3395.000000	98.226248 
3394.000000	98.227291 
3393.000000	98.229359 
3392.000000	98.232084 
3391.000000	98.234485 
3390.000000	98.235705 
3389.000000	98.235641 
3388.000000	98.234912 
3387.000000	98.234378 
3386.000000	98.234631 
3385.000000	98.235837 
3384.000000	98.237840 
3383.000000	98.240304 
3382.000000	98.242844 
3381.000000	98.245129 
3380.000000	98.246969 
3379.000000	98.248333 
3378.000000	98.249313 
3377.000000	98.250020 
3376.000000	98.250519 
3375.000000	98.250947 
3374.000000	98.251653 
3373.000000	98.253069 
3372.000000	98.255303 
3371.000000	98.257951 
3370.000000	98.260427 
3369.000000	98.262464 
3368.000000	98.264138 
3367.000000	98.265456 
3366.000000	98.266222 
3365.000000	98.266457 
3364.000000	98.266783 
3363.000000	98.268049 
3362.000000	98.270530 
3361.000000	98.273689 
3360.000000	98.276650 
3359.000000	98.278962 
3358.000000	98.280766 
3357.000000	98.282411 
3356.000000	98.284058 
3355.000000	98.285629 
3354.000000	98.286999 
3353.000000	98.288208 
3352.000000	98.289486 
3351.000000	98.291122 
3350.000000	98.293289 
3349.000000	98.295987 
3348.000000	98.299106 
3347.000000	98.302478 
3346.000000	98.305860 
3345.000000	98.308958 
3344.000000	98.311551 
3343.000000	98.313592 
3342.000000	98.315158 
3341.000000	98.316268 
3340.000000	98.316830 
3339.000000	98.316839 
3338.000000	98.316666 
3337.000000	98.317049 
3336.000000	98.318594 
3335.000000	98.321230 
3334.000000	98.324216 
3333.000000	98.326709 
3332.000000	98.328352 
3331.000000	98.329284 
3330.000000	98.329815 
3329.000000	98.330278 
3328.000000	98.331074 
3327.000000	98.332583 
3326.000000	98.334800 
3325.000000	98.337155 
3324.000000	98.338924 
3323.000000	98.339914 
3322.000000	98.340728 
3321.000000	98.342319 
3320.000000	98.345249 
3319.000000	98.349287 
3318.000000	98.353623 
3317.000000	98.357432 
3316.000000	98.360395 
3315.000000	98.362815 
3314.000000	98.365252 
3313.000000	98.367942 
3312.000000	98.370492 
3311.000000	98.372270 
3310.000000	98.373116 
3309.000000	98.373598 
3308.000000	98.374514 
3307.000000	98.376150 
3306.000000	98.378120 
3305.000000	98.379890 
3304.000000	98.381352 
3303.000000	98.382859 
3302.000000	98.384791 
3301.000000	98.387179 
3300.000000	98.389718 
3299.000000	98.392049 
3298.000000	98.394022 
3297.000000	98.395736 
3296.000000	98.397434 
3295.000000	98.399342 
3294.000000	98.401528 
3293.000000	98.403856 
3292.000000	98.406062 
3291.000000	98.407972 
3290.000000	98.409639 
3289.000000	98.411290 
3288.000000	98.413120 
3287.000000	98.415135 
3286.000000	98.417222 
3285.000000	98.419280 
3284.000000	98.421287 
3283.000000	98.423257 
3282.000000	98.425199 
3281.000000	98.427119 
3280.000000	98.429026 
3279.000000	98.430933 
3278.000000	98.432846 
3277.000000	98.434759 
3276.000000	98.436662 
3275.000000	98.438538 
3274.000000	98.440387 
3273.000000	98.442223 
3272.000000	98.444070 
3271.000000	98.445941 
3270.000000	98.447843 
3269.000000	98.449781 
3268.000000	98.451767 
3267.000000	98.453806 
3266.000000	98.455872 
3265.000000	98.457915 
3264.000000	98.459899 
3263.000000	98.461827 
3262.000000	98.463722 
3261.000000	98.465607 
3260.000000	98.467502 
3259.000000	98.469444 
3258.000000	98.471480 
3257.000000	98.473629 
3256.000000	98.475849 
3255.000000	98.478047 
3254.000000	98.480149 
3253.000000	98.482158 
3252.000000	98.484155 
3251.000000	98.486241 
3250.000000	98.488440 
3249.000000	98.490699 
3248.000000	98.492942 
3247.000000	98.495127 
3246.000000	98.497253 
3245.000000	98.499334 
3244.000000	98.501404 
3243.000000	98.503506 
3242.000000	98.505667 
3241.000000	98.507873 
3240.000000	98.510078 
3239.000000	98.512258 
3238.000000	98.514446 
3237.000000	98.516694 
3236.000000	98.519019 
3235.000000	98.521383 
3234.000000	98.523704 
3233.000000	98.525913 
3232.000000	98.528002 
3231.000000	98.530032 
3230.000000	98.532089 
3229.000000	98.534219 
3228.000000	98.536405 
3227.000000	98.538593 
3226.000000	98.540738 
3225.000000	98.542870 
3224.000000	98.545075 
3223.000000	98.547396 
3222.000000	98.549764 
3221.000000	98.552047 
3220.000000	98.554187 
3219.000000	98.556267 
3218.000000	98.558425 
3217.000000	98.560699 
3216.000000	98.562990 
3215.000000	98.565199 
3214.000000	98.567349 
3213.000000	98.569532 
3212.000000	98.571773 
3211.000000	98.574007 
3210.000000	98.576178 
3209.000000	98.578276 
3208.000000	98.580275 
3207.000000	98.582155 
3206.000000	98.583992 
3205.000000	98.585964 
3204.000000	98.588177 
3203.000000	98.590533 
3202.000000	98.592835 
3201.000000	98.595037 
3200.000000	98.597260 
3199.000000	98.599572 
3198.000000	98.601848 
3197.000000	98.603899 
3196.000000	98.605699 
3195.000000	98.607429 
3194.000000	98.609312 
3193.000000	98.611442 
3192.000000	98.613797 
3191.000000	98.616367 
3190.000000	98.619182 
3189.000000	98.622206 
3188.000000	98.625246 
3187.000000	98.627975 
3186.000000	98.630114 
3185.000000	98.631675 
3184.000000	98.633093 
3183.000000	98.634980 
3182.000000	98.637655 
3181.000000	98.640893 
3180.000000	98.644075 
3179.000000	98.646695 
3178.000000	98.648668 
3177.000000	98.650294 
3176.000000	98.651998 
3175.000000	98.654033 
3174.000000	98.656298 
3173.000000	98.658385 
3172.000000	98.659971 
3171.000000	98.661249 
3170.000000	98.662826 
3169.000000	98.665044 
3168.000000	98.667541 
3167.000000	98.669662 
3166.000000	98.671242 
3165.000000	98.672802 
3164.000000	98.674959 
3163.000000	98.677819 
3162.000000	98.680953 
3161.000000	98.683854 
3160.000000	98.686402 
3159.000000	98.688969 
3158.000000	98.692056 
3157.000000	98.695725 
3156.000000	98.699372 
3155.000000	98.702203 
3154.000000	98.703958 
3153.000000	98.705060 
3152.000000	98.705981 
3151.000000	98.706625 
3150.000000	98.706582 
3149.000000	98.705957 
3148.000000	98.705695 
3147.000000	98.706867 
3146.000000	98.709680 
3145.000000	98.713355 
3144.000000	98.717040 
3143.000000	98.720721 
3142.000000	98.724993 
3141.000000	98.730011 
3140.000000	98.734969 
3139.000000	98.738770 
3138.000000	98.741057 
3137.000000	98.742315 
3136.000000	98.743304 
3135.000000	98.744604 
3134.000000	98.746470 
3133.000000	98.748720 
3132.000000	98.750702 
3131.000000	98.751741 
3130.000000	98.751848 
3129.000000	98.751875 
3128.000000	98.752827 
3127.000000	98.755045 
3126.000000	98.758133 
3125.000000	98.761397 
3124.000000	98.764264 
3123.000000	98.766466 
3122.000000	98.768037 
3121.000000	98.769235 
3120.000000	98.770423 
3119.000000	98.771912 
3118.000000	98.773878 
3117.000000	98.776307 
3116.000000	98.778941 
3115.000000	98.781386 
3114.000000	98.783423 
3113.000000	98.785213 
3112.000000	98.787146 
3111.000000	98.789440 
3110.000000	98.791934 
3109.000000	98.794209 
3108.000000	98.795924 
3107.000000	98.797044 
3106.000000	98.797865 
3105.000000	98.798797 
3104.000000	98.800024 
3103.000000	98.801430 
3102.000000	98.802833 
3101.000000	98.804296 
3100.000000	98.806048 
3099.000000	98.808116 
3098.000000	98.810152 
3097.000000	98.811758 
3096.000000	98.812920 
3095.000000	98.814054 
3094.000000	98.815608 
3093.000000	98.817665 
3092.000000	98.819868 
3091.000000	98.821668 
3090.000000	98.822737 
3089.000000	98.823201 
3088.000000	98.823612 
3087.000000	98.824562 
3086.000000	98.826323 
3085.000000	98.828785 
3084.000000	98.831588 
3083.000000	98.834326 
3082.000000	98.836682 
3081.000000	98.838551 
3080.000000	98.840045 
3079.000000	98.841256 
3078.000000	98.841992 
3077.000000	98.841897 
3076.000000	98.840963 
3075.000000	98.839846 
3074.000000	98.839522 
3073.000000	98.840402 
3072.000000	98.841822 
3071.000000	98.842656 
3070.000000	98.842669 
3069.000000	98.843014 
3068.000000	98.844860 
3067.000000	98.847744 
3066.000000	98.850013 
3065.000000	98.850959 
3064.000000	98.851581 
3063.000000	98.852792 
3062.000000	98.853851 
3061.000000	98.853598 
3060.000000	98.852606 
3059.000000	98.852813 
3058.000000	98.854845 
3057.000000	98.856760 
3056.000000	98.856212 
3055.000000	98.853319 
3054.000000	98.850721 
3053.000000	98.850772 
3052.000000	98.853158 
3051.000000	98.855454 
3050.000000	98.855635 
3049.000000	98.853762 
3048.000000	98.851455 
3047.000000	98.850297 
3046.000000	98.850813 
3045.000000	98.852460 
3044.000000	98.854213 
3043.000000	98.855406 
3042.000000	98.856093 
3041.000000	98.856406 
3040.000000	98.855546 
3039.000000	98.852302 
3038.000000	98.846913 
3037.000000	98.841496 
3036.000000	98.837725 
3035.000000	98.834796 
3034.000000	98.831009 
3033.000000	98.826730 
3032.000000	98.823913 
3031.000000	98.822610 
3030.000000	98.819956 
3029.000000	98.813687 
3028.000000	98.805206 
3027.000000	98.797906 
3026.000000	98.793118 
3025.000000	98.789145 
3024.000000	98.783947 
3023.000000	98.777325 
3022.000000	98.770320 
3021.000000	98.763729 
3020.000000	98.757687 
3019.000000	98.751997 
3018.000000	98.746216 
3017.000000	98.739752 
3016.000000	98.732276 
3015.000000	98.724060 
3014.000000	98.715709 
3013.000000	98.707443 
3012.000000	98.698598 
3011.000000	98.688091 
3010.000000	98.675846 
3009.000000	98.663588 
3008.000000	98.653502 
3007.000000	98.645941 
3006.000000	98.639200 
3005.000000	98.631893 
3004.000000	98.624476 
3003.000000	98.617600 
3002.000000	98.610107 
3001.000000	98.600298 
3000.000000	98.588868 
2999.000000	98.578856 
2998.000000	98.572325 
2997.000000	98.568520 
2996.000000	98.565528 
2995.000000	98.562118 
2994.000000	98.556868 
2993.000000	98.547116 
2992.000000	98.531159 
2991.000000	98.511604 
2990.000000	98.494767 
2989.000000	98.485754 
2988.000000	98.484764 
2987.000000	98.488211 
2986.000000	98.492348 
2985.000000	98.495481 
2984.000000	98.497791 
2983.000000	98.500423 
2982.000000	98.504507 
2981.000000	98.509886 
2980.000000	98.514637 
2979.000000	98.516664 
2978.000000	98.515958 
2977.000000	98.514447 
2976.000000	98.513432 
2975.000000	98.512197 
2974.000000	98.510008 
2973.000000	98.508712 
2972.000000	98.511950 
2971.000000	98.521517 
2970.000000	98.535251 
2969.000000	98.548806 
2968.000000	98.559292 
2967.000000	98.567242 
2966.000000	98.575587 
2965.000000	98.587124 
2964.000000	98.602413 
2963.000000	98.619262 
2962.000000	98.633998 
2961.000000	98.643854 
2960.000000	98.648767 
2959.000000	98.651388 
2958.000000	98.655322 
2957.000000	98.662866 
2956.000000	98.673645 
2955.000000	98.684965 
2954.000000	98.693740 
2953.000000	98.698747 
2952.000000	98.701465 
2951.000000	98.704807 
2950.000000	98.710791 
2949.000000	98.719169 
2948.000000	98.728060 
2947.000000	98.735703 
2946.000000	98.741642 
2945.000000	98.746451 
2944.000000	98.750760 
2943.000000	98.754866 
2942.000000	98.759161 
2941.000000	98.764372 
2940.000000	98.770966 
2939.000000	98.778504 
2938.000000	98.785978 
2937.000000	98.792924 
2936.000000	98.800076 
2935.000000	98.808999 
2934.000000	98.821066 
2933.000000	98.836374 
2932.000000	98.852993 
2931.000000	98.867287 
2930.000000	98.875791 
2929.000000	98.877592 
2928.000000	98.875268 
2927.000000	98.873270 
2926.000000	98.874838 
2925.000000	98.879790 
2924.000000	98.885001 
2923.000000	98.887088 
2922.000000	98.884945 
2921.000000	98.879820 
2920.000000	98.873053 
2919.000000	98.864342 
2918.000000	98.852702 
2917.000000	98.838647 
2916.000000	98.824358 
2915.000000	98.811615 
2914.000000	98.800406 
2913.000000	98.790038 
2912.000000	98.780852 
2911.000000	98.773994 
2910.000000	98.769686 
2909.000000	98.766450 
2908.000000	98.762381 
2907.000000	98.756602 
2906.000000	98.749223 
2905.000000	98.740260 
2904.000000	98.729607 
2903.000000	98.718589 
2902.000000	98.711033 
2901.000000	98.710914 
2900.000000	98.719517 
2899.000000	98.733310 
2898.000000	98.746308 
2897.000000	98.754191 
2896.000000	98.756456 
2895.000000	98.755352 
2894.000000	98.753596 
2893.000000	98.752734 
2892.000000	98.752756 
2891.000000	98.752703 
2890.000000	98.751910 
2889.000000	98.750775 
2888.000000	98.750228 
2887.000000	98.750629 
2886.000000	98.751698 
2885.000000	98.753506 
2884.000000	98.756884 
2883.000000	98.762494 
2882.000000	98.769931 
2881.000000	98.778175 
2880.000000	98.786761 
2879.000000	98.796113 
2878.000000	98.806619 
2877.000000	98.817538 
2876.000000	98.827158 
2875.000000	98.834382 
2874.000000	98.840152 
2873.000000	98.846671 
2872.000000	98.854719 
2871.000000	98.862169 
2870.000000	98.865997 
2869.000000	98.865793 
2868.000000	98.864669 
2867.000000	98.866632 
2866.000000	98.873585 
2865.000000	98.884857 
2864.000000	98.898626 
2863.000000	98.913268 
2862.000000	98.927903 
2861.000000	98.942446 
2860.000000	98.957295 
2859.000000	98.972774 
2858.000000	98.988700 
2857.000000	99.004305 
2856.000000	99.018279 
2855.000000	99.029097 
2854.000000	99.035827 
2853.000000	99.038698 
2852.000000	99.038555 
2851.000000	99.035986 
2850.000000	99.031393 
2849.000000	99.025523 
2848.000000	99.019237 
2847.000000	99.013021 
2846.000000	99.007481 
2845.000000	99.004026 
2844.000000	99.003913 
2843.000000	99.006549 
2842.000000	99.009664 
2841.000000	99.011293 
2840.000000	99.010753 
2839.000000	99.007925 
2838.000000	99.003133 
2837.000000	98.998167 
2836.000000	98.995751 
2835.000000	98.996868 
2834.000000	98.999619 
2833.000000	99.001626 
2832.000000	99.002586 
2831.000000	99.003344 
2830.000000	99.003670 
2829.000000	99.002705 
2828.000000	99.001075 
2827.000000	99.000630 
2826.000000	99.001917 
2825.000000	99.003460 
2824.000000	99.004023 
2823.000000	99.004382 
2822.000000	99.006146 
2821.000000	99.009624 
2820.000000	99.013495 
2819.000000	99.016119 
2818.000000	99.016729 
2817.000000	99.015695 
2816.000000	99.014080 
2815.000000	99.012830 
2814.000000	99.012258 
2813.000000	99.012361 
2812.000000	99.013337 
2811.000000	99.015289 
2810.000000	99.017583 
2809.000000	99.019206 
2808.000000	99.019850 
2807.000000	99.020103 
2806.000000	99.020553 
2805.000000	99.021176 
2804.000000	99.021623 
2803.000000	99.021758 
2802.000000	99.021807 
2801.000000	99.022116 
2800.000000	99.022797 
2799.000000	99.023670 
2798.000000	99.024512 
2797.000000	99.025233 
2796.000000	99.025882 
2795.000000	99.026546 
2794.000000	99.027269 
2793.000000	99.028035 
2792.000000	99.028787 
2791.000000	99.029457 
2790.000000	99.030011 
2789.000000	99.030481 
2788.000000	99.030952 
2787.000000	99.031486 
2786.000000	99.032084 
2785.000000	99.032721 
2784.000000	99.033388 
2783.000000	99.034077 
2782.000000	99.034756 
2781.000000	99.035380 
2780.000000	99.035936 
2779.000000	99.036467 
2778.000000	99.037046 
2777.000000	99.037708 
2776.000000	99.038418 
2775.000000	99.039100 
2774.000000	99.039713 
2773.000000	99.040284 
2772.000000	99.040866 
2771.000000	99.041485 
2770.000000	99.042111 
2769.000000	99.042707 
2768.000000	99.043266 
2767.000000	99.043798 
2766.000000	99.044294 
2765.000000	99.044721 
2764.000000	99.045074 
2763.000000	99.045426 
2762.000000	99.045897 
2761.000000	99.046550 
2760.000000	99.047346 
2759.000000	99.048141 
2758.000000	99.048820 
2757.000000	99.049375 
2756.000000	99.049900 
2755.000000	99.050501 
2754.000000	99.051195 
2753.000000	99.051919 
2752.000000	99.052618 
2751.000000	99.053307 
2750.000000	99.054014 
2749.000000	99.054702 
2748.000000	99.055295 
2747.000000	99.055794 
2746.000000	99.056298 
2745.000000	99.056887 
2744.000000	99.057528 
2743.000000	99.058133 
2742.000000	99.058663 
2741.000000	99.059125 
2740.000000	99.059498 
2739.000000	99.059767 
2738.000000	99.060044 
2737.000000	99.060532 
2736.000000	99.061310 
2735.000000	99.062215 
2734.000000	99.062977 
2733.000000	99.063494 
2732.000000	99.063873 
2731.000000	99.064268 
2730.000000	99.064751 
2729.000000	99.065356 
2728.000000	99.066124 
2727.000000	99.067038 
2726.000000	99.067938 
2725.000000	99.068623 
2724.000000	99.069023 
2723.000000	99.069268 
2722.000000	99.069584 
2721.000000	99.070109 
2720.000000	99.070775 
2719.000000	99.071360 
2718.000000	99.071691 
2717.000000	99.071797 
2716.000000	99.071815 
2715.000000	99.071818 
2714.000000	99.071776 
2713.000000	99.071680 
2712.000000	99.071636 
2711.000000	99.071784 
2710.000000	99.072162 
2709.000000	99.072708 
2708.000000	99.073331 
2707.000000	99.073943 
2706.000000	99.074426 
2705.000000	99.074640 
2704.000000	99.074532 
2703.000000	99.074259 
2702.000000	99.074184 
2701.000000	99.074601 
2700.000000	99.075451 
2699.000000	99.076301 
2698.000000	99.076709 
2697.000000	99.076613 
2696.000000	99.076301 
2695.000000	99.076087 
2694.000000	99.076068 
2693.000000	99.076162 
2692.000000	99.076214 
2691.000000	99.076090 
2690.000000	99.075810 
2689.000000	99.075545 
2688.000000	99.075354 
2687.000000	99.075021 
2686.000000	99.074384 
2685.000000	99.073779 
2684.000000	99.073809 
2683.000000	99.074571 
2682.000000	99.075400 
2681.000000	99.075548 
2680.000000	99.074883 
2679.000000	99.073835 
2678.000000	99.072942 
2677.000000	99.072574 
2676.000000	99.072829 
2675.000000	99.073387 
2674.000000	99.073639 
2673.000000	99.073221 
2672.000000	99.072344 
2671.000000	99.071503 
2670.000000	99.070979 
2669.000000	99.070761 
2668.000000	99.070726 
2667.000000	99.070672 
2666.000000	99.070340 
2665.000000	99.069579 
2664.000000	99.068370 
2663.000000	99.066624 
2662.000000	99.064259 
2661.000000	99.061667 
2660.000000	99.059759 
2659.000000	99.059150 
2658.000000	99.059437 
2657.000000	99.059542 
2656.000000	99.058778 
2655.000000	99.057329 
2654.000000	99.055794 
2653.000000	99.054600 
2652.000000	99.053875 
2651.000000	99.053525 
2650.000000	99.053220 
2649.000000	99.052462 
2648.000000	99.050937 
2647.000000	99.048960 
2646.000000	99.047507 
2645.000000	99.047530 
2644.000000	99.049086 
2643.000000	99.051084 
2642.000000	99.052108 
2641.000000	99.051636 
2640.000000	99.050264 
2639.000000	99.048921 
2638.000000	99.048124 
2637.000000	99.047946 
2636.000000	99.048309 
2635.000000	99.049054 
2634.000000	99.049944 
2633.000000	99.050830 
2632.000000	99.051673 
2631.000000	99.052329 
2630.000000	99.052538 
2629.000000	99.052244 
2628.000000	99.051727 
2627.000000	99.051303 
2626.000000	99.051003 
2625.000000	99.050691 
2624.000000	99.050365 
2623.000000	99.050231 
2622.000000	99.050519 
2621.000000	99.051254 
2620.000000	99.052180 
2619.000000	99.052953 
2618.000000	99.053459 
2617.000000	99.053821 
2616.000000	99.054041 
2615.000000	99.053885 
2614.000000	99.053300 
2613.000000	99.052685 
2612.000000	99.052476 
2611.000000	99.052657 
2610.000000	99.053027 
2609.000000	99.053621 
2608.000000	99.054548 
2607.000000	99.055573 
2606.000000	99.056343 
2605.000000	99.056937 
2604.000000	99.057686 
2603.000000	99.058645 
2602.000000	99.059577 
2601.000000	99.060308 
2600.000000	99.060864 
2599.000000	99.061342 
2598.000000	99.061821 
2597.000000	99.062371 
2596.000000	99.063006 
2595.000000	99.063677 
2594.000000	99.064335 
2593.000000	99.064971 
2592.000000	99.065605 
2591.000000	99.066250 
2590.000000	99.066908 
2589.000000	99.067580 
2588.000000	99.068263 
2587.000000	99.068949 
2586.000000	99.069632 
2585.000000	99.070308 
2584.000000	99.070973 
2583.000000	99.071631 
2582.000000	99.072288 
2581.000000	99.072947 
2580.000000	99.073611 
2579.000000	99.074276 
2578.000000	99.074940 
2577.000000	99.075599 
2576.000000	99.076253 
2575.000000	99.076897 
2574.000000	99.077532 
2573.000000	99.078160 
2572.000000	99.078785 
2571.000000	99.079406 
2570.000000	99.080018 
2569.000000	99.080622 
2568.000000	99.081220 
2567.000000	99.081812 
2566.000000	99.082392 
2565.000000	99.082947 
2564.000000	99.083473 
2563.000000	99.083973 
2562.000000	99.084451 
2561.000000	99.084911 
2560.000000	99.085353 
2559.000000	99.085779 
2558.000000	99.086189 
2557.000000	99.086579 
2556.000000	99.086952 
2555.000000	99.087328 
2554.000000	99.087711 
2553.000000	99.088077 
2552.000000	99.088421 
2551.000000	99.088770 
2550.000000	99.089090 
2549.000000	99.089310 
2548.000000	99.089428 
2547.000000	99.089525 
2546.000000	99.089659 
2545.000000	99.089814 
2544.000000	99.089954 
2543.000000	99.090076 
2542.000000	99.090203 
2541.000000	99.090348 
2540.000000	99.090516 
2539.000000	99.090689 
2538.000000	99.090794 
2537.000000	99.090739 
2536.000000	99.090561 
2535.000000	99.090443 
2534.000000	99.090520 
2533.000000	99.090732 
2532.000000	99.090949 
2531.000000	99.091093 
2530.000000	99.091072 
2529.000000	99.090789 
2528.000000	99.090354 
2527.000000	99.090071 
2526.000000	99.090051 
2525.000000	99.090036 
2524.000000	99.089785 
2523.000000	99.089443 
2522.000000	99.089289 
2521.000000	99.089339 
2520.000000	99.089413 
2519.000000	99.089407 
2518.000000	99.089273 
2517.000000	99.088936 
2516.000000	99.088509 
2515.000000	99.088426 
2514.000000	99.089127 
2513.000000	99.090617 
2512.000000	99.092306 
2511.000000	99.093325 
2510.000000	99.093101 
2509.000000	99.091781 
2508.000000	99.090281 
2507.000000	99.089495 
2506.000000	99.089362 
2505.000000	99.089075 
2504.000000	99.088214 
2503.000000	99.087259 
2502.000000	99.086756 
2501.000000	99.086607 
2500.000000	99.086552 
2499.000000	99.086828 
2498.000000	99.087788 
2497.000000	99.089208 
2496.000000	99.090425 
2495.000000	99.090986 
2494.000000	99.090888 
2493.000000	99.090533 
2492.000000	99.090657 
2491.000000	99.091923 
2490.000000	99.094208 
2489.000000	99.096435 
2488.000000	99.097516 
2487.000000	99.097371 
2486.000000	99.096799 
2485.000000	99.096547 
2484.000000	99.096684 
2483.000000	99.096773 
2482.000000	99.096402 
2481.000000	99.095607 
2480.000000	99.094989 
2479.000000	99.095252 
2478.000000	99.096471 
2477.000000	99.097921 
2476.000000	99.098777 
2475.000000	99.098890 
2474.000000	99.098773 
2473.000000	99.098951 
2472.000000	99.099400 
2471.000000	99.099564 
2470.000000	99.098937 
2469.000000	99.097683 
2468.000000	99.096595 
2467.000000	99.096215 
2466.000000	99.096122 
2465.000000	99.095514 
2464.000000	99.094369 
2463.000000	99.093568 
2462.000000	99.093823 
2461.000000	99.094917 
2460.000000	99.095994 
2459.000000	99.096298 
2458.000000	99.095549 
2457.000000	99.093995 
2456.000000	99.092375 
2455.000000	99.091441 
2454.000000	99.091249 
2453.000000	99.091111 
2452.000000	99.090452 
2451.000000	99.089564 
2450.000000	99.089235 
2449.000000	99.089878 
2448.000000	99.091258 
2447.000000	99.092753 
2446.000000	99.093742 
2445.000000	99.093937 
2444.000000	99.093609 
2443.000000	99.093314 
2442.000000	99.093235 
2441.000000	99.093043 
2440.000000	99.092564 
2439.000000	99.092213 
2438.000000	99.092462 
2437.000000	99.093168 
2436.000000	99.093787 
2435.000000	99.094069 
2434.000000	99.094174 
2433.000000	99.094266 
2432.000000	99.094360 
2431.000000	99.094497 
2430.000000	99.094731 
2429.000000	99.094982 
2428.000000	99.095134 
2427.000000	99.095281 
2426.000000	99.095660 
2425.000000	99.096349 
2424.000000	99.097153 
2423.000000	99.097809 
2422.000000	99.098216 
2421.000000	99.098510 
2420.000000	99.098947 
2419.000000	99.099591 
2418.000000	99.100108 
2417.000000	99.100135 
2416.000000	99.099833 
2415.000000	99.099810 
2414.000000	99.100298 
2413.000000	99.100834 
2412.000000	99.100967 
2411.000000	99.100870 
2410.000000	99.100945 
2409.000000	99.101193 
2408.000000	99.101323 
2407.000000	99.101254 
2406.000000	99.101139 
2405.000000	99.100999 
2404.000000	99.100636 
2403.000000	99.099998 
2402.000000	99.099368 
2401.000000	99.099071 
2400.000000	99.099095 
2399.000000	99.099238 
2398.000000	99.099386 
2397.000000	99.099520 
2396.000000	99.099592 
2395.000000	99.099508 
2394.000000	99.099237 
2393.000000	99.098869 
2392.000000	99.098548 
2391.000000	99.098325 
2390.000000	99.098133 
2389.000000	99.097871 
2388.000000	99.097504 
2387.000000	99.097080 
2386.000000	99.096678 
2385.000000	99.096324 
2384.000000	99.095975 
2383.000000	99.095560 
2382.000000	99.095054 
2381.000000	99.094480 
2380.000000	99.093876 
2379.000000	99.093258 
2378.000000	99.092622 
2377.000000	99.091965 
2376.000000	99.091282 
2375.000000	99.090572 
2374.000000	99.089836 
2373.000000	99.089079 
2372.000000	99.088310 
2371.000000	99.087530 
2370.000000	99.086739 
2369.000000	99.085929 
2368.000000	99.085094 
2367.000000	99.084229 
2366.000000	99.083326 
2365.000000	99.082380 
2364.000000	99.081388 
2363.000000	99.080356 
2362.000000	99.079291 
2361.000000	99.078205 
2360.000000	99.077113 
2359.000000	99.076025 
2358.000000	99.074945 
2357.000000	99.073861 
2356.000000	99.072760 
2355.000000	99.071627 
2354.000000	99.070457 
2353.000000	99.069249 
2352.000000	99.068015 
2351.000000	99.066768 
2350.000000	99.065515 
2349.000000	99.064258 
2348.000000	99.062996 
2347.000000	99.061733 
2346.000000	99.060474 
2345.000000	99.059231 
2344.000000	99.058006 
2343.000000	99.056794 
2342.000000	99.055582 
2341.000000	99.054362 
2340.000000	99.053141 
2339.000000	99.051933 
2338.000000	99.050750 
2337.000000	99.049594 
2336.000000	99.048460 
2335.000000	99.047339 
2334.000000	99.046223 
2333.000000	99.045120 
2332.000000	99.044060 
2331.000000	99.043069 
2330.000000	99.042141 
2329.000000	99.041191 
2328.000000	99.040103 
2327.000000	99.038728 
2326.000000	99.037024 
2325.000000	99.035148 
2324.000000	99.033463 
2323.000000	99.032311 
2322.000000	99.031656 
2321.000000	99.031177 
2320.000000	99.030784 
2319.000000	99.030596 
2318.000000	99.030664 
2317.000000	99.030612 
2316.000000	99.030208 
2315.000000	99.029211 
2314.000000	99.027649 
2313.000000	99.025511 
2312.000000	99.023397 
2311.000000	99.021729 
2310.000000	99.020658 
2309.000000	99.019889 
2308.000000	99.019704 
2307.000000	99.020424 
2306.000000	99.022072 
2305.000000	99.024092 
2304.000000	99.026246 
2303.000000	99.028161 
2302.000000	99.029106 
2301.000000	99.028115 
2300.000000	99.025556 
2299.000000	99.022633 
2298.000000	99.020466 
2297.000000	99.019048 
2296.000000	99.018245 
2295.000000	99.017718 
2294.000000	99.016921 
2293.000000	99.015314 
2292.000000	99.013288 
2291.000000	99.011277 
2290.000000	99.008441 
2289.000000	99.003590 
2288.000000	98.997551 
2287.000000	98.993228 
2286.000000	98.992769 
2285.000000	98.995912 
2284.000000	99.000950 
2283.000000	99.006316 
2282.000000	99.010816 
2281.000000	99.014312 
2280.000000	99.018168 
2279.000000	99.023387 
2278.000000	99.028092 
2277.000000	99.029086 
2276.000000	99.026209 
2275.000000	99.022928 
2274.000000	99.022113 
2273.000000	99.023313 
2272.000000	99.025175 
2271.000000	99.028106 
2270.000000	99.033224 
2269.000000	99.040108 
2268.000000	99.046958 
2267.000000	99.052038 
2266.000000	99.054248 
2265.000000	99.053508 
2264.000000	99.051384 
2263.000000	99.050016 
2262.000000	99.049740 
2261.000000	99.048929 
2260.000000	99.046465 
2259.000000	99.043191 
2258.000000	99.040440 
2257.000000	99.038562 
2256.000000	99.037531 
2255.000000	99.037694 
2254.000000	99.039123 
2253.000000	99.041094 
2252.000000	99.043000 
2251.000000	99.045010 
2250.000000	99.047344 
2249.000000	99.049519 
2248.000000	99.050925 
2247.000000	99.051423 
2246.000000	99.051310 
2245.000000	99.050991 
2244.000000	99.050908 
2243.000000	99.051316 
2242.000000	99.051995 
2241.000000	99.052524 
2240.000000	99.052929 
2239.000000	99.053720 
2238.000000	99.055036 
2237.000000	99.056107 
2236.000000	99.056092 
2235.000000	99.055157 
2234.000000	99.054513 
2233.000000	99.055097 
2232.000000	99.056709 
2231.000000	99.058472 
2230.000000	99.059703 
2229.000000	99.060382 
2228.000000	99.060801 
2227.000000	99.061093 
2226.000000	99.061145 
2225.000000	99.060955 
2224.000000	99.060969 
2223.000000	99.061754 
2222.000000	99.063395 
2221.000000	99.065347 
2220.000000	99.066885 
2219.000000	99.067798 
2218.000000	99.068560 
2217.000000	99.069824 
2216.000000	99.071691 
2215.000000	99.073520 
2214.000000	99.074580 
2213.000000	99.074804 
2212.000000	99.074724 
2211.000000	99.074801 
2210.000000	99.075126 
2209.000000	99.075812 
2208.000000	99.077154 
2207.000000	99.079100 
2206.000000	99.080965 
2205.000000	99.082148 
2204.000000	99.082996 
2203.000000	99.084489 
2202.000000	99.086901 
2201.000000	99.089464 
2200.000000	99.091300 
2199.000000	99.091911 
2198.000000	99.090986 
2197.000000	99.088727 
2196.000000	99.086765 
2195.000000	99.087363 
2194.000000	99.090806 
2193.000000	99.094322 
2192.000000	99.094524 
2191.000000	99.090590 
2190.000000	99.084819 
2189.000000	99.080519 
2188.000000	99.079266 
2187.000000	99.080268 
2186.000000	99.082280 
2185.000000	99.085787 
2184.000000	99.092081 
2183.000000	99.099908 
2182.000000	99.104987 
2181.000000	99.104581 
2180.000000	99.101020 
2179.000000	99.098656 
2178.000000	99.098614 
2177.000000	99.099252 
2176.000000	99.100387 
2175.000000	99.103563 
2174.000000	99.108508 
2173.000000	99.112852 
2172.000000	99.115688 
2171.000000	99.118111 
2170.000000	99.119777 
2169.000000	99.118298 
2168.000000	99.113118 
2167.000000	99.107051 
2166.000000	99.102543 
2165.000000	99.098914 
2164.000000	99.094871 
2163.000000	99.091777 
2162.000000	99.093094 
2161.000000	99.102288 
2160.000000	99.121510 
2159.000000	99.148891 
2158.000000	99.175805 
2157.000000	99.191790 
2156.000000	99.193674 
2155.000000	99.186547 
2154.000000	99.177035 
2153.000000	99.167998 
2152.000000	99.160137 
2151.000000	99.154706 
2150.000000	99.152265 
2149.000000	99.151459 
2148.000000	99.151343 
2147.000000	99.153339 
2146.000000	99.158997 
2145.000000	99.167203 
2144.000000	99.175206 
2143.000000	99.181040 
2142.000000	99.183385 
2141.000000	99.180674 
2140.000000	99.172494 
2139.000000	99.161420 
2138.000000	99.151911 
2137.000000	99.146961 
2136.000000	99.146177 
2135.000000	99.146829 
2134.000000	99.146516 
2133.000000	99.145290 
2132.000000	99.145247 
2131.000000	99.147479 
2130.000000	99.149707 
2129.000000	99.147949 
2128.000000	99.140701 
2127.000000	99.130553 
2126.000000	99.121588 
2125.000000	99.115797 
2124.000000	99.112190 
2123.000000	99.108669 
2122.000000	99.104227 
2121.000000	99.099540 
2120.000000	99.095532 
2119.000000	99.091612 
2118.000000	99.086080 
2117.000000	99.078646 
2116.000000	99.071455 
2115.000000	99.066882 
2114.000000	99.065535 
2113.000000	99.066990 
2112.000000	99.071307 
2111.000000	99.077879 
2110.000000	99.083537 
2109.000000	99.084721 
2108.000000	99.081593 
2107.000000	99.077846 
2106.000000	99.076254 
2105.000000	99.076193 
2104.000000	99.075747 
2103.000000	99.074317 
2102.000000	99.072403 
2101.000000	99.070279 
2100.000000	99.067969 
2099.000000	99.065923 
2098.000000	99.065135 
2097.000000	99.066852 
2096.000000	99.071891 
2095.000000	99.079338 
2094.000000	99.085982 
2093.000000	99.088520 
2092.000000	99.086424 
2091.000000	99.082048 
2090.000000	99.078349 
2089.000000	99.076448 
2088.000000	99.075425 
2087.000000	99.073814 
2086.000000	99.071060 
2085.000000	99.068137 
2084.000000	99.066882 
2083.000000	99.068452 
2082.000000	99.072375 
2081.000000	99.077061 
2080.000000	99.081087 
2079.000000	99.083771 
2078.000000	99.084921 
2077.000000	99.084788 
2076.000000	99.084162 
2075.000000	99.083934 
2074.000000	99.084445 
2073.000000	99.085523 
2072.000000	99.087016 
2071.000000	99.088974 
2070.000000	99.091323 
2069.000000	99.093680 
2068.000000	99.095688 
2067.000000	99.097266 
2066.000000	99.098537 
2065.000000	99.099923 
2064.000000	99.102183 
2063.000000	99.105669 
2062.000000	99.109461 
2061.000000	99.111894 
2060.000000	99.112201 
2059.000000	99.111275 
2058.000000	99.110850 
2057.000000	99.112280 
2056.000000	99.115988 
2055.000000	99.121212 
2054.000000	99.125960 
2053.000000	99.128014 
2052.000000	99.126480 
2051.000000	99.122275 
2050.000000	99.117545 
2049.000000	99.114939 
2048.000000	99.116832 
2047.000000	99.123934 
2046.000000	99.134046 
2045.000000	99.143020 
2044.000000	99.147855 
2043.000000	99.148322 
2042.000000	99.146313 
2041.000000	99.144788 
2040.000000	99.146514 
2039.000000	99.152244 
2038.000000	99.160449 
2037.000000	99.169784 
2036.000000	99.180673 
2035.000000	99.192739 
2034.000000	99.202595 
2033.000000	99.207365 
2032.000000	99.208698 
2031.000000	99.209337 
2030.000000	99.207494 
2029.000000	99.200172 
2028.000000	99.190768 
2027.000000	99.186966 
2026.000000	99.190448 
2025.000000	99.194256 
2024.000000	99.192191 
2023.000000	99.186322 
2022.000000	99.182867 
2021.000000	99.184242 
2020.000000	99.187951 
2019.000000	99.190854 
2018.000000	99.192056 
2017.000000	99.193145 
2016.000000	99.197134 
2015.000000	99.205783 
2014.000000	99.217443 
2013.000000	99.228267 
2012.000000	99.234722 
2011.000000	99.234109 
2010.000000	99.225315 
2009.000000	99.211790 
2008.000000	99.200816 
2007.000000	99.195216 
2006.000000	99.189629 
2005.000000	99.179641 
2004.000000	99.170020 
2003.000000	99.167353 
2002.000000	99.168818 
2001.000000	99.166032 
2000.000000	99.157879 
1999.000000	99.151360 
1998.000000	99.150050 
1997.000000	99.150072 
1996.000000	99.148001 
1995.000000	99.145298 
1994.000000	99.142412 
1993.000000	99.135324 
1992.000000	99.122465 
1991.000000	99.110323 
1990.000000	99.106890 
1989.000000	99.112898 
1988.000000	99.122089 
1987.000000	99.127536 
1986.000000	99.127052 
1985.000000	99.124408 
1984.000000	99.125779 
1983.000000	99.132719 
1982.000000	99.139229 
1981.000000	99.139129 
1980.000000	99.135337 
1979.000000	99.136906 
1978.000000	99.146838 
1977.000000	99.158745 
1976.000000	99.166828 
1975.000000	99.172819 
1974.000000	99.179946 
1973.000000	99.186845 
1972.000000	99.190835 
1971.000000	99.191799 
1970.000000	99.189456 
1969.000000	99.181564 
1968.000000	99.168690 
1967.000000	99.157338 
1966.000000	99.153588 
1965.000000	99.155781 
1964.000000	99.157142 
1963.000000	99.153781 
1962.000000	99.147772 
1961.000000	99.143696 
1960.000000	99.143686 
1959.000000	99.145507 
1958.000000	99.144907 
1957.000000	99.140347 
1956.000000	99.135188 
1955.000000	99.133899 
1954.000000	99.136291 
1953.000000	99.137383 
1952.000000	99.133493 
1951.000000	99.126209 
1950.000000	99.119784 
1949.000000	99.116626 
1948.000000	99.116514 
1947.000000	99.118200 
1946.000000	99.120080 
1945.000000	99.120695 
1944.000000	99.119690 
1943.000000	99.117721 
1942.000000	99.114970 
1941.000000	99.110848 
1940.000000	99.105634 
1939.000000	99.100910 
1938.000000	99.097865 
1937.000000	99.095997 
1936.000000	99.094038 
1935.000000	99.091574 
1934.000000	99.089090 
1933.000000	99.086939 
1932.000000	99.085087 
1931.000000	99.083427 
1930.000000	99.081783 
1929.000000	99.079973 
1928.000000	99.078004 
1927.000000	99.075985 
1926.000000	99.073954 
1925.000000	99.071893 
1924.000000	99.069794 
1923.000000	99.067717 
1922.000000	99.065711 
1921.000000	99.063740 
1920.000000	99.061744 
1919.000000	99.059679 
1918.000000	99.057525 
1917.000000	99.055363 
1916.000000	99.053361 
1915.000000	99.051575 
1914.000000	99.049807 
1913.000000	99.047808 
1912.000000	99.045615 
1911.000000	99.043556 
1910.000000	99.041804 
1909.000000	99.040167 
1908.000000	99.038381 
1907.000000	99.036380 
1906.000000	99.034173 
1905.000000	99.031835 
1904.000000	99.029608 
1903.000000	99.027739 
1902.000000	99.026067 
1901.000000	99.024180 
1900.000000	99.022095 
1899.000000	99.020324 
1898.000000	99.019147 
1897.000000	99.018226 
1896.000000	99.017033 
1895.000000	99.015408 
1894.000000	99.013423 
1893.000000	99.011216 
1892.000000	99.009176 
1891.000000	99.007750 
1890.000000	99.006934 
1889.000000	99.006278 
1888.000000	99.005605 
1887.000000	99.004980 
1886.000000	99.003938 
1885.000000	99.001727 
1884.000000	98.998628 
1883.000000	98.996161 
1882.000000	98.995243 
1881.000000	98.995361 
1880.000000	98.995698 
1879.000000	98.996067 
1878.000000	98.996267 
1877.000000	98.995849 
1876.000000	98.995133 
1875.000000	98.995165 
1874.000000	98.995926 
1873.000000	98.995985 
1872.000000	98.994805 
1871.000000	98.993648 
1870.000000	98.993153 
1869.000000	98.991971 
1868.000000	98.989906 
1867.000000	98.988983 
1866.000000	98.989627 
1865.000000	98.990392 
1864.000000	98.991088 
1863.000000	98.993251 
1862.000000	98.997021 
1861.000000	98.999874 
1860.000000	99.000089 
1859.000000	98.999167 
1858.000000	98.998997 
1857.000000	98.999195 
1856.000000	98.998910 
1855.000000	98.998599 
1854.000000	98.998719 
1853.000000	98.998926 
1852.000000	98.999340 
1851.000000	99.000995 
1850.000000	99.003992 
1849.000000	99.007405 
1848.000000	99.010840 
1847.000000	99.014845 
1846.000000	99.019010 
1845.000000	99.021487 
1844.000000	99.021880 
1843.000000	99.022110 
1842.000000	99.022602 
1841.000000	99.022033 
1840.000000	99.019824 
1839.000000	99.017018 
1838.000000	99.015082 
1837.000000	99.014370 
1836.000000	99.014422 
1835.000000	99.015047 
1834.000000	99.016164 
1833.000000	99.017283 
1832.000000	99.017375 
1831.000000	99.015896 
1830.000000	99.013871 
1829.000000	99.013129 
1828.000000	99.014021 
1827.000000	99.015679 
1826.000000	99.017134 
1825.000000	99.017704 
1824.000000	99.017645 
1823.000000	99.017874 
1822.000000	99.018606 
1821.000000	99.019105 
1820.000000	99.019022 
1819.000000	99.019229 
1818.000000	99.020259 
1817.000000	99.020971 
1816.000000	99.020311 
1815.000000	99.019014 
1814.000000	99.018314 
1813.000000	99.018146 
1812.000000	99.017792 
1811.000000	99.017502 
1810.000000	99.017805 
1809.000000	99.018055 
1808.000000	99.017704 
1807.000000	99.017282 
1806.000000	99.017129 
1805.000000	99.016793 
1804.000000	99.016197 
1803.000000	99.016097 
1802.000000	99.016897 
1801.000000	99.017865 
1800.000000	99.018320 
1799.000000	99.018649 
1798.000000	99.019178 
1797.000000	99.019528 
1796.000000	99.019758 
1795.000000	99.020664 
1794.000000	99.022527 
1793.000000	99.024182 
1792.000000	99.024530 
1791.000000	99.024469 
1790.000000	99.025035 
1789.000000	99.025542 
1788.000000	99.025349 
1787.000000	99.025234 
1786.000000	99.026147 
1785.000000	99.027613 
1784.000000	99.028721 
1783.000000	99.029614 
1782.000000	99.030855 
1781.000000	99.032294 
1780.000000	99.033764 
1779.000000	99.035480 
1778.000000	99.037294 
1777.000000	99.038415 
1776.000000	99.038503 
1775.000000	99.038221 
1774.000000	99.038435 
1773.000000	99.039321 
1772.000000	99.040421 
1771.000000	99.042403 
1770.000000	99.046510 
1769.000000	99.052167 
1768.000000	99.056708 
1767.000000	99.058506 
1766.000000	99.058652 
1765.000000	99.058606 
1764.000000	99.058322 
1763.000000	99.057339 
1762.000000	99.056961 
1761.000000	99.058802 
1760.000000	99.062452 
1759.000000	99.066694 
1758.000000	99.071063 
1757.000000	99.075059 
1756.000000	99.077735 
1755.000000	99.079356 
1754.000000	99.082326 
1753.000000	99.088377 
1752.000000	99.095280 
1751.000000	99.098564 
1750.000000	99.097662 
1749.000000	99.096124 
1748.000000	99.095374 
1747.000000	99.094324 
1746.000000	99.093479 
1745.000000	99.094439 
1744.000000	99.096401 
1743.000000	99.097088 
1742.000000	99.096659 
1741.000000	99.096583 
1740.000000	99.096547 
1739.000000	99.095612 
1738.000000	99.094821 
1737.000000	99.095294 
1736.000000	99.096596 
1735.000000	99.097280 
1734.000000	99.096512 
1733.000000	99.095660 
1732.000000	99.095420 
1731.000000	99.095101 
1730.000000	99.094614 
1729.000000	99.094623 
1728.000000	99.095150 
1727.000000	99.095389 
1726.000000	99.094874 
1725.000000	99.093828 
1724.000000	99.092602 
1723.000000	99.091341 
1722.000000	99.090196 
1721.000000	99.089241 
1720.000000	99.088509 
1719.000000	99.088004 
1718.000000	99.087453 
1717.000000	99.086097 
1716.000000	99.084109 
1715.000000	99.082429 
1714.000000	99.081145 
1713.000000	99.079842 
1712.000000	99.078407 
1711.000000	99.076915 
1710.000000	99.075383 
1709.000000	99.073807 
1708.000000	99.072225 
1707.000000	99.070656 
1706.000000	99.069080 
1705.000000	99.067486 
1704.000000	99.065875 
1703.000000	99.064259 
1702.000000	99.062643 
1701.000000	99.061016 
1700.000000	99.059364 
1699.000000	99.057687 
1698.000000	99.055985 
1697.000000	99.054243 
1696.000000	99.052445 
1695.000000	99.050589 
1694.000000	99.048683 
1693.000000	99.046735 
1692.000000	99.044753 
1691.000000	99.042737 
1690.000000	99.040712 
1689.000000	99.038708 
1688.000000	99.036702 
1687.000000	99.034681 
1686.000000	99.032650 
1685.000000	99.030390 
1684.000000	99.027671 
1683.000000	99.025271 
1682.000000	99.023442 
1681.000000	99.022043 
1680.000000	99.020549 
1679.000000	99.018382 
1678.000000	99.015715 
1677.000000	99.013765 
1676.000000	99.013473 
1675.000000	99.013664 
1674.000000	99.013021 
1673.000000	99.011371 
1672.000000	99.008377 
1671.000000	99.003330 
1670.000000	98.996865 
1669.000000	98.992755 
1668.000000	98.993348 
1667.000000	98.994944 
1666.000000	98.994025 
1665.000000	98.990086 
1664.000000	98.984395 
1663.000000	98.978769 
1662.000000	98.974560 
1661.000000	98.972443 
1660.000000	98.972193 
1659.000000	98.970441 
1658.000000	98.963951 
1657.000000	98.953888 
1656.000000	98.945643 
1655.000000	98.941231 
1654.000000	98.937928 
1653.000000	98.934059 
1652.000000	98.934978 
1651.000000	98.935279 
1650.000000	98.934611 
1649.000000	98.933480 
1648.000000	98.932167 
1647.000000	98.929851 
1646.000000	98.927842 
1645.000000	98.925800 
1644.000000	98.923630 
1643.000000	98.922946 
1642.000000	98.923534 
1641.000000	98.923525 
1640.000000	98.923145 
1639.000000	98.924104 
1638.000000	98.927012 
1637.000000	98.931148 
1636.000000	98.935510 
1635.000000	98.936950 
1634.000000	98.934229 
1633.000000	98.932187 
1632.000000	98.935847 
1631.000000	98.944344 
1630.000000	98.952099 
1629.000000	98.955263 
1628.000000	98.956129 
1627.000000	98.957638 
1626.000000	98.959732 
1625.000000	98.963496 
1624.000000	98.972510 
1623.000000	98.986074 
1622.000000	98.997682 
1621.000000	99.005052 
1620.000000	99.011921 
1619.000000	99.020391 
1618.000000	99.028642 
1617.000000	99.036496 
1616.000000	99.047502 
1615.000000	99.058056 
1614.000000	99.062654 
1613.000000	99.065676 
1612.000000	99.074132 
1611.000000	99.087207 
1610.000000	99.096944 
1609.000000	99.101278 
1608.000000	99.106028 
1607.000000	99.112652 
1606.000000	99.117228 
1605.000000	99.120209 
1604.000000	99.126060 
1603.000000	99.134221 
1602.000000	99.140448 
1601.000000	99.144904 
1600.000000	99.150761 
1599.000000	99.156612 
1598.000000	99.158788 
1597.000000	99.158596 
1596.000000	99.160934 
1595.000000	99.166850 
1594.000000	99.172636 
1593.000000	99.176685 
1592.000000	99.181021 
1591.000000	99.185934 
1590.000000	99.189118 
1589.000000	99.190795 
1588.000000	99.193935 
1587.000000	99.198768 
1586.000000	99.202440 
1585.000000	99.204478 
1584.000000	99.207200 
1583.000000	99.210850 
1582.000000	99.212939 
1581.000000	99.213370 
1580.000000	99.214243 
1579.000000	99.215508 
1578.000000	99.215118 
1577.000000	99.213688 
1576.000000	99.214501 
1575.000000	99.216460 
1574.000000	99.215983 
1573.000000	99.214091 
1572.000000	99.213110 
1571.000000	99.213371 
1570.000000	99.213905 
1569.000000	99.215534 
1568.000000	99.218750 
1567.000000	99.221052 
1566.000000	99.220873 
1565.000000	99.219303 
1564.000000	99.217940 
1563.000000	99.216929 
1562.000000	99.215980 
1561.000000	99.216502 
1560.000000	99.219881 
1559.000000	99.221861 
1558.000000	99.218837 
1557.000000	99.214696 
1556.000000	99.212676 
1555.000000	99.211795 
1554.000000	99.210569 
1553.000000	99.209168 
1552.000000	99.208406 
1551.000000	99.208285 
1550.000000	99.208010 
1549.000000	99.207158 
1548.000000	99.205937 
1547.000000	99.204571 
1546.000000	99.202740 
1545.000000	99.199978 
1544.000000	99.196679 
1543.000000	99.193958 
1542.000000	99.192114 
1541.000000	99.189993 
1540.000000	99.187391 
1539.000000	99.185296 
1538.000000	99.182590 
1537.000000	99.178793 
1536.000000	99.174690 
1535.000000	99.170864 
1534.000000	99.167135 
1533.000000	99.163281 
1532.000000	99.159910 
1531.000000	99.157522 
1530.000000	99.155364 
1529.000000	99.152025 
1528.000000	99.147225 
1527.000000	99.142001 
1526.000000	99.137282 
1525.000000	99.132799 
1524.000000	99.128439 
1523.000000	99.124744 
1522.000000	99.121391 
1521.000000	99.116896 
1520.000000	99.111324 
1519.000000	99.106264 
1518.000000	99.102503 
1517.000000	99.099222 
1516.000000	99.095801 
1515.000000	99.092780 
1514.000000	99.090563 
1513.000000	99.087957 
1512.000000	99.083219 
1511.000000	99.076885 
1510.000000	99.071279 
1509.000000	99.067116 
1508.000000	99.062792 
1507.000000	99.058342 
1506.000000	99.054991 
1505.000000	99.050380 
1504.000000	99.044057 
1503.000000	99.037623 
1502.000000	99.031654 
1501.000000	99.025653 
1500.000000	99.018855 
1499.000000	99.011996 
1498.000000	99.007143 
1497.000000	99.004307 
1496.000000	99.000930 
1495.000000	98.996456 
1494.000000	98.992476 
1493.000000	98.989221 
1492.000000	98.985349 
1491.000000	98.979798 
1490.000000	98.973010 
1489.000000	98.965604 
1488.000000	98.957941 
1487.000000	98.951377 
1486.000000	98.946107 
1485.000000	98.941087 
1484.000000	98.936173 
1483.000000	98.931871 
1482.000000	98.928077 
1481.000000	98.923732 
1480.000000	98.918367 
1479.000000	98.913171 
1478.000000	98.909076 
1477.000000	98.905229 
1476.000000	98.900969 
1475.000000	98.898108 
1474.000000	98.897289 
1473.000000	98.895413 
1472.000000	98.889916 
1471.000000	98.883492 
1470.000000	98.878807 
1469.000000	98.874620 
1468.000000	98.868937 
1467.000000	98.862576 
1466.000000	98.857819 
1465.000000	98.854305 
1464.000000	98.850018 
1463.000000	98.844489 
1462.000000	98.838538 
1461.000000	98.831756 
1460.000000	98.823479 
1459.000000	98.814881 
1458.000000	98.810223 
1457.000000	98.811595 
1456.000000	98.812055 
1455.000000	98.806582 
1454.000000	98.798857 
1453.000000	98.791037 
1452.000000	98.781778 
1451.000000	98.771345 
1450.000000	98.763378 
1449.000000	98.759054 
1448.000000	98.754458 
1447.000000	98.747377 
1446.000000	98.740563 
1445.000000	98.735776 
1444.000000	98.731681 
1443.000000	98.726635 
1442.000000	98.721558 
1441.000000	98.717728 
1440.000000	98.713643 
1439.000000	98.707746 
1438.000000	98.703284 
1437.000000	98.704277 
1436.000000	98.707894 
1435.000000	98.709600 
1434.000000	98.710102 
1433.000000	98.709881 
1432.000000	98.707285 
1431.000000	98.701759 
1430.000000	98.697343 
1429.000000	98.697793 
1428.000000	98.700438 
1427.000000	98.701319 
1426.000000	98.701158 
1425.000000	98.703634 
1424.000000	98.708079 
1423.000000	98.709389 
1422.000000	98.707583 
1421.000000	98.707412 
1420.000000	98.709964 
1419.000000	98.711288 
1418.000000	98.712571 
1417.000000	98.715374 
1416.000000	98.715284 
1415.000000	98.709664 
1414.000000	98.701360 
1413.000000	98.695145 
1412.000000	98.692163 
1411.000000	98.690852 
1410.000000	98.691882 
1409.000000	98.695950 
1408.000000	98.700451 
1407.000000	98.703579 
1406.000000	98.707872 
1405.000000	98.717330 
1404.000000	98.730810 
1403.000000	98.743485 
1402.000000	98.754509 
1401.000000	98.765985 
1400.000000	98.777801 
1399.000000	98.786598 
1398.000000	98.790322 
1397.000000	98.789288 
1396.000000	98.784424 
1395.000000	98.779143 
1394.000000	98.780636 
1393.000000	98.793693 
1392.000000	98.814146 
1391.000000	98.833965 
1390.000000	98.848960 
1389.000000	98.859491 
1388.000000	98.866946 
1387.000000	98.871944 
1386.000000	98.875438 
1385.000000	98.878986 
1384.000000	98.883191 
1383.000000	98.887553 
1382.000000	98.892235 
1381.000000	98.898271 
1380.000000	98.906230 
1379.000000	98.915182 
1378.000000	98.923607 
1377.000000	98.931273 
1376.000000	98.939190 
1375.000000	98.948131 
1374.000000	98.958174 
1373.000000	98.969086 
1372.000000	98.979789 
1371.000000	98.988853 
1370.000000	98.995852 
1369.000000	99.002805 
1368.000000	99.011715 
1367.000000	99.021604 
1366.000000	99.030171 
1365.000000	99.036696 
1364.000000	99.042311 
1363.000000	99.048608 
1362.000000	99.056090 
1361.000000	99.064046 
1360.000000	99.071611 
1359.000000	99.078430 
1358.000000	99.084808 
1357.000000	99.091925 
1356.000000	99.100427 
1355.000000	99.109106 
1354.000000	99.116165 
1353.000000	99.121165 
1352.000000	99.125328 
1351.000000	99.129960 
1350.000000	99.134291 
1349.000000	99.138097 
1348.000000	99.141630 
1347.000000	99.144133 
1346.000000	99.145181 
1345.000000	99.146722 
1344.000000	99.150981 
1343.000000	99.156966 
1342.000000	99.161397 
1341.000000	99.163066 
1340.000000	99.164008 
1339.000000	99.166121 
1338.000000	99.169327 
1337.000000	99.173249 
1336.000000	99.177629 
1335.000000	99.181575 
1334.000000	99.184543 
1333.000000	99.187657 
1332.000000	99.192014 
1331.000000	99.195955 
1330.000000	99.196504 
1329.000000	99.193785 
1328.000000	99.191129 
1327.000000	99.190552 
1326.000000	99.190863 
1325.000000	99.191459 
1324.000000	99.193255 
1323.000000	99.196036 
1322.000000	99.198016 
1321.000000	99.198262 
1320.000000	99.197586 
1319.000000	99.197268 
1318.000000	99.198367 
1317.000000	99.201532 
1316.000000	99.206168 
1315.000000	99.210364 
1314.000000	99.212914 
1313.000000	99.214602 
1312.000000	99.216524 
1311.000000	99.218319 
1310.000000	99.219375 
1309.000000	99.220356 
1308.000000	99.221950 
1307.000000	99.223211 
1306.000000	99.222558 
1305.000000	99.220608 
1304.000000	99.219199 
1303.000000	99.218775 
1302.000000	99.218388 
1301.000000	99.217640 
1300.000000	99.216906 
1299.000000	99.216382 
1298.000000	99.216357 
1297.000000	99.217650 
1296.000000	99.220392 
1295.000000	99.222768 
1294.000000	99.222770 
1293.000000	99.220755 
1292.000000	99.218911 
1291.000000	99.218473 
1290.000000	99.218561 
1289.000000	99.217780 
1288.000000	99.215985 
1287.000000	99.214211 
1286.000000	99.213426 
1285.000000	99.213614 
1284.000000	99.214147 
1283.000000	99.215048 
1282.000000	99.217142 
1281.000000	99.220327 
1280.000000	99.222636 
1279.000000	99.222079 
1278.000000	99.219454 
1277.000000	99.217704 
1276.000000	99.218322 
1275.000000	99.219714 
1274.000000	99.219757 
1273.000000	99.218453 
1272.000000	99.217285 
1271.000000	99.217242 
1270.000000	99.218369 
1269.000000	99.220209 
1268.000000	99.221800 
1267.000000	99.222242 
1266.000000	99.221946 
1265.000000	99.221754 
1264.000000	99.220837 
1263.000000	99.217749 
1262.000000	99.213808 
1261.000000	99.212624 
1260.000000	99.215197 
1259.000000	99.217823 
1258.000000	99.217049 
1257.000000	99.214093 
1256.000000	99.212337 
1255.000000	99.212557 
1254.000000	99.212905 
1253.000000	99.212166 
1252.000000	99.210893 
1251.000000	99.210052 
1250.000000	99.210403 
1249.000000	99.212642 
1248.000000	99.216629 
1247.000000	99.220868 
1246.000000	99.223835 
1245.000000	99.224786 
1244.000000	99.223130 
1243.000000	99.218978 
1242.000000	99.214948 
1241.000000	99.214951 
1240.000000	99.219682 
1239.000000	99.225132 
1238.000000	99.227057 
1237.000000	99.225255 
1236.000000	99.222107 
1235.000000	99.218700 
1234.000000	99.214304 
1233.000000	99.208544 
1232.000000	99.202173 
1231.000000	99.196263 
1230.000000	99.191730 
1229.000000	99.188606 
1228.000000	99.184872 
1227.000000	99.177332 
1226.000000	99.164898 
1225.000000	99.150091 
1224.000000	99.136151 
1223.000000	99.123478 
1222.000000	99.110022 
1221.000000	99.094241 
1220.000000	99.076225 
1219.000000	99.056257 
1218.000000	99.033651 
1217.000000	99.007175 
1216.000000	98.976251 
1215.000000	98.941903 
1214.000000	98.906564 
1213.000000	98.872128 
1212.000000	98.837881 
1211.000000	98.801096 
1210.000000	98.759781 
1209.000000	98.714231 
1208.000000	98.666241 
1207.000000	98.617998 
1206.000000	98.571547 
1205.000000	98.527689 
1204.000000	98.484760 
1203.000000	98.439523 
1202.000000	98.390201 
1201.000000	98.338164 
1200.000000	98.286036 
1199.000000	98.234792 
1198.000000	98.183805 
1197.000000	98.133159 
1196.000000	98.084214 
1195.000000	98.037348 
1194.000000	97.990341 
1193.000000	97.940289 
1192.000000	97.886578 
1191.000000	97.830896 
1190.000000	97.774730 
1189.000000	97.718098 
1188.000000	97.660611 
1187.000000	97.602225 
1186.000000	97.542562 
1185.000000	97.480945 
1184.000000	97.417930 
1183.000000	97.355468 
1182.000000	97.294456 
1181.000000	97.233357 
1180.000000	97.170544 
1179.000000	97.106811 
1178.000000	97.044025 
1177.000000	96.981956 
1176.000000	96.917859 
1175.000000	96.848772 
1174.000000	96.773237 
1173.000000	96.691591 
1172.000000	96.605927 
1171.000000	96.519408 
1170.000000	96.434255 
1169.000000	96.350468 
1168.000000	96.267534 
1167.000000	96.187454 
1166.000000	96.115575 
1165.000000	96.058753 
1164.000000	96.022806 
1163.000000	96.010430 
1162.000000	96.020040 
1161.000000	96.046231 
1160.000000	96.080970 
1159.000000	96.114112 
1158.000000	96.134751 
1157.000000	96.134668 
1156.000000	96.111133 
1155.000000	96.066482 
1154.000000	96.006007 
1153.000000	95.936552 
1152.000000	95.865083 
1151.000000	95.795766 
1150.000000	95.728150 
1149.000000	95.659867 
1148.000000	95.590933 
1147.000000	95.523514 
1146.000000	95.457901 
1145.000000	95.391323 
1144.000000	95.321061 
1143.000000	95.246518 
1142.000000	95.168255 
1141.000000	95.087497 
1140.000000	95.006859 
1139.000000	94.928891 
1138.000000	94.853022 
1137.000000	94.775900 
1136.000000	94.695159 
1135.000000	94.611138 
1134.000000	94.525386 
1133.000000	94.439778 
1132.000000	94.356312 
1131.000000	94.274637 
1130.000000	94.190398 
1129.000000	94.099658 
1128.000000	94.004265 
1127.000000	93.908796 
1126.000000	93.812831 
1125.000000	93.711458 
1124.000000	93.603569 
1123.000000	93.493936 
1122.000000	93.385940 
1121.000000	93.277894 
1120.000000	93.168579 
1119.000000	93.060869 
1118.000000	92.957141 
1117.000000	92.855995 
1116.000000	92.756336 
1115.000000	92.660378 
1114.000000	92.569929 
1113.000000	92.483556 
1112.000000	92.399307 
1111.000000	92.316189 
1110.000000	92.231997 
1109.000000	92.144475 
1108.000000	92.055064 
1107.000000	91.967276 
1106.000000	91.880744 
1105.000000	91.792437 
1104.000000	91.703988 
1103.000000	91.620774 
1102.000000	91.542498 
1101.000000	91.462421 
1100.000000	91.376796 
1099.000000	91.290569 
1098.000000	91.207502 
1097.000000	91.124308 
1096.000000	91.037160 
1095.000000	90.947939 
1094.000000	90.860089 
1093.000000	90.773508 
1092.000000	90.686825 
1091.000000	90.599959 
1090.000000	90.512017 
1089.000000	90.421709 
1088.000000	90.331743 
1087.000000	90.247498 
1086.000000	90.169652 
1085.000000	90.093446 
1084.000000	90.016045 
1083.000000	89.938539 
1082.000000	89.860350 
1081.000000	89.778814 
1080.000000	89.695124 
1079.000000	89.613365 
1078.000000	89.532903 
1077.000000	89.449247 
1076.000000	89.362559 
1075.000000	89.276492 
1074.000000	89.188271 
1073.000000	89.089485 
1072.000000	88.976920 
1071.000000	88.851980 
1070.000000	88.708932 
1069.000000	88.536991 
1068.000000	88.338477 
1067.000000	88.134202 
1066.000000	87.944267 
1065.000000	87.770604 
1064.000000	87.603142 
1063.000000	87.432610 
1062.000000	87.251452 
1061.000000	87.053223 
1060.000000	86.839769 
1059.000000	86.622837 
1058.000000	86.412484 
1057.000000	86.208909 
1056.000000	86.008430 
1055.000000	85.809158 
1054.000000	85.607262 
1053.000000	85.396963 
1052.000000	85.179038 
1051.000000	84.960401 
1050.000000	84.740561 
1049.000000	84.509087 
1048.000000	84.261477 
1047.000000	84.006266 
1046.000000	83.752338 
1045.000000	83.500308 
1044.000000	83.249462 
1043.000000	83.001854 
1042.000000	82.756002 
1041.000000	82.506910 
1040.000000	82.255882 
1039.000000	82.010788 
1038.000000	81.774316 
1037.000000	81.542425 
1036.000000	81.316234 
1035.000000	81.103646 
1034.000000	80.906692 
1033.000000	80.718512 
1032.000000	80.534375 
1031.000000	80.354709 
1030.000000	80.177929 
1029.000000	80.004235 
1028.000000	79.846393 
1027.000000	79.720246 
1026.000000	79.621848 
1025.000000	79.529023 
1024.000000	79.428112 
1023.000000	79.324033 
1022.000000	79.222668 
1021.000000	79.120865 
1020.000000	79.017363 
1019.000000	78.916991 
1018.000000	78.819049 
1017.000000	78.716119 
1016.000000	78.608244 
1015.000000	78.503876 
1014.000000	78.403804 
1013.000000	78.299288 
1012.000000	78.189161 
1011.000000	78.083215 
1010.000000	77.985271 
1009.000000	77.888525 
1008.000000	77.791318 
1007.000000	77.701988 
1006.000000	77.624343 
1005.000000	77.553603 
1004.000000	77.490203 
1003.000000	77.441992 
1002.000000	77.408860 
1001.000000	77.380403 
1000.000000	77.352629 
999.000000	 77.332307 
998.000000	 77.321832 
997.000000	 77.314983 
996.000000	 77.310401 
995.000000	 77.313673 
994.000000	 77.323154 
993.000000	 77.329611 
992.000000	 77.333341 
991.000000	 77.346097 
990.000000	 77.372544 
989.000000	 77.404679 
988.000000	 77.437323 
987.000000	 77.474135 
986.000000	 77.515892 
985.000000	 77.558550 
984.000000	 77.605486 
983.000000	 77.665957 
982.000000	 77.739112 
981.000000	 77.815106 
980.000000	 77.894167 
979.000000	 77.988174 
978.000000	 78.100724 
977.000000	 78.222255 
976.000000	 78.347889 
975.000000	 78.483737 
974.000000	 78.632048 
973.000000	 78.786365 
972.000000	 78.945385 
971.000000	 79.116176 
970.000000	 79.299691 
969.000000	 79.487733 
968.000000	 79.677655 
967.000000	 79.875649 
966.000000	 80.082372 
965.000000	 80.289737 
964.000000	 80.495008 
963.000000	 80.704016 
962.000000	 80.917434 
961.000000	 81.127749 
960.000000	 81.332784 
959.000000	 81.538800 
958.000000	 81.747416 
957.000000	 81.952541 
956.000000	 82.152791 
955.000000	 82.353753 
954.000000	 82.555102 
953.000000	 82.748204 
952.000000	 82.929583 
951.000000	 83.104809 
950.000000	 83.276646 
949.000000	 83.441016 
948.000000	 83.596914 
947.000000	 83.748655 
946.000000	 83.895654 
945.000000	 84.030718 
944.000000	 84.150884 
943.000000	 84.260416 
942.000000	 84.362235 
941.000000	 84.456079 
940.000000	 84.545351 
939.000000	 84.635415 
938.000000	 84.724945 
937.000000	 84.809403 
936.000000	 84.892365 
935.000000	 84.982306 
934.000000	 85.079200 
933.000000	 85.176270 
932.000000	 85.273507 
931.000000	 85.376034 
930.000000	 85.480050 
929.000000	 85.574976 
928.000000	 85.660058 
927.000000	 85.744680 
926.000000	 85.831215 
925.000000	 85.911779 
924.000000	 85.983392 
923.000000	 86.051636 
922.000000	 86.116509 
921.000000	 86.168877 
920.000000	 86.204988 
919.000000	 86.232116 
918.000000	 86.256521 
917.000000	 86.277857 
916.000000	 86.298273 
915.000000	 86.324366 
914.000000	 86.357004 
913.000000	 86.392311 
912.000000	 86.436637 
911.000000	 86.507493 
910.000000	 86.614811 
909.000000	 86.752702 
908.000000	 86.913015 
907.000000	 87.094813 
906.000000	 87.296503 
905.000000	 87.511207 
904.000000	 87.735653 
903.000000	 87.974288 
902.000000	 88.230500 
901.000000	 88.501158 
900.000000	 88.780723 
899.000000	 89.063020 
898.000000	 89.339392 
897.000000	 89.604819 
896.000000	 89.864343 
895.000000	 90.124753 
894.000000	 90.382290 
893.000000	 90.628260 
892.000000	 90.863303 
891.000000	 91.094247 
890.000000	 91.319084 
889.000000	 91.527753 
888.000000	 91.717338 
887.000000	 91.894736 
886.000000	 92.064438 
885.000000	 92.224860 
884.000000	 92.376835 
883.000000	 92.524319 
882.000000	 92.666314 
881.000000	 92.799727 
880.000000	 92.930826 
879.000000	 93.071637 
878.000000	 93.223352 
877.000000	 93.375528 
876.000000	 93.523586 
875.000000	 93.675026 
874.000000	 93.836676 
873.000000	 94.007760 
872.000000	 94.187324 
871.000000	 94.376423 
870.000000	 94.570786 
869.000000	 94.762678 
868.000000	 94.952211 
867.000000	 95.146382 
866.000000	 95.344742 
865.000000	 95.536086 
864.000000	 95.712484 
863.000000	 95.878080 
862.000000	 96.041121 
861.000000	 96.204644 
860.000000	 96.368088 
859.000000	 96.530887 
858.000000	 96.690119 
857.000000	 96.839316 
856.000000	 96.973044 
855.000000	 97.090437 
854.000000	 97.193850 
853.000000	 97.286876 
852.000000	 97.373044 
851.000000	 97.453100 
850.000000	 97.524549 
849.000000	 97.587147 
848.000000	 97.646179 
847.000000	 97.705406 
846.000000	 97.759404 
845.000000	 97.798918 
844.000000	 97.821528 
843.000000	 97.830587 
842.000000	 97.826301 
841.000000	 97.806264 
840.000000	 97.774157 
839.000000	 97.739345 
838.000000	 97.706009 
837.000000	 97.668794 
836.000000	 97.620676 
835.000000	 97.560329 
834.000000	 97.492401 
833.000000	 97.426570 
832.000000	 97.375504 
831.000000	 97.346268 
830.000000	 97.333145 
829.000000	 97.325969 
828.000000	 97.325103 
827.000000	 97.339913 
826.000000	 97.374010 
825.000000	 97.423345 
824.000000	 97.487555 
823.000000	 97.567670 
822.000000	 97.651418 
821.000000	 97.717877 
820.000000	 97.760844 
819.000000	 97.794583 
818.000000	 97.833432 
817.000000	 97.875721 
816.000000	 97.909996 
815.000000	 97.926794 
814.000000	 97.919494 
813.000000	 97.881152 
812.000000	 97.806295 
811.000000	 97.692093 
810.000000	 97.534863 
809.000000	 97.329802 
808.000000	 97.076157 
807.000000	 96.777533 
806.000000	 96.435700 
805.000000	 96.052194 
804.000000	 95.640646 
803.000000	 95.230109 
802.000000	 94.850435 
801.000000	 94.520158 
800.000000	 94.251504 
799.000000	 94.055805 
798.000000	 93.936725 
797.000000	 93.887115 
796.000000	 93.898418 
795.000000	 93.964492 
794.000000	 94.072069 
793.000000	 94.197975 
792.000000	 94.322028 
791.000000	 94.435615 
790.000000	 94.534211 
789.000000	 94.609472 
788.000000	 94.652879 
787.000000	 94.660752 
786.000000	 94.632213 
785.000000	 94.567766 
784.000000	 94.472610 
783.000000	 94.356085 
782.000000	 94.226314 
781.000000	 94.091232 
780.000000	 93.965821 
779.000000	 93.870700 
778.000000	 93.821319 
777.000000	 93.824819 
776.000000	 93.885917 
775.000000	 94.003975 
774.000000	 94.162159 
773.000000	 94.331348 
772.000000	 94.489997 
771.000000	 94.633354 
770.000000	 94.762468 
769.000000	 94.873576 
768.000000	 94.961401 
767.000000	 95.025604 
766.000000	 95.070909 
765.000000	 95.105487 
764.000000	 95.138925 
763.000000	 95.175304 
762.000000	 95.208228 
761.000000	 95.229502 
760.000000	 95.242180 
759.000000	 95.257873 
758.000000	 95.282899 
757.000000	 95.315854 
756.000000	 95.356641 
755.000000	 95.406641 
754.000000	 95.460697 
753.000000	 95.511018 
752.000000	 95.559717 
751.000000	 95.615843 
750.000000	 95.678645 
749.000000	 95.736217 
748.000000	 95.784613 
747.000000	 95.837101 
746.000000	 95.908614 
745.000000	 95.999507 
744.000000	 96.099931 
743.000000	 96.203348 
742.000000	 96.311299 
741.000000	 96.429938 
740.000000	 96.564130 
739.000000	 96.710628 
738.000000	 96.857349 
737.000000	 96.994236 
736.000000	 97.121921 
735.000000	 97.242908 
734.000000	 97.349184 
733.000000	 97.429501 
732.000000	 97.485857 
731.000000	 97.531223 
730.000000	 97.572601 
729.000000	 97.608421 
728.000000	 97.640860 
727.000000	 97.677402 
726.000000	 97.719848 
725.000000	 97.763209 
724.000000	 97.806997 
723.000000	 97.857204 
722.000000	 97.916591 
721.000000	 97.983425 
720.000000	 98.059218 
719.000000	 98.145091 
718.000000	 98.230055 
717.000000	 98.296993 
716.000000	 98.342786 
715.000000	 98.380965 
714.000000	 98.422173 
713.000000	 98.463157 
712.000000	 98.497456 
711.000000	 98.525013 
710.000000	 98.547445 
709.000000	 98.564353 
708.000000	 98.577451 
707.000000	 98.586710 
706.000000	 98.581372 
705.000000	 98.546712 
704.000000	 98.481731 
703.000000	 98.397809 
702.000000	 98.296522 
701.000000	 98.163842 
700.000000	 97.992631 
699.000000	 97.795412 
698.000000	 97.590701 
697.000000	 97.393037 
696.000000	 97.223871 
695.000000	 97.114534 
694.000000	 97.081801 
693.000000	 97.111649 
692.000000	 97.178325 
691.000000	 97.268711 
690.000000	 97.379499 
689.000000	 97.500785 
688.000000	 97.616708 
687.000000	 97.718505 
686.000000	 97.804721 
685.000000	 97.874887 
684.000000	 97.933385 
683.000000	 97.990740 
682.000000	 98.052270 
681.000000	 98.111990 
680.000000	 98.164859 
679.000000	 98.216007 
678.000000	 98.269688 
677.000000	 98.320297 
676.000000	 98.359890 
675.000000	 98.389172 
674.000000	 98.415100 
673.000000	 98.441072 
672.000000	 98.463853 
671.000000	 98.481381 
670.000000	 98.503972 
669.000000	 98.560843 
668.000000	 98.678582 
667.000000	 98.814396 
666.000000	 98.899543 
665.000000	 98.943181 
664.000000	 98.984061 
663.000000	 99.039628 
662.000000	 99.096798 
661.000000	 99.137600 
660.000000	 99.169580 
659.000000	 99.213394 
658.000000	 99.268495 
657.000000	 99.312994 
656.000000	 99.330441 
655.000000	 99.320179 
654.000000	 99.288041 
653.000000	 99.240162 
652.000000	 99.187417 
651.000000	 99.148481 
650.000000	 99.140101 

