4000.000000	98.008215 
3999.000000	98.007094 
3998.000000	98.006410 
3997.000000	98.006233 
3996.000000	98.006446 
3995.000000	98.006782 
3994.000000	98.006940 
3993.000000	98.006748 
3992.000000	98.006238 
3991.000000	98.005611 
3990.000000	98.005153 
3989.000000	98.005100 
3988.000000	98.005398 
3987.000000	98.005643 
3986.000000	98.005440 
3985.000000	98.004751 
3984.000000	98.003922 
3983.000000	98.003333 
3982.000000	98.003104 
3981.000000	98.003075 
3980.000000	98.002968 
3979.000000	98.002605 
3978.000000	98.001984 
3977.000000	98.001206 
3976.000000	98.000346 
3975.000000	97.999422 
3974.000000	97.998493 
3973.000000	97.997746 
3972.000000	97.997376 
3971.000000	97.997354 
3970.000000	97.997448 
3969.000000	97.997480 
3968.000000	97.997425 
3967.000000	97.997305 
3966.000000	97.997113 
3965.000000	97.996810 
3964.000000	97.996383 
3963.000000	97.995908 
3962.000000	97.995517 
3961.000000	97.995316 
3960.000000	97.995311 
3959.000000	97.995325 
3958.000000	97.995114 
3957.000000	97.994656 
3956.000000	97.994181 
3955.000000	97.993924 
3954.000000	97.993906 
3953.000000	97.993931 
3952.000000	97.993764 
3951.000000	97.993336 
3950.000000	97.992930 
3949.000000	97.992976 
3948.000000	97.993461 
3947.000000	97.993793 
3946.000000	97.993402 
3945.000000	97.992211 
3944.000000	97.990630 
3943.000000	97.989343 
3942.000000	97.988791 
3941.000000	97.988899 
3940.000000	97.989226 
3939.000000	97.989376 
3938.000000	97.989286 
3937.000000	97.989223 
3936.000000	97.989460 
3935.000000	97.990000 
3934.000000	97.990627 
3933.000000	97.991153 
3932.000000	97.991499 
3931.000000	97.991534 
3930.000000	97.991120 
3929.000000	97.990245 
3928.000000	97.989105 
3927.000000	97.988160 
3926.000000	97.987810 
3925.000000	97.988131 
3924.000000	97.989009 
3923.000000	97.990150 
3922.000000	97.991143 
3921.000000	97.991746 
3920.000000	97.992094 
3919.000000	97.992501 
3918.000000	97.992949 
3917.000000	97.993117 
3916.000000	97.992873 
3915.000000	97.992455 
3914.000000	97.992148 
3913.000000	97.992043 
3912.000000	97.992150 
3911.000000	97.992443 
3910.000000	97.992805 
3909.000000	97.993108 
3908.000000	97.993324 
3907.000000	97.993518 
3906.000000	97.993779 
3905.000000	97.994110 
3904.000000	97.994454 
3903.000000	97.994728 
3902.000000	97.994881 
3901.000000	97.994957 
3900.000000	97.995014 
3899.000000	97.995078 
3898.000000	97.995130 
3897.000000	97.995157 
3896.000000	97.995152 
3895.000000	97.995112 
3894.000000	97.995045 
3893.000000	97.994963 
3892.000000	97.994876 
3891.000000	97.994786 
3890.000000	97.994688 
3889.000000	97.994580 
3888.000000	97.994459 
3887.000000	97.994320 
3886.000000	97.994159 
3885.000000	97.993978 
3884.000000	97.993779 
3883.000000	97.993561 
3882.000000	97.993328 
3881.000000	97.993094 
3880.000000	97.992872 
3879.000000	97.992665 
3878.000000	97.992460 
3877.000000	97.992242 
3876.000000	97.992006 
3875.000000	97.991758 
3874.000000	97.991513 
3873.000000	97.991279 
3872.000000	97.991051 
3871.000000	97.990814 
3870.000000	97.990552 
3869.000000	97.990258 
3868.000000	97.989935 
3867.000000	97.989589 
3866.000000	97.989229 
3865.000000	97.988875 
3864.000000	97.988547 
3863.000000	97.988256 
3862.000000	97.987991 
3861.000000	97.987755 
3860.000000	97.987553 
3859.000000	97.987383 
3858.000000	97.987216 
3857.000000	97.986982 
3856.000000	97.986645 
3855.000000	97.986168 
3854.000000	97.985717 
3853.000000	97.985634 
3852.000000	97.985852 
3851.000000	97.986018 
3850.000000	97.986010 
3849.000000	97.985864 
3848.000000	97.985815 
3847.000000	97.986077 
3846.000000	97.986422 
3845.000000	97.986546 
3844.000000	97.986567 
3843.000000	97.986641 
3842.000000	97.986840 
3841.000000	97.987424 
3840.000000	97.988385 
3839.000000	97.989279 
3838.000000	97.989610 
3837.000000	97.989054 
3836.000000	97.987885 
3835.000000	97.986555 
3834.000000	97.985482 
3833.000000	97.984828 
3832.000000	97.984420 
3831.000000	97.984162 
3830.000000	97.983971 
3829.000000	97.983632 
3828.000000	97.983279 
3827.000000	97.983267 
3826.000000	97.983773 
3825.000000	97.985109 
3824.000000	97.987163 
3823.000000	97.988339 
3822.000000	97.987485 
3821.000000	97.985840 
3820.000000	97.985549 
3819.000000	97.986828 
3818.000000	97.987958 
3817.000000	97.986773 
3816.000000	97.982828 
3815.000000	97.978150 
3814.000000	97.974976 
3813.000000	97.973168 
3812.000000	97.971280 
3811.000000	97.969537 
3810.000000	97.969550 
3809.000000	97.971662 
3808.000000	97.974118 
3807.000000	97.974986 
3806.000000	97.974704 
3805.000000	97.974946 
3804.000000	97.975471 
3803.000000	97.974233 
3802.000000	97.970521 
3801.000000	97.966473 
3800.000000	97.964355 
3799.000000	97.963537 
3798.000000	97.962112 
3797.000000	97.959851 
3796.000000	97.958301 
3795.000000	97.958032 
3794.000000	97.957425 
3793.000000	97.954467 
3792.000000	97.949361 
3791.000000	97.944964 
3790.000000	97.943306 
3789.000000	97.943509 
3788.000000	97.943633 
3787.000000	97.943319 
3786.000000	97.943457 
3785.000000	97.944308 
3784.000000	97.945151 
3783.000000	97.945785 
3782.000000	97.946053 
3781.000000	97.945324 
3780.000000	97.944105 
3779.000000	97.943967 
3778.000000	97.945084 
3777.000000	97.946491 
3776.000000	97.947536 
3775.000000	97.947530 
3774.000000	97.946722 
3773.000000	97.946621 
3772.000000	97.948365 
3771.000000	97.950998 
3770.000000	97.953596 
3769.000000	97.956544 
3768.000000	97.959059 
3767.000000	97.960019 
3766.000000	97.959931 
3765.000000	97.960153 
3764.000000	97.962078 
3763.000000	97.965583 
3762.000000	97.967958 
3761.000000	97.966950 
3760.000000	97.965445 
3759.000000	97.969038 
3758.000000	97.976862 
3757.000000	97.983347 
3756.000000	97.987914 
3755.000000	97.993320 
3754.000000	97.999834 
3753.000000	98.004678 
3752.000000	98.008311 
3751.000000	98.014863 
3750.000000	98.020265 
3749.000000	98.017236 
3748.000000	98.008400 
3747.000000	98.002482 
3746.000000	98.001834 
3745.000000	98.000502 
3744.000000	97.994904 
3743.000000	97.989145 
3742.000000	97.987597 
3741.000000	97.988919 
3740.000000	97.990393 
3739.000000	97.994259 
3738.000000	98.001679 
3737.000000	98.006639 
3736.000000	98.005091 
3735.000000	98.000231 
3734.000000	97.996366 
3733.000000	97.991655 
3732.000000	97.983629 
3731.000000	97.975628 
3730.000000	97.971663 
3729.000000	97.971585 
3728.000000	97.971515 
3727.000000	97.968572 
3726.000000	97.964570 
3725.000000	97.962477 
3724.000000	97.961261 
3723.000000	97.957714 
3722.000000	97.952110 
3721.000000	97.946965 
3720.000000	97.943089 
3719.000000	97.941233 
3718.000000	97.941449 
3717.000000	97.942785 
3716.000000	97.945467 
3715.000000	97.949681 
3714.000000	97.954366 
3713.000000	97.957787 
3712.000000	97.960206 
3711.000000	97.960931 
3710.000000	97.955894 
3709.000000	97.943861 
3708.000000	97.928110 
3707.000000	97.913018 
3706.000000	97.901464 
3705.000000	97.893274 
3704.000000	97.885625 
3703.000000	97.876084 
3702.000000	97.866000 
3701.000000	97.857899 
3700.000000	97.851585 
3699.000000	97.846304 
3698.000000	97.842273 
3697.000000	97.840036 
3696.000000	97.841952 
3695.000000	97.850040 
3694.000000	97.860599 
3693.000000	97.866149 
3692.000000	97.864118 
3691.000000	97.859512 
3690.000000	97.858645 
3689.000000	97.860896 
3688.000000	97.859671 
3687.000000	97.853174 
3686.000000	97.846814 
3685.000000	97.843888 
3684.000000	97.843048 
3683.000000	97.843064 
3682.000000	97.844121 
3681.000000	97.845117 
3680.000000	97.844727 
3679.000000	97.845421 
3678.000000	97.851630 
3677.000000	97.858268 
3676.000000	97.854725 
3675.000000	97.841418 
3674.000000	97.825917 
3673.000000	97.812147 
3672.000000	97.797606 
3671.000000	97.777616 
3670.000000	97.756953 
3669.000000	97.742327 
3668.000000	97.729983 
3667.000000	97.714284 
3666.000000	97.697116 
3665.000000	97.683252 
3664.000000	97.673283 
3663.000000	97.663820 
3662.000000	97.651311 
3661.000000	97.635912 
3660.000000	97.621367 
3659.000000	97.609777 
3658.000000	97.599048 
3657.000000	97.585554 
3656.000000	97.569267 
3655.000000	97.554778 
3654.000000	97.545744 
3653.000000	97.540070 
3652.000000	97.531689 
3651.000000	97.517681 
3650.000000	97.503068 
3649.000000	97.490350 
3648.000000	97.473082 
3647.000000	97.448860 
3646.000000	97.423848 
3645.000000	97.402890 
3644.000000	97.385117 
3643.000000	97.368572 
3642.000000	97.351995 
3641.000000	97.335557 
3640.000000	97.319578 
3639.000000	97.303916 
3638.000000	97.289419 
3637.000000	97.277590 
3636.000000	97.269072 
3635.000000	97.261842 
3634.000000	97.254062 
3633.000000	97.247866 
3632.000000	97.245801 
3631.000000	97.244724 
3630.000000	97.237012 
3629.000000	97.222001 
3628.000000	97.204594 
3627.000000	97.188035 
3626.000000	97.173222 
3625.000000	97.158922 
3624.000000	97.143730 
3623.000000	97.127087 
3622.000000	97.109153 
3621.000000	97.090886 
3620.000000	97.078859 
3619.000000	97.082697 
3618.000000	97.102368 
3617.000000	97.127398 
3616.000000	97.149580 
3615.000000	97.166814 
3614.000000	97.181211 
3613.000000	97.196097 
3612.000000	97.211791 
3611.000000	97.225006 
3610.000000	97.232407 
3609.000000	97.233271 
3608.000000	97.230214 
3607.000000	97.226377 
3606.000000	97.222014 
3605.000000	97.216511 
3604.000000	97.210451 
3603.000000	97.205459 
3602.000000	97.203903 
3601.000000	97.206719 
3600.000000	97.214103 
3599.000000	97.225794 
3598.000000	97.238791 
3597.000000	97.248870 
3596.000000	97.255413 
3595.000000	97.260805 
3594.000000	97.267829 
3593.000000	97.277202 
3592.000000	97.286240 
3591.000000	97.291607 
3590.000000	97.291122 
3589.000000	97.285499 
3588.000000	97.279436 
3587.000000	97.277501 
3586.000000	97.278212 
3585.000000	97.278166 
3584.000000	97.276585 
3583.000000	97.274955 
3582.000000	97.274210 
3581.000000	97.273918 
3580.000000	97.273379 
3579.000000	97.272907 
3578.000000	97.273761 
3577.000000	97.276922 
3576.000000	97.282544 
3575.000000	97.289421 
3574.000000	97.295290 
3573.000000	97.298826 
3572.000000	97.300534 
3571.000000	97.302053 
3570.000000	97.304445 
3569.000000	97.306485 
3568.000000	97.306262 
3567.000000	97.304118 
3566.000000	97.301307 
3565.000000	97.298404 
3564.000000	97.295960 
3563.000000	97.294000 
3562.000000	97.291817 
3561.000000	97.289126 
3560.000000	97.286425 
3559.000000	97.284648 
3558.000000	97.283857 
3557.000000	97.282862 
3556.000000	97.280629 
3555.000000	97.278063 
3554.000000	97.277382 
3553.000000	97.279991 
3552.000000	97.284896 
3551.000000	97.289440 
3550.000000	97.291856 
3549.000000	97.292347 
3548.000000	97.291953 
3547.000000	97.291496 
3546.000000	97.290795 
3545.000000	97.289187 
3544.000000	97.286810 
3543.000000	97.284849 
3542.000000	97.284317 
3541.000000	97.285050 
3540.000000	97.285768 
3539.000000	97.285424 
3538.000000	97.284244 
3537.000000	97.283556 
3536.000000	97.284501 
3535.000000	97.286795 
3534.000000	97.289276 
3533.000000	97.291023 
3532.000000	97.291835 
3531.000000	97.291859 
3530.000000	97.291351 
3529.000000	97.290919 
3528.000000	97.291285 
3527.000000	97.292606 
3526.000000	97.294139 
3525.000000	97.294913 
3524.000000	97.294740 
3523.000000	97.294319 
3522.000000	97.294251 
3521.000000	97.294483 
3520.000000	97.294743 
3519.000000	97.295123 
3518.000000	97.295876 
3517.000000	97.296855 
3516.000000	97.297666 
3515.000000	97.298199 
3514.000000	97.298993 
3513.000000	97.300703 
3512.000000	97.303318 
3511.000000	97.306187 
3510.000000	97.308785 
3509.000000	97.310863 
3508.000000	97.312003 
3507.000000	97.311788 
3506.000000	97.310460 
3505.000000	97.309184 
3504.000000	97.309153 
3503.000000	97.310408 
3502.000000	97.311810 
3501.000000	97.312349 
3500.000000	97.312086 
3499.000000	97.311765 
3498.000000	97.312163 
3497.000000	97.313785 
3496.000000	97.316617 
3495.000000	97.319694 
3494.000000	97.321410 
3493.000000	97.320836 
3492.000000	97.318502 
3491.000000	97.315872 
3490.000000	97.314126 
3489.000000	97.313446 
3488.000000	97.313265 
3487.000000	97.312901 
3486.000000	97.311947 
3485.000000	97.310407 
3484.000000	97.308731 
3483.000000	97.307603 
3482.000000	97.307499 
3481.000000	97.308242 
3480.000000	97.309019 
3479.000000	97.309040 
3478.000000	97.308189 
3477.000000	97.306957 
3476.000000	97.305770 
3475.000000	97.304549 
3474.000000	97.302999 
3473.000000	97.301218 
3472.000000	97.299750 
3471.000000	97.298984 
3470.000000	97.298769 
3469.000000	97.298637 
3468.000000	97.298115 
3467.000000	97.296887 
3466.000000	97.294904 
3465.000000	97.292504 
3464.000000	97.290313 
3463.000000	97.288761 
3462.000000	97.287740 
3461.000000	97.286782 
3460.000000	97.285546 
3459.000000	97.284096 
3458.000000	97.282652 
3457.000000	97.281328 
3456.000000	97.280084 
3455.000000	97.278861 
3454.000000	97.277671 
3453.000000	97.276512 
3452.000000	97.275326 
3451.000000	97.274047 
3450.000000	97.272661 
3449.000000	97.271226 
3448.000000	97.269840 
3447.000000	97.268580 
3446.000000	97.267416 
3445.000000	97.266230 
3444.000000	97.264936 
3443.000000	97.263571 
3442.000000	97.262274 
3441.000000	97.261153 
3440.000000	97.260197 
3439.000000	97.259269 
3438.000000	97.258217 
3437.000000	97.257000 
3436.000000	97.255698 
3435.000000	97.254420 
3434.000000	97.253225 
3433.000000	97.252122 
3432.000000	97.251166 
3431.000000	97.250427 
3430.000000	97.249812 
3429.000000	97.249005 
3428.000000	97.247702 
3427.000000	97.245927 
3426.000000	97.244071 
3425.000000	97.242574 
3424.000000	97.241605 
3423.000000	97.241057 
3422.000000	97.240766 
3421.000000	97.240648 
3420.000000	97.240530 
3419.000000	97.240056 
3418.000000	97.238998 
3417.000000	97.237623 
3416.000000	97.236551 
3415.000000	97.236176 
3414.000000	97.236319 
3413.000000	97.236482 
3412.000000	97.236323 
3411.000000	97.235856 
3410.000000	97.235372 
3409.000000	97.235212 
3408.000000	97.235446 
3407.000000	97.235670 
3406.000000	97.235323 
3405.000000	97.234382 
3404.000000	97.233535 
3403.000000	97.233412 
3402.000000	97.233885 
3401.000000	97.234306 
3400.000000	97.234335 
3399.000000	97.234204 
3398.000000	97.234224 
3397.000000	97.234390 
3396.000000	97.234567 
3395.000000	97.234854 
3394.000000	97.235557 
3393.000000	97.236818 
3392.000000	97.238323 
3391.000000	97.239455 
3390.000000	97.239815 
3389.000000	97.239542 
3388.000000	97.239098 
3387.000000	97.238829 
3386.000000	97.238836 
3385.000000	97.239251 
3384.000000	97.240342 
3383.000000	97.242198 
3382.000000	97.244441 
3381.000000	97.246392 
3380.000000	97.247595 
3379.000000	97.248034 
3378.000000	97.247973 
3377.000000	97.247696 
3376.000000	97.247355 
3375.000000	97.247045 
3374.000000	97.246982 
3373.000000	97.247536 
3372.000000	97.248912 
3371.000000	97.250824 
3370.000000	97.252611 
3369.000000	97.253807 
3368.000000	97.254466 
3367.000000	97.254858 
3366.000000	97.255114 
3365.000000	97.255312 
3364.000000	97.255739 
3363.000000	97.256705 
3362.000000	97.258095 
3361.000000	97.259448 
3360.000000	97.260569 
3359.000000	97.261784 
3358.000000	97.263455 
3357.000000	97.265460 
3356.000000	97.267283 
3355.000000	97.268525 
3354.000000	97.269218 
3353.000000	97.269742 
3352.000000	97.270550 
3351.000000	97.271880 
3350.000000	97.273612 
3349.000000	97.275417 
3348.000000	97.277055 
3347.000000	97.278550 
3346.000000	97.280068 
3345.000000	97.281645 
3344.000000	97.283156 
3343.000000	97.284451 
3342.000000	97.285445 
3341.000000	97.286090 
3340.000000	97.286355 
3339.000000	97.286325 
3338.000000	97.286297 
3337.000000	97.286707 
3336.000000	97.287839 
3335.000000	97.289623 
3334.000000	97.291701 
3333.000000	97.293682 
3332.000000	97.295331 
3331.000000	97.296553 
3330.000000	97.297370 
3329.000000	97.298000 
3328.000000	97.298854 
3327.000000	97.300274 
3326.000000	97.302212 
3325.000000	97.304208 
3324.000000	97.305776 
3323.000000	97.306775 
3322.000000	97.307479 
3321.000000	97.308374 
3320.000000	97.309853 
3319.000000	97.312014 
3318.000000	97.314602 
3317.000000	97.317097 
3316.000000	97.319039 
3315.000000	97.320361 
3314.000000	97.321453 
3313.000000	97.322841 
3312.000000	97.324673 
3311.000000	97.326575 
3310.000000	97.328069 
3309.000000	97.329092 
3308.000000	97.330024 
3307.000000	97.331216 
3306.000000	97.332583 
3305.000000	97.333768 
3304.000000	97.334598 
3303.000000	97.335285 
3302.000000	97.336217 
3301.000000	97.337613 
3300.000000	97.339409 
3299.000000	97.341361 
3298.000000	97.343223 
3297.000000	97.344866 
3296.000000	97.346326 
3295.000000	97.347758 
3294.000000	97.349284 
3293.000000	97.350813 
3292.000000	97.352044 
3291.000000	97.352766 
3290.000000	97.353176 
3289.000000	97.353787 
3288.000000	97.354932 
3287.000000	97.356455 
3286.000000	97.357962 
3285.000000	97.359286 
3284.000000	97.360569 
3283.000000	97.361972 
3282.000000	97.363506 
3281.000000	97.365176 
3280.000000	97.367054 
3279.000000	97.369130 
3278.000000	97.371232 
3277.000000	97.373110 
3276.000000	97.374565 
3275.000000	97.375495 
3274.000000	97.375956 
3273.000000	97.376231 
3272.000000	97.376702 
3271.000000	97.377594 
3270.000000	97.378955 
3269.000000	97.380788 
3268.000000	97.383025 
3267.000000	97.385394 
3266.000000	97.387508 
3265.000000	97.389188 
3264.000000	97.390513 
3263.000000	97.391573 
3262.000000	97.392359 
3261.000000	97.393030 
3260.000000	97.393978 
3259.000000	97.395438 
3258.000000	97.397239 
3257.000000	97.399136 
3256.000000	97.401177 
3255.000000	97.403504 
3254.000000	97.405927 
3253.000000	97.408021 
3252.000000	97.409621 
3251.000000	97.410997 
3250.000000	97.412558 
3249.000000	97.414477 
3248.000000	97.416632 
3247.000000	97.418788 
3246.000000	97.420759 
3245.000000	97.422474 
3244.000000	97.423996 
3243.000000	97.425486 
3242.000000	97.427084 
3241.000000	97.428817 
3240.000000	97.430588 
3239.000000	97.432293 
3238.000000	97.433938 
3237.000000	97.435669 
3236.000000	97.437651 
3235.000000	97.439896 
3234.000000	97.442197 
3233.000000	97.444264 
3232.000000	97.445981 
3231.000000	97.447457 
3230.000000	97.448853 
3229.000000	97.450201 
3228.000000	97.451469 
3227.000000	97.452739 
3226.000000	97.454225 
3225.000000	97.456102 
3224.000000	97.458343 
3223.000000	97.460697 
3222.000000	97.462815 
3221.000000	97.464471 
3220.000000	97.465715 
3219.000000	97.466854 
3218.000000	97.468239 
3217.000000	97.469987 
3216.000000	97.471960 
3215.000000	97.473935 
3214.000000	97.475796 
3213.000000	97.477558 
3212.000000	97.479278 
3211.000000	97.480987 
3210.000000	97.482648 
3209.000000	97.484124 
3208.000000	97.485231 
3207.000000	97.485924 
3206.000000	97.486463 
3205.000000	97.487291 
3204.000000	97.488666 
3203.000000	97.490495 
3202.000000	97.492517 
3201.000000	97.494604 
3200.000000	97.496736 
3199.000000	97.498777 
3198.000000	97.500480 
3197.000000	97.501763 
3196.000000	97.502864 
3195.000000	97.504143 
3194.000000	97.505729 
3193.000000	97.507437 
3192.000000	97.509045 
3191.000000	97.510598 
3190.000000	97.512366 
3189.000000	97.514542 
3188.000000	97.517005 
3187.000000	97.519353 
3186.000000	97.521169 
3185.000000	97.522369 
3184.000000	97.523333 
3183.000000	97.524668 
3182.000000	97.526679 
3181.000000	97.529103 
3180.000000	97.531377 
3179.000000	97.533178 
3178.000000	97.534671 
3177.000000	97.536269 
3176.000000	97.538182 
3175.000000	97.540225 
3174.000000	97.541996 
3173.000000	97.543220 
3172.000000	97.543995 
3171.000000	97.544741 
3170.000000	97.545866 
3169.000000	97.547384 
3168.000000	97.548916 
3167.000000	97.550106 
3166.000000	97.551031 
3165.000000	97.552170 
3164.000000	97.553924 
3163.000000	97.556210 
3162.000000	97.558517 
3161.000000	97.560359 
3160.000000	97.561729 
3159.000000	97.563134 
3158.000000	97.565134 
3157.000000	97.567806 
3156.000000	97.570639 
3155.000000	97.573008 
3154.000000	97.574729 
3153.000000	97.576096 
3152.000000	97.577412 
3151.000000	97.578577 
3150.000000	97.579203 
3149.000000	97.579072 
3148.000000	97.578453 
3147.000000	97.578044 
3146.000000	97.578551 
3145.000000	97.580276 
3144.000000	97.583068 
3143.000000	97.586552 
3142.000000	97.590307 
3141.000000	97.593853 
3140.000000	97.596646 
3139.000000	97.598344 
3138.000000	97.599116 
3137.000000	97.599538 
3136.000000	97.600162 
3135.000000	97.601231 
3134.000000	97.602754 
3133.000000	97.604596 
3132.000000	97.606426 
3131.000000	97.607831 
3130.000000	97.608683 
3129.000000	97.609347 
3128.000000	97.610367 
3127.000000	97.611978 
3126.000000	97.614015 
3125.000000	97.616181 
3124.000000	97.618276 
3123.000000	97.620165 
3122.000000	97.621714 
3121.000000	97.622853 
3120.000000	97.623687 
3119.000000	97.624453 
3118.000000	97.625406 
3117.000000	97.626689 
3116.000000	97.628271 
3115.000000	97.629958 
3114.000000	97.631533 
3113.000000	97.632937 
3112.000000	97.634279 
3111.000000	97.635681 
3110.000000	97.637146 
3109.000000	97.638568 
3108.000000	97.639839 
3107.000000	97.640947 
3106.000000	97.641984 
3105.000000	97.643072 
3104.000000	97.644243 
3103.000000	97.645441 
3102.000000	97.646598 
3101.000000	97.647702 
3100.000000	97.648797 
3099.000000	97.649931 
3098.000000	97.651087 
3097.000000	97.652207 
3096.000000	97.653264 
3095.000000	97.654301 
3094.000000	97.655388 
3093.000000	97.656548 
3092.000000	97.657701 
3091.000000	97.658720 
3090.000000	97.659544 
3089.000000	97.660232 
3088.000000	97.660972 
3087.000000	97.661961 
3086.000000	97.663244 
3085.000000	97.664637 
3084.000000	97.665870 
3083.000000	97.666821 
3082.000000	97.667582 
3081.000000	97.668373 
3080.000000	97.669407 
3079.000000	97.670720 
3078.000000	97.672052 
3077.000000	97.672967 
3076.000000	97.673238 
3075.000000	97.673106 
3074.000000	97.673161 
3073.000000	97.673809 
3072.000000	97.674873 
3071.000000	97.675739 
3070.000000	97.676021 
3069.000000	97.676072 
3068.000000	97.676579 
3067.000000	97.677664 
3066.000000	97.678741 
3065.000000	97.679472 
3064.000000	97.680409 
3063.000000	97.682177 
3062.000000	97.684318 
3061.000000	97.685715 
3060.000000	97.686156 
3059.000000	97.686762 
3058.000000	97.688479 
3057.000000	97.690681 
3056.000000	97.691805 
3055.000000	97.691212 
3054.000000	97.690086 
3053.000000	97.690304 
3052.000000	97.692631 
3051.000000	97.696028 
3050.000000	97.698561 
3049.000000	97.699182 
3048.000000	97.698705 
3047.000000	97.699032 
3046.000000	97.701438 
3045.000000	97.705624 
3044.000000	97.710268 
3043.000000	97.714348 
3042.000000	97.717675 
3041.000000	97.720325 
3040.000000	97.722094 
3039.000000	97.723078 
3038.000000	97.724331 
3037.000000	97.727019 
3036.000000	97.730833 
3035.000000	97.734006 
3034.000000	97.735488 
3033.000000	97.736568 
3032.000000	97.739419 
3031.000000	97.744404 
3030.000000	97.749663 
3029.000000	97.753433 
3028.000000	97.755956 
3027.000000	97.758754 
3026.000000	97.762677 
3025.000000	97.767179 
3024.000000	97.771108 
3023.000000	97.773914 
3022.000000	97.776277 
3021.000000	97.779815 
3020.000000	97.785837 
3019.000000	97.794076 
3018.000000	97.802681 
3017.000000	97.809714 
3016.000000	97.814603 
3015.000000	97.818220 
3014.000000	97.821956 
3013.000000	97.826702 
3012.000000	97.832228 
3011.000000	97.837473 
3010.000000	97.841901 
3009.000000	97.846426 
3008.000000	97.852325 
3007.000000	97.859406 
3006.000000	97.866284 
3005.000000	97.872612 
3004.000000	97.879615 
3003.000000	97.887768 
3002.000000	97.895300 
3001.000000	97.900285 
3000.000000	97.903519 
2999.000000	97.907825 
2998.000000	97.914594 
2997.000000	97.922268 
2996.000000	97.928386 
2995.000000	97.932290 
2994.000000	97.935554 
2993.000000	97.940460 
2992.000000	97.948267 
2991.000000	97.958272 
2990.000000	97.968160 
2989.000000	97.975520 
2988.000000	97.979263 
2987.000000	97.979519 
2986.000000	97.976715 
2985.000000	97.971619 
2984.000000	97.966241 
2983.000000	97.963494 
2982.000000	97.965018 
2981.000000	97.969514 
2980.000000	97.973810 
2979.000000	97.975698 
2978.000000	97.975504 
2977.000000	97.975047 
2976.000000	97.975486 
2975.000000	97.976436 
2974.000000	97.977069 
2973.000000	97.977586 
2972.000000	97.979149 
2971.000000	97.982257 
2970.000000	97.985512 
2969.000000	97.986412 
2968.000000	97.983530 
2967.000000	97.977934 
2966.000000	97.972553 
2965.000000	97.970016 
2964.000000	97.970767 
2963.000000	97.973030 
2962.000000	97.974407 
2961.000000	97.973616 
2960.000000	97.970944 
2959.000000	97.967566 
2958.000000	97.964753 
2957.000000	97.963416 
2956.000000	97.963617 
2955.000000	97.964229 
2954.000000	97.963509 
2953.000000	97.960553 
2952.000000	97.956148 
2951.000000	97.952128 
2950.000000	97.949965 
2949.000000	97.949985 
2948.000000	97.951470 
2947.000000	97.953149 
2946.000000	97.953892 
2945.000000	97.953378 
2944.000000	97.952103 
2943.000000	97.950555 
2942.000000	97.948551 
2941.000000	97.945720 
2940.000000	97.942466 
2939.000000	97.939926 
2938.000000	97.938846 
2937.000000	97.938911 
2936.000000	97.939329 
2935.000000	97.939851 
2934.000000	97.941029 
2933.000000	97.943502 
2932.000000	97.947026 
2931.000000	97.950245 
2930.000000	97.951646 
2929.000000	97.950908 
2928.000000	97.949221 
2927.000000	97.948160 
2926.000000	97.948415 
2925.000000	97.949518 
2924.000000	97.950392 
2923.000000	97.950006 
2922.000000	97.948037 
2921.000000	97.945229 
2920.000000	97.942697 
2919.000000	97.940660 
2918.000000	97.938493 
2917.000000	97.936453 
2916.000000	97.936548 
2915.000000	97.940761 
2914.000000	97.948718 
2913.000000	97.957858 
2912.000000	97.965776 
2911.000000	97.971773 
2910.000000	97.976326 
2909.000000	97.980066 
2908.000000	97.983590 
2907.000000	97.987333 
2906.000000	97.991320 
2905.000000	97.995379 
2904.000000	97.999795 
2903.000000	98.005105 
2902.000000	98.011040 
2901.000000	98.015470 
2900.000000	98.016650 
2899.000000	98.014157 
2898.000000	98.009193 
2897.000000	98.003587 
2896.000000	97.998844 
2895.000000	97.995774 
2894.000000	97.994387 
2893.000000	97.993962 
2892.000000	97.993480 
2891.000000	97.992235 
2890.000000	97.990179 
2889.000000	97.987852 
2888.000000	97.986009 
2887.000000	97.985118 
2886.000000	97.984998 
2885.000000	97.984851 
2884.000000	97.983691 
2883.000000	97.980937 
2882.000000	97.976836 
2881.000000	97.972440 
2880.000000	97.969062 
2879.000000	97.967510 
2878.000000	97.967739 
2877.000000	97.969013 
2876.000000	97.970273 
2875.000000	97.970558 
2874.000000	97.969579 
2873.000000	97.967994 
2872.000000	97.966709 
2871.000000	97.965588 
2870.000000	97.963235 
2869.000000	97.958439 
2868.000000	97.951662 
2867.000000	97.944797 
2866.000000	97.939538 
2865.000000	97.936277 
2864.000000	97.934362 
2863.000000	97.932937 
2862.000000	97.931530 
2861.000000	97.930227 
2860.000000	97.929435 
2859.000000	97.929286 
2858.000000	97.929101 
2857.000000	97.927564 
2856.000000	97.923637 
2855.000000	97.917464 
2854.000000	97.910493 
2853.000000	97.904505 
2852.000000	97.900269 
2851.000000	97.897166 
2850.000000	97.894248 
2849.000000	97.891461 
2848.000000	97.889508 
2847.000000	97.888746 
2846.000000	97.888924 
2845.000000	97.889976 
2844.000000	97.892231 
2843.000000	97.895522 
2842.000000	97.898708 
2841.000000	97.900550 
2840.000000	97.900640 
2839.000000	97.899197 
2838.000000	97.896619 
2837.000000	97.893668 
2836.000000	97.891398 
2835.000000	97.890154 
2834.000000	97.889172 
2833.000000	97.887907 
2832.000000	97.887189 
2831.000000	97.888047 
2830.000000	97.889784 
2829.000000	97.890422 
2828.000000	97.889195 
2827.000000	97.887503 
2826.000000	97.887036 
2825.000000	97.887857 
2824.000000	97.888863 
2823.000000	97.889388 
2822.000000	97.889605 
2821.000000	97.889768 
2820.000000	97.889787 
2819.000000	97.889530 
2818.000000	97.889059 
2817.000000	97.888504 
2816.000000	97.887934 
2815.000000	97.887400 
2814.000000	97.886984 
2813.000000	97.886807 
2812.000000	97.886995 
2811.000000	97.887560 
2810.000000	97.888329 
2809.000000	97.889095 
2808.000000	97.889788 
2807.000000	97.890399 
2806.000000	97.890822 
2805.000000	97.890948 
2804.000000	97.890825 
2803.000000	97.890618 
2802.000000	97.890465 
2801.000000	97.890429 
2800.000000	97.890535 
2799.000000	97.890780 
2798.000000	97.891127 
2797.000000	97.891514 
2796.000000	97.891883 
2795.000000	97.892206 
2794.000000	97.892490 
2793.000000	97.892750 
2792.000000	97.892999 
2791.000000	97.893237 
2790.000000	97.893468 
2789.000000	97.893703 
2788.000000	97.893950 
2787.000000	97.894214 
2786.000000	97.894492 
2785.000000	97.894783 
2784.000000	97.895086 
2783.000000	97.895397 
2782.000000	97.895713 
2781.000000	97.896031 
2780.000000	97.896351 
2779.000000	97.896675 
2778.000000	97.897007 
2777.000000	97.897348 
2776.000000	97.897694 
2775.000000	97.898039 
2774.000000	97.898379 
2773.000000	97.898716 
2772.000000	97.899053 
2771.000000	97.899388 
2770.000000	97.899723 
2769.000000	97.900055 
2768.000000	97.900387 
2767.000000	97.900720 
2766.000000	97.901056 
2765.000000	97.901392 
2764.000000	97.901732 
2763.000000	97.902081 
2762.000000	97.902446 
2761.000000	97.902831 
2760.000000	97.903233 
2759.000000	97.903644 
2758.000000	97.904058 
2757.000000	97.904471 
2756.000000	97.904883 
2755.000000	97.905298 
2754.000000	97.905717 
2753.000000	97.906128 
2752.000000	97.906525 
2751.000000	97.906925 
2750.000000	97.907351 
2749.000000	97.907795 
2748.000000	97.908224 
2747.000000	97.908633 
2746.000000	97.909058 
2745.000000	97.909518 
2744.000000	97.909977 
2743.000000	97.910396 
2742.000000	97.910786 
2741.000000	97.911157 
2740.000000	97.911467 
2739.000000	97.911682 
2738.000000	97.911869 
2737.000000	97.912168 
2736.000000	97.912614 
2735.000000	97.913075 
2734.000000	97.913385 
2733.000000	97.913517 
2732.000000	97.913595 
2731.000000	97.913750 
2730.000000	97.914025 
2729.000000	97.914433 
2728.000000	97.915006 
2727.000000	97.915724 
2726.000000	97.916417 
2725.000000	97.916884 
2724.000000	97.917094 
2723.000000	97.917207 
2722.000000	97.917400 
2721.000000	97.917672 
2720.000000	97.917887 
2719.000000	97.917964 
2718.000000	97.917989 
2717.000000	97.918126 
2716.000000	97.918423 
2715.000000	97.918703 
2714.000000	97.918697 
2713.000000	97.918294 
2712.000000	97.917697 
2711.000000	97.917309 
2710.000000	97.917361 
2709.000000	97.917710 
2708.000000	97.918018 
2707.000000	97.918175 
2706.000000	97.918364 
2705.000000	97.918672 
2704.000000	97.918859 
2703.000000	97.918741 
2702.000000	97.918626 
2701.000000	97.919020 
2700.000000	97.919878 
2699.000000	97.920460 
2698.000000	97.920153 
2697.000000	97.919241 
2696.000000	97.918660 
2695.000000	97.918998 
2694.000000	97.919963 
2693.000000	97.920730 
2692.000000	97.920684 
2691.000000	97.919828 
2690.000000	97.918734 
2689.000000	97.918037 
2688.000000	97.917788 
2687.000000	97.917409 
2686.000000	97.916533 
2685.000000	97.915777 
2684.000000	97.916196 
2683.000000	97.917875 
2682.000000	97.919579 
2681.000000	97.920060 
2680.000000	97.919189 
2679.000000	97.917518 
2678.000000	97.915340 
2677.000000	97.912802 
2676.000000	97.910636 
2675.000000	97.909867 
2674.000000	97.910648 
2673.000000	97.911949 
2672.000000	97.912664 
2671.000000	97.912629 
2670.000000	97.912330 
2669.000000	97.912052 
2668.000000	97.911633 
2667.000000	97.910813 
2666.000000	97.909429 
2665.000000	97.907359 
2664.000000	97.904598 
2663.000000	97.901378 
2662.000000	97.898021 
2661.000000	97.894735 
2660.000000	97.891724 
2659.000000	97.889400 
2658.000000	97.888129 
2657.000000	97.887601 
2656.000000	97.886699 
2655.000000	97.884332 
2654.000000	97.880559 
2653.000000	97.876777 
2652.000000	97.874618 
2651.000000	97.874582 
2650.000000	97.875666 
2649.000000	97.876168 
2648.000000	97.875034 
2647.000000	97.872664 
2646.000000	97.870606 
2645.000000	97.870315 
2644.000000	97.871978 
2643.000000	97.874309 
2642.000000	97.875492 
2641.000000	97.874623 
2640.000000	97.872280 
2639.000000	97.869891 
2638.000000	97.868584 
2637.000000	97.868516 
2636.000000	97.869170 
2635.000000	97.870112 
2634.000000	97.871341 
2633.000000	97.872900 
2632.000000	97.874349 
2631.000000	97.874945 
2630.000000	97.874403 
2629.000000	97.873254 
2628.000000	97.872326 
2627.000000	97.871981 
2626.000000	97.871946 
2625.000000	97.871739 
2624.000000	97.871153 
2623.000000	97.870442 
2622.000000	97.870127 
2621.000000	97.870518 
2620.000000	97.871393 
2619.000000	97.872196 
2618.000000	97.872608 
2617.000000	97.872749 
2616.000000	97.872844 
2615.000000	97.872947 
2614.000000	97.873069 
2613.000000	97.873351 
2612.000000	97.873899 
2611.000000	97.874617 
2610.000000	97.875329 
2609.000000	97.875964 
2608.000000	97.876533 
2607.000000	97.877038 
2606.000000	97.877507 
2605.000000	97.878020 
2604.000000	97.878626 
2603.000000	97.879288 
2602.000000	97.879945 
2601.000000	97.880569 
2600.000000	97.881176 
2599.000000	97.881787 
2598.000000	97.882420 
2597.000000	97.883085 
2596.000000	97.883780 
2595.000000	97.884496 
2594.000000	97.885221 
2593.000000	97.885951 
2592.000000	97.886685 
2591.000000	97.887423 
2590.000000	97.888167 
2589.000000	97.888924 
2588.000000	97.889710 
2587.000000	97.890538 
2586.000000	97.891400 
2585.000000	97.892263 
2584.000000	97.893094 
2583.000000	97.893879 
2582.000000	97.894619 
2581.000000	97.895330 
2580.000000	97.896041 
2579.000000	97.896781 
2578.000000	97.897564 
2577.000000	97.898395 
2576.000000	97.899266 
2575.000000	97.900133 
2574.000000	97.900931 
2573.000000	97.901631 
2572.000000	97.902267 
2571.000000	97.902869 
2570.000000	97.903429 
2569.000000	97.903988 
2568.000000	97.904673 
2567.000000	97.905551 
2566.000000	97.906497 
2565.000000	97.907309 
2564.000000	97.907951 
2563.000000	97.908555 
2562.000000	97.909236 
2561.000000	97.910018 
2560.000000	97.910909 
2559.000000	97.911876 
2558.000000	97.912770 
2557.000000	97.913454 
2556.000000	97.914006 
2555.000000	97.914596 
2554.000000	97.915190 
2553.000000	97.915653 
2552.000000	97.916057 
2551.000000	97.916608 
2550.000000	97.917295 
2549.000000	97.917874 
2548.000000	97.918213 
2547.000000	97.918402 
2546.000000	97.918555 
2545.000000	97.918703 
2544.000000	97.918900 
2543.000000	97.919233 
2542.000000	97.919706 
2541.000000	97.920229 
2540.000000	97.920715 
2539.000000	97.921128 
2538.000000	97.921452 
2537.000000	97.921688 
2536.000000	97.921896 
2535.000000	97.922163 
2534.000000	97.922505 
2533.000000	97.922854 
2532.000000	97.923151 
2531.000000	97.923400 
2530.000000	97.923615 
2529.000000	97.923803 
2528.000000	97.924004 
2527.000000	97.924273 
2526.000000	97.924577 
2525.000000	97.924786 
2524.000000	97.924824 
2523.000000	97.924775 
2522.000000	97.924809 
2521.000000	97.924999 
2520.000000	97.925286 
2519.000000	97.925569 
2518.000000	97.925779 
2517.000000	97.925897 
2516.000000	97.925975 
2515.000000	97.926161 
2514.000000	97.926614 
2513.000000	97.927369 
2512.000000	97.928226 
2511.000000	97.928834 
2510.000000	97.928928 
2509.000000	97.928556 
2508.000000	97.928130 
2507.000000	97.928027 
2506.000000	97.928217 
2505.000000	97.928444 
2504.000000	97.928686 
2503.000000	97.929088 
2502.000000	97.929427 
2501.000000	97.929166 
2500.000000	97.928277 
2499.000000	97.927552 
2498.000000	97.927749 
2497.000000	97.928806 
2496.000000	97.930083 
2495.000000	97.931005 
2494.000000	97.931350 
2493.000000	97.931363 
2492.000000	97.931853 
2491.000000	97.933618 
2490.000000	97.936394 
2489.000000	97.938758 
2488.000000	97.939599 
2487.000000	97.939235 
2486.000000	97.938744 
2485.000000	97.938585 
2484.000000	97.938363 
2483.000000	97.937612 
2482.000000	97.936328 
2481.000000	97.935124 
2480.000000	97.935143 
2479.000000	97.937336 
2478.000000	97.941346 
2477.000000	97.945465 
2476.000000	97.948185 
2475.000000	97.949343 
2474.000000	97.949502 
2473.000000	97.948985 
2472.000000	97.948023 
2471.000000	97.947158 
2470.000000	97.946704 
2469.000000	97.946196 
2468.000000	97.945022 
2467.000000	97.943210 
2466.000000	97.941103 
2465.000000	97.938783 
2464.000000	97.936440 
2463.000000	97.934838 
2462.000000	97.934758 
2461.000000	97.936121 
2460.000000	97.937935 
2459.000000	97.938936 
2458.000000	97.938254 
2457.000000	97.935991 
2456.000000	97.933430 
2455.000000	97.932045 
2454.000000	97.931858 
2453.000000	97.931368 
2452.000000	97.929542 
2451.000000	97.927388 
2450.000000	97.926916 
2449.000000	97.929054 
2448.000000	97.933075 
2447.000000	97.937468 
2446.000000	97.940924 
2445.000000	97.942904 
2444.000000	97.943916 
2443.000000	97.945051 
2442.000000	97.946689 
2441.000000	97.947912 
2440.000000	97.947714 
2439.000000	97.946458 
2438.000000	97.945539 
2437.000000	97.945665 
2436.000000	97.946126 
2435.000000	97.945911 
2434.000000	97.945067 
2433.000000	97.944662 
2432.000000	97.945646 
2431.000000	97.948002 
2430.000000	97.950880 
2429.000000	97.953310 
2428.000000	97.954816 
2427.000000	97.955451 
2426.000000	97.955507 
2425.000000	97.955352 
2424.000000	97.955357 
2423.000000	97.955731 
2422.000000	97.956434 
2421.000000	97.957430 
2420.000000	97.958875 
2419.000000	97.960780 
2418.000000	97.962599 
2417.000000	97.963607 
2416.000000	97.963763 
2415.000000	97.963844 
2414.000000	97.964635 
2413.000000	97.966271 
2412.000000	97.968405 
2411.000000	97.970602 
2410.000000	97.972453 
2409.000000	97.973691 
2408.000000	97.974380 
2407.000000	97.974711 
2406.000000	97.974623 
2405.000000	97.973883 
2404.000000	97.972638 
2403.000000	97.971511 
2402.000000	97.970946 
2401.000000	97.970843 
2400.000000	97.971071 
2399.000000	97.971937 
2398.000000	97.973761 
2397.000000	97.976246 
2396.000000	97.978553 
2395.000000	97.979947 
2394.000000	97.980217 
2393.000000	97.979708 
2392.000000	97.979227 
2391.000000	97.979577 
2390.000000	97.980941 
2389.000000	97.982737 
2388.000000	97.984294 
2387.000000	97.985660 
2386.000000	97.987383 
2385.000000	97.989719 
2384.000000	97.992191 
2383.000000	97.993917 
2382.000000	97.994325 
2381.000000	97.993483 
2380.000000	97.991987 
2379.000000	97.990560 
2378.000000	97.989550 
2377.000000	97.988906 
2376.000000	97.988575 
2375.000000	97.988654 
2374.000000	97.989097 
2373.000000	97.989586 
2372.000000	97.989821 
2371.000000	97.989765 
2370.000000	97.989525 
2369.000000	97.989199 
2368.000000	97.988904 
2367.000000	97.988718 
2366.000000	97.988558 
2365.000000	97.988259 
2364.000000	97.987792 
2363.000000	97.987257 
2362.000000	97.986723 
2361.000000	97.986175 
2360.000000	97.985610 
2359.000000	97.985048 
2358.000000	97.984492 
2357.000000	97.983925 
2356.000000	97.983321 
2355.000000	97.982668 
2354.000000	97.981917 
2353.000000	97.981021 
2352.000000	97.980032 
2351.000000	97.979068 
2350.000000	97.978206 
2349.000000	97.977435 
2348.000000	97.976694 
2347.000000	97.975844 
2346.000000	97.974737 
2345.000000	97.973487 
2344.000000	97.972386 
2343.000000	97.971631 
2342.000000	97.970945 
2341.000000	97.969920 
2340.000000	97.968395 
2339.000000	97.966594 
2338.000000	97.964891 
2337.000000	97.963365 
2336.000000	97.962124 
2335.000000	97.961096 
2334.000000	97.960124 
2333.000000	97.958899 
2332.000000	97.958088 
2331.000000	97.957916 
2330.000000	97.958156 
2329.000000	97.957315 
2328.000000	97.955051 
2327.000000	97.950889 
2326.000000	97.944824 
2325.000000	97.937834 
2324.000000	97.932635 
2323.000000	97.931478 
2322.000000	97.933696 
2321.000000	97.936400 
2320.000000	97.938170 
2319.000000	97.939290 
2318.000000	97.940872 
2317.000000	97.941895 
2316.000000	97.941875 
2315.000000	97.939240 
2314.000000	97.934294 
2313.000000	97.927175 
2312.000000	97.920728 
2311.000000	97.915827 
2310.000000	97.912743 
2309.000000	97.910239 
2308.000000	97.909358 
2307.000000	97.909954 
2306.000000	97.910966 
2305.000000	97.910130 
2304.000000	97.907744 
2303.000000	97.904192 
2302.000000	97.899668 
2301.000000	97.893011 
2300.000000	97.885440 
2299.000000	97.878283 
2298.000000	97.872986 
2297.000000	97.868834 
2296.000000	97.865673 
2295.000000	97.862268 
2294.000000	97.857376 
2293.000000	97.850206 
2292.000000	97.842575 
2291.000000	97.836398 
2290.000000	97.831228 
2289.000000	97.825250 
2288.000000	97.818328 
2287.000000	97.812366 
2286.000000	97.808649 
2285.000000	97.807548 
2284.000000	97.809039 
2283.000000	97.812570 
2282.000000	97.816299 
2281.000000	97.819453 
2280.000000	97.823393 
2279.000000	97.828614 
2278.000000	97.832116 
2277.000000	97.831346 
2276.000000	97.829066 
2275.000000	97.829847 
2274.000000	97.833256 
2273.000000	97.834553 
2272.000000	97.832195 
2271.000000	97.829908 
2270.000000	97.831374 
2269.000000	97.836151 
2268.000000	97.841572 
2267.000000	97.845451 
2266.000000	97.846568 
2265.000000	97.845036 
2264.000000	97.842960 
2263.000000	97.842517 
2262.000000	97.843108 
2261.000000	97.842310 
2260.000000	97.839370 
2259.000000	97.836048 
2258.000000	97.833993 
2257.000000	97.833293 
2256.000000	97.833522 
2255.000000	97.834520 
2254.000000	97.835889 
2253.000000	97.837036 
2252.000000	97.838039 
2251.000000	97.839302 
2250.000000	97.840533 
2249.000000	97.840896 
2248.000000	97.840270 
2247.000000	97.839307 
2246.000000	97.838608 
2245.000000	97.838239 
2244.000000	97.838017 
2243.000000	97.837791 
2242.000000	97.837491 
2241.000000	97.837146 
2240.000000	97.836909 
2239.000000	97.836937 
2238.000000	97.837104 
2237.000000	97.836919 
2236.000000	97.835991 
2235.000000	97.834426 
2234.000000	97.832918 
2233.000000	97.832104 
2232.000000	97.832142 
2231.000000	97.832689 
2230.000000	97.833157 
2229.000000	97.833124 
2228.000000	97.832506 
2227.000000	97.831324 
2226.000000	97.829338 
2225.000000	97.826402 
2224.000000	97.823415 
2223.000000	97.821994 
2222.000000	97.822525 
2221.000000	97.823490 
2220.000000	97.823380 
2219.000000	97.822536 
2218.000000	97.822190 
2217.000000	97.822454 
2216.000000	97.822303 
2215.000000	97.821192 
2214.000000	97.819752 
2213.000000	97.818933 
2212.000000	97.818902 
2211.000000	97.818713 
2210.000000	97.817203 
2209.000000	97.814679 
2208.000000	97.813327 
2207.000000	97.814858 
2206.000000	97.818122 
2205.000000	97.820592 
2204.000000	97.822049 
2203.000000	97.824634 
2202.000000	97.828870 
2201.000000	97.832288 
2200.000000	97.832604 
2199.000000	97.829703 
2198.000000	97.824027 
2197.000000	97.815562 
2196.000000	97.805949 
2195.000000	97.798826 
2194.000000	97.796246 
2193.000000	97.796235 
2192.000000	97.794856 
2191.000000	97.789709 
2190.000000	97.781285 
2189.000000	97.772355 
2188.000000	97.765957 
2187.000000	97.762831 
2186.000000	97.761523 
2185.000000	97.762136 
2184.000000	97.767900 
2183.000000	97.780160 
2182.000000	97.793556 
2181.000000	97.800333 
2180.000000	97.798872 
2179.000000	97.793868 
2178.000000	97.789245 
2177.000000	97.785727 
2176.000000	97.784789 
2175.000000	97.789086 
2174.000000	97.797466 
2173.000000	97.804256 
2172.000000	97.805598 
2171.000000	97.802848 
2170.000000	97.798412 
2169.000000	97.792397 
2168.000000	97.785232 
2167.000000	97.779597 
2166.000000	97.776721 
2165.000000	97.773456 
2164.000000	97.766041 
2163.000000	97.755759 
2162.000000	97.749677 
2161.000000	97.757196 
2160.000000	97.785189 
2159.000000	97.831851 
2158.000000	97.882911 
2157.000000	97.920184 
2156.000000	97.936519 
2155.000000	97.937142 
2154.000000	97.930028 
2153.000000	97.919819 
2152.000000	97.909770 
2151.000000	97.903438 
2150.000000	97.901907 
2149.000000	97.903011 
2148.000000	97.905428 
2147.000000	97.910603 
2146.000000	97.919144 
2145.000000	97.928771 
2144.000000	97.937778 
2143.000000	97.947119 
2142.000000	97.956562 
2141.000000	97.961930 
2140.000000	97.959513 
2139.000000	97.951637 
2138.000000	97.945325 
2137.000000	97.945947 
2136.000000	97.953354 
2135.000000	97.963269 
2134.000000	97.971143 
2133.000000	97.975363 
2132.000000	97.977636 
2131.000000	97.979830 
2130.000000	97.980616 
2129.000000	97.976487 
2128.000000	97.966136 
2127.000000	97.952506 
2126.000000	97.940406 
2125.000000	97.933004 
2124.000000	97.930363 
2123.000000	97.930087 
2122.000000	97.929242 
2121.000000	97.926605 
2120.000000	97.922889 
2119.000000	97.918243 
2118.000000	97.910935 
2117.000000	97.900277 
2116.000000	97.889471 
2115.000000	97.882906 
2114.000000	97.881725 
2113.000000	97.883978 
2112.000000	97.888432 
2111.000000	97.894939 
2110.000000	97.900895 
2109.000000	97.901813 
2108.000000	97.896668 
2107.000000	97.889601 
2106.000000	97.885103 
2105.000000	97.883691 
2104.000000	97.883118 
2103.000000	97.881569 
2102.000000	97.878711 
2101.000000	97.875352 
2100.000000	97.873001 
2099.000000	97.872898 
2098.000000	97.875347 
2097.000000	97.880591 
2096.000000	97.889189 
2095.000000	97.899657 
2094.000000	97.907142 
2093.000000	97.907424 
2092.000000	97.901215 
2091.000000	97.892908 
2090.000000	97.885664 
2089.000000	97.879380 
2088.000000	97.873077 
2087.000000	97.866799 
2086.000000	97.861185 
2085.000000	97.857069 
2084.000000	97.855675 
2083.000000	97.857608 
2082.000000	97.861385 
2081.000000	97.864188 
2080.000000	97.864527 
2079.000000	97.863047 
2078.000000	97.860830 
2077.000000	97.858384 
2076.000000	97.856247 
2075.000000	97.855000 
2074.000000	97.854358 
2073.000000	97.853459 
2072.000000	97.852336 
2071.000000	97.852074 
2070.000000	97.853242 
2069.000000	97.855021 
2068.000000	97.856167 
2067.000000	97.856121 
2066.000000	97.855117 
2065.000000	97.854072 
2064.000000	97.854257 
2063.000000	97.856013 
2062.000000	97.857808 
2061.000000	97.857625 
2060.000000	97.855199 
2059.000000	97.851978 
2058.000000	97.849294 
2057.000000	97.847777 
2056.000000	97.848074 
2055.000000	97.850148 
2054.000000	97.851740 
2053.000000	97.849597 
2052.000000	97.842900 
2051.000000	97.834525 
2050.000000	97.828622 
2049.000000	97.827222 
2048.000000	97.829986 
2047.000000	97.835460 
2046.000000	97.841523 
2045.000000	97.845982 
2044.000000	97.847981 
2043.000000	97.848167 
2042.000000	97.847055 
2041.000000	97.844467 
2040.000000	97.841161 
2039.000000	97.839418 
2038.000000	97.841021 
2037.000000	97.845735 
2036.000000	97.852076 
2035.000000	97.858439 
2034.000000	97.863216 
2033.000000	97.865440 
2032.000000	97.865858 
2031.000000	97.865912 
2030.000000	97.865536 
2029.000000	97.863877 
2028.000000	97.862006 
2027.000000	97.862244 
2026.000000	97.864396 
2025.000000	97.865214 
2024.000000	97.862695 
2023.000000	97.858816 
2022.000000	97.856953 
2021.000000	97.857880 
2020.000000	97.859715 
2019.000000	97.860546 
2018.000000	97.859615 
2017.000000	97.857004 
2016.000000	97.853993 
2015.000000	97.852900 
2014.000000	97.855073 
2013.000000	97.859408 
2012.000000	97.863177 
2011.000000	97.863779 
2010.000000	97.860078 
2009.000000	97.854171 
2008.000000	97.851207 
2007.000000	97.854120 
2006.000000	97.859055 
2005.000000	97.859608 
2004.000000	97.855219 
2003.000000	97.850560 
2002.000000	97.847306 
2001.000000	97.842684 
2000.000000	97.836906 
1999.000000	97.834834 
1998.000000	97.837972 
1997.000000	97.841195 
1996.000000	97.840395 
1995.000000	97.837866 
1994.000000	97.836382 
1993.000000	97.833136 
1992.000000	97.824749 
1991.000000	97.814461 
1990.000000	97.808401 
1989.000000	97.807703 
1988.000000	97.808639 
1987.000000	97.807934 
1986.000000	97.804852 
1985.000000	97.800156 
1984.000000	97.795643 
1983.000000	97.792729 
1982.000000	97.790170 
1981.000000	97.786396 
1980.000000	97.784900 
1979.000000	97.792417 
1978.000000	97.810049 
1977.000000	97.830841 
1976.000000	97.848462 
1975.000000	97.863308 
1974.000000	97.876610 
1973.000000	97.885179 
1972.000000	97.886036 
1971.000000	97.881182 
1970.000000	97.874205 
1969.000000	97.865983 
1968.000000	97.857276 
1967.000000	97.851946 
1966.000000	97.853068 
1965.000000	97.858457 
1964.000000	97.863491 
1963.000000	97.866565 
1962.000000	97.869647 
1961.000000	97.874956 
1960.000000	97.882273 
1959.000000	97.888368 
1958.000000	97.889136 
1957.000000	97.884127 
1956.000000	97.878753 
1955.000000	97.879238 
1954.000000	97.885188 
1953.000000	97.890097 
1952.000000	97.889608 
1951.000000	97.885986 
1950.000000	97.883581 
1949.000000	97.883578 
1948.000000	97.885091 
1947.000000	97.887807 
1946.000000	97.891211 
1945.000000	97.893744 
1944.000000	97.894601 
1943.000000	97.894696 
1942.000000	97.894685 
1941.000000	97.893891 
1940.000000	97.892094 
1939.000000	97.890356 
1938.000000	97.889636 
1937.000000	97.889815 
1936.000000	97.890292 
1935.000000	97.890683 
1934.000000	97.890814 
1933.000000	97.890497 
1932.000000	97.889766 
1931.000000	97.888994 
1930.000000	97.888448 
1929.000000	97.888078 
1928.000000	97.887784 
1927.000000	97.887529 
1926.000000	97.887182 
1925.000000	97.886505 
1924.000000	97.885538 
1923.000000	97.884798 
1922.000000	97.884622 
1921.000000	97.884679 
1920.000000	97.884424 
1919.000000	97.883693 
1918.000000	97.882543 
1917.000000	97.881044 
1916.000000	97.879528 
1915.000000	97.878415 
1914.000000	97.877587 
1913.000000	97.876454 
1912.000000	97.874881 
1911.000000	97.873554 
1910.000000	97.872812 
1909.000000	97.872056 
1908.000000	97.870737 
1907.000000	97.869035 
1906.000000	97.867298 
1905.000000	97.865500 
1904.000000	97.863725 
1903.000000	97.862438 
1902.000000	97.861592 
1901.000000	97.860508 
1900.000000	97.858954 
1899.000000	97.857486 
1898.000000	97.856475 
1897.000000	97.855475 
1896.000000	97.854117 
1895.000000	97.852856 
1894.000000	97.852012 
1893.000000	97.851145 
1892.000000	97.850001 
1891.000000	97.848973 
1890.000000	97.848358 
1889.000000	97.848035 
1888.000000	97.848130 
1887.000000	97.848763 
1886.000000	97.849025 
1885.000000	97.847597 
1884.000000	97.844650 
1883.000000	97.842217 
1882.000000	97.841670 
1881.000000	97.842436 
1880.000000	97.843399 
1879.000000	97.844107 
1878.000000	97.844188 
1877.000000	97.843248 
1876.000000	97.842197 
1875.000000	97.843015 
1874.000000	97.846021 
1873.000000	97.848852 
1872.000000	97.849598 
1871.000000	97.849119 
1870.000000	97.848745 
1869.000000	97.847871 
1868.000000	97.846508 
1867.000000	97.846792 
1866.000000	97.849078 
1865.000000	97.851153 
1864.000000	97.852031 
1863.000000	97.853619 
1862.000000	97.857169 
1861.000000	97.860590 
1860.000000	97.861751 
1859.000000	97.862067 
1858.000000	97.863711 
1857.000000	97.865965 
1856.000000	97.867231 
1855.000000	97.868112 
1854.000000	97.869902 
1853.000000	97.872270 
1852.000000	97.874533 
1851.000000	97.877096 
1850.000000	97.880442 
1849.000000	97.884283 
1848.000000	97.888296 
1847.000000	97.892751 
1846.000000	97.897286 
1845.000000	97.900465 
1844.000000	97.902114 
1843.000000	97.904015 
1842.000000	97.906117 
1841.000000	97.906616 
1840.000000	97.904924 
1839.000000	97.902440 
1838.000000	97.901083 
1837.000000	97.901307 
1836.000000	97.902818 
1835.000000	97.905599 
1834.000000	97.909075 
1833.000000	97.911909 
1832.000000	97.912729 
1831.000000	97.911144 
1830.000000	97.908589 
1829.000000	97.907177 
1828.000000	97.907374 
1827.000000	97.908659 
1826.000000	97.910462 
1825.000000	97.911889 
1824.000000	97.912556 
1823.000000	97.913334 
1822.000000	97.914904 
1821.000000	97.916704 
1820.000000	97.918069 
1819.000000	97.919658 
1818.000000	97.922099 
1817.000000	97.924033 
1816.000000	97.924098 
1815.000000	97.923106 
1814.000000	97.922580 
1813.000000	97.922566 
1812.000000	97.922297 
1811.000000	97.922142 
1810.000000	97.922724 
1809.000000	97.923317 
1808.000000	97.923327 
1807.000000	97.923358 
1806.000000	97.923857 
1805.000000	97.924416 
1804.000000	97.924786 
1803.000000	97.925352 
1802.000000	97.926282 
1801.000000	97.927203 
1800.000000	97.927860 
1799.000000	97.928488 
1798.000000	97.929251 
1797.000000	97.929996 
1796.000000	97.930641 
1795.000000	97.931362 
1794.000000	97.932316 
1793.000000	97.933327 
1792.000000	97.934066 
1791.000000	97.934583 
1790.000000	97.935288 
1789.000000	97.936178 
1788.000000	97.936954 
1787.000000	97.937703 
1786.000000	97.938771 
1785.000000	97.939931 
1784.000000	97.940658 
1783.000000	97.941018 
1782.000000	97.941484 
1781.000000	97.942349 
1780.000000	97.943587 
1779.000000	97.945154 
1778.000000	97.946907 
1777.000000	97.948404 
1776.000000	97.949255 
1775.000000	97.949431 
1774.000000	97.949444 
1773.000000	97.950082 
1772.000000	97.951397 
1771.000000	97.953131 
1770.000000	97.955664 
1769.000000	97.958964 
1768.000000	97.961755 
1767.000000	97.963043 
1766.000000	97.963335 
1765.000000	97.963406 
1764.000000	97.963046 
1763.000000	97.961993 
1762.000000	97.961509 
1761.000000	97.963034 
1760.000000	97.965829 
1759.000000	97.968545 
1758.000000	97.971005 
1757.000000	97.973710 
1756.000000	97.976254 
1755.000000	97.977853 
1754.000000	97.979752 
1753.000000	97.984069 
1752.000000	97.989850 
1751.000000	97.992650 
1750.000000	97.990972 
1749.000000	97.988026 
1748.000000	97.986207 
1747.000000	97.984602 
1746.000000	97.982917 
1745.000000	97.982708 
1744.000000	97.983900 
1743.000000	97.984614 
1742.000000	97.984410 
1741.000000	97.984223 
1740.000000	97.984096 
1739.000000	97.983668 
1738.000000	97.983376 
1737.000000	97.983470 
1736.000000	97.983873 
1735.000000	97.984580 
1734.000000	97.985021 
1733.000000	97.984805 
1732.000000	97.984146 
1731.000000	97.983146 
1730.000000	97.982186 
1729.000000	97.981819 
1728.000000	97.981884 
1727.000000	97.981687 
1726.000000	97.981042 
1725.000000	97.980277 
1724.000000	97.979524 
1723.000000	97.978808 
1722.000000	97.978194 
1721.000000	97.977539 
1720.000000	97.976660 
1719.000000	97.975619 
1718.000000	97.974560 
1717.000000	97.973260 
1716.000000	97.971755 
1715.000000	97.970338 
1714.000000	97.968993 
1713.000000	97.967596 
1712.000000	97.966142 
1711.000000	97.964649 
1710.000000	97.963114 
1709.000000	97.961537 
1708.000000	97.959921 
1707.000000	97.958268 
1706.000000	97.956579 
1705.000000	97.954849 
1704.000000	97.953080 
1703.000000	97.951283 
1702.000000	97.949465 
1701.000000	97.947621 
1700.000000	97.945730 
1699.000000	97.943787 
1698.000000	97.941795 
1697.000000	97.939746 
1696.000000	97.937633 
1695.000000	97.935453 
1694.000000	97.933209 
1693.000000	97.930902 
1692.000000	97.928547 
1691.000000	97.926160 
1690.000000	97.923750 
1689.000000	97.921306 
1688.000000	97.918812 
1687.000000	97.916254 
1686.000000	97.913625 
1685.000000	97.910926 
1684.000000	97.908164 
1683.000000	97.905372 
1682.000000	97.902564 
1681.000000	97.899753 
1680.000000	97.896958 
1679.000000	97.894171 
1678.000000	97.891346 
1677.000000	97.888483 
1676.000000	97.885645 
1675.000000	97.882832 
1674.000000	97.879975 
1673.000000	97.877072 
1672.000000	97.874097 
1671.000000	97.870941 
1670.000000	97.867505 
1669.000000	97.863975 
1668.000000	97.860723 
1667.000000	97.857736 
1666.000000	97.854771 
1665.000000	97.851648 
1664.000000	97.848353 
1663.000000	97.844997 
1662.000000	97.841591 
1661.000000	97.838245 
1660.000000	97.835246 
1659.000000	97.832414 
1658.000000	97.829244 
1657.000000	97.825613 
1656.000000	97.821896 
1655.000000	97.818151 
1654.000000	97.813858 
1653.000000	97.809004 
1652.000000	97.805337 
1651.000000	97.803277 
1650.000000	97.802117 
1649.000000	97.800580 
1648.000000	97.798169 
1647.000000	97.794765 
1646.000000	97.790857 
1645.000000	97.787083 
1644.000000	97.784111 
1643.000000	97.782203 
1642.000000	97.780734 
1641.000000	97.779031 
1640.000000	97.777161 
1639.000000	97.775302 
1638.000000	97.773257 
1637.000000	97.770757 
1636.000000	97.768056 
1635.000000	97.764862 
1634.000000	97.761112 
1633.000000	97.758093 
1632.000000	97.756911 
1631.000000	97.757303 
1630.000000	97.757651 
1629.000000	97.756587 
1628.000000	97.754713 
1627.000000	97.753066 
1626.000000	97.751317 
1625.000000	97.749437 
1624.000000	97.748761 
1623.000000	97.749759 
1622.000000	97.750562 
1621.000000	97.750299 
1620.000000	97.750052 
1619.000000	97.750156 
1618.000000	97.749572 
1617.000000	97.748137 
1616.000000	97.748152 
1615.000000	97.749543 
1614.000000	97.749994 
1613.000000	97.749966 
1612.000000	97.751754 
1611.000000	97.755358 
1610.000000	97.757695 
1609.000000	97.757830 
1608.000000	97.758407 
1607.000000	97.760420 
1606.000000	97.761845 
1605.000000	97.762125 
1604.000000	97.762939 
1603.000000	97.764682 
1602.000000	97.766251 
1601.000000	97.767769 
1600.000000	97.769966 
1599.000000	97.772272 
1598.000000	97.773993 
1597.000000	97.775604 
1596.000000	97.777787 
1595.000000	97.780379 
1594.000000	97.782910 
1593.000000	97.785383 
1592.000000	97.787965 
1591.000000	97.790612 
1590.000000	97.793275 
1589.000000	97.795983 
1588.000000	97.798770 
1587.000000	97.801644 
1586.000000	97.804597 
1585.000000	97.807622 
1584.000000	97.810721 
1583.000000	97.813888 
1582.000000	97.817110 
1581.000000	97.820375 
1580.000000	97.823679 
1579.000000	97.827019 
1578.000000	97.830391 
1577.000000	97.833799 
1576.000000	97.837253 
1575.000000	97.840752 
1574.000000	97.844275 
1573.000000	97.847813 
1572.000000	97.851373 
1571.000000	97.854962 
1570.000000	97.858574 
1569.000000	97.862198 
1568.000000	97.865828 
1567.000000	97.869455 
1566.000000	97.873063 
1565.000000	97.876645 
1564.000000	97.880201 
1563.000000	97.883732 
1562.000000	97.887235 
1561.000000	97.890716 
1560.000000	97.894174 
1559.000000	97.897576 
1558.000000	97.900879 
1557.000000	97.904090 
1556.000000	97.907246 
1555.000000	97.910361 
1554.000000	97.913436 
1553.000000	97.916467 
1552.000000	97.919473 
1551.000000	97.922497 
1550.000000	97.925572 
1549.000000	97.928685 
1548.000000	97.931813 
1547.000000	97.934926 
1546.000000	97.937903 
1545.000000	97.940500 
1544.000000	97.942758 
1543.000000	97.945202 
1542.000000	97.948176 
1541.000000	97.950762 
1540.000000	97.952435 
1539.000000	97.954077 
1538.000000	97.955300 
1537.000000	97.955901 
1536.000000	97.956216 
1535.000000	97.956858 
1534.000000	97.957842 
1533.000000	97.958464 
1532.000000	97.958739 
1531.000000	97.959871 
1530.000000	97.961961 
1529.000000	97.963081 
1528.000000	97.962148 
1527.000000	97.960818 
1526.000000	97.961096 
1525.000000	97.961939 
1524.000000	97.961301 
1523.000000	97.959457 
1522.000000	97.957923 
1521.000000	97.956574 
1520.000000	97.955116 
1519.000000	97.954597 
1518.000000	97.955558 
1517.000000	97.956690 
1516.000000	97.956741 
1515.000000	97.956479 
1514.000000	97.957721 
1513.000000	97.959952 
1512.000000	97.959868 
1511.000000	97.957233 
1510.000000	97.955237 
1509.000000	97.954742 
1508.000000	97.952531 
1507.000000	97.949139 
1506.000000	97.947737 
1505.000000	97.944677 
1504.000000	97.940228 
1503.000000	97.936257 
1502.000000	97.932939 
1501.000000	97.929891 
1500.000000	97.926165 
1499.000000	97.922177 
1498.000000	97.920644 
1497.000000	97.921803 
1496.000000	97.922189 
1495.000000	97.921300 
1494.000000	97.921427 
1493.000000	97.922563 
1492.000000	97.922531 
1491.000000	97.919958 
1490.000000	97.915696 
1489.000000	97.910814 
1488.000000	97.905668 
1487.000000	97.901754 
1486.000000	97.899328 
1485.000000	97.897125 
1484.000000	97.894799 
1483.000000	97.892681 
1482.000000	97.890937 
1481.000000	97.888998 
1480.000000	97.886549 
1479.000000	97.884423 
1478.000000	97.883310 
1477.000000	97.882311 
1476.000000	97.880179 
1475.000000	97.877721 
1474.000000	97.875670 
1473.000000	97.872682 
1472.000000	97.867436 
1471.000000	97.861773 
1470.000000	97.857743 
1469.000000	97.854688 
1468.000000	97.851028 
1467.000000	97.847154 
1466.000000	97.844626 
1465.000000	97.843162 
1464.000000	97.841017 
1463.000000	97.837872 
1462.000000	97.835312 
1461.000000	97.833198 
1460.000000	97.829431 
1459.000000	97.822827 
1458.000000	97.817514 
1457.000000	97.819057 
1456.000000	97.822893 
1455.000000	97.822366 
1454.000000	97.819497 
1453.000000	97.816819 
1452.000000	97.813924 
1451.000000	97.810196 
1450.000000	97.807129 
1449.000000	97.804535 
1448.000000	97.798453 
1447.000000	97.788260 
1446.000000	97.778555 
1445.000000	97.773078 
1444.000000	97.770402 
1443.000000	97.767066 
1442.000000	97.763664 
1441.000000	97.762966 
1440.000000	97.763399 
1439.000000	97.760623 
1438.000000	97.756580 
1437.000000	97.756205 
1436.000000	97.757578 
1435.000000	97.756635 
1434.000000	97.755667 
1433.000000	97.756183 
1432.000000	97.756239 
1431.000000	97.753096 
1430.000000	97.749444 
1429.000000	97.749961 
1428.000000	97.752517 
1427.000000	97.752640 
1426.000000	97.750895 
1425.000000	97.753748 
1424.000000	97.762153 
1423.000000	97.767651 
1422.000000	97.767405 
1421.000000	97.767961 
1420.000000	97.772796 
1419.000000	97.776809 
1418.000000	97.781988 
1417.000000	97.792228 
1416.000000	97.801140 
1415.000000	97.802923 
1414.000000	97.800442 
1413.000000	97.800807 
1412.000000	97.804994 
1411.000000	97.808487 
1410.000000	97.812042 
1409.000000	97.819538 
1408.000000	97.828916 
1407.000000	97.835822 
1406.000000	97.840593 
1405.000000	97.848282 
1404.000000	97.858501 
1403.000000	97.865117 
1402.000000	97.868153 
1401.000000	97.872562 
1400.000000	97.879326 
1399.000000	97.883608 
1398.000000	97.884736 
1397.000000	97.888202 
1396.000000	97.896791 
1395.000000	97.906447 
1394.000000	97.912393 
1393.000000	97.916463 
1392.000000	97.920117 
1391.000000	97.921862 
1390.000000	97.921726 
1389.000000	97.922179 
1388.000000	97.924714 
1387.000000	97.928445 
1386.000000	97.932604 
1385.000000	97.937982 
1384.000000	97.944425 
1383.000000	97.949659 
1382.000000	97.952456 
1381.000000	97.953743 
1380.000000	97.955219 
1379.000000	97.956919 
1378.000000	97.957465 
1377.000000	97.956733 
1376.000000	97.956210 
1375.000000	97.956674 
1374.000000	97.957667 
1373.000000	97.959200 
1372.000000	97.960820 
1371.000000	97.961135 
1370.000000	97.958761 
1369.000000	97.956177 
1368.000000	97.956765 
1367.000000	97.959353 
1366.000000	97.960143 
1365.000000	97.957672 
1364.000000	97.954094 
1363.000000	97.952815 
1362.000000	97.954899 
1361.000000	97.958547 
1360.000000	97.961899 
1359.000000	97.964423 
1358.000000	97.966197 
1357.000000	97.968130 
1356.000000	97.971136 
1355.000000	97.974766 
1354.000000	97.977599 
1353.000000	97.978751 
1352.000000	97.978943 
1351.000000	97.979974 
1350.000000	97.981521 
1349.000000	97.983048 
1348.000000	97.984472 
1347.000000	97.985500 
1346.000000	97.986128 
1345.000000	97.987591 
1344.000000	97.990770 
1343.000000	97.994206 
1342.000000	97.995388 
1341.000000	97.994096 
1340.000000	97.992801 
1339.000000	97.993248 
1338.000000	97.994851 
1337.000000	97.996921 
1336.000000	97.999578 
1335.000000	98.002578 
1334.000000	98.005318 
1333.000000	98.008019 
1332.000000	98.011037 
1331.000000	98.013012 
1330.000000	98.011939 
1329.000000	98.008643 
1328.000000	98.006371 
1327.000000	98.006443 
1326.000000	98.006744 
1325.000000	98.006276 
1324.000000	98.006091 
1323.000000	98.006244 
1322.000000	98.005458 
1321.000000	98.003626 
1320.000000	98.001853 
1319.000000	98.000522 
1318.000000	97.999596 
1317.000000	97.999728 
1316.000000	98.001034 
1315.000000	98.001901 
1314.000000	98.001345 
1313.000000	98.001155 
1312.000000	98.003377 
1311.000000	98.007009 
1310.000000	98.009708 
1309.000000	98.011356 
1308.000000	98.013204 
1307.000000	98.014853 
1306.000000	98.014309 
1305.000000	98.011852 
1304.000000	98.009641 
1303.000000	98.008512 
1302.000000	98.007589 
1301.000000	98.006613 
1300.000000	98.006174 
1299.000000	98.006284 
1298.000000	98.006858 
1297.000000	98.008647 
1296.000000	98.011809 
1295.000000	98.014023 
1294.000000	98.012826 
1293.000000	98.009055 
1292.000000	98.005723 
1291.000000	98.004036 
1290.000000	98.002634 
1289.000000	98.000356 
1288.000000	97.997524 
1287.000000	97.994550 
1286.000000	97.991367 
1285.000000	97.988400 
1284.000000	97.986586 
1283.000000	97.986441 
1282.000000	97.987754 
1281.000000	97.989599 
1280.000000	97.990398 
1279.000000	97.988670 
1278.000000	97.985107 
1277.000000	97.982349 
1276.000000	97.981880 
1275.000000	97.982411 
1274.000000	97.982757 
1273.000000	97.984336 
1272.000000	97.988714 
1271.000000	97.994284 
1270.000000	97.997900 
1269.000000	97.998763 
1268.000000	97.998458 
1267.000000	97.998436 
1266.000000	97.999846 
1265.000000	98.003607 
1264.000000	98.008508 
1263.000000	98.011414 
1262.000000	98.011485 
1261.000000	98.011889 
1260.000000	98.015078 
1259.000000	98.018373 
1258.000000	98.018003 
1257.000000	98.014680 
1256.000000	98.011759 
1255.000000	98.010160 
1254.000000	98.008974 
1253.000000	98.009230 
1252.000000	98.012863 
1251.000000	98.018321 
1250.000000	98.021121 
1249.000000	98.018933 
1248.000000	98.013282 
1247.000000	98.006784 
1246.000000	98.002003 
1245.000000	98.001726 
1244.000000	98.006644 
1243.000000	98.012634 
1242.000000	98.013341 
1241.000000	98.006268 
1240.000000	97.994671 
1239.000000	97.983605 
1238.000000	97.975878 
1237.000000	97.971719 
1236.000000	97.970163 
1235.000000	97.969705 
1234.000000	97.968640 
1233.000000	97.965821 
1232.000000	97.961207 
1231.000000	97.955841 
1230.000000	97.950917 
1229.000000	97.945564 
1228.000000	97.935830 
1227.000000	97.917812 
1226.000000	97.892229 
1225.000000	97.864071 
1224.000000	97.836969 
1223.000000	97.809676 
1222.000000	97.779045 
1221.000000	97.744469 
1220.000000	97.707774 
1219.000000	97.670046 
1218.000000	97.630388 
1217.000000	97.587089 
1216.000000	97.538921 
1215.000000	97.486003 
1214.000000	97.430335 
1213.000000	97.374638 
1212.000000	97.319600 
1211.000000	97.263036 
1210.000000	97.202322 
1209.000000	97.137066 
1208.000000	97.069204 
1207.000000	97.001374 
1206.000000	96.935349 
1205.000000	96.870922 
1204.000000	96.805834 
1203.000000	96.737424 
1202.000000	96.665046 
1201.000000	96.590656 
1200.000000	96.516614 
1199.000000	96.443251 
1198.000000	96.369275 
1197.000000	96.294077 
1196.000000	96.218653 
1195.000000	96.143995 
1194.000000	96.069127 
1193.000000	95.991570 
1192.000000	95.909637 
1191.000000	95.823751 
1190.000000	95.735556 
1189.000000	95.646280 
1188.000000	95.556024 
1187.000000	95.463968 
1186.000000	95.368983 
1185.000000	95.270620 
1184.000000	95.169900 
1183.000000	95.068476 
1182.000000	94.966454 
1181.000000	94.861958 
1180.000000	94.753593 
1179.000000	94.642328 
1178.000000	94.530108 
1177.000000	94.417342 
1176.000000	94.302504 
1175.000000	94.183437 
1174.000000	94.058414 
1173.000000	93.927345 
1172.000000	93.792899 
1171.000000	93.659426 
1170.000000	93.529774 
1169.000000	93.404113 
1168.000000	93.282992 
1167.000000	93.170765 
1166.000000	93.075274 
1165.000000	93.005130 
1164.000000	92.967343 
1163.000000	92.965102 
1162.000000	92.995343 
1161.000000	93.048053 
1160.000000	93.107901 
1159.000000	93.157154 
1158.000000	93.180480 
1157.000000	93.170328 
1156.000000	93.128191 
1155.000000	93.060566 
1154.000000	92.974558 
1153.000000	92.877137 
1152.000000	92.775653 
1151.000000	92.675840 
1150.000000	92.579493 
1149.000000	92.486169 
1148.000000	92.396436 
1147.000000	92.311031 
1146.000000	92.227723 
1145.000000	92.142344 
1144.000000	92.053200 
1143.000000	91.961909 
1142.000000	91.870284 
1141.000000	91.779119 
1140.000000	91.689721 
1139.000000	91.603270 
1138.000000	91.518162 
1137.000000	91.430744 
1136.000000	91.339333 
1135.000000	91.245728 
1134.000000	91.152986 
1133.000000	91.063359 
1132.000000	90.977128 
1131.000000	90.891056 
1130.000000	90.799896 
1129.000000	90.702736 
1128.000000	90.605828 
1127.000000	90.515128 
1126.000000	90.428008 
1125.000000	90.337191 
1124.000000	90.241105 
1123.000000	90.144467 
1122.000000	90.049703 
1121.000000	89.954505 
1120.000000	89.858380 
1119.000000	89.765068 
1118.000000	89.676801 
1117.000000	89.591773 
1116.000000	89.508549 
1115.000000	89.427603 
1114.000000	89.347793 
1113.000000	89.267182 
1112.000000	89.187759 
1111.000000	89.113237 
1110.000000	89.042163 
1109.000000	88.969657 
1108.000000	88.894857 
1107.000000	88.820289 
1106.000000	88.744243 
1105.000000	88.661997 
1104.000000	88.575021 
1103.000000	88.490531 
1102.000000	88.410652 
1101.000000	88.330552 
1100.000000	88.247188 
1099.000000	88.165264 
1098.000000	88.087559 
1097.000000	88.010376 
1096.000000	87.930257 
1095.000000	87.849427 
1094.000000	87.772427 
1093.000000	87.702711 
1092.000000	87.642985 
1091.000000	87.592374 
1090.000000	87.543105 
1089.000000	87.487415 
1088.000000	87.428138 
1087.000000	87.375268 
1086.000000	87.332244 
1085.000000	87.293358 
1084.000000	87.254086 
1083.000000	87.214967 
1082.000000	87.175018 
1081.000000	87.130454 
1080.000000	87.080889 
1079.000000	87.028555 
1078.000000	86.971010 
1077.000000	86.903006 
1076.000000	86.825287 
1075.000000	86.742182 
1074.000000	86.650430 
1073.000000	86.540399 
1072.000000	86.409089 
1071.000000	86.262431 
1070.000000	86.104013 
1069.000000	85.930910 
1068.000000	85.741467 
1067.000000	85.537332 
1066.000000	85.316592 
1065.000000	85.075449 
1064.000000	84.819186 
1063.000000	84.562033 
1062.000000	84.314068 
1061.000000	84.076839 
1060.000000	83.851376 
1059.000000	83.638469 
1058.000000	83.429925 
1057.000000	83.212397 
1056.000000	82.982755 
1055.000000	82.748626 
1054.000000	82.512801 
1053.000000	82.270264 
1052.000000	82.022920 
1051.000000	81.781872 
1050.000000	81.549538 
1049.000000	81.314602 
1048.000000	81.070294 
1047.000000	80.822847 
1046.000000	80.578501 
1045.000000	80.337100 
1044.000000	80.100396 
1043.000000	79.871712 
1042.000000	79.645452 
1041.000000	79.411812 
1040.000000	79.174280 
1039.000000	78.947446 
1038.000000	78.735130 
1037.000000	78.526704 
1036.000000	78.318238 
1035.000000	78.120451 
1034.000000	77.941238 
1033.000000	77.776936 
1032.000000	77.625795 
1031.000000	77.494130 
1030.000000	77.383134 
1029.000000	77.283638 
1028.000000	77.189068 
1027.000000	77.100846 
1026.000000	77.017876 
1025.000000	76.934787 
1024.000000	76.853428 
1023.000000	76.781703 
1022.000000	76.718452 
1021.000000	76.653580 
1020.000000	76.584724 
1019.000000	76.518569 
1018.000000	76.454487 
1017.000000	76.383640 
1016.000000	76.306528 
1015.000000	76.234460 
1014.000000	76.170577 
1013.000000	76.105939 
1012.000000	76.037665 
1011.000000	75.974257 
1010.000000	75.919181 
1009.000000	75.865710 
1008.000000	75.812373 
1007.000000	75.767948 
1006.000000	75.736904 
1005.000000	75.714691 
1004.000000	75.700660 
1003.000000	75.700490 
1002.000000	75.712490 
1001.000000	75.726572 
1000.000000	75.740213 
999.000000	 75.761192 
998.000000	 75.792147 
997.000000	 75.827075 
996.000000	 75.864929 
995.000000	 75.911262 
994.000000	 75.964321 
993.000000	 76.015213 
992.000000	 76.064529 
991.000000	 76.123492 
990.000000	 76.195846 
989.000000	 76.273261 
988.000000	 76.350738 
987.000000	 76.431919 
986.000000	 76.517494 
985.000000	 76.603751 
984.000000	 76.694722 
983.000000	 76.800484 
982.000000	 76.921044 
981.000000	 77.046502 
980.000000	 77.175096 
979.000000	 77.316200 
978.000000	 77.473489 
977.000000	 77.639896 
976.000000	 77.811140 
975.000000	 77.989936 
974.000000	 78.175098 
973.000000	 78.360980 
972.000000	 78.549590 
971.000000	 78.749296 
970.000000	 78.959881 
969.000000	 79.172214 
968.000000	 79.383379 
967.000000	 79.598392 
966.000000	 79.816553 
965.000000	 80.030679 
964.000000	 80.240867 
963.000000	 80.454646 
962.000000	 80.671887 
961.000000	 80.883373 
960.000000	 81.086056 
959.000000	 81.286540 
958.000000	 81.487998 
957.000000	 81.686529 
956.000000	 81.881786 
955.000000	 82.078093 
954.000000	 82.273094 
953.000000	 82.457657 
952.000000	 82.628983 
951.000000	 82.792534 
950.000000	 82.950380 
949.000000	 83.099368 
948.000000	 83.241614 
947.000000	 83.384609 
946.000000	 83.528854 
945.000000	 83.666060 
944.000000	 83.791122 
943.000000	 83.906200 
942.000000	 84.013249 
941.000000	 84.112923 
940.000000	 84.210551 
939.000000	 84.312386 
938.000000	 84.415952 
937.000000	 84.514744 
936.000000	 84.611445 
935.000000	 84.715179 
934.000000	 84.826859 
933.000000	 84.939226 
932.000000	 85.050222 
931.000000	 85.163535 
930.000000	 85.276757 
929.000000	 85.382534 
928.000000	 85.481766 
927.000000	 85.582643 
926.000000	 85.686030 
925.000000	 85.784484 
924.000000	 85.876143 
923.000000	 85.966242 
922.000000	 86.053878 
921.000000	 86.130832 
920.000000	 86.195854 
919.000000	 86.257639 
918.000000	 86.321335 
917.000000	 86.384033 
916.000000	 86.445546 
915.000000	 86.511395 
914.000000	 86.583056 
913.000000	 86.657967 
912.000000	 86.742133 
911.000000	 86.849812 
910.000000	 86.986645 
909.000000	 87.144238 
908.000000	 87.314587 
907.000000	 87.498495 
906.000000	 87.695853 
905.000000	 87.899135 
904.000000	 88.102257 
903.000000	 88.307997 
902.000000	 88.522729 
901.000000	 88.749467 
900.000000	 88.986387 
899.000000	 89.225886 
898.000000	 89.455930 
897.000000	 89.670826 
896.000000	 89.878412 
895.000000	 90.088995 
894.000000	 90.299942 
893.000000	 90.500106 
892.000000	 90.686178 
891.000000	 90.864071 
890.000000	 91.036529 
889.000000	 91.200702 
888.000000	 91.357171 
887.000000	 91.510122 
886.000000	 91.658163 
885.000000	 91.795210 
884.000000	 91.921347 
883.000000	 92.043737 
882.000000	 92.166491 
881.000000	 92.288664 
880.000000	 92.412089 
879.000000	 92.541264 
878.000000	 92.675011 
877.000000	 92.807726 
876.000000	 92.939042 
875.000000	 93.073522 
874.000000	 93.212388 
873.000000	 93.355150 
872.000000	 93.506610 
871.000000	 93.670743 
870.000000	 93.839692 
869.000000	 94.001161 
868.000000	 94.155730 
867.000000	 94.314948 
866.000000	 94.482241 
865.000000	 94.647216 
864.000000	 94.800529 
863.000000	 94.944004 
862.000000	 95.083898 
861.000000	 95.223108 
860.000000	 95.362880 
859.000000	 95.504416 
858.000000	 95.645168 
857.000000	 95.778763 
856.000000	 95.900762 
855.000000	 96.011112 
854.000000	 96.111686 
853.000000	 96.205834 
852.000000	 96.298751 
851.000000	 96.392721 
850.000000	 96.483290 
849.000000	 96.565607 
848.000000	 96.642186 
847.000000	 96.718090 
846.000000	 96.791129 
845.000000	 96.854455 
844.000000	 96.906940 
843.000000	 96.952904 
842.000000	 96.992975 
841.000000	 97.023822 
840.000000	 97.046474 
839.000000	 97.066277 
838.000000	 97.083761 
837.000000	 97.093064 
836.000000	 97.090660 
835.000000	 97.079380 
834.000000	 97.063831 
833.000000	 97.048802 
832.000000	 97.042166 
831.000000	 97.051117 
830.000000	 97.073724 
829.000000	 97.101570 
828.000000	 97.132081 
827.000000	 97.170480 
826.000000	 97.218879 
825.000000	 97.272997 
824.000000	 97.331026 
823.000000	 97.394299 
822.000000	 97.456574 
821.000000	 97.504448 
820.000000	 97.532004 
819.000000	 97.545909 
818.000000	 97.554064 
817.000000	 97.556623 
816.000000	 97.548809 
815.000000	 97.523868 
814.000000	 97.470126 
813.000000	 97.372149 
812.000000	 97.219329 
811.000000	 97.009748 
810.000000	 96.744252 
809.000000	 96.422341 
808.000000	 96.046211 
807.000000	 95.622577 
806.000000	 95.157043 
805.000000	 94.654070 
804.000000	 94.128110 
803.000000	 93.607948 
802.000000	 93.123706 
801.000000	 92.694903 
800.000000	 92.334614 
799.000000	 92.054491 
798.000000	 91.858404 
797.000000	 91.739316 
796.000000	 91.687454 
795.000000	 91.693163 
794.000000	 91.739308 
793.000000	 91.802146 
792.000000	 91.864246 
791.000000	 91.918341 
790.000000	 91.957393 
789.000000	 91.971249 
788.000000	 91.954922 
787.000000	 91.909617 
786.000000	 91.832900 
785.000000	 91.718464 
784.000000	 91.569373 
783.000000	 91.401678 
782.000000	 91.230872 
781.000000	 91.063797 
780.000000	 90.907767 
779.000000	 90.778082 
778.000000	 90.691578 
777.000000	 90.659922 
776.000000	 90.690186 
775.000000	 90.780791 
774.000000	 90.914062 
773.000000	 91.063810 
772.000000	 91.214017 
771.000000	 91.362337 
770.000000	 91.506223 
769.000000	 91.636850 
768.000000	 91.747873 
767.000000	 91.840002 
766.000000	 91.915825 
765.000000	 91.979407 
764.000000	 92.040856 
763.000000	 92.110926 
762.000000	 92.189874 
761.000000	 92.270329 
760.000000	 92.350376 
759.000000	 92.434061 
758.000000	 92.521166 
757.000000	 92.608433 
756.000000	 92.699502 
755.000000	 92.800846 
754.000000	 92.908578 
753.000000	 93.012200 
752.000000	 93.110504 
751.000000	 93.210597 
750.000000	 93.311834 
749.000000	 93.404866 
748.000000	 93.488108 
747.000000	 93.571880 
746.000000	 93.663480 
745.000000	 93.760279 
744.000000	 93.860553 
743.000000	 93.969830 
742.000000	 94.093507 
741.000000	 94.232260 
740.000000	 94.384678 
739.000000	 94.544723 
738.000000	 94.698420 
737.000000	 94.834558 
736.000000	 94.957218 
735.000000	 95.076185 
734.000000	 95.187949 
733.000000	 95.279843 
732.000000	 95.350159 
731.000000	 95.409649 
730.000000	 95.464793 
729.000000	 95.515406 
728.000000	 95.564989 
727.000000	 95.618066 
726.000000	 95.670240 
725.000000	 95.713673 
724.000000	 95.752895 
723.000000	 95.802611 
722.000000	 95.869672 
721.000000	 95.949454 
720.000000	 96.038761 
719.000000	 96.137818 
718.000000	 96.239180 
717.000000	 96.329499 
716.000000	 96.405361 
715.000000	 96.474971 
714.000000	 96.542731 
713.000000	 96.605337 
712.000000	 96.663475 
711.000000	 96.723954 
710.000000	 96.787641 
709.000000	 96.848448 
708.000000	 96.903098 
707.000000	 96.948596 
706.000000	 96.974885 
705.000000	 96.971423 
704.000000	 96.938912 
703.000000	 96.882390 
702.000000	 96.790414 
701.000000	 96.638078 
700.000000	 96.417119 
699.000000	 96.144395 
698.000000	 95.844168 
697.000000	 95.540783 
696.000000	 95.270400 
695.000000	 95.079793 
694.000000	 94.994756 
693.000000	 95.005935 
692.000000	 95.092845 
691.000000	 95.238120 
690.000000	 95.417826 
689.000000	 95.598894 
688.000000	 95.761186 
687.000000	 95.910525 
686.000000	 96.053204 
685.000000	 96.179912 
684.000000	 96.288718 
683.000000	 96.394985 
682.000000	 96.505138 
681.000000	 96.602689 
680.000000	 96.676450 
679.000000	 96.740281 
678.000000	 96.808962 
677.000000	 96.882480 
676.000000	 96.954278 
675.000000	 97.018130 
674.000000	 97.066739 
673.000000	 97.094933 
672.000000	 97.104281 
671.000000	 97.098031 
670.000000	 97.071297 
669.000000	 97.033289 
668.000000	 97.068986 
667.000000	 97.231129 
666.000000	 97.415825 
665.000000	 97.567389 
664.000000	 97.688483 
663.000000	 97.779530 
662.000000	 97.842578 
661.000000	 97.892731 
660.000000	 97.945263 
659.000000	 97.999984 
658.000000	 98.047746 
657.000000	 98.089653 
656.000000	 98.123553 
655.000000	 98.128262 
654.000000	 98.091660 
653.000000	 98.033184 
652.000000	 97.978518 
651.000000	 97.939869 
650.000000	 97.929729 

