4000.000000	98.225293 
3999.000000	98.224073 
3998.000000	98.223798 
3997.000000	98.224329 
3996.000000	98.225177 
3995.000000	98.225888 
3994.000000	98.226307 
3993.000000	98.226625 
3992.000000	98.227006 
3991.000000	98.227256 
3990.000000	98.227127 
3989.000000	98.226727 
3988.000000	98.226420 
3987.000000	98.226288 
3986.000000	98.226007 
3985.000000	98.225295 
3984.000000	98.224253 
3983.000000	98.223263 
3982.000000	98.222615 
3981.000000	98.222212 
3980.000000	98.221708 
3979.000000	98.220922 
3978.000000	98.219985 
3977.000000	98.219098 
3976.000000	98.218226 
3975.000000	98.217144 
3974.000000	98.215814 
3973.000000	98.214652 
3972.000000	98.214220 
3971.000000	98.214624 
3970.000000	98.215486 
3969.000000	98.216460 
3968.000000	98.217428 
3967.000000	98.218286 
3966.000000	98.218835 
3965.000000	98.218879 
3964.000000	98.218433 
3963.000000	98.217781 
3962.000000	98.217241 
3961.000000	98.216969 
3960.000000	98.216902 
3959.000000	98.216667 
3958.000000	98.215857 
3957.000000	98.214611 
3956.000000	98.213566 
3955.000000	98.213244 
3954.000000	98.213644 
3953.000000	98.214312 
3952.000000	98.214733 
3951.000000	98.214708 
3950.000000	98.214732 
3949.000000	98.215573 
3948.000000	98.217098 
3947.000000	98.218203 
3946.000000	98.217900 
3945.000000	98.216016 
3944.000000	98.213066 
3943.000000	98.210079 
3942.000000	98.208049 
3941.000000	98.207265 
3940.000000	98.207310 
3939.000000	98.207561 
3938.000000	98.207815 
3937.000000	98.208608 
3936.000000	98.210589 
3935.000000	98.213548 
3934.000000	98.216404 
3933.000000	98.218136 
3932.000000	98.218439 
3931.000000	98.217349 
3930.000000	98.214957 
3929.000000	98.211582 
3928.000000	98.208026 
3927.000000	98.205569 
3926.000000	98.204988 
3925.000000	98.206064 
3924.000000	98.208427 
3923.000000	98.211594 
3922.000000	98.214645 
3921.000000	98.216725 
3920.000000	98.218040 
3919.000000	98.219691 
3918.000000	98.221759 
3917.000000	98.222871 
3916.000000	98.222075 
3915.000000	98.220081 
3914.000000	98.218097 
3913.000000	98.216548 
3912.000000	98.215532 
3911.000000	98.215245 
3910.000000	98.215482 
3909.000000	98.215763 
3908.000000	98.216022 
3907.000000	98.216658 
3906.000000	98.218231 
3905.000000	98.220625 
3904.000000	98.223247 
3903.000000	98.225224 
3902.000000	98.225754 
3901.000000	98.224726 
3900.000000	98.222611 
3899.000000	98.220427 
3898.000000	98.219133 
3897.000000	98.218688 
3896.000000	98.218330 
3895.000000	98.217525 
3894.000000	98.216369 
3893.000000	98.215524 
3892.000000	98.215412 
3891.000000	98.215627 
3890.000000	98.215762 
3889.000000	98.216026 
3888.000000	98.216565 
3887.000000	98.216760 
3886.000000	98.216132 
3885.000000	98.215153 
3884.000000	98.214646 
3883.000000	98.214545 
3882.000000	98.214181 
3881.000000	98.213546 
3880.000000	98.213196 
3879.000000	98.213231 
3878.000000	98.213263 
3877.000000	98.212892 
3876.000000	98.211777 
3875.000000	98.209853 
3874.000000	98.207736 
3873.000000	98.206593 
3872.000000	98.207045 
3871.000000	98.208253 
3870.000000	98.208649 
3869.000000	98.207914 
3868.000000	98.207043 
3867.000000	98.206387 
3866.000000	98.204842 
3865.000000	98.202109 
3864.000000	98.200356 
3863.000000	98.200974 
3862.000000	98.202445 
3861.000000	98.202974 
3860.000000	98.202446 
3859.000000	98.201081 
3858.000000	98.198728 
3857.000000	98.195300 
3856.000000	98.191747 
3855.000000	98.188143 
3854.000000	98.185225 
3853.000000	98.184924 
3852.000000	98.186993 
3851.000000	98.189986 
3850.000000	98.192815 
3849.000000	98.194740 
3848.000000	98.196399 
3847.000000	98.198703 
3846.000000	98.200902 
3845.000000	98.201927 
3844.000000	98.201808 
3843.000000	98.200633 
3842.000000	98.198654 
3841.000000	98.196941 
3840.000000	98.196186 
3839.000000	98.196369 
3838.000000	98.197132 
3837.000000	98.197711 
3836.000000	98.197821 
3835.000000	98.197557 
3834.000000	98.197373 
3833.000000	98.197601 
3832.000000	98.198063 
3831.000000	98.198530 
3830.000000	98.198808 
3829.000000	98.198672 
3828.000000	98.198218 
3827.000000	98.197663 
3826.000000	98.197243 
3825.000000	98.197541 
3824.000000	98.198805 
3823.000000	98.200017 
3822.000000	98.200148 
3821.000000	98.199534 
3820.000000	98.199214 
3819.000000	98.199543 
3818.000000	98.200021 
3817.000000	98.199828 
3816.000000	98.198814 
3815.000000	98.197677 
3814.000000	98.197047 
3813.000000	98.196755 
3812.000000	98.196420 
3811.000000	98.196071 
3810.000000	98.195893 
3809.000000	98.195897 
3808.000000	98.195897 
3807.000000	98.195660 
3806.000000	98.195210 
3805.000000	98.194811 
3804.000000	98.194551 
3803.000000	98.194194 
3802.000000	98.193528 
3801.000000	98.192718 
3800.000000	98.192181 
3799.000000	98.192045 
3798.000000	98.192051 
3797.000000	98.191960 
3796.000000	98.191855 
3795.000000	98.191828 
3794.000000	98.191655 
3793.000000	98.190964 
3792.000000	98.189741 
3791.000000	98.188634 
3790.000000	98.188192 
3789.000000	98.188228 
3788.000000	98.188171 
3787.000000	98.187996 
3786.000000	98.188147 
3785.000000	98.188840 
3784.000000	98.189799 
3783.000000	98.190773 
3782.000000	98.191557 
3781.000000	98.191885 
3780.000000	98.191894 
3779.000000	98.192118 
3778.000000	98.192774 
3777.000000	98.193655 
3776.000000	98.194426 
3775.000000	98.194682 
3774.000000	98.194559 
3773.000000	98.194931 
3772.000000	98.196479 
3771.000000	98.198613 
3770.000000	98.200361 
3769.000000	98.201635 
3768.000000	98.202607 
3767.000000	98.203194 
3766.000000	98.203240 
3765.000000	98.202778 
3764.000000	98.202610 
3763.000000	98.203547 
3762.000000	98.204853 
3761.000000	98.204977 
3760.000000	98.204361 
3759.000000	98.205374 
3758.000000	98.208041 
3757.000000	98.210070 
3756.000000	98.211190 
3755.000000	98.212712 
3754.000000	98.214940 
3753.000000	98.216846 
3752.000000	98.219230 
3751.000000	98.224593 
3750.000000	98.229714 
3749.000000	98.228997 
3748.000000	98.223899 
3747.000000	98.221038 
3746.000000	98.222693 
3745.000000	98.223391 
3744.000000	98.218812 
3743.000000	98.213411 
3742.000000	98.212840 
3741.000000	98.215434 
3740.000000	98.217215 
3739.000000	98.219930 
3738.000000	98.226145 
3737.000000	98.231558 
3736.000000	98.232185 
3735.000000	98.230645 
3734.000000	98.230521 
3733.000000	98.228650 
3732.000000	98.221189 
3731.000000	98.211604 
3730.000000	98.205750 
3729.000000	98.204961 
3728.000000	98.205059 
3727.000000	98.201617 
3726.000000	98.195500 
3725.000000	98.190348 
3724.000000	98.186370 
3723.000000	98.181124 
3722.000000	98.175078 
3721.000000	98.170488 
3720.000000	98.167354 
3719.000000	98.165454 
3718.000000	98.164231 
3717.000000	98.163067 
3716.000000	98.163642 
3715.000000	98.167047 
3714.000000	98.171113 
3713.000000	98.172170 
3712.000000	98.170678 
3711.000000	98.168762 
3710.000000	98.164183 
3709.000000	98.154769 
3708.000000	98.141716 
3707.000000	98.127728 
3706.000000	98.115297 
3705.000000	98.104944 
3704.000000	98.094829 
3703.000000	98.082911 
3702.000000	98.069825 
3701.000000	98.057063 
3700.000000	98.044640 
3699.000000	98.032989 
3698.000000	98.022598 
3697.000000	98.012847 
3696.000000	98.005106 
3695.000000	98.002059 
3694.000000	98.001970 
3693.000000	97.998866 
3692.000000	97.989828 
3691.000000	97.978799 
3690.000000	97.971744 
3689.000000	97.968506 
3688.000000	97.963477 
3687.000000	97.955962 
3686.000000	97.951236 
3685.000000	97.951308 
3684.000000	97.954006 
3683.000000	97.957652 
3682.000000	97.961444 
3681.000000	97.962177 
3680.000000	97.956029 
3679.000000	97.944350 
3678.000000	97.933945 
3677.000000	97.927557 
3676.000000	97.922861 
3675.000000	97.919630 
3674.000000	97.917903 
3673.000000	97.916703 
3672.000000	97.913687 
3671.000000	97.906244 
3670.000000	97.898395 
3669.000000	97.895333 
3668.000000	97.894866 
3667.000000	97.893011 
3666.000000	97.890292 
3665.000000	97.888960 
3664.000000	97.888932 
3663.000000	97.888057 
3662.000000	97.884446 
3661.000000	97.878757 
3660.000000	97.874239 
3659.000000	97.873461 
3658.000000	97.876055 
3657.000000	97.879224 
3656.000000	97.880970 
3655.000000	97.882770 
3654.000000	97.887189 
3653.000000	97.893720 
3652.000000	97.898375 
3651.000000	97.898392 
3650.000000	97.896953 
3649.000000	97.897426 
3648.000000	97.896690 
3647.000000	97.891891 
3646.000000	97.885627 
3645.000000	97.881572 
3644.000000	97.880611 
3643.000000	97.881628 
3642.000000	97.882478 
3641.000000	97.881851 
3640.000000	97.879858 
3639.000000	97.877382 
3638.000000	97.875892 
3637.000000	97.876686 
3636.000000	97.879926 
3635.000000	97.883724 
3634.000000	97.886317 
3633.000000	97.889052 
3632.000000	97.894234 
3631.000000	97.900423 
3630.000000	97.902406 
3629.000000	97.898998 
3628.000000	97.893284 
3627.000000	97.888151 
3626.000000	97.884977 
3625.000000	97.882886 
3624.000000	97.880386 
3623.000000	97.876761 
3622.000000	97.871776 
3621.000000	97.865130 
3620.000000	97.859538 
3619.000000	97.860061 
3618.000000	97.867055 
3617.000000	97.876003 
3616.000000	97.884354 
3615.000000	97.892118 
3614.000000	97.900205 
3613.000000	97.909682 
3612.000000	97.920189 
3611.000000	97.929423 
3610.000000	97.934629 
3609.000000	97.934653 
3608.000000	97.931429 
3607.000000	97.927936 
3606.000000	97.924688 
3605.000000	97.920675 
3604.000000	97.915544 
3603.000000	97.910072 
3602.000000	97.905935 
3601.000000	97.904117 
3600.000000	97.905276 
3599.000000	97.909818 
3598.000000	97.916007 
3597.000000	97.920679 
3596.000000	97.922638 
3595.000000	97.923182 
3594.000000	97.924893 
3593.000000	97.929633 
3592.000000	97.936548 
3591.000000	97.942979 
3590.000000	97.945592 
3589.000000	97.942622 
3588.000000	97.936390 
3587.000000	97.931272 
3586.000000	97.928199 
3585.000000	97.925886 
3584.000000	97.923862 
3583.000000	97.922461 
3582.000000	97.921502 
3581.000000	97.920261 
3580.000000	97.918472 
3579.000000	97.916935 
3578.000000	97.916795 
3577.000000	97.918377 
3576.000000	97.921069 
3575.000000	97.923671 
3574.000000	97.924920 
3573.000000	97.924606 
3572.000000	97.923675 
3571.000000	97.923534 
3570.000000	97.924880 
3569.000000	97.926648 
3568.000000	97.927266 
3567.000000	97.926597 
3566.000000	97.924861 
3565.000000	97.922100 
3564.000000	97.919055 
3563.000000	97.916410 
3562.000000	97.914066 
3561.000000	97.911817 
3560.000000	97.909804 
3559.000000	97.908456 
3558.000000	97.907685 
3557.000000	97.906659 
3556.000000	97.904752 
3555.000000	97.902661 
3554.000000	97.901881 
3553.000000	97.903202 
3552.000000	97.905743 
3551.000000	97.907696 
3550.000000	97.908160 
3549.000000	97.907675 
3548.000000	97.907199 
3547.000000	97.907275 
3546.000000	97.907539 
3545.000000	97.907163 
3544.000000	97.905863 
3543.000000	97.904210 
3542.000000	97.902884 
3541.000000	97.901929 
3540.000000	97.900816 
3539.000000	97.899265 
3538.000000	97.897703 
3537.000000	97.896939 
3536.000000	97.897407 
3535.000000	97.898652 
3534.000000	97.899853 
3533.000000	97.900493 
3532.000000	97.900486 
3531.000000	97.899930 
3530.000000	97.899049 
3529.000000	97.898389 
3528.000000	97.898527 
3527.000000	97.899464 
3526.000000	97.900413 
3525.000000	97.900442 
3524.000000	97.899370 
3523.000000	97.897927 
3522.000000	97.896976 
3521.000000	97.896776 
3520.000000	97.897033 
3519.000000	97.897439 
3518.000000	97.897966 
3517.000000	97.898685 
3516.000000	97.899537 
3515.000000	97.900297 
3514.000000	97.900864 
3513.000000	97.901406 
3512.000000	97.902142 
3511.000000	97.903147 
3510.000000	97.904347 
3509.000000	97.905464 
3508.000000	97.906035 
3507.000000	97.905796 
3506.000000	97.905000 
3505.000000	97.904332 
3504.000000	97.904360 
3503.000000	97.905028 
3502.000000	97.905770 
3501.000000	97.906146 
3500.000000	97.906231 
3499.000000	97.906327 
3498.000000	97.906598 
3497.000000	97.907041 
3496.000000	97.907602 
3495.000000	97.908140 
3494.000000	97.908393 
3493.000000	97.908176 
3492.000000	97.907574 
3491.000000	97.906900 
3490.000000	97.906498 
3489.000000	97.906524 
3488.000000	97.906868 
3487.000000	97.907219 
3486.000000	97.907261 
3485.000000	97.906874 
3484.000000	97.906175 
3483.000000	97.905447 
3482.000000	97.904964 
3481.000000	97.904801 
3480.000000	97.904788 
3479.000000	97.904672 
3478.000000	97.904357 
3477.000000	97.903946 
3476.000000	97.903570 
3475.000000	97.903222 
3474.000000	97.902778 
3473.000000	97.902173 
3472.000000	97.901475 
3471.000000	97.900784 
3470.000000	97.900142 
3469.000000	97.899553 
3468.000000	97.898994 
3467.000000	97.898390 
3466.000000	97.897660 
3465.000000	97.896805 
3464.000000	97.895921 
3463.000000	97.895107 
3462.000000	97.894372 
3461.000000	97.893656 
3460.000000	97.892908 
3459.000000	97.892138 
3458.000000	97.891373 
3457.000000	97.890620 
3456.000000	97.889868 
3455.000000	97.889105 
3454.000000	97.888330 
3453.000000	97.887546 
3452.000000	97.886757 
3451.000000	97.885965 
3450.000000	97.885177 
3449.000000	97.884396 
3448.000000	97.883626 
3447.000000	97.882866 
3446.000000	97.882111 
3445.000000	97.881358 
3444.000000	97.880610 
3443.000000	97.879874 
3442.000000	97.879157 
3441.000000	97.878461 
3440.000000	97.877782 
3439.000000	97.877112 
3438.000000	97.876443 
3437.000000	97.875774 
3436.000000	97.875106 
3435.000000	97.874442 
3434.000000	97.873787 
3433.000000	97.873145 
3432.000000	97.872518 
3431.000000	97.871908 
3430.000000	97.871308 
3429.000000	97.870713 
3428.000000	97.870117 
3427.000000	97.869521 
3426.000000	97.868932 
3425.000000	97.868360 
3424.000000	97.867813 
3423.000000	97.867293 
3422.000000	97.866801 
3421.000000	97.866330 
3420.000000	97.865875 
3419.000000	97.865430 
3418.000000	97.864994 
3417.000000	97.864569 
3416.000000	97.864155 
3415.000000	97.863751 
3414.000000	97.863357 
3413.000000	97.862972 
3412.000000	97.862597 
3411.000000	97.862237 
3410.000000	97.861894 
3409.000000	97.861567 
3408.000000	97.861255 
3407.000000	97.860951 
3406.000000	97.860650 
3405.000000	97.860347 
3404.000000	97.860048 
3403.000000	97.859758 
3402.000000	97.859478 
3401.000000	97.859206 
3400.000000	97.858938 
3399.000000	97.858671 
3398.000000	97.858405 
3397.000000	97.858143 
3396.000000	97.857887 
3395.000000	97.857642 
3394.000000	97.857412 
3393.000000	97.857201 
3392.000000	97.857006 
3391.000000	97.856822 
3390.000000	97.856645 
3389.000000	97.856476 
3388.000000	97.856320 
3387.000000	97.856188 
3386.000000	97.856089 
3385.000000	97.856023 
3384.000000	97.855987 
3383.000000	97.855971 
3382.000000	97.855970 
3381.000000	97.855976 
3380.000000	97.855983 
3379.000000	97.855999 
3378.000000	97.856042 
3377.000000	97.856113 
3376.000000	97.856169 
3375.000000	97.856124 
3374.000000	97.855929 
3373.000000	97.855680 
3372.000000	97.855568 
3371.000000	97.855682 
3370.000000	97.855907 
3369.000000	97.856051 
3368.000000	97.856047 
3367.000000	97.855920 
3366.000000	97.855654 
3365.000000	97.855268 
3364.000000	97.854991 
3363.000000	97.855146 
3362.000000	97.855750 
3361.000000	97.856401 
3360.000000	97.856648 
3359.000000	97.856398 
3358.000000	97.855916 
3357.000000	97.855539 
3356.000000	97.855496 
3355.000000	97.855880 
3354.000000	97.856616 
3353.000000	97.857480 
3352.000000	97.858222 
3351.000000	97.858738 
3350.000000	97.859099 
3349.000000	97.859439 
3348.000000	97.859839 
3347.000000	97.860343 
3346.000000	97.861008 
3345.000000	97.861820 
3344.000000	97.862588 
3343.000000	97.863013 
3342.000000	97.862958 
3341.000000	97.862548 
3340.000000	97.861936 
3339.000000	97.861094 
3338.000000	97.859990 
3337.000000	97.858913 
3336.000000	97.858405 
3335.000000	97.858757 
3334.000000	97.859724 
3333.000000	97.860725 
3332.000000	97.861294 
3331.000000	97.861314 
3330.000000	97.860941 
3329.000000	97.860485 
3328.000000	97.860280 
3327.000000	97.860476 
3326.000000	97.860924 
3325.000000	97.861282 
3324.000000	97.861319 
3323.000000	97.861087 
3322.000000	97.860866 
3321.000000	97.860977 
3320.000000	97.861573 
3319.000000	97.862538 
3318.000000	97.863514 
3317.000000	97.864106 
3316.000000	97.864195 
3315.000000	97.864010 
3314.000000	97.863947 
3313.000000	97.864227 
3312.000000	97.864760 
3311.000000	97.865295 
3310.000000	97.865682 
3309.000000	97.865979 
3308.000000	97.866296 
3307.000000	97.866620 
3306.000000	97.866831 
3305.000000	97.866859 
3304.000000	97.866755 
3303.000000	97.866621 
3302.000000	97.866561 
3301.000000	97.866648 
3300.000000	97.866915 
3299.000000	97.867321 
3298.000000	97.867767 
3297.000000	97.868157 
3296.000000	97.868452 
3295.000000	97.868677 
3294.000000	97.868898 
3293.000000	97.869176 
3292.000000	97.869510 
3291.000000	97.869822 
3290.000000	97.870060 
3289.000000	97.870297 
3288.000000	97.870673 
3287.000000	97.871205 
3286.000000	97.871729 
3285.000000	97.872077 
3284.000000	97.872259 
3283.000000	97.872452 
3282.000000	97.872806 
3281.000000	97.873321 
3280.000000	97.873895 
3279.000000	97.874459 
3278.000000	97.875041 
3277.000000	97.875673 
3276.000000	97.876267 
3275.000000	97.876640 
3274.000000	97.876695 
3273.000000	97.876547 
3272.000000	97.876458 
3271.000000	97.876608 
3270.000000	97.877035 
3269.000000	97.877725 
3268.000000	97.878637 
3267.000000	97.879623 
3266.000000	97.880470 
3265.000000	97.881094 
3264.000000	97.881603 
3263.000000	97.882151 
3262.000000	97.882761 
3261.000000	97.883351 
3260.000000	97.883877 
3259.000000	97.884385 
3258.000000	97.884951 
3257.000000	97.885615 
3256.000000	97.886364 
3255.000000	97.887136 
3254.000000	97.887860 
3253.000000	97.888524 
3252.000000	97.889209 
3251.000000	97.889988 
3250.000000	97.890837 
3249.000000	97.891667 
3248.000000	97.892428 
3247.000000	97.893130 
3246.000000	97.893795 
3245.000000	97.894449 
3244.000000	97.895151 
3243.000000	97.895965 
3242.000000	97.896866 
3241.000000	97.897738 
3240.000000	97.898495 
3239.000000	97.899187 
3238.000000	97.899953 
3237.000000	97.900894 
3236.000000	97.902018 
3235.000000	97.903213 
3234.000000	97.904282 
3233.000000	97.905078 
3232.000000	97.905601 
3231.000000	97.906009 
3230.000000	97.906478 
3229.000000	97.907073 
3228.000000	97.907770 
3227.000000	97.908523 
3226.000000	97.909307 
3225.000000	97.910131 
3224.000000	97.911005 
3223.000000	97.911905 
3222.000000	97.912745 
3221.000000	97.913435 
3220.000000	97.913978 
3219.000000	97.914506 
3218.000000	97.915198 
3217.000000	97.916126 
3216.000000	97.917193 
3215.000000	97.918214 
3214.000000	97.919071 
3213.000000	97.919775 
3212.000000	97.920431 
3211.000000	97.921167 
3210.000000	97.922049 
3209.000000	97.922993 
3208.000000	97.923759 
3207.000000	97.924134 
3206.000000	97.924190 
3205.000000	97.924324 
3204.000000	97.924913 
3203.000000	97.925950 
3202.000000	97.927061 
3201.000000	97.927933 
3200.000000	97.928586 
3199.000000	97.929168 
3198.000000	97.929611 
3197.000000	97.929696 
3196.000000	97.929447 
3195.000000	97.929358 
3194.000000	97.930045 
3193.000000	97.931675 
3192.000000	97.933820 
3191.000000	97.935797 
3190.000000	97.937254 
3189.000000	97.938365 
3188.000000	97.939504 
3187.000000	97.940730 
3186.000000	97.941686 
3185.000000	97.942118 
3184.000000	97.942372 
3183.000000	97.943150 
3182.000000	97.944756 
3181.000000	97.946772 
3180.000000	97.948536 
3179.000000	97.949823 
3178.000000	97.950856 
3177.000000	97.951857 
3176.000000	97.952780 
3175.000000	97.953486 
3174.000000	97.953954 
3173.000000	97.954294 
3172.000000	97.954705 
3171.000000	97.955426 
3170.000000	97.956564 
3169.000000	97.957873 
3168.000000	97.958873 
3167.000000	97.959313 
3166.000000	97.959469 
3165.000000	97.959914 
3164.000000	97.960976 
3163.000000	97.962494 
3162.000000	97.964020 
3161.000000	97.965226 
3160.000000	97.966200 
3159.000000	97.967453 
3158.000000	97.969512 
3157.000000	97.972326 
3156.000000	97.975051 
3155.000000	97.976694 
3154.000000	97.977043 
3153.000000	97.976817 
3152.000000	97.976778 
3151.000000	97.976785 
3150.000000	97.976069 
3149.000000	97.974404 
3148.000000	97.972730 
3147.000000	97.972387 
3146.000000	97.973849 
3145.000000	97.976481 
3144.000000	97.979314 
3143.000000	97.981988 
3142.000000	97.984774 
3141.000000	97.987832 
3140.000000	97.990726 
3139.000000	97.992715 
3138.000000	97.993486 
3137.000000	97.993459 
3136.000000	97.993442 
3135.000000	97.994009 
3134.000000	97.995143 
3133.000000	97.996311 
3132.000000	97.996841 
3131.000000	97.996417 
3130.000000	97.995463 
3129.000000	97.994984 
3128.000000	97.995789 
3127.000000	97.997835 
3126.000000	98.000322 
3125.000000	98.002402 
3124.000000	98.003806 
3123.000000	98.004783 
3122.000000	98.005631 
3121.000000	98.006403 
3120.000000	98.007016 
3119.000000	98.007479 
3118.000000	98.008035 
3117.000000	98.009059 
3116.000000	98.010744 
3115.000000	98.012846 
3114.000000	98.014812 
3113.000000	98.016247 
3112.000000	98.017225 
3111.000000	98.018124 
3110.000000	98.019221 
3109.000000	98.020409 
3108.000000	98.021299 
3107.000000	98.021545 
3106.000000	98.021217 
3105.000000	98.020809 
3104.000000	98.020721 
3103.000000	98.020802 
3102.000000	98.020595 
3101.000000	98.020200 
3100.000000	98.020458 
3099.000000	98.021931 
3098.000000	98.024001 
3097.000000	98.025367 
3096.000000	98.025526 
3095.000000	98.025380 
3094.000000	98.026233 
3093.000000	98.028427 
3092.000000	98.031068 
3091.000000	98.032840 
3090.000000	98.033090 
3089.000000	98.032291 
3088.000000	98.031694 
3087.000000	98.032343 
3086.000000	98.034356 
3085.000000	98.037154 
3084.000000	98.040207 
3083.000000	98.043313 
3082.000000	98.046123 
3081.000000	98.047997 
3080.000000	98.048643 
3079.000000	98.048574 
3078.000000	98.048499 
3077.000000	98.048348 
3076.000000	98.047376 
3075.000000	98.045414 
3074.000000	98.043595 
3073.000000	98.043107 
3072.000000	98.043515 
3071.000000	98.043145 
3070.000000	98.041403 
3069.000000	98.039864 
3068.000000	98.040175 
3067.000000	98.041589 
3066.000000	98.041981 
3065.000000	98.041043 
3064.000000	98.040778 
3063.000000	98.042292 
3062.000000	98.043701 
3061.000000	98.042630 
3060.000000	98.039753 
3059.000000	98.038312 
3058.000000	98.040164 
3057.000000	98.043537 
3056.000000	98.045102 
3055.000000	98.043355 
3054.000000	98.039599 
3053.000000	98.036102 
3052.000000	98.034016 
3051.000000	98.032863 
3050.000000	98.031452 
3049.000000	98.029081 
3048.000000	98.026078 
3047.000000	98.023511 
3046.000000	98.022356 
3045.000000	98.022656 
3044.000000	98.023446 
3043.000000	98.023677 
3042.000000	98.022944 
3041.000000	98.020961 
3040.000000	98.016497 
3039.000000	98.008109 
3038.000000	97.996306 
3037.000000	97.983912 
3036.000000	97.973412 
3035.000000	97.964680 
3034.000000	97.956418 
3033.000000	97.948705 
3032.000000	97.942274 
3031.000000	97.935826 
3030.000000	97.926244 
3029.000000	97.912097 
3028.000000	97.895510 
3027.000000	97.879785 
3026.000000	97.866051 
3025.000000	97.853109 
3024.000000	97.839610 
3023.000000	97.825248 
3022.000000	97.810267 
3021.000000	97.794970 
3020.000000	97.779653 
3019.000000	97.764351 
3018.000000	97.748554 
3017.000000	97.731623 
3016.000000	97.713341 
3015.000000	97.693900 
3014.000000	97.673583 
3013.000000	97.652647 
3012.000000	97.631050 
3011.000000	97.608203 
3010.000000	97.583715 
3009.000000	97.558545 
3008.000000	97.534495 
3007.000000	97.512055 
3006.000000	97.489692 
3005.000000	97.466068 
3004.000000	97.442111 
3003.000000	97.419803 
3002.000000	97.399585 
3001.000000	97.380305 
3000.000000	97.361436 
2999.000000	97.343854 
2998.000000	97.328315 
2997.000000	97.314617 
2996.000000	97.302347 
2995.000000	97.290633 
2994.000000	97.276048 
2993.000000	97.252685 
2992.000000	97.217266 
2991.000000	97.174823 
2990.000000	97.137382 
2989.000000	97.115312 
2988.000000	97.110243 
2987.000000	97.116115 
2986.000000	97.125435 
2985.000000	97.133820 
2984.000000	97.139872 
2983.000000	97.143611 
2982.000000	97.145923 
2981.000000	97.147764 
2980.000000	97.148575 
2979.000000	97.146341 
2978.000000	97.140172 
2977.000000	97.131910 
2976.000000	97.124018 
2975.000000	97.116693 
2974.000000	97.108761 
2973.000000	97.101193 
2972.000000	97.097892 
2971.000000	97.102239 
2970.000000	97.113778 
2969.000000	97.128751 
2968.000000	97.143285 
2967.000000	97.155979 
2966.000000	97.168204 
2965.000000	97.182369 
2964.000000	97.199246 
2963.000000	97.216553 
2962.000000	97.230618 
2961.000000	97.239847 
2960.000000	97.246192 
2959.000000	97.253209 
2958.000000	97.263327 
2957.000000	97.277057 
2956.000000	97.293498 
2955.000000	97.310614 
2954.000000	97.325724 
2953.000000	97.337154 
2952.000000	97.345708 
2951.000000	97.353981 
2950.000000	97.363930 
2949.000000	97.375203 
2948.000000	97.385624 
2947.000000	97.392861 
2946.000000	97.396032 
2945.000000	97.396182 
2944.000000	97.395149 
2943.000000	97.393924 
2942.000000	97.392162 
2941.000000	97.389040 
2940.000000	97.384414 
2939.000000	97.379072 
2938.000000	97.373936 
2937.000000	97.369369 
2936.000000	97.365300 
2935.000000	97.361765 
2934.000000	97.359021 
2933.000000	97.356938 
2932.000000	97.354284 
2931.000000	97.349117 
2930.000000	97.340350 
2929.000000	97.328884 
2928.000000	97.316935 
2927.000000	97.306399 
2926.000000	97.298129 
2925.000000	97.292249 
2924.000000	97.288388 
2923.000000	97.285808 
2922.000000	97.284144 
2921.000000	97.284006 
2920.000000	97.286063 
2919.000000	97.289528 
2918.000000	97.292416 
2917.000000	97.293540 
2916.000000	97.293426 
2915.000000	97.292974 
2914.000000	97.292193 
2913.000000	97.290994 
2912.000000	97.290448 
2911.000000	97.292172 
2910.000000	97.296515 
2909.000000	97.302123 
2908.000000	97.307427 
2907.000000	97.311599 
2906.000000	97.313650 
2905.000000	97.311421 
2904.000000	97.303236 
2903.000000	97.291554 
2902.000000	97.284098 
2901.000000	97.288614 
2900.000000	97.307055 
2899.000000	97.333167 
2898.000000	97.357186 
2897.000000	97.373098 
2896.000000	97.381282 
2895.000000	97.385618 
2894.000000	97.389802 
2893.000000	97.395708 
2892.000000	97.403362 
2891.000000	97.411390 
2890.000000	97.418150 
2889.000000	97.423078 
2888.000000	97.426860 
2887.000000	97.430405 
2886.000000	97.434401 
2885.000000	97.439959 
2884.000000	97.448631 
2883.000000	97.461049 
2882.000000	97.475988 
2881.000000	97.491392 
2880.000000	97.506100 
2879.000000	97.520288 
2878.000000	97.534489 
2877.000000	97.548608 
2876.000000	97.561775 
2875.000000	97.573040 
2874.000000	97.582433 
2873.000000	97.591266 
2872.000000	97.600832 
2871.000000	97.610703 
2870.000000	97.619092 
2869.000000	97.625243 
2868.000000	97.630835 
2867.000000	97.638440 
2866.000000	97.649097 
2865.000000	97.662026 
2864.000000	97.676180 
2863.000000	97.691187 
2862.000000	97.706792 
2861.000000	97.722153 
2860.000000	97.736103 
2859.000000	97.747888 
2858.000000	97.757578 
2857.000000	97.765820 
2856.000000	97.772966 
2855.000000	97.778734 
2854.000000	97.783326 
2853.000000	97.788453 
2852.000000	97.796321 
2851.000000	97.807545 
2850.000000	97.820813 
2849.000000	97.834606 
2848.000000	97.848491 
2847.000000	97.862656 
2846.000000	97.877359 
2845.000000	97.893198 
2844.000000	97.910679 
2843.000000	97.928829 
2842.000000	97.945275 
2841.000000	97.958460 
2840.000000	97.968876 
2839.000000	97.977571 
2838.000000	97.984683 
2837.000000	97.990423 
2836.000000	97.996134 
2835.000000	98.002820 
2834.000000	98.009477 
2833.000000	98.014433 
2832.000000	98.017719 
2831.000000	98.020598 
2830.000000	98.023300 
2829.000000	98.025056 
2828.000000	98.026284 
2827.000000	98.028883 
2826.000000	98.033942 
2825.000000	98.040464 
2824.000000	98.046900 
2823.000000	98.052820 
2822.000000	98.058469 
2821.000000	98.063631 
2820.000000	98.067700 
2819.000000	98.070372 
2818.000000	98.071753 
2817.000000	98.072238 
2816.000000	98.072620 
2815.000000	98.073954 
2814.000000	98.076843 
2813.000000	98.080879 
2812.000000	98.084878 
2811.000000	98.087684 
2810.000000	98.089009 
2809.000000	98.089727 
2808.000000	98.091170 
2807.000000	98.093744 
2806.000000	98.096400 
2805.000000	98.097744 
2804.000000	98.097506 
2803.000000	98.096693 
2802.000000	98.096577 
2801.000000	98.097803 
2800.000000	98.100116 
2799.000000	98.102578 
2798.000000	98.104335 
2797.000000	98.105547 
2796.000000	98.107222 
2795.000000	98.109838 
2794.000000	98.112593 
2793.000000	98.114408 
2792.000000	98.115147 
2791.000000	98.115376 
2790.000000	98.115446 
2789.000000	98.115474 
2788.000000	98.115838 
2787.000000	98.116939 
2786.000000	98.118638 
2785.000000	98.120488 
2784.000000	98.122310 
2783.000000	98.124012 
2782.000000	98.125123 
2781.000000	98.125246 
2780.000000	98.124901 
2779.000000	98.125269 
2778.000000	98.126895 
2777.000000	98.129224 
2776.000000	98.131291 
2775.000000	98.132638 
2774.000000	98.133469 
2773.000000	98.134187 
2772.000000	98.135008 
2771.000000	98.135892 
2770.000000	98.136723 
2769.000000	98.137471 
2768.000000	98.138197 
2767.000000	98.138973 
2766.000000	98.139799 
2765.000000	98.140619 
2764.000000	98.141394 
2763.000000	98.142147 
2762.000000	98.142952 
2761.000000	98.143853 
2760.000000	98.144826 
2759.000000	98.145787 
2758.000000	98.146675 
2757.000000	98.147508 
2756.000000	98.148354 
2755.000000	98.149254 
2754.000000	98.150188 
2753.000000	98.151117 
2752.000000	98.152021 
2751.000000	98.152906 
2750.000000	98.153777 
2749.000000	98.154630 
2748.000000	98.155459 
2747.000000	98.156275 
2746.000000	98.157098 
2745.000000	98.157937 
2744.000000	98.158784 
2743.000000	98.159621 
2742.000000	98.160435 
2741.000000	98.161229 
2740.000000	98.162009 
2739.000000	98.162782 
2738.000000	98.163561 
2737.000000	98.164357 
2736.000000	98.165171 
2735.000000	98.165986 
2734.000000	98.166772 
2733.000000	98.167519 
2732.000000	98.168238 
2731.000000	98.168951 
2730.000000	98.169672 
2729.000000	98.170401 
2728.000000	98.171143 
2727.000000	98.171900 
2726.000000	98.172659 
2725.000000	98.173401 
2724.000000	98.174113 
2723.000000	98.174800 
2722.000000	98.175464 
2721.000000	98.176093 
2720.000000	98.176674 
2719.000000	98.177196 
2718.000000	98.177675 
2717.000000	98.178181 
2716.000000	98.178798 
2715.000000	98.179482 
2714.000000	98.180045 
2713.000000	98.180349 
2712.000000	98.180478 
2711.000000	98.180648 
2710.000000	98.180954 
2709.000000	98.181314 
2708.000000	98.181699 
2707.000000	98.182247 
2706.000000	98.183022 
2705.000000	98.183753 
2704.000000	98.184052 
2703.000000	98.183925 
2702.000000	98.183904 
2701.000000	98.184555 
2700.000000	98.185901 
2699.000000	98.187343 
2698.000000	98.188144 
2697.000000	98.187976 
2696.000000	98.187086 
2695.000000	98.186115 
2694.000000	98.185666 
2693.000000	98.185858 
2692.000000	98.186157 
2691.000000	98.185813 
2690.000000	98.184688 
2689.000000	98.183505 
2688.000000	98.183006 
2687.000000	98.183093 
2686.000000	98.183229 
2685.000000	98.183558 
2684.000000	98.184834 
2683.000000	98.187087 
2682.000000	98.189096 
2681.000000	98.189635 
2680.000000	98.188652 
2679.000000	98.186935 
2678.000000	98.185097 
2677.000000	98.183318 
2676.000000	98.181715 
2675.000000	98.180509 
2674.000000	98.179928 
2673.000000	98.180159 
2672.000000	98.181111 
2671.000000	98.182146 
2670.000000	98.182538 
2669.000000	98.182389 
2668.000000	98.182473 
2667.000000	98.182884 
2666.000000	98.182516 
2665.000000	98.180424 
2664.000000	98.177077 
2663.000000	98.173711 
2662.000000	98.170872 
2661.000000	98.168352 
2660.000000	98.166178 
2659.000000	98.164806 
2658.000000	98.164407 
2657.000000	98.164585 
2656.000000	98.164712 
2655.000000	98.164052 
2654.000000	98.161778 
2653.000000	98.157655 
2652.000000	98.152769 
2651.000000	98.148907 
2650.000000	98.146868 
2649.000000	98.145860 
2648.000000	98.144690 
2647.000000	98.143255 
2646.000000	98.142604 
2645.000000	98.143780 
2644.000000	98.146788 
2643.000000	98.150444 
2642.000000	98.153104 
2641.000000	98.153754 
2640.000000	98.152528 
2639.000000	98.150328 
2638.000000	98.148071 
2637.000000	98.146271 
2636.000000	98.145127 
2635.000000	98.144746 
2634.000000	98.145214 
2633.000000	98.146495 
2632.000000	98.148256 
2631.000000	98.149846 
2630.000000	98.150641 
2629.000000	98.150531 
2628.000000	98.149961 
2627.000000	98.149440 
2626.000000	98.149077 
2625.000000	98.148614 
2624.000000	98.147838 
2623.000000	98.146946 
2622.000000	98.146552 
2621.000000	98.147184 
2620.000000	98.148675 
2619.000000	98.150156 
2618.000000	98.150859 
2617.000000	98.150751 
2616.000000	98.150207 
2615.000000	98.149428 
2614.000000	98.148509 
2613.000000	98.147875 
2612.000000	98.148053 
2611.000000	98.149015 
2610.000000	98.150133 
2609.000000	98.150874 
2608.000000	98.151256 
2607.000000	98.151531 
2606.000000	98.151890 
2605.000000	98.152466 
2604.000000	98.153293 
2603.000000	98.154212 
2602.000000	98.154994 
2601.000000	98.155572 
2600.000000	98.156056 
2599.000000	98.156561 
2598.000000	98.157096 
2597.000000	98.157647 
2596.000000	98.158244 
2595.000000	98.158908 
2594.000000	98.159607 
2593.000000	98.160294 
2592.000000	98.160959 
2591.000000	98.161611 
2590.000000	98.162269 
2589.000000	98.162951 
2588.000000	98.163665 
2587.000000	98.164399 
2586.000000	98.165135 
2585.000000	98.165864 
2584.000000	98.166590 
2583.000000	98.167316 
2582.000000	98.168043 
2581.000000	98.168774 
2580.000000	98.169512 
2579.000000	98.170260 
2578.000000	98.171020 
2577.000000	98.171791 
2576.000000	98.172569 
2575.000000	98.173350 
2574.000000	98.174126 
2573.000000	98.174894 
2572.000000	98.175649 
2571.000000	98.176388 
2570.000000	98.177110 
2569.000000	98.177819 
2568.000000	98.178521 
2567.000000	98.179219 
2566.000000	98.179905 
2565.000000	98.180568 
2564.000000	98.181203 
2563.000000	98.181814 
2562.000000	98.182407 
2561.000000	98.182986 
2560.000000	98.183554 
2559.000000	98.184108 
2558.000000	98.184646 
2557.000000	98.185166 
2556.000000	98.185670 
2555.000000	98.186164 
2554.000000	98.186653 
2553.000000	98.187135 
2552.000000	98.187617 
2551.000000	98.188123 
2550.000000	98.188639 
2549.000000	98.189106 
2548.000000	98.189496 
2547.000000	98.189844 
2546.000000	98.190188 
2545.000000	98.190502 
2544.000000	98.190760 
2543.000000	98.191006 
2542.000000	98.191304 
2541.000000	98.191675 
2540.000000	98.192114 
2539.000000	98.192606 
2538.000000	98.193055 
2537.000000	98.193302 
2536.000000	98.193352 
2535.000000	98.193439 
2534.000000	98.193730 
2533.000000	98.194102 
2532.000000	98.194298 
2531.000000	98.194173 
2530.000000	98.193751 
2529.000000	98.193196 
2528.000000	98.192808 
2527.000000	98.192823 
2526.000000	98.193146 
2525.000000	98.193379 
2524.000000	98.193248 
2523.000000	98.192878 
2522.000000	98.192586 
2521.000000	98.192554 
2520.000000	98.192799 
2519.000000	98.193230 
2518.000000	98.193621 
2517.000000	98.193780 
2516.000000	98.193863 
2515.000000	98.194335 
2514.000000	98.195514 
2513.000000	98.197190 
2512.000000	98.198657 
2511.000000	98.199118 
2510.000000	98.198210 
2509.000000	98.196462 
2508.000000	98.195181 
2507.000000	98.195282 
2506.000000	98.196375 
2505.000000	98.197200 
2504.000000	98.197059 
2503.000000	98.196346 
2502.000000	98.195677 
2501.000000	98.195176 
2500.000000	98.194866 
2499.000000	98.195171 
2498.000000	98.196519 
2497.000000	98.198664 
2496.000000	98.200714 
2495.000000	98.201759 
2494.000000	98.201521 
2493.000000	98.200693 
2492.000000	98.200642 
2491.000000	98.202325 
2490.000000	98.205378 
2489.000000	98.208434 
2488.000000	98.210476 
2487.000000	98.211581 
2486.000000	98.212358 
2485.000000	98.213060 
2484.000000	98.213356 
2483.000000	98.212713 
2482.000000	98.211002 
2481.000000	98.209069 
2480.000000	98.208520 
2479.000000	98.210348 
2478.000000	98.213778 
2477.000000	98.216751 
2476.000000	98.217791 
2475.000000	98.216927 
2474.000000	98.215044 
2473.000000	98.213019 
2472.000000	98.211433 
2471.000000	98.210460 
2470.000000	98.209767 
2469.000000	98.208974 
2468.000000	98.208337 
2467.000000	98.208391 
2466.000000	98.208894 
2465.000000	98.208788 
2464.000000	98.207465 
2463.000000	98.205552 
2462.000000	98.204192 
2461.000000	98.203920 
2460.000000	98.204332 
2459.000000	98.204520 
2458.000000	98.203816 
2457.000000	98.202520 
2456.000000	98.201837 
2455.000000	98.202619 
2454.000000	98.204232 
2453.000000	98.205132 
2452.000000	98.204619 
2451.000000	98.203499 
2450.000000	98.202990 
2449.000000	98.203621 
2448.000000	98.205244 
2447.000000	98.207379 
2446.000000	98.209297 
2445.000000	98.210288 
2444.000000	98.210216 
2443.000000	98.209561 
2442.000000	98.208842 
2441.000000	98.208276 
2440.000000	98.207989 
2439.000000	98.208110 
2438.000000	98.208464 
2437.000000	98.208533 
2436.000000	98.207991 
2435.000000	98.207037 
2434.000000	98.206129 
2433.000000	98.205714 
2432.000000	98.206140 
2431.000000	98.207472 
2430.000000	98.209258 
2429.000000	98.210742 
2428.000000	98.211569 
2427.000000	98.211987 
2426.000000	98.212356 
2425.000000	98.212772 
2424.000000	98.213221 
2423.000000	98.213776 
2422.000000	98.214517 
2421.000000	98.215461 
2420.000000	98.216683 
2419.000000	98.218219 
2418.000000	98.219668 
2417.000000	98.220296 
2416.000000	98.219865 
2415.000000	98.219035 
2414.000000	98.218649 
2413.000000	98.218940 
2412.000000	98.219776 
2411.000000	98.221217 
2410.000000	98.223295 
2409.000000	98.225481 
2408.000000	98.227000 
2407.000000	98.227593 
2406.000000	98.227553 
2405.000000	98.227156 
2404.000000	98.226466 
2403.000000	98.225630 
2402.000000	98.224961 
2401.000000	98.224666 
2400.000000	98.224795 
2399.000000	98.225452 
2398.000000	98.226722 
2397.000000	98.228323 
2396.000000	98.229544 
2395.000000	98.229732 
2394.000000	98.228885 
2393.000000	98.227786 
2392.000000	98.227494 
2391.000000	98.228519 
2390.000000	98.230369 
2389.000000	98.231921 
2388.000000	98.232470 
2387.000000	98.232501 
2386.000000	98.233385 
2385.000000	98.236141 
2384.000000	98.240272 
2383.000000	98.243896 
2382.000000	98.245302 
2381.000000	98.244222 
2380.000000	98.241624 
2379.000000	98.238443 
2378.000000	98.234818 
2377.000000	98.230755 
2376.000000	98.227004 
2375.000000	98.224706 
2374.000000	98.224227 
2373.000000	98.224871 
2372.000000	98.225585 
2371.000000	98.225622 
2370.000000	98.224678 
2369.000000	98.223008 
2368.000000	98.221414 
2367.000000	98.220586 
2366.000000	98.220318 
2365.000000	98.219783 
2364.000000	98.218495 
2363.000000	98.216697 
2362.000000	98.214838 
2361.000000	98.213047 
2360.000000	98.211506 
2359.000000	98.210439 
2358.000000	98.209484 
2357.000000	98.208112 
2356.000000	98.206358 
2355.000000	98.204983 
2354.000000	98.203759 
2353.000000	98.201867 
2352.000000	98.199377 
2351.000000	98.197088 
2350.000000	98.195566 
2349.000000	98.194587 
2348.000000	98.193782 
2347.000000	98.192556 
2346.000000	98.190278 
2345.000000	98.187637 
2344.000000	98.185903 
2343.000000	98.185620 
2342.000000	98.185388 
2341.000000	98.183802 
2340.000000	98.180986 
2339.000000	98.178079 
2338.000000	98.176036 
2337.000000	98.174630 
2336.000000	98.173609 
2335.000000	98.172590 
2334.000000	98.171539 
2333.000000	98.170390 
2332.000000	98.170427 
2331.000000	98.171799 
2330.000000	98.173659 
2329.000000	98.173378 
2328.000000	98.170028 
2327.000000	98.163412 
2326.000000	98.154363 
2325.000000	98.144898 
2324.000000	98.137912 
2323.000000	98.135313 
2322.000000	98.136147 
2321.000000	98.138106 
2320.000000	98.140521 
2319.000000	98.143419 
2318.000000	98.146815 
2317.000000	98.149283 
2316.000000	98.150827 
2315.000000	98.150904 
2314.000000	98.149669 
2313.000000	98.146702 
2312.000000	98.143637 
2311.000000	98.141065 
2310.000000	98.139018 
2309.000000	98.136861 
2308.000000	98.136263 
2307.000000	98.138406 
2306.000000	98.142634 
2305.000000	98.146027 
2304.000000	98.147012 
2303.000000	98.145215 
2302.000000	98.141642 
2301.000000	98.137488 
2300.000000	98.134928 
2299.000000	98.134075 
2298.000000	98.133039 
2297.000000	98.129585 
2296.000000	98.124813 
2295.000000	98.120752 
2294.000000	98.117472 
2293.000000	98.113126 
2292.000000	98.107497 
2291.000000	98.101989 
2290.000000	98.096850 
2289.000000	98.091011 
2288.000000	98.084628 
2287.000000	98.079635 
2286.000000	98.077169 
2285.000000	98.077124 
2284.000000	98.079585 
2283.000000	98.084715 
2282.000000	98.090749 
2281.000000	98.095164 
2280.000000	98.097708 
2279.000000	98.099920 
2278.000000	98.101763 
2277.000000	98.101922 
2276.000000	98.101443 
2275.000000	98.103222 
2274.000000	98.107373 
2273.000000	98.110217 
2272.000000	98.109417 
2271.000000	98.107263 
2270.000000	98.107608 
2269.000000	98.111432 
2268.000000	98.116540 
2267.000000	98.119840 
2266.000000	98.119355 
2265.000000	98.115462 
2264.000000	98.110900 
2263.000000	98.108218 
2262.000000	98.107059 
2261.000000	98.105221 
2260.000000	98.101856 
2259.000000	98.098261 
2258.000000	98.095783 
2257.000000	98.094676 
2256.000000	98.094949 
2255.000000	98.096738 
2254.000000	98.099498 
2253.000000	98.101943 
2252.000000	98.103217 
2251.000000	98.103325 
2250.000000	98.102559 
2249.000000	98.101227 
2248.000000	98.099940 
2247.000000	98.099193 
2246.000000	98.098874 
2245.000000	98.098534 
2244.000000	98.098017 
2243.000000	98.097448 
2242.000000	98.096870 
2241.000000	98.096248 
2240.000000	98.095668 
2239.000000	98.095255 
2238.000000	98.094911 
2237.000000	98.094351 
2236.000000	98.093465 
2235.000000	98.092476 
2234.000000	98.091731 
2233.000000	98.091382 
2232.000000	98.091334 
2231.000000	98.091316 
2230.000000	98.091021 
2229.000000	98.090295 
2228.000000	98.089202 
2227.000000	98.087956 
2226.000000	98.086732 
2225.000000	98.085590 
2224.000000	98.084737 
2223.000000	98.084455 
2222.000000	98.084682 
2221.000000	98.084990 
2220.000000	98.084971 
2219.000000	98.084585 
2218.000000	98.084029 
2217.000000	98.083504 
2216.000000	98.083117 
2215.000000	98.082887 
2214.000000	98.082721 
2213.000000	98.082424 
2212.000000	98.081839 
2211.000000	98.080995 
2210.000000	98.080117 
2209.000000	98.079488 
2208.000000	98.079340 
2207.000000	98.079650 
2206.000000	98.079831 
2205.000000	98.079105 
2204.000000	98.077864 
2203.000000	98.077874 
2202.000000	98.079876 
2201.000000	98.082326 
2200.000000	98.083285 
2199.000000	98.082033 
2198.000000	98.078709 
2197.000000	98.074137 
2196.000000	98.070528 
2195.000000	98.070116 
2194.000000	98.072482 
2193.000000	98.074655 
2192.000000	98.074007 
2191.000000	98.069963 
2190.000000	98.063599 
2189.000000	98.057085 
2188.000000	98.052514 
2187.000000	98.049851 
2186.000000	98.047609 
2185.000000	98.047069 
2184.000000	98.052846 
2183.000000	98.065954 
2182.000000	98.078944 
2181.000000	98.082906 
2180.000000	98.077690 
2179.000000	98.070339 
2178.000000	98.065364 
2177.000000	98.062269 
2176.000000	98.061172 
2175.000000	98.063732 
2174.000000	98.068105 
2173.000000	98.069514 
2172.000000	98.067258 
2171.000000	98.065376 
2170.000000	98.064952 
2169.000000	98.061446 
2168.000000	98.051885 
2167.000000	98.039795 
2166.000000	98.030208 
2165.000000	98.023831 
2164.000000	98.018875 
2163.000000	98.015759 
2162.000000	98.018265 
2161.000000	98.032518 
2160.000000	98.064127 
2159.000000	98.110763 
2158.000000	98.156824 
2157.000000	98.184382 
2156.000000	98.190505 
2155.000000	98.186547 
2154.000000	98.183126 
2153.000000	98.181379 
2152.000000	98.178765 
2151.000000	98.175794 
2150.000000	98.173947 
2149.000000	98.172425 
2148.000000	98.170843 
2147.000000	98.171909 
2146.000000	98.178444 
2145.000000	98.190167 
2144.000000	98.205224 
2143.000000	98.221807 
2142.000000	98.236120 
2141.000000	98.242120 
2140.000000	98.236717 
2139.000000	98.223991 
2138.000000	98.212496 
2137.000000	98.208654 
2136.000000	98.212881 
2135.000000	98.220623 
2134.000000	98.226376 
2133.000000	98.228181 
2132.000000	98.228820 
2131.000000	98.231570 
2130.000000	98.235089 
2129.000000	98.234196 
2128.000000	98.225704 
2127.000000	98.211958 
2126.000000	98.198738 
2125.000000	98.190711 
2124.000000	98.188538 
2123.000000	98.189057 
2122.000000	98.188157 
2121.000000	98.184369 
2120.000000	98.179371 
2119.000000	98.174657 
2118.000000	98.169430 
2117.000000	98.163105 
2116.000000	98.157733 
2115.000000	98.155369 
2114.000000	98.154743 
2113.000000	98.153609 
2112.000000	98.153385 
2111.000000	98.157119 
2110.000000	98.163505 
2109.000000	98.167335 
2108.000000	98.166120 
2107.000000	98.162391 
2106.000000	98.158953 
2105.000000	98.155512 
2104.000000	98.151036 
2103.000000	98.146305 
2102.000000	98.142542 
2101.000000	98.139769 
2100.000000	98.137714 
2099.000000	98.136776 
2098.000000	98.137579 
2097.000000	98.140904 
2096.000000	98.147765 
2095.000000	98.157415 
2094.000000	98.165617 
2093.000000	98.167769 
2092.000000	98.163543 
2091.000000	98.156570 
2090.000000	98.150170 
2089.000000	98.144641 
2088.000000	98.138878 
2087.000000	98.132664 
2086.000000	98.126876 
2085.000000	98.122748 
2084.000000	98.121329 
2083.000000	98.122705 
2082.000000	98.125392 
2081.000000	98.127312 
2080.000000	98.127579 
2079.000000	98.126447 
2078.000000	98.124042 
2077.000000	98.120536 
2076.000000	98.117206 
2075.000000	98.115509 
2074.000000	98.114997 
2073.000000	98.113723 
2072.000000	98.111016 
2071.000000	98.108456 
2070.000000	98.107629 
2069.000000	98.108193 
2068.000000	98.108656 
2067.000000	98.108071 
2066.000000	98.106492 
2065.000000	98.104810 
2064.000000	98.104461 
2063.000000	98.106131 
2062.000000	98.108415 
2061.000000	98.108769 
2060.000000	98.106142 
2059.000000	98.101800 
2058.000000	98.097812 
2057.000000	98.095706 
2056.000000	98.096181 
2055.000000	98.098313 
2054.000000	98.098913 
2053.000000	98.094711 
2052.000000	98.085543 
2051.000000	98.074637 
2050.000000	98.065717 
2049.000000	98.060598 
2048.000000	98.059848 
2047.000000	98.063527 
2046.000000	98.069920 
2045.000000	98.075322 
2044.000000	98.076994 
2043.000000	98.075200 
2042.000000	98.071841 
2041.000000	98.068668 
2040.000000	98.067115 
2039.000000	98.068053 
2038.000000	98.070852 
2037.000000	98.074032 
2036.000000	98.077232 
2035.000000	98.080934 
2034.000000	98.084369 
2033.000000	98.086143 
2032.000000	98.086876 
2031.000000	98.088278 
2030.000000	98.089592 
2029.000000	98.088367 
2028.000000	98.085062 
2027.000000	98.083158 
2026.000000	98.083668 
2025.000000	98.083258 
2024.000000	98.079595 
2023.000000	98.075335 
2022.000000	98.074464 
2021.000000	98.077140 
2020.000000	98.080322 
2019.000000	98.081842 
2018.000000	98.081562 
2017.000000	98.080082 
2016.000000	98.078778 
2015.000000	98.079880 
2014.000000	98.084484 
2013.000000	98.091038 
2012.000000	98.096427 
2011.000000	98.097847 
2010.000000	98.094060 
2009.000000	98.087171 
2008.000000	98.082358 
2007.000000	98.082621 
2006.000000	98.084994 
2005.000000	98.085248 
2004.000000	98.084461 
2003.000000	98.086001 
2002.000000	98.087876 
2001.000000	98.084768 
2000.000000	98.077223 
1999.000000	98.071582 
1998.000000	98.070170 
1997.000000	98.068531 
1996.000000	98.063742 
1995.000000	98.059035 
1994.000000	98.057394 
1993.000000	98.056053 
1992.000000	98.051362 
1991.000000	98.045120 
1990.000000	98.041534 
1989.000000	98.041287 
1988.000000	98.042032 
1987.000000	98.042110 
1986.000000	98.041481 
1985.000000	98.040785 
1984.000000	98.040884 
1983.000000	98.041329 
1982.000000	98.039024 
1981.000000	98.031756 
1980.000000	98.023460 
1979.000000	98.021728 
1978.000000	98.029353 
1977.000000	98.042379 
1976.000000	98.056514 
1975.000000	98.071059 
1974.000000	98.084735 
1973.000000	98.093407 
1972.000000	98.094766 
1971.000000	98.091105 
1970.000000	98.085676 
1969.000000	98.079505 
1968.000000	98.073591 
1967.000000	98.070792 
1966.000000	98.072686 
1965.000000	98.077147 
1964.000000	98.081219 
1963.000000	98.084572 
1962.000000	98.088591 
1961.000000	98.093568 
1960.000000	98.098016 
1959.000000	98.100011 
1958.000000	98.098777 
1957.000000	98.095885 
1956.000000	98.094761 
1955.000000	98.097536 
1954.000000	98.102486 
1953.000000	98.105615 
1952.000000	98.105100 
1951.000000	98.102757 
1950.000000	98.101464 
1949.000000	98.102363 
1948.000000	98.104949 
1947.000000	98.108215 
1946.000000	98.111085 
1945.000000	98.112890 
1944.000000	98.113871 
1943.000000	98.114714 
1942.000000	98.115578 
1941.000000	98.116185 
1940.000000	98.116619 
1939.000000	98.117242 
1938.000000	98.118095 
1937.000000	98.118932 
1936.000000	98.119624 
1935.000000	98.120191 
1934.000000	98.120668 
1933.000000	98.121060 
1932.000000	98.121370 
1931.000000	98.121624 
1930.000000	98.121847 
1929.000000	98.122037 
1928.000000	98.122203 
1927.000000	98.122380 
1926.000000	98.122582 
1925.000000	98.122738 
1924.000000	98.122781 
1923.000000	98.122845 
1922.000000	98.123116 
1921.000000	98.123484 
1920.000000	98.123619 
1919.000000	98.123383 
1918.000000	98.122932 
1917.000000	98.122478 
1916.000000	98.122257 
1915.000000	98.122492 
1914.000000	98.122970 
1913.000000	98.122981 
1912.000000	98.122261 
1911.000000	98.121575 
1910.000000	98.121433 
1909.000000	98.121251 
1908.000000	98.120500 
1907.000000	98.119480 
1906.000000	98.118525 
1905.000000	98.117348 
1904.000000	98.115904 
1903.000000	98.114798 
1902.000000	98.113999 
1901.000000	98.112745 
1900.000000	98.111129 
1899.000000	98.110267 
1898.000000	98.110478 
1897.000000	98.110470 
1896.000000	98.109196 
1895.000000	98.107458 
1894.000000	98.106435 
1893.000000	98.106012 
1892.000000	98.105629 
1891.000000	98.105342 
1890.000000	98.105319 
1889.000000	98.105376 
1888.000000	98.105739 
1887.000000	98.106839 
1886.000000	98.107886 
1885.000000	98.107121 
1884.000000	98.104195 
1883.000000	98.101161 
1882.000000	98.099989 
1881.000000	98.100811 
1880.000000	98.103041 
1879.000000	98.106142 
1878.000000	98.108880 
1877.000000	98.109657 
1876.000000	98.108701 
1875.000000	98.108372 
1874.000000	98.109822 
1873.000000	98.111178 
1872.000000	98.110687 
1871.000000	98.109192 
1870.000000	98.107689 
1869.000000	98.105294 
1868.000000	98.102713 
1867.000000	98.103090 
1866.000000	98.106791 
1865.000000	98.110926 
1864.000000	98.113992 
1863.000000	98.117575 
1862.000000	98.122186 
1861.000000	98.124843 
1860.000000	98.123705 
1859.000000	98.121886 
1858.000000	98.122931 
1857.000000	98.125706 
1856.000000	98.127242 
1855.000000	98.127706 
1854.000000	98.129346 
1853.000000	98.132980 
1852.000000	98.138133 
1851.000000	98.144207 
1850.000000	98.150204 
1849.000000	98.155241 
1848.000000	98.159923 
1847.000000	98.165726 
1846.000000	98.171902 
1845.000000	98.175305 
1844.000000	98.175307 
1843.000000	98.175180 
1842.000000	98.175830 
1841.000000	98.175375 
1840.000000	98.173270 
1839.000000	98.171171 
1838.000000	98.170907 
1837.000000	98.172173 
1836.000000	98.173965 
1835.000000	98.176500 
1834.000000	98.179851 
1833.000000	98.182713 
1832.000000	98.182982 
1831.000000	98.179647 
1830.000000	98.174978 
1829.000000	98.172758 
1828.000000	98.173563 
1827.000000	98.175685 
1826.000000	98.177617 
1825.000000	98.178377 
1824.000000	98.178465 
1823.000000	98.179861 
1822.000000	98.183243 
1821.000000	98.186734 
1820.000000	98.188558 
1819.000000	98.190153 
1818.000000	98.193477 
1817.000000	98.196226 
1816.000000	98.195235 
1815.000000	98.191949 
1814.000000	98.189876 
1813.000000	98.189205 
1812.000000	98.187675 
1811.000000	98.185897 
1810.000000	98.185858 
1809.000000	98.185768 
1808.000000	98.183498 
1807.000000	98.180656 
1806.000000	98.179095 
1805.000000	98.177645 
1804.000000	98.175239 
1803.000000	98.173819 
1802.000000	98.175181 
1801.000000	98.177575 
1800.000000	98.178300 
1799.000000	98.177935 
1798.000000	98.177845 
1797.000000	98.177360 
1796.000000	98.176462 
1795.000000	98.177182 
1794.000000	98.180459 
1793.000000	98.183641 
1792.000000	98.183989 
1791.000000	98.183690 
1790.000000	98.185125 
1789.000000	98.186836 
1788.000000	98.187106 
1787.000000	98.186788 
1786.000000	98.187602 
1785.000000	98.189306 
1784.000000	98.190599 
1783.000000	98.191230 
1782.000000	98.191666 
1781.000000	98.192345 
1780.000000	98.193544 
1779.000000	98.195386 
1778.000000	98.197384 
1777.000000	98.198658 
1776.000000	98.198949 
1775.000000	98.198640 
1774.000000	98.198313 
1773.000000	98.198563 
1772.000000	98.199585 
1771.000000	98.201355 
1770.000000	98.204172 
1769.000000	98.207962 
1768.000000	98.211440 
1767.000000	98.213397 
1766.000000	98.214005 
1765.000000	98.213919 
1764.000000	98.213096 
1763.000000	98.211424 
1762.000000	98.210281 
1761.000000	98.211233 
1760.000000	98.213515 
1759.000000	98.215696 
1758.000000	98.217498 
1757.000000	98.219414 
1756.000000	98.221360 
1755.000000	98.222669 
1754.000000	98.224060 
1753.000000	98.226893 
1752.000000	98.230113 
1751.000000	98.230387 
1750.000000	98.227003 
1749.000000	98.222905 
1748.000000	98.220353 
1747.000000	98.218800 
1746.000000	98.217617 
1745.000000	98.217547 
1744.000000	98.218475 
1743.000000	98.219251 
1742.000000	98.219732 
1741.000000	98.220558 
1740.000000	98.221490 
1739.000000	98.221981 
1738.000000	98.222256 
1737.000000	98.222676 
1736.000000	98.223291 
1735.000000	98.223935 
1734.000000	98.224533 
1733.000000	98.225142 
1732.000000	98.225367 
1731.000000	98.225227 
1730.000000	98.225338 
1729.000000	98.226058 
1728.000000	98.226960 
1727.000000	98.227315 
1726.000000	98.227001 
1725.000000	98.226466 
1724.000000	98.226057 
1723.000000	98.225935 
1722.000000	98.226125 
1721.000000	98.226424 
1720.000000	98.226595 
1719.000000	98.226606 
1718.000000	98.226573 
1717.000000	98.226262 
1716.000000	98.225684 
1715.000000	98.225291 
1714.000000	98.225138 
1713.000000	98.224976 
1712.000000	98.224709 
1711.000000	98.224393 
1710.000000	98.224064 
1709.000000	98.223710 
1708.000000	98.223325 
1707.000000	98.222921 
1706.000000	98.222495 
1705.000000	98.222035 
1704.000000	98.221536 
1703.000000	98.221003 
1702.000000	98.220435 
1701.000000	98.219819 
1700.000000	98.219133 
1699.000000	98.218376 
1698.000000	98.217558 
1697.000000	98.216680 
1696.000000	98.215738 
1695.000000	98.214729 
1694.000000	98.213653 
1693.000000	98.212514 
1692.000000	98.211321 
1691.000000	98.210087 
1690.000000	98.208821 
1689.000000	98.207521 
1688.000000	98.206189 
1687.000000	98.204823 
1686.000000	98.203423 
1685.000000	98.201955 
1684.000000	98.200401 
1683.000000	98.198899 
1682.000000	98.197453 
1681.000000	98.196028 
1680.000000	98.194714 
1679.000000	98.193529 
1678.000000	98.192352 
1677.000000	98.191149 
1676.000000	98.190071 
1675.000000	98.189117 
1674.000000	98.188060 
1673.000000	98.186819 
1672.000000	98.185414 
1671.000000	98.183792 
1670.000000	98.181823 
1669.000000	98.180078 
1668.000000	98.179350 
1667.000000	98.179220 
1666.000000	98.178832 
1665.000000	98.177788 
1664.000000	98.176213 
1663.000000	98.174698 
1662.000000	98.173489 
1661.000000	98.172563 
1660.000000	98.172254 
1659.000000	98.172117 
1658.000000	98.170975 
1657.000000	98.168790 
1656.000000	98.167012 
1655.000000	98.165723 
1654.000000	98.162570 
1653.000000	98.158493 
1652.000000	98.157671 
1651.000000	98.157466 
1650.000000	98.156976 
1649.000000	98.156634 
1648.000000	98.156524 
1647.000000	98.156564 
1646.000000	98.157392 
1645.000000	98.158143 
1644.000000	98.158358 
1643.000000	98.158935 
1642.000000	98.159979 
1641.000000	98.160980 
1640.000000	98.161904 
1639.000000	98.162779 
1638.000000	98.163426 
1637.000000	98.163764 
1636.000000	98.164303 
1635.000000	98.164795 
1634.000000	98.164449 
1633.000000	98.163780 
1632.000000	98.163800 
1631.000000	98.164513 
1630.000000	98.165149 
1629.000000	98.165317 
1628.000000	98.165450 
1627.000000	98.165896 
1626.000000	98.166442 
1625.000000	98.166948 
1624.000000	98.167547 
1623.000000	98.168262 
1622.000000	98.168967 
1621.000000	98.169663 
1620.000000	98.170388 
1619.000000	98.171133 
1618.000000	98.171894 
1617.000000	98.172674 
1616.000000	98.173486 
1615.000000	98.174333 
1614.000000	98.175209 
1613.000000	98.176114 
1612.000000	98.177052 
1611.000000	98.178016 
1610.000000	98.178988 
1609.000000	98.179961 
1608.000000	98.180946 
1607.000000	98.181945 
1606.000000	98.182953 
1605.000000	98.183966 
1604.000000	98.184988 
1603.000000	98.186020 
1602.000000	98.187067 
1601.000000	98.188136 
1600.000000	98.189226 
1599.000000	98.190382 
1598.000000	98.191472 
1597.000000	98.192091 
1596.000000	98.192588 
1595.000000	98.193674 
1594.000000	98.194904 
1593.000000	98.195523 
1592.000000	98.196153 
1591.000000	98.197413 
1590.000000	98.198313 
1589.000000	98.198460 
1588.000000	98.199616 
1587.000000	98.202543 
1586.000000	98.204973 
1585.000000	98.205534 
1584.000000	98.206569 
1583.000000	98.209396 
1582.000000	98.211447 
1581.000000	98.211606 
1580.000000	98.212208 
1579.000000	98.213413 
1578.000000	98.212022 
1577.000000	98.208430 
1576.000000	98.209509 
1575.000000	98.215210 
1574.000000	98.216804 
1573.000000	98.213707 
1572.000000	98.211165 
1571.000000	98.211663 
1570.000000	98.213344 
1569.000000	98.217407 
1568.000000	98.225754 
1567.000000	98.232443 
1566.000000	98.232383 
1565.000000	98.228128 
1564.000000	98.225502 
1563.000000	98.224753 
1562.000000	98.222661 
1561.000000	98.222394 
1560.000000	98.230223 
1559.000000	98.237176 
1558.000000	98.231307 
1557.000000	98.217014 
1556.000000	98.206391 
1555.000000	98.202332 
1554.000000	98.199500 
1553.000000	98.194679 
1552.000000	98.188607 
1551.000000	98.183326 
1550.000000	98.180319 
1549.000000	98.179416 
1548.000000	98.179055 
1547.000000	98.176787 
1546.000000	98.169691 
1545.000000	98.156615 
1544.000000	98.142256 
1543.000000	98.133193 
1542.000000	98.129466 
1541.000000	98.123209 
1540.000000	98.115072 
1539.000000	98.113121 
1538.000000	98.109546 
1537.000000	98.098836 
1536.000000	98.084734 
1535.000000	98.071134 
1534.000000	98.057572 
1533.000000	98.043789 
1532.000000	98.032142 
1531.000000	98.024595 
1530.000000	98.018583 
1529.000000	98.008019 
1528.000000	97.991470 
1527.000000	97.974826 
1526.000000	97.963095 
1525.000000	97.953275 
1524.000000	97.940851 
1523.000000	97.926202 
1522.000000	97.911456 
1521.000000	97.896979 
1520.000000	97.882358 
1519.000000	97.867793 
1518.000000	97.854110 
1517.000000	97.841385 
1516.000000	97.829938 
1515.000000	97.820133 
1514.000000	97.811536 
1513.000000	97.802039 
1512.000000	97.788135 
1511.000000	97.770477 
1510.000000	97.753393 
1509.000000	97.738047 
1508.000000	97.721089 
1507.000000	97.704481 
1506.000000	97.693637 
1505.000000	97.681361 
1504.000000	97.664662 
1503.000000	97.647075 
1502.000000	97.630414 
1501.000000	97.613870 
1500.000000	97.595603 
1499.000000	97.576135 
1498.000000	97.559746 
1497.000000	97.548105 
1496.000000	97.537010 
1495.000000	97.524879 
1494.000000	97.514449 
1493.000000	97.505568 
1492.000000	97.493773 
1491.000000	97.475186 
1490.000000	97.451887 
1489.000000	97.428082 
1488.000000	97.405278 
1487.000000	97.387240 
1486.000000	97.374184 
1485.000000	97.361084 
1484.000000	97.346503 
1483.000000	97.332140 
1482.000000	97.318996 
1481.000000	97.305086 
1480.000000	97.289318 
1479.000000	97.274699 
1478.000000	97.263027 
1477.000000	97.250601 
1476.000000	97.234576 
1475.000000	97.220250 
1474.000000	97.209014 
1473.000000	97.193248 
1472.000000	97.169467 
1471.000000	97.146960 
1470.000000	97.131679 
1469.000000	97.119340 
1468.000000	97.104246 
1467.000000	97.087899 
1466.000000	97.074788 
1465.000000	97.064196 
1464.000000	97.053154 
1463.000000	97.041386 
1462.000000	97.031298 
1461.000000	97.021749 
1460.000000	97.008692 
1459.000000	96.989216 
1458.000000	96.968758 
1457.000000	96.958085 
1456.000000	96.952481 
1455.000000	96.940332 
1454.000000	96.926074 
1453.000000	96.916108 
1452.000000	96.909572 
1451.000000	96.904301 
1450.000000	96.902948 
1449.000000	96.906753 
1448.000000	96.910054 
1447.000000	96.909462 
1446.000000	96.907893 
1445.000000	96.908884 
1444.000000	96.911677 
1443.000000	96.913245 
1442.000000	96.914571 
1441.000000	96.918681 
1440.000000	96.923568 
1439.000000	96.923817 
1438.000000	96.921464 
1437.000000	96.923570 
1436.000000	96.930640 
1435.000000	96.936960 
1434.000000	96.942388 
1433.000000	96.948041 
1432.000000	96.951788 
1431.000000	96.950523 
1430.000000	96.948060 
1429.000000	96.950688 
1428.000000	96.956036 
1427.000000	96.958031 
1426.000000	96.955850 
1425.000000	96.955856 
1424.000000	96.960859 
1423.000000	96.964850 
1422.000000	96.965294 
1421.000000	96.966128 
1420.000000	96.967659 
1419.000000	96.964744 
1418.000000	96.961846 
1417.000000	96.964174 
1416.000000	96.966465 
1415.000000	96.963666 
1414.000000	96.957286 
1413.000000	96.952730 
1412.000000	96.951905 
1411.000000	96.952885 
1410.000000	96.956917 
1409.000000	96.966239 
1408.000000	96.978240 
1407.000000	96.990044 
1406.000000	97.003734 
1405.000000	97.025112 
1404.000000	97.054145 
1403.000000	97.083733 
1402.000000	97.110812 
1401.000000	97.137553 
1400.000000	97.164275 
1399.000000	97.185865 
1398.000000	97.197319 
1397.000000	97.197234 
1396.000000	97.187957 
1395.000000	97.179204 
1394.000000	97.186849 
1393.000000	97.219496 
1392.000000	97.267760 
1391.000000	97.314367 
1390.000000	97.349161 
1389.000000	97.372165 
1388.000000	97.387645 
1387.000000	97.399380 
1386.000000	97.410289 
1385.000000	97.422969 
1384.000000	97.438213 
1383.000000	97.454405 
1382.000000	97.470493 
1381.000000	97.487387 
1380.000000	97.506469 
1379.000000	97.527164 
1378.000000	97.547463 
1377.000000	97.566848 
1376.000000	97.586671 
1375.000000	97.607954 
1374.000000	97.630711 
1373.000000	97.654902 
1372.000000	97.679339 
1371.000000	97.701972 
1370.000000	97.721474 
1369.000000	97.740305 
1368.000000	97.761507 
1367.000000	97.783415 
1366.000000	97.801959 
1365.000000	97.816019 
1364.000000	97.828361 
1363.000000	97.842937 
1362.000000	97.861411 
1361.000000	97.882322 
1360.000000	97.903415 
1359.000000	97.923204 
1358.000000	97.940949 
1357.000000	97.957455 
1356.000000	97.973885 
1355.000000	97.989774 
1354.000000	98.004008 
1353.000000	98.016892 
1352.000000	98.030003 
1351.000000	98.044421 
1350.000000	98.057656 
1349.000000	98.068525 
1348.000000	98.077611 
1347.000000	98.084937 
1346.000000	98.090918 
1345.000000	98.098137 
1344.000000	98.108134 
1343.000000	98.117711 
1342.000000	98.121991 
1341.000000	98.121126 
1340.000000	98.120736 
1339.000000	98.124900 
1338.000000	98.132712 
1337.000000	98.142255 
1336.000000	98.152618 
1335.000000	98.162337 
1334.000000	98.170088 
1333.000000	98.176855 
1332.000000	98.184128 
1331.000000	98.190202 
1330.000000	98.191753 
1329.000000	98.189454 
1328.000000	98.187486 
1327.000000	98.187529 
1326.000000	98.187241 
1325.000000	98.186608 
1324.000000	98.188421 
1323.000000	98.192749 
1322.000000	98.196065 
1321.000000	98.196155 
1320.000000	98.194291 
1319.000000	98.192747 
1318.000000	98.193075 
1317.000000	98.196119 
1316.000000	98.201425 
1315.000000	98.206958 
1314.000000	98.211488 
1313.000000	98.216113 
1312.000000	98.221668 
1311.000000	98.226353 
1310.000000	98.228287 
1309.000000	98.228674 
1308.000000	98.229799 
1307.000000	98.231461 
1306.000000	98.231327 
1305.000000	98.229373 
1304.000000	98.227520 
1303.000000	98.226420 
1302.000000	98.225301 
1301.000000	98.224332 
1300.000000	98.224455 
1299.000000	98.225631 
1298.000000	98.227343 
1297.000000	98.229779 
1296.000000	98.232864 
1295.000000	98.234796 
1294.000000	98.233931 
1293.000000	98.231253 
1292.000000	98.229125 
1291.000000	98.228346 
1290.000000	98.227758 
1289.000000	98.225864 
1288.000000	98.221693 
1287.000000	98.215135 
1286.000000	98.207782 
1285.000000	98.202381 
1284.000000	98.200323 
1283.000000	98.200704 
1282.000000	98.202006 
1281.000000	98.203109 
1280.000000	98.202753 
1279.000000	98.199661 
1278.000000	98.194553 
1277.000000	98.190053 
1276.000000	98.187494 
1275.000000	98.185181 
1274.000000	98.181120 
1273.000000	98.175675 
1272.000000	98.170109 
1271.000000	98.164305 
1270.000000	98.157542 
1269.000000	98.149967 
1268.000000	98.141654 
1267.000000	98.131838 
1266.000000	98.120906 
1265.000000	98.110855 
1264.000000	98.102395 
1263.000000	98.093914 
1262.000000	98.084551 
1261.000000	98.075646 
1260.000000	98.067657 
1259.000000	98.058042 
1258.000000	98.045209 
1257.000000	98.031748 
1256.000000	98.021122 
1255.000000	98.012980 
1254.000000	98.004090 
1253.000000	97.992434 
1252.000000	97.978725 
1251.000000	97.965334 
1250.000000	97.955451 
1249.000000	97.951577 
1248.000000	97.952999 
1247.000000	97.955681 
1246.000000	97.955525 
1245.000000	97.949702 
1244.000000	97.935671 
1243.000000	97.913890 
1242.000000	97.892423 
1241.000000	97.882677 
1240.000000	97.886698 
1239.000000	97.892845 
1238.000000	97.887947 
1237.000000	97.870271 
1236.000000	97.846997 
1235.000000	97.822997 
1234.000000	97.797419 
1233.000000	97.769491 
1232.000000	97.741817 
1231.000000	97.717347 
1230.000000	97.696383 
1229.000000	97.676646 
1228.000000	97.654127 
1227.000000	97.624764 
1226.000000	97.587750 
1225.000000	97.546717 
1224.000000	97.505669 
1223.000000	97.464388 
1222.000000	97.419538 
1221.000000	97.369081 
1220.000000	97.313494 
1219.000000	97.253622 
1218.000000	97.189700 
1217.000000	97.121926 
1216.000000	97.050236 
1215.000000	96.974060 
1214.000000	96.893660 
1213.000000	96.810848 
1212.000000	96.726816 
1211.000000	96.640261 
1210.000000	96.549085 
1209.000000	96.453248 
1208.000000	96.354893 
1207.000000	96.256672 
1206.000000	96.160947 
1205.000000	96.069112 
1204.000000	95.979925 
1203.000000	95.889476 
1202.000000	95.794991 
1201.000000	95.698351 
1200.000000	95.603928 
1199.000000	95.513226 
1198.000000	95.424113 
1197.000000	95.335236 
1196.000000	95.248053 
1195.000000	95.163373 
1194.000000	95.078405 
1193.000000	94.989476 
1192.000000	94.896168 
1191.000000	94.800895 
1190.000000	94.705556 
1189.000000	94.610400 
1188.000000	94.515123 
1187.000000	94.418970 
1186.000000	94.320347 
1185.000000	94.218402 
1184.000000	94.114790 
1183.000000	94.011898 
1182.000000	93.909151 
1181.000000	93.802971 
1180.000000	93.690781 
1179.000000	93.573365 
1178.000000	93.452913 
1177.000000	93.330218 
1176.000000	93.204066 
1175.000000	93.072145 
1174.000000	92.932474 
1173.000000	92.785628 
1172.000000	92.635581 
1171.000000	92.486831 
1170.000000	92.340607 
1169.000000	92.195449 
1168.000000	92.051590 
1167.000000	91.913567 
1166.000000	91.789466 
1165.000000	91.689809 
1164.000000	91.626016 
1163.000000	91.605825 
1162.000000	91.628137 
1161.000000	91.682580 
1160.000000	91.752545 
1159.000000	91.817466 
1158.000000	91.856749 
1157.000000	91.857290 
1156.000000	91.817761 
1155.000000	91.744798 
1154.000000	91.646971 
1153.000000	91.533384 
1152.000000	91.413911 
1151.000000	91.295406 
1150.000000	91.177953 
1149.000000	91.058568 
1148.000000	90.937930 
1147.000000	90.819966 
1146.000000	90.705857 
1145.000000	90.592689 
1144.000000	90.477649 
1143.000000	90.359661 
1142.000000	90.237795 
1141.000000	90.112366 
1140.000000	89.987128 
1139.000000	89.866128 
1138.000000	89.748591 
1137.000000	89.630538 
1136.000000	89.510511 
1135.000000	89.389762 
1134.000000	89.268363 
1133.000000	89.145716 
1132.000000	89.023264 
1131.000000	88.901667 
1130.000000	88.777337 
1129.000000	88.647657 
1128.000000	88.517471 
1127.000000	88.393462 
1126.000000	88.273682 
1125.000000	88.150358 
1124.000000	88.021904 
1123.000000	87.893701 
1122.000000	87.767582 
1121.000000	87.639754 
1120.000000	87.509861 
1119.000000	87.382733 
1118.000000	87.259382 
1117.000000	87.134940 
1116.000000	87.007401 
1115.000000	86.880323 
1114.000000	86.755189 
1113.000000	86.629129 
1112.000000	86.501728 
1111.000000	86.375943 
1110.000000	86.251690 
1109.000000	86.126741 
1108.000000	86.002815 
1107.000000	85.883200 
1106.000000	85.765191 
1105.000000	85.644158 
1104.000000	85.524315 
1103.000000	85.414785 
1102.000000	85.315114 
1101.000000	85.215988 
1100.000000	85.113468 
1099.000000	85.014272 
1098.000000	84.921970 
1097.000000	84.832221 
1096.000000	84.742725 
1095.000000	84.656995 
1094.000000	84.575218 
1093.000000	84.491532 
1092.000000	84.403759 
1091.000000	84.317110 
1090.000000	84.236047 
1089.000000	84.161061 
1088.000000	84.094584 
1087.000000	84.040511 
1086.000000	83.996435 
1085.000000	83.955551 
1084.000000	83.917014 
1083.000000	83.885323 
1082.000000	83.860044 
1081.000000	83.836635 
1080.000000	83.816917 
1079.000000	83.807416 
1078.000000	83.807375 
1077.000000	83.809986 
1076.000000	83.815099 
1075.000000	83.827967 
1074.000000	83.845006 
1073.000000	83.853309 
1072.000000	83.843753 
1071.000000	83.810804 
1070.000000	83.740490 
1069.000000	83.616700 
1068.000000	83.445489 
1067.000000	83.260738 
1066.000000	83.096713 
1065.000000	82.961327 
1064.000000	82.841137 
1063.000000	82.719997 
1062.000000	82.585944 
1061.000000	82.432832 
1060.000000	82.266824 
1059.000000	82.106515 
1058.000000	81.969362 
1057.000000	81.859860 
1056.000000	81.771058 
1055.000000	81.690330 
1054.000000	81.603693 
1053.000000	81.505190 
1052.000000	81.405163 
1051.000000	81.319812 
1050.000000	81.250198 
1049.000000	81.181991 
1048.000000	81.106412 
1047.000000	81.028355 
1046.000000	80.953653 
1045.000000	80.882004 
1044.000000	80.813253 
1043.000000	80.748059 
1042.000000	80.680778 
1041.000000	80.603059 
1040.000000	80.517050 
1039.000000	80.435879 
1038.000000	80.369996 
1037.000000	80.321617 
1036.000000	80.291281 
1035.000000	80.278789 
1034.000000	80.277706 
1033.000000	80.278941 
1032.000000	80.278692 
1031.000000	80.274251 
1030.000000	80.257826 
1029.000000	80.228666 
1028.000000	80.207094 
1027.000000	80.218723 
1026.000000	80.263725 
1025.000000	80.316434 
1024.000000	80.355703 
1023.000000	80.380670 
1022.000000	80.397462 
1021.000000	80.408378 
1020.000000	80.417271 
1019.000000	80.429961 
1018.000000	80.444390 
1017.000000	80.452482 
1016.000000	80.454661 
1015.000000	80.460677 
1014.000000	80.474336 
1013.000000	80.490004 
1012.000000	80.505899 
1011.000000	80.527723 
1010.000000	80.556707 
1009.000000	80.586762 
1008.000000	80.616405 
1007.000000	80.651865 
1006.000000	80.695954 
1005.000000	80.744949 
1004.000000	80.798277 
1003.000000	80.860145 
1002.000000	80.929647 
1001.000000	80.999995 
1000.000000	81.069137 
999.000000	 81.141028 
998.000000	 81.215831 
997.000000	 81.289623 
996.000000	 81.364333 
995.000000	 81.446861 
994.000000	 81.537477 
993.000000	 81.629825 
992.000000	 81.723105 
991.000000	 81.823671 
990.000000	 81.933883 
989.000000	 82.049484 
988.000000	 82.168178 
987.000000	 82.290954 
986.000000	 82.415435 
985.000000	 82.538212 
984.000000	 82.663059 
983.000000	 82.796550 
982.000000	 82.937378 
981.000000	 83.080325 
980.000000	 83.228426 
979.000000	 83.389554 
978.000000	 83.562309 
977.000000	 83.737371 
976.000000	 83.912194 
975.000000	 84.092226 
974.000000	 84.277952 
973.000000	 84.463152 
972.000000	 84.646672 
971.000000	 84.834260 
970.000000	 85.027497 
969.000000	 85.221384 
968.000000	 85.413853 
967.000000	 85.607746 
966.000000	 85.802611 
965.000000	 85.993949 
964.000000	 86.181179 
963.000000	 86.367497 
962.000000	 86.551757 
961.000000	 86.729136 
960.000000	 86.899591 
959.000000	 87.067238 
958.000000	 87.232139 
957.000000	 87.391526 
956.000000	 87.548235 
955.000000	 87.708356 
954.000000	 87.870228 
953.000000	 88.024983 
952.000000	 88.168728 
951.000000	 88.305903 
950.000000	 88.440314 
949.000000	 88.570898 
948.000000	 88.697166 
947.000000	 88.821330 
946.000000	 88.943882 
945.000000	 89.063047 
944.000000	 89.178866 
943.000000	 89.292477 
942.000000	 89.402493 
941.000000	 89.507650 
940.000000	 89.611078 
939.000000	 89.715989 
938.000000	 89.819813 
937.000000	 89.919480 
936.000000	 90.019362 
935.000000	 90.126156 
934.000000	 90.238467 
933.000000	 90.349868 
932.000000	 90.459671 
931.000000	 90.571564 
930.000000	 90.683464 
929.000000	 90.788464 
928.000000	 90.885387 
927.000000	 90.979638 
926.000000	 91.073705 
925.000000	 91.164870 
924.000000	 91.252185 
923.000000	 91.337625 
922.000000	 91.420044 
921.000000	 91.495576 
920.000000	 91.564553 
919.000000	 91.631500 
918.000000	 91.698560 
917.000000	 91.765232 
916.000000	 91.833429 
915.000000	 91.905318 
914.000000	 91.977061 
913.000000	 92.043266 
912.000000	 92.108306 
911.000000	 92.185010 
910.000000	 92.280208 
909.000000	 92.388354 
908.000000	 92.500752 
907.000000	 92.614281 
906.000000	 92.728994 
905.000000	 92.843652 
904.000000	 92.957390 
903.000000	 93.072349 
902.000000	 93.192027 
901.000000	 93.318037 
900.000000	 93.447893 
899.000000	 93.574848 
898.000000	 93.692052 
897.000000	 93.800132 
896.000000	 93.907150 
895.000000	 94.018307 
894.000000	 94.129784 
893.000000	 94.236729 
892.000000	 94.341857 
891.000000	 94.449351 
890.000000	 94.553843 
889.000000	 94.642741 
888.000000	 94.707486 
887.000000	 94.747122 
886.000000	 94.764447 
885.000000	 94.765373 
884.000000	 94.759195 
883.000000	 94.751624 
882.000000	 94.739203 
881.000000	 94.718755 
880.000000	 94.700770 
879.000000	 94.703502 
878.000000	 94.733185 
877.000000	 94.779958 
876.000000	 94.835061 
875.000000	 94.902846 
874.000000	 94.993445 
873.000000	 95.112152 
872.000000	 95.257977 
871.000000	 95.423719 
870.000000	 95.594581 
869.000000	 95.754552 
868.000000	 95.897954 
867.000000	 96.030576 
866.000000	 96.158890 
865.000000	 96.283119 
864.000000	 96.401301 
863.000000	 96.514011 
862.000000	 96.622651 
861.000000	 96.727765 
860.000000	 96.831546 
859.000000	 96.938034 
858.000000	 97.047560 
857.000000	 97.153324 
856.000000	 97.246544 
855.000000	 97.324640 
854.000000	 97.393070 
853.000000	 97.459054 
852.000000	 97.524028 
851.000000	 97.583110 
850.000000	 97.632759 
849.000000	 97.677783 
848.000000	 97.727824 
847.000000	 97.786610 
846.000000	 97.848171 
845.000000	 97.904826 
844.000000	 97.954519 
843.000000	 97.997656 
842.000000	 98.031589 
841.000000	 98.053589 
840.000000	 98.067119 
839.000000	 98.080192 
838.000000	 98.097548 
837.000000	 98.117020 
836.000000	 98.132782 
835.000000	 98.140207 
834.000000	 98.139665 
833.000000	 98.138216 
832.000000	 98.145136 
831.000000	 98.162239 
830.000000	 98.180630 
829.000000	 98.191126 
828.000000	 98.195849 
827.000000	 98.204601 
826.000000	 98.221619 
825.000000	 98.241906 
824.000000	 98.259211 
823.000000	 98.269688 
822.000000	 98.267581 
821.000000	 98.245989 
820.000000	 98.204898 
819.000000	 98.153272 
818.000000	 98.100440 
817.000000	 98.047180 
816.000000	 97.984732 
815.000000	 97.898613 
814.000000	 97.772521 
813.000000	 97.592308 
812.000000	 97.349442 
811.000000	 97.040903 
810.000000	 96.665677 
809.000000	 96.222966 
808.000000	 95.714446 
807.000000	 95.146038 
806.000000	 94.526452 
805.000000	 93.868531 
804.000000	 93.195771 
803.000000	 92.543107 
802.000000	 91.945955 
801.000000	 91.430876 
800.000000	 91.018104 
799.000000	 90.723782 
798.000000	 90.553196 
797.000000	 90.497403 
796.000000	 90.539150 
795.000000	 90.655585 
794.000000	 90.816132 
793.000000	 90.988941 
792.000000	 91.152840 
791.000000	 91.297223 
790.000000	 91.411156 
789.000000	 91.479676 
788.000000	 91.489802 
787.000000	 91.433365 
786.000000	 91.305508 
785.000000	 91.108829 
784.000000	 90.860138 
783.000000	 90.586819 
782.000000	 90.315526 
781.000000	 90.069320 
780.000000	 89.873216 
779.000000	 89.751500 
778.000000	 89.717028 
777.000000	 89.770562 
776.000000	 89.909082 
775.000000	 90.123769 
774.000000	 90.390833 
773.000000	 90.677486 
772.000000	 90.960214 
771.000000	 91.230330 
770.000000	 91.484111 
769.000000	 91.717189 
768.000000	 91.927868 
767.000000	 92.117451 
766.000000	 92.287375 
765.000000	 92.442052 
764.000000	 92.591774 
763.000000	 92.745354 
762.000000	 92.901853 
761.000000	 93.056081 
760.000000	 93.208675 
759.000000	 93.363042 
758.000000	 93.516601 
757.000000	 93.664120 
756.000000	 93.806080 
755.000000	 93.944532 
754.000000	 94.074706 
753.000000	 94.191127 
752.000000	 94.298596 
751.000000	 94.406250 
750.000000	 94.512706 
749.000000	 94.607854 
748.000000	 94.688543 
747.000000	 94.762380 
746.000000	 94.836320 
745.000000	 94.911389 
744.000000	 94.989355 
743.000000	 95.075137 
742.000000	 95.170971 
741.000000	 95.275319 
740.000000	 95.386906 
739.000000	 95.502198 
738.000000	 95.610739 
737.000000	 95.702493 
736.000000	 95.779302 
735.000000	 95.850403 
734.000000	 95.917772 
733.000000	 95.974635 
732.000000	 96.017058 
731.000000	 96.048660 
730.000000	 96.074939 
729.000000	 96.101411 
728.000000	 96.135027 
727.000000	 96.178838 
726.000000	 96.227065 
725.000000	 96.272472 
724.000000	 96.317565 
723.000000	 96.371109 
722.000000	 96.434939 
721.000000	 96.502102 
720.000000	 96.567165 
719.000000	 96.629870 
718.000000	 96.688247 
717.000000	 96.736928 
716.000000	 96.775001 
715.000000	 96.809430 
714.000000	 96.848854 
713.000000	 96.898355 
712.000000	 96.959575 
711.000000	 97.030876 
710.000000	 97.107373 
709.000000	 97.184661 
708.000000	 97.259329 
707.000000	 97.321377 
706.000000	 97.353840 
705.000000	 97.346314 
704.000000	 97.302795 
703.000000	 97.228034 
702.000000	 97.109506 
701.000000	 96.924005 
700.000000	 96.662888 
699.000000	 96.341234 
698.000000	 95.988602 
697.000000	 95.645306 
696.000000	 95.365144 
695.000000	 95.202027 
694.000000	 95.179547 
693.000000	 95.279530 
692.000000	 95.462321 
691.000000	 95.689060 
690.000000	 95.928638 
689.000000	 96.157833 
688.000000	 96.364258 
687.000000	 96.546023 
686.000000	 96.702283 
685.000000	 96.831133 
684.000000	 96.939284 
683.000000	 97.040483 
682.000000	 97.139869 
681.000000	 97.228940 
680.000000	 97.300777 
679.000000	 97.360667 
678.000000	 97.416663 
677.000000	 97.472354 
676.000000	 97.527093 
675.000000	 97.576227 
674.000000	 97.613966 
673.000000	 97.640139 
672.000000	 97.659645 
671.000000	 97.673762 
670.000000	 97.679183 
669.000000	 97.681155 
668.000000	 97.714710 
667.000000	 97.804836 
666.000000	 97.907558 
665.000000	 97.992010 
664.000000	 98.065758 
663.000000	 98.136076 
662.000000	 98.194961 
661.000000	 98.234923 
660.000000	 98.264015 
659.000000	 98.293605 
658.000000	 98.321276 
657.000000	 98.338613 
656.000000	 98.341010 
655.000000	 98.324008 
654.000000	 98.284543 
653.000000	 98.228812 
652.000000	 98.171856 
651.000000	 98.132754 
650.000000	 98.129770 

