4000.000000	97.800958 
3999.000000	97.796690 
3998.000000	97.789872 
3997.000000	97.783412 
3996.000000	97.779392 
3995.000000	97.778321 
3994.000000	97.779741 
3993.000000	97.782749 
3992.000000	97.786197 
3991.000000	97.788928 
3990.000000	97.790395 
3989.000000	97.790927 
3988.000000	97.791046 
3987.000000	97.790903 
3986.000000	97.790628 
3985.000000	97.790762 
3984.000000	97.791821 
3983.000000	97.793643 
3982.000000	97.795614 
3981.000000	97.797257 
3980.000000	97.798148 
3979.000000	97.797792 
3978.000000	97.796246 
3977.000000	97.794623 
3976.000000	97.794219 
3975.000000	97.794971 
3974.000000	97.795415 
3973.000000	97.794315 
3972.000000	97.791787 
3971.000000	97.788941 
3970.000000	97.786863 
3969.000000	97.786136 
3968.000000	97.786894 
3967.000000	97.788708 
3966.000000	97.790707 
3965.000000	97.791985 
3964.000000	97.791908 
3963.000000	97.790351 
3962.000000	97.787941 
3961.000000	97.785822 
3960.000000	97.784692 
3959.000000	97.784283 
3958.000000	97.783896 
3957.000000	97.783351 
3956.000000	97.782959 
3955.000000	97.782679 
3954.000000	97.782109 
3953.000000	97.781026 
3952.000000	97.779655 
3951.000000	97.778352 
3950.000000	97.777222 
3949.000000	97.776246 
3948.000000	97.775410 
3947.000000	97.774789 
3946.000000	97.774552 
3945.000000	97.774791 
3944.000000	97.775181 
3943.000000	97.775028 
3942.000000	97.774257 
3941.000000	97.773708 
3940.000000	97.774094 
3939.000000	97.775031 
3938.000000	97.775285 
3937.000000	97.774106 
3936.000000	97.771863 
3935.000000	97.769228 
3934.000000	97.766734 
3933.000000	97.764856 
3932.000000	97.764119 
3931.000000	97.764320 
3930.000000	97.764549 
3929.000000	97.764762 
3928.000000	97.765939 
3927.000000	97.768427 
3926.000000	97.770633 
3925.000000	97.770382 
3924.000000	97.767858 
3923.000000	97.765336 
3922.000000	97.763916 
3921.000000	97.762750 
3920.000000	97.760960 
3919.000000	97.758954 
3918.000000	97.757313 
3917.000000	97.755916 
3916.000000	97.754939 
3915.000000	97.755190 
3914.000000	97.756855 
3913.000000	97.758870 
3912.000000	97.760048 
3911.000000	97.760528 
3910.000000	97.760831 
3909.000000	97.760954 
3908.000000	97.760772 
3907.000000	97.759941 
3906.000000	97.757799 
3905.000000	97.752733 
3904.000000	97.743992 
3903.000000	97.734062 
3902.000000	97.727112 
3901.000000	97.725209 
3900.000000	97.727270 
3899.000000	97.730864 
3898.000000	97.734847 
3897.000000	97.738879 
3896.000000	97.742024 
3895.000000	97.743797 
3894.000000	97.744626 
3893.000000	97.745147 
3892.000000	97.744740 
3891.000000	97.742249 
3890.000000	97.738273 
3889.000000	97.734506 
3888.000000	97.732088 
3887.000000	97.730865 
3886.000000	97.730327 
3885.000000	97.730398 
3884.000000	97.730870 
3883.000000	97.730780 
3882.000000	97.729590 
3881.000000	97.728121 
3880.000000	97.727685 
3879.000000	97.728301 
3878.000000	97.728957 
3877.000000	97.729056 
3876.000000	97.728847 
3875.000000	97.728391 
3874.000000	97.727387 
3873.000000	97.725964 
3872.000000	97.724674 
3871.000000	97.723542 
3870.000000	97.722300 
3869.000000	97.721593 
3868.000000	97.722046 
3867.000000	97.723045 
3866.000000	97.723473 
3865.000000	97.723115 
3864.000000	97.722791 
3863.000000	97.722943 
3862.000000	97.722965 
3861.000000	97.722716 
3860.000000	97.722895 
3859.000000	97.723882 
3858.000000	97.725143 
3857.000000	97.725769 
3856.000000	97.725317 
3855.000000	97.723707 
3854.000000	97.720754 
3853.000000	97.717403 
3852.000000	97.715513 
3851.000000	97.715566 
3850.000000	97.716658 
3849.000000	97.718034 
3848.000000	97.719629 
3847.000000	97.721520 
3846.000000	97.723093 
3845.000000	97.723555 
3844.000000	97.722907 
3843.000000	97.721798 
3842.000000	97.720744 
3841.000000	97.719970 
3840.000000	97.719323 
3839.000000	97.718747 
3838.000000	97.718616 
3837.000000	97.719066 
3836.000000	97.719858 
3835.000000	97.720673 
3834.000000	97.721333 
3833.000000	97.721814 
3832.000000	97.722096 
3831.000000	97.722346 
3830.000000	97.722899 
3829.000000	97.723884 
3828.000000	97.725275 
3827.000000	97.726851 
3826.000000	97.727955 
3825.000000	97.728130 
3824.000000	97.727352 
3823.000000	97.726047 
3822.000000	97.724696 
3821.000000	97.723445 
3820.000000	97.722798 
3819.000000	97.722847 
3818.000000	97.722778 
3817.000000	97.722289 
3816.000000	97.722775 
3815.000000	97.726019 
3814.000000	97.731304 
3813.000000	97.735372 
3812.000000	97.736177 
3811.000000	97.735443 
3810.000000	97.736096 
3809.000000	97.738343 
3808.000000	97.739457 
3807.000000	97.737650 
3806.000000	97.734390 
3805.000000	97.731824 
3804.000000	97.729521 
3803.000000	97.727043 
3802.000000	97.725097 
3801.000000	97.724864 
3800.000000	97.726711 
3799.000000	97.727823 
3798.000000	97.725825 
3797.000000	97.723258 
3796.000000	97.724979 
3795.000000	97.732188 
3794.000000	97.740731 
3793.000000	97.746024 
3792.000000	97.747988 
3791.000000	97.750046 
3790.000000	97.753548 
3789.000000	97.756114 
3788.000000	97.755902 
3787.000000	97.754112 
3786.000000	97.752859 
3785.000000	97.752412 
3784.000000	97.751789 
3783.000000	97.750935 
3782.000000	97.750124 
3781.000000	97.749058 
3780.000000	97.747752 
3779.000000	97.747507 
3778.000000	97.749032 
3777.000000	97.750917 
3776.000000	97.750886 
3775.000000	97.748342 
3774.000000	97.744789 
3773.000000	97.741768 
3772.000000	97.739161 
3771.000000	97.735445 
3770.000000	97.730170 
3769.000000	97.725298 
3768.000000	97.722200 
3767.000000	97.719711 
3766.000000	97.717057 
3765.000000	97.715685 
3764.000000	97.717881 
3763.000000	97.723108 
3762.000000	97.727157 
3761.000000	97.726477 
3760.000000	97.722111 
3759.000000	97.719035 
3758.000000	97.718230 
3757.000000	97.715318 
3756.000000	97.707804 
3755.000000	97.696952 
3754.000000	97.685153 
3753.000000	97.674047 
3752.000000	97.665527 
3751.000000	97.659864 
3750.000000	97.652710 
3749.000000	97.641718 
3748.000000	97.632632 
3747.000000	97.632884 
3746.000000	97.643338 
3745.000000	97.654829 
3744.000000	97.662980 
3743.000000	97.670983 
3742.000000	97.674763 
3741.000000	97.667128 
3740.000000	97.651268 
3739.000000	97.641297 
3738.000000	97.646993 
3737.000000	97.660303 
3736.000000	97.666345 
3735.000000	97.662110 
3734.000000	97.656115 
3733.000000	97.653292 
3732.000000	97.653377 
3731.000000	97.657816 
3730.000000	97.666469 
3729.000000	97.674519 
3728.000000	97.677817 
3727.000000	97.677370 
3726.000000	97.678113 
3725.000000	97.682101 
3724.000000	97.686126 
3723.000000	97.686950 
3722.000000	97.685182 
3721.000000	97.683062 
3720.000000	97.679090 
3719.000000	97.672393 
3718.000000	97.665311 
3717.000000	97.659727 
3716.000000	97.655672 
3715.000000	97.649837 
3714.000000	97.639122 
3713.000000	97.625268 
3712.000000	97.612273 
3711.000000	97.601900 
3710.000000	97.591988 
3709.000000	97.580529 
3708.000000	97.567732 
3707.000000	97.553232 
3706.000000	97.537128 
3705.000000	97.521176 
3704.000000	97.507411 
3703.000000	97.495228 
3702.000000	97.479743 
3701.000000	97.456926 
3700.000000	97.428779 
3699.000000	97.401908 
3698.000000	97.382330 
3697.000000	97.370907 
3696.000000	97.364841 
3695.000000	97.360015 
3694.000000	97.351576 
3693.000000	97.337173 
3692.000000	97.319188 
3691.000000	97.302519 
3690.000000	97.288381 
3689.000000	97.275706 
3688.000000	97.266056 
3687.000000	97.260645 
3686.000000	97.257490 
3685.000000	97.253529 
3684.000000	97.247914 
3683.000000	97.242955 
3682.000000	97.239901 
3681.000000	97.233637 
3680.000000	97.216896 
3679.000000	97.187805 
3678.000000	97.152563 
3677.000000	97.119254 
3676.000000	97.090451 
3675.000000	97.067743 
3674.000000	97.051336 
3673.000000	97.036202 
3672.000000	97.016717 
3671.000000	96.995099 
3670.000000	96.978204 
3669.000000	96.969380 
3668.000000	96.964307 
3667.000000	96.956299 
3666.000000	96.944626 
3665.000000	96.932681 
3664.000000	96.921816 
3663.000000	96.910690 
3662.000000	96.896458 
3661.000000	96.876000 
3660.000000	96.849003 
3659.000000	96.818460 
3658.000000	96.790189 
3657.000000	96.767693 
3656.000000	96.749376 
3655.000000	96.731681 
3654.000000	96.710601 
3653.000000	96.683798 
3652.000000	96.651749 
3651.000000	96.618068 
3650.000000	96.587550 
3649.000000	96.563755 
3648.000000	96.548328 
3647.000000	96.540786 
3646.000000	96.539679 
3645.000000	96.542945 
3644.000000	96.547975 
3643.000000	96.552566 
3642.000000	96.554363 
3641.000000	96.550768 
3640.000000	96.540983 
3639.000000	96.525894 
3638.000000	96.507845 
3637.000000	96.489101 
3636.000000	96.470428 
3635.000000	96.449794 
3634.000000	96.423597 
3633.000000	96.390932 
3632.000000	96.355571 
3631.000000	96.325439 
3630.000000	96.308630 
3629.000000	96.305048 
3628.000000	96.303997 
3627.000000	96.295050 
3626.000000	96.276455 
3625.000000	96.256448 
3624.000000	96.245165 
3623.000000	96.245242 
3622.000000	96.251164 
3621.000000	96.255906 
3620.000000	96.256552 
3619.000000	96.254478 
3618.000000	96.251855 
3617.000000	96.250790 
3616.000000	96.255852 
3615.000000	96.271241 
3614.000000	96.294410 
3613.000000	96.316852 
3612.000000	96.332005 
3611.000000	96.340270 
3610.000000	96.347979 
3609.000000	96.361611 
3608.000000	96.380757 
3607.000000	96.398877 
3606.000000	96.410282 
3605.000000	96.416190 
3604.000000	96.423684 
3603.000000	96.438605 
3602.000000	96.460306 
3601.000000	96.481832 
3600.000000	96.495653 
3599.000000	96.499475 
3598.000000	96.497174 
3597.000000	96.494905 
3596.000000	96.497892 
3595.000000	96.505530 
3594.000000	96.511730 
3593.000000	96.511868 
3592.000000	96.506221 
3591.000000	96.498660 
3590.000000	96.494385 
3589.000000	96.496825 
3588.000000	96.504714 
3587.000000	96.513464 
3586.000000	96.520300 
3585.000000	96.525839 
3584.000000	96.532441 
3583.000000	96.541185 
3582.000000	96.551247 
3581.000000	96.559993 
3580.000000	96.564913 
3579.000000	96.565083 
3578.000000	96.561257 
3577.000000	96.555476 
3576.000000	96.550129 
3575.000000	96.547405 
3574.000000	96.547500 
3573.000000	96.548357 
3572.000000	96.546680 
3571.000000	96.540342 
3570.000000	96.530369 
3569.000000	96.520913 
3568.000000	96.516285 
3567.000000	96.517455 
3566.000000	96.521473 
3565.000000	96.524452 
3564.000000	96.524749 
3563.000000	96.523895 
3562.000000	96.524525 
3561.000000	96.528022 
3560.000000	96.533380 
3559.000000	96.538045 
3558.000000	96.539872 
3557.000000	96.538493 
3556.000000	96.535143 
3555.000000	96.531713 
3554.000000	96.529612 
3553.000000	96.528758 
3552.000000	96.527933 
3551.000000	96.525859 
3550.000000	96.522332 
3549.000000	96.518555 
3548.000000	96.516291 
3547.000000	96.516140 
3546.000000	96.517012 
3545.000000	96.517488 
3544.000000	96.517538 
3543.000000	96.518118 
3542.000000	96.519567 
3541.000000	96.521311 
3540.000000	96.522737 
3539.000000	96.523563 
3538.000000	96.523558 
3537.000000	96.522327 
3536.000000	96.519768 
3535.000000	96.516206 
3534.000000	96.512318 
3533.000000	96.509000 
3532.000000	96.507056 
3531.000000	96.506690 
3530.000000	96.507094 
3529.000000	96.506854 
3528.000000	96.505078 
3527.000000	96.502072 
3526.000000	96.498967 
3525.000000	96.496836 
3524.000000	96.496084 
3523.000000	96.496366 
3522.000000	96.496894 
3521.000000	96.497008 
3520.000000	96.496722 
3519.000000	96.496468 
3518.000000	96.496443 
3517.000000	96.496217 
3516.000000	96.495144 
3515.000000	96.493011 
3514.000000	96.490312 
3513.000000	96.487907 
3512.000000	96.486304 
3511.000000	96.485234 
3510.000000	96.483902 
3509.000000	96.481741 
3508.000000	96.478913 
3507.000000	96.476163 
3506.000000	96.474260 
3505.000000	96.473517 
3504.000000	96.473621 
3503.000000	96.473677 
3502.000000	96.472726 
3501.000000	96.470417 
3500.000000	96.467276 
3499.000000	96.464332 
3498.000000	96.462341 
3497.000000	96.461349 
3496.000000	96.460782 
3495.000000	96.459955 
3494.000000	96.458622 
3493.000000	96.457079 
3492.000000	96.455632 
3491.000000	96.453998 
3490.000000	96.451652 
3489.000000	96.448694 
3488.000000	96.445744 
3487.000000	96.442948 
3486.000000	96.439875 
3485.000000	96.436597 
3484.000000	96.433911 
3483.000000	96.432018 
3482.000000	96.429905 
3481.000000	96.426755 
3480.000000	96.423185 
3479.000000	96.420276 
3478.000000	96.418018 
3477.000000	96.415525 
3476.000000	96.412284 
3475.000000	96.408506 
3474.000000	96.404522 
3473.000000	96.400499 
3472.000000	96.396653 
3471.000000	96.393129 
3470.000000	96.389732 
3469.000000	96.386300 
3468.000000	96.383096 
3467.000000	96.380448 
3466.000000	96.378191 
3465.000000	96.375704 
3464.000000	96.372357 
3463.000000	96.367688 
3462.000000	96.361552 
3461.000000	96.354523 
3460.000000	96.347913 
3459.000000	96.342810 
3458.000000	96.339020 
3457.000000	96.335263 
3456.000000	96.330658 
3455.000000	96.325634 
3454.000000	96.321374 
3453.000000	96.318519 
3452.000000	96.316723 
3451.000000	96.315248 
3450.000000	96.313523 
3449.000000	96.311166 
3448.000000	96.307726 
3447.000000	96.302839 
3446.000000	96.296706 
3445.000000	96.290363 
3444.000000	96.285259 
3443.000000	96.282268 
3442.000000	96.281058 
3441.000000	96.280238 
3440.000000	96.278485 
3439.000000	96.275588 
3438.000000	96.272307 
3437.000000	96.269432 
3436.000000	96.267137 
3435.000000	96.265043 
3434.000000	96.262691 
3433.000000	96.259849 
3432.000000	96.256573 
3431.000000	96.253183 
3430.000000	96.250020 
3429.000000	96.247183 
3428.000000	96.244468 
3427.000000	96.241611 
3426.000000	96.238611 
3425.000000	96.235808 
3424.000000	96.233589 
3423.000000	96.231919 
3422.000000	96.230221 
3421.000000	96.227882 
3420.000000	96.224907 
3419.000000	96.221984 
3418.000000	96.219834 
3417.000000	96.218658 
3416.000000	96.218182 
3415.000000	96.217904 
3414.000000	96.217214 
3413.000000	96.215575 
3412.000000	96.212826 
3411.000000	96.209393 
3410.000000	96.206112 
3409.000000	96.203737 
3408.000000	96.202550 
3407.000000	96.202268 
3406.000000	96.202213 
3405.000000	96.201781 
3404.000000	96.200826 
3403.000000	96.199495 
3402.000000	96.197830 
3401.000000	96.195810 
3400.000000	96.193755 
3399.000000	96.192328 
3398.000000	96.191900 
3397.000000	96.192185 
3396.000000	96.192626 
3395.000000	96.192987 
3394.000000	96.193232 
3393.000000	96.193042 
3392.000000	96.191903 
3391.000000	96.189726 
3390.000000	96.187157 
3389.000000	96.185157 
3388.000000	96.184318 
3387.000000	96.184552 
3386.000000	96.185179 
3385.000000	96.185226 
3384.000000	96.184014 
3383.000000	96.181805 
3382.000000	96.179949 
3381.000000	96.179870 
3380.000000	96.181591 
3379.000000	96.183502 
3378.000000	96.184094 
3377.000000	96.183985 
3376.000000	96.185371 
3375.000000	96.189350 
3374.000000	96.194379 
3373.000000	96.197698 
3372.000000	96.198127 
3371.000000	96.196795 
3370.000000	96.195633 
3369.000000	96.195524 
3368.000000	96.196073 
3367.000000	96.196628 
3366.000000	96.196994 
3365.000000	96.197288 
3364.000000	96.197486 
3363.000000	96.197293 
3362.000000	96.196459 
3361.000000	96.195169 
3360.000000	96.194130 
3359.000000	96.194189 
3358.000000	96.195826 
3357.000000	96.198919 
3356.000000	96.202889 
3355.000000	96.207087 
3354.000000	96.211193 
3353.000000	96.215241 
3352.000000	96.219155 
3351.000000	96.222386 
3350.000000	96.224289 
3349.000000	96.224940 
3348.000000	96.225375 
3347.000000	96.226706 
3346.000000	96.229143 
3345.000000	96.231913 
3344.000000	96.233951 
3343.000000	96.234590 
3342.000000	96.233909 
3341.000000	96.232828 
3340.000000	96.232581 
3339.000000	96.233788 
3338.000000	96.236096 
3337.000000	96.238698 
3336.000000	96.241135 
3335.000000	96.243441 
3334.000000	96.245668 
3333.000000	96.247587 
3332.000000	96.248948 
3331.000000	96.249803 
3330.000000	96.250451 
3329.000000	96.251240 
3328.000000	96.252450 
3327.000000	96.254239 
3326.000000	96.256537 
3325.000000	96.258952 
3324.000000	96.260951 
3323.000000	96.262247 
3322.000000	96.263026 
3321.000000	96.263795 
3320.000000	96.264971 
3319.000000	96.266634 
3318.000000	96.268647 
3317.000000	96.270858 
3316.000000	96.273145 
3315.000000	96.275350 
3314.000000	96.277331 
3313.000000	96.279094 
3312.000000	96.280815 
3311.000000	96.282698 
3310.000000	96.284805 
3309.000000	96.287015 
3308.000000	96.289085 
3307.000000	96.290766 
3306.000000	96.291974 
3305.000000	96.292889 
3304.000000	96.293901 
3303.000000	96.295373 
3302.000000	96.297384 
3301.000000	96.299676 
3300.000000	96.301776 
3299.000000	96.303341 
3298.000000	96.304393 
3297.000000	96.305334 
3296.000000	96.306640 
3295.000000	96.308491 
3294.000000	96.310779 
3293.000000	96.313323 
3292.000000	96.315920 
3291.000000	96.318326 
3290.000000	96.320301 
3289.000000	96.321817 
3288.000000	96.323117 
3287.000000	96.324514 
3286.000000	96.326149 
3285.000000	96.327973 
3284.000000	96.329883 
3283.000000	96.331847 
3282.000000	96.333922 
3281.000000	96.336140 
3280.000000	96.338386 
3279.000000	96.340440 
3278.000000	96.342226 
3277.000000	96.343982 
3276.000000	96.346043 
3275.000000	96.348470 
3274.000000	96.351001 
3273.000000	96.353390 
3272.000000	96.355682 
3271.000000	96.358083 
3270.000000	96.360642 
3269.000000	96.363136 
3268.000000	96.365277 
3267.000000	96.366984 
3266.000000	96.368452 
3265.000000	96.370018 
3264.000000	96.371896 
3263.000000	96.374035 
3262.000000	96.376228 
3261.000000	96.378349 
3260.000000	96.380463 
3259.000000	96.382685 
3258.000000	96.385025 
3257.000000	96.387440 
3256.000000	96.389899 
3255.000000	96.392352 
3254.000000	96.394713 
3253.000000	96.396953 
3252.000000	96.399177 
3251.000000	96.401558 
3250.000000	96.404139 
3249.000000	96.406832 
3248.000000	96.409466 
3247.000000	96.411969 
3246.000000	96.414382 
3245.000000	96.416813 
3244.000000	96.419320 
3243.000000	96.421863 
3242.000000	96.424356 
3241.000000	96.426748 
3240.000000	96.429059 
3239.000000	96.431392 
3238.000000	96.433890 
3237.000000	96.436646 
3236.000000	96.439638 
3235.000000	96.442726 
3234.000000	96.445754 
3233.000000	96.448622 
3232.000000	96.451316 
3231.000000	96.453909 
3230.000000	96.456497 
3229.000000	96.459105 
3228.000000	96.461691 
3227.000000	96.464273 
3226.000000	96.467020 
3225.000000	96.470117 
3224.000000	96.473519 
3223.000000	96.476924 
3222.000000	96.480104 
3221.000000	96.483140 
3220.000000	96.486204 
3219.000000	96.489231 
3218.000000	96.492083 
3217.000000	96.494915 
3216.000000	96.498075 
3215.000000	96.501618 
3214.000000	96.505239 
3213.000000	96.508678 
3212.000000	96.511935 
3211.000000	96.515029 
3210.000000	96.517858 
3209.000000	96.520415 
3208.000000	96.522837 
3207.000000	96.525173 
3206.000000	96.527401 
3205.000000	96.529895 
3204.000000	96.533385 
3203.000000	96.538080 
3202.000000	96.543139 
3201.000000	96.547173 
3200.000000	96.549460 
3199.000000	96.550671 
3198.000000	96.552476 
3197.000000	96.556093 
3196.000000	96.561326 
3195.000000	96.566899 
3194.000000	96.571826 
3193.000000	96.576333 
3192.000000	96.581208 
3191.000000	96.586634 
3190.000000	96.591959 
3189.000000	96.596412 
3188.000000	96.599754 
3187.000000	96.602409 
3186.000000	96.605291 
3185.000000	96.609258 
3184.000000	96.614446 
3183.000000	96.620155 
3182.000000	96.625555 
3181.000000	96.630392 
3180.000000	96.634811 
3179.000000	96.638900 
3178.000000	96.642811 
3177.000000	96.647021 
3176.000000	96.651986 
3175.000000	96.657576 
3174.000000	96.663158 
3173.000000	96.668215 
3172.000000	96.672654 
3171.000000	96.676550 
3170.000000	96.680107 
3169.000000	96.683793 
3168.000000	96.687929 
3167.000000	96.692324 
3166.000000	96.696557 
3165.000000	96.700526 
3164.000000	96.704494 
3163.000000	96.708703 
3162.000000	96.713118 
3161.000000	96.717525 
3160.000000	96.721747 
3159.000000	96.725776 
3158.000000	96.729762 
3157.000000	96.733893 
3156.000000	96.738220 
3155.000000	96.742638 
3154.000000	96.747004 
3153.000000	96.751260 
3152.000000	96.755431 
3151.000000	96.759540 
3150.000000	96.763582 
3149.000000	96.767563 
3148.000000	96.771513 
3147.000000	96.775453 
3146.000000	96.779392 
3145.000000	96.783351 
3144.000000	96.787360 
3143.000000	96.791405 
3142.000000	96.795427 
3141.000000	96.799369 
3140.000000	96.803225 
3139.000000	96.807029 
3138.000000	96.810822 
3137.000000	96.814647 
3136.000000	96.818526 
3135.000000	96.822457 
3134.000000	96.826410 
3133.000000	96.830349 
3132.000000	96.834242 
3131.000000	96.838075 
3130.000000	96.841854 
3129.000000	96.845630 
3128.000000	96.849485 
3127.000000	96.853446 
3126.000000	96.857484 
3125.000000	96.861508 
3124.000000	96.865465 
3123.000000	96.869357 
3122.000000	96.873201 
3121.000000	96.876998 
3120.000000	96.880743 
3119.000000	96.884464 
3118.000000	96.888188 
3117.000000	96.891899 
3116.000000	96.895561 
3115.000000	96.899164 
3114.000000	96.902730 
3113.000000	96.906298 
3112.000000	96.909886 
3111.000000	96.913488 
3110.000000	96.917074 
3109.000000	96.920608 
3108.000000	96.924084 
3107.000000	96.927527 
3106.000000	96.930986 
3105.000000	96.934490 
3104.000000	96.938008 
3103.000000	96.941457 
3102.000000	96.944785 
3101.000000	96.948036 
3100.000000	96.951327 
3099.000000	96.954734 
3098.000000	96.958221 
3097.000000	96.961639 
3096.000000	96.964793 
3095.000000	96.967567 
3094.000000	96.970077 
3093.000000	96.972701 
3092.000000	96.975783 
3091.000000	96.979242 
3090.000000	96.982589 
3089.000000	96.985417 
3088.000000	96.987879 
3087.000000	96.990635 
3086.000000	96.994193 
3085.000000	96.998338 
3084.000000	97.002229 
3083.000000	97.005176 
3082.000000	97.007212 
3081.000000	97.009135 
3080.000000	97.011904 
3079.000000	97.015790 
3078.000000	97.020158 
3077.000000	97.024009 
3076.000000	97.026610 
3075.000000	97.027667 
3074.000000	97.027488 
3073.000000	97.027198 
3072.000000	97.028288 
3071.000000	97.031518 
3070.000000	97.036439 
3069.000000	97.042290 
3068.000000	97.048830 
3067.000000	97.055702 
3066.000000	97.061500 
3065.000000	97.064588 
3064.000000	97.064810 
3063.000000	97.063469 
3062.000000	97.061659 
3061.000000	97.059527 
3060.000000	97.057232 
3059.000000	97.055725 
3058.000000	97.056300 
3057.000000	97.059662 
3056.000000	97.065215 
3055.000000	97.070596 
3054.000000	97.072396 
3053.000000	97.068739 
3052.000000	97.061694 
3051.000000	97.056408 
3050.000000	97.057073 
3049.000000	97.063776 
3048.000000	97.072910 
3047.000000	97.079878 
3046.000000	97.081664 
3045.000000	97.078355 
3044.000000	97.073276 
3043.000000	97.070851 
3042.000000	97.072879 
3041.000000	97.076724 
3040.000000	97.077719 
3039.000000	97.073401 
3038.000000	97.065079 
3037.000000	97.055477 
3036.000000	97.045629 
3035.000000	97.034768 
3034.000000	97.023000 
3033.000000	97.012807 
3032.000000	97.006893 
3031.000000	97.005103 
3030.000000	97.004721 
3029.000000	97.003602 
3028.000000	97.001243 
3027.000000	96.996303 
3026.000000	96.985265 
3025.000000	96.965874 
3024.000000	96.941528 
3023.000000	96.920068 
3022.000000	96.907028 
3021.000000	96.901184 
3020.000000	96.897106 
3019.000000	96.890536 
3018.000000	96.880298 
3017.000000	96.866647 
3016.000000	96.850291 
3015.000000	96.833046 
3014.000000	96.817308 
3013.000000	96.803394 
3012.000000	96.788237 
3011.000000	96.768352 
3010.000000	96.744350 
3009.000000	96.721318 
3008.000000	96.703892 
3007.000000	96.691514 
3006.000000	96.679289 
3005.000000	96.662979 
3004.000000	96.642140 
3003.000000	96.618884 
3002.000000	96.595567 
3001.000000	96.574400 
3000.000000	96.557333 
2999.000000	96.544352 
2998.000000	96.532622 
2997.000000	96.519167 
2996.000000	96.504002 
2995.000000	96.488783 
2994.000000	96.472507 
2993.000000	96.450978 
2992.000000	96.422000 
2991.000000	96.389967 
2990.000000	96.363726 
2989.000000	96.349794 
2988.000000	96.348104 
2987.000000	96.353521 
2986.000000	96.360558 
2985.000000	96.366897 
2984.000000	96.373167 
2983.000000	96.380362 
2982.000000	96.388121 
2981.000000	96.395086 
2980.000000	96.399811 
2979.000000	96.400850 
2978.000000	96.397176 
2977.000000	96.389880 
2976.000000	96.382773 
2975.000000	96.379687 
2974.000000	96.381122 
2973.000000	96.384889 
2972.000000	96.389969 
2971.000000	96.397956 
2970.000000	96.410061 
2969.000000	96.424577 
2968.000000	96.438730 
2967.000000	96.451889 
2966.000000	96.465451 
2965.000000	96.480274 
2964.000000	96.495862 
2963.000000	96.511709 
2962.000000	96.527779 
2961.000000	96.543389 
2960.000000	96.556964 
2959.000000	96.567535 
2958.000000	96.575794 
2957.000000	96.583394 
2956.000000	96.591683 
2955.000000	96.601275 
2954.000000	96.612189 
2953.000000	96.624196 
2952.000000	96.637365 
2951.000000	96.652110 
2950.000000	96.667829 
2949.000000	96.681528 
2948.000000	96.689134 
2947.000000	96.689011 
2946.000000	96.683982 
2945.000000	96.679412 
2944.000000	96.679257 
2943.000000	96.683853 
2942.000000	96.690473 
2941.000000	96.695388 
2940.000000	96.696420 
2939.000000	96.694855 
2938.000000	96.694632 
2937.000000	96.698708 
2936.000000	96.706098 
2935.000000	96.712850 
2934.000000	96.715621 
2933.000000	96.713747 
2932.000000	96.708614 
2931.000000	96.702293 
2930.000000	96.696836 
2929.000000	96.693709 
2928.000000	96.693196 
2927.000000	96.694567 
2926.000000	96.696855 
2925.000000	96.699111 
2924.000000	96.700182 
2923.000000	96.699191 
2922.000000	96.696538 
2921.000000	96.693989 
2920.000000	96.693561 
2919.000000	96.696493 
2918.000000	96.702503 
2917.000000	96.708834 
2916.000000	96.710546 
2915.000000	96.703964 
2914.000000	96.691035 
2913.000000	96.679066 
2912.000000	96.674457 
2911.000000	96.677029 
2910.000000	96.681296 
2909.000000	96.682579 
2908.000000	96.680816 
2907.000000	96.678528 
2906.000000	96.676666 
2905.000000	96.673123 
2904.000000	96.665300 
2903.000000	96.653879 
2902.000000	96.645117 
2901.000000	96.646578 
2900.000000	96.660808 
2899.000000	96.682911 
2898.000000	96.704506 
2897.000000	96.720747 
2896.000000	96.731860 
2895.000000	96.739272 
2894.000000	96.743361 
2893.000000	96.745571 
2892.000000	96.749593 
2891.000000	96.758018 
2890.000000	96.769108 
2889.000000	96.778931 
2888.000000	96.785880 
2887.000000	96.791080 
2886.000000	96.795128 
2885.000000	96.797451 
2884.000000	96.799471 
2883.000000	96.805455 
2882.000000	96.818181 
2881.000000	96.835360 
2880.000000	96.852504 
2879.000000	96.868766 
2878.000000	96.887163 
2877.000000	96.908619 
2876.000000	96.928360 
2875.000000	96.940307 
2874.000000	96.943987 
2873.000000	96.945428 
2872.000000	96.951302 
2871.000000	96.963121 
2870.000000	96.977416 
2869.000000	96.989872 
2868.000000	96.998563 
2867.000000	97.004371 
2866.000000	97.009822 
2865.000000	97.017439 
2864.000000	97.028217 
2863.000000	97.041441 
2862.000000	97.056173 
2861.000000	97.072435 
2860.000000	97.090217 
2859.000000	97.107864 
2858.000000	97.122788 
2857.000000	97.134192 
2856.000000	97.144091 
2855.000000	97.155051 
2854.000000	97.167631 
2853.000000	97.180416 
2852.000000	97.191824 
2851.000000	97.201291 
2850.000000	97.209284 
2849.000000	97.217045 
2848.000000	97.226149 
2847.000000	97.237398 
2846.000000	97.249781 
2845.000000	97.260961 
2844.000000	97.269215 
2843.000000	97.274961 
2842.000000	97.280414 
2841.000000	97.287580 
2840.000000	97.296366 
2839.000000	97.304794 
2838.000000	97.311270 
2837.000000	97.316364 
2836.000000	97.322024 
2835.000000	97.329233 
2834.000000	97.337151 
2833.000000	97.344673 
2832.000000	97.351861 
2831.000000	97.359242 
2830.000000	97.366130 
2829.000000	97.370739 
2828.000000	97.372262 
2827.000000	97.372309 
2826.000000	97.374017 
2825.000000	97.379622 
2824.000000	97.388542 
2823.000000	97.397621 
2822.000000	97.403532 
2821.000000	97.405286 
2820.000000	97.404544 
2819.000000	97.403711 
2818.000000	97.404049 
2817.000000	97.405649 
2816.000000	97.408440 
2815.000000	97.412399 
2814.000000	97.416840 
2813.000000	97.420200 
2812.000000	97.421093 
2811.000000	97.419627 
2810.000000	97.417621 
2809.000000	97.417396 
2808.000000	97.420165 
2807.000000	97.425480 
2806.000000	97.431959 
2805.000000	97.438223 
2804.000000	97.443161 
2803.000000	97.445939 
2802.000000	97.446576 
2801.000000	97.446489 
2800.000000	97.447672 
2799.000000	97.450786 
2798.000000	97.454438 
2797.000000	97.456717 
2796.000000	97.457135 
2795.000000	97.456773 
2794.000000	97.456967 
2793.000000	97.458269 
2792.000000	97.460605 
2791.000000	97.463595 
2790.000000	97.466601 
2789.000000	97.468962 
2788.000000	97.470518 
2787.000000	97.471749 
2786.000000	97.473248 
2785.000000	97.475180 
2784.000000	97.477338 
2783.000000	97.479553 
2782.000000	97.481833 
2781.000000	97.484169 
2780.000000	97.486436 
2779.000000	97.488513 
2778.000000	97.490402 
2777.000000	97.492187 
2776.000000	97.493941 
2775.000000	97.495703 
2774.000000	97.497486 
2773.000000	97.499294 
2772.000000	97.501101 
2771.000000	97.502862 
2770.000000	97.504558 
2769.000000	97.506217 
2768.000000	97.507882 
2767.000000	97.509564 
2766.000000	97.511235 
2765.000000	97.512884 
2764.000000	97.514526 
2763.000000	97.516165 
2762.000000	97.517759 
2761.000000	97.519260 
2760.000000	97.520684 
2759.000000	97.522109 
2758.000000	97.523586 
2757.000000	97.525064 
2756.000000	97.526440 
2755.000000	97.527705 
2754.000000	97.528948 
2753.000000	97.530281 
2752.000000	97.531728 
2751.000000	97.533233 
2750.000000	97.534661 
2749.000000	97.535939 
2748.000000	97.537093 
2747.000000	97.538218 
2746.000000	97.539349 
2745.000000	97.540468 
2744.000000	97.541586 
2743.000000	97.542753 
2742.000000	97.543974 
2741.000000	97.545193 
2740.000000	97.546368 
2739.000000	97.547532 
2738.000000	97.548739 
2737.000000	97.549994 
2736.000000	97.551258 
2735.000000	97.552492 
2734.000000	97.553699 
2733.000000	97.554914 
2732.000000	97.556168 
2731.000000	97.557474 
2730.000000	97.558827 
2729.000000	97.560217 
2728.000000	97.561599 
2727.000000	97.562884 
2726.000000	97.564002 
2725.000000	97.564984 
2724.000000	97.565945 
2723.000000	97.566975 
2722.000000	97.568074 
2721.000000	97.569200 
2720.000000	97.570327 
2719.000000	97.571459 
2718.000000	97.572607 
2717.000000	97.573761 
2716.000000	97.574907 
2715.000000	97.576043 
2714.000000	97.577185 
2713.000000	97.578354 
2712.000000	97.579537 
2711.000000	97.580686 
2710.000000	97.581763 
2709.000000	97.582784 
2708.000000	97.583814 
2707.000000	97.584902 
2706.000000	97.586052 
2705.000000	97.587240 
2704.000000	97.588426 
2703.000000	97.589578 
2702.000000	97.590685 
2701.000000	97.591760 
2700.000000	97.592832 
2699.000000	97.593923 
2698.000000	97.595033 
2697.000000	97.596143 
2696.000000	97.597207 
2695.000000	97.598188 
2694.000000	97.599077 
2693.000000	97.599903 
2692.000000	97.600722 
2691.000000	97.601578 
2690.000000	97.602482 
2689.000000	97.603414 
2688.000000	97.604332 
2687.000000	97.605196 
2686.000000	97.606003 
2685.000000	97.606797 
2684.000000	97.607634 
2683.000000	97.608507 
2682.000000	97.609325 
2681.000000	97.610038 
2680.000000	97.610765 
2679.000000	97.611707 
2678.000000	97.612911 
2677.000000	97.614221 
2676.000000	97.615453 
2675.000000	97.616468 
2674.000000	97.617128 
2673.000000	97.617434 
2672.000000	97.617701 
2671.000000	97.618246 
2670.000000	97.618898 
2669.000000	97.619152 
2668.000000	97.618841 
2667.000000	97.618397 
2666.000000	97.618257 
2665.000000	97.618395 
2664.000000	97.618646 
2663.000000	97.619156 
2662.000000	97.620145 
2661.000000	97.621389 
2660.000000	97.622272 
2659.000000	97.622394 
2658.000000	97.621908 
2657.000000	97.621273 
2656.000000	97.620922 
2655.000000	97.621069 
2654.000000	97.621582 
2653.000000	97.622073 
2652.000000	97.622339 
2651.000000	97.622754 
2650.000000	97.623936 
2649.000000	97.625905 
2648.000000	97.627757 
2647.000000	97.628394 
2646.000000	97.627429 
2645.000000	97.625290 
2644.000000	97.622819 
2643.000000	97.620827 
2642.000000	97.619814 
2641.000000	97.619789 
2640.000000	97.620251 
2639.000000	97.620609 
2638.000000	97.620722 
2637.000000	97.620872 
2636.000000	97.621302 
2635.000000	97.622029 
2634.000000	97.623020 
2633.000000	97.624168 
2632.000000	97.625097 
2631.000000	97.625385 
2630.000000	97.625144 
2629.000000	97.625118 
2628.000000	97.625915 
2627.000000	97.627256 
2626.000000	97.628197 
2625.000000	97.628155 
2624.000000	97.627411 
2623.000000	97.626699 
2622.000000	97.626417 
2621.000000	97.626357 
2620.000000	97.626120 
2619.000000	97.625609 
2618.000000	97.625143 
2617.000000	97.625144 
2616.000000	97.625715 
2615.000000	97.626555 
2614.000000	97.627198 
2613.000000	97.627396 
2612.000000	97.627218 
2611.000000	97.626908 
2610.000000	97.626753 
2609.000000	97.626958 
2608.000000	97.627509 
2607.000000	97.628119 
2606.000000	97.628491 
2605.000000	97.628635 
2604.000000	97.628800 
2603.000000	97.629088 
2602.000000	97.629329 
2601.000000	97.629420 
2600.000000	97.629509 
2599.000000	97.629701 
2598.000000	97.629844 
2597.000000	97.629820 
2596.000000	97.629787 
2595.000000	97.629882 
2594.000000	97.629967 
2593.000000	97.629973 
2592.000000	97.630260 
2591.000000	97.631199 
2590.000000	97.632560 
2589.000000	97.633690 
2588.000000	97.634276 
2587.000000	97.634502 
2586.000000	97.634531 
2585.000000	97.634269 
2584.000000	97.633777 
2583.000000	97.633522 
2582.000000	97.633990 
2581.000000	97.635184 
2580.000000	97.636701 
2579.000000	97.638194 
2578.000000	97.639677 
2577.000000	97.641358 
2576.000000	97.643154 
2575.000000	97.644500 
2574.000000	97.644860 
2573.000000	97.644421 
2572.000000	97.644012 
2571.000000	97.644132 
2570.000000	97.644467 
2569.000000	97.644581 
2568.000000	97.644574 
2567.000000	97.644701 
2566.000000	97.644720 
2565.000000	97.644227 
2564.000000	97.643558 
2563.000000	97.643715 
2562.000000	97.645163 
2561.000000	97.647317 
2560.000000	97.649200 
2559.000000	97.650399 
2558.000000	97.651063 
2557.000000	97.651374 
2556.000000	97.651485 
2555.000000	97.651762 
2554.000000	97.652559 
2553.000000	97.653767 
2552.000000	97.654849 
2551.000000	97.655432 
2550.000000	97.655683 
2549.000000	97.656023 
2548.000000	97.656623 
2547.000000	97.657320 
2546.000000	97.657975 
2545.000000	97.658693 
2544.000000	97.659620 
2543.000000	97.660665 
2542.000000	97.661569 
2541.000000	97.662226 
2540.000000	97.662797 
2539.000000	97.663462 
2538.000000	97.664160 
2537.000000	97.664694 
2536.000000	97.665021 
2535.000000	97.665281 
2534.000000	97.665649 
2533.000000	97.666182 
2532.000000	97.666807 
2531.000000	97.667390 
2530.000000	97.667834 
2529.000000	97.668127 
2528.000000	97.668353 
2527.000000	97.668658 
2526.000000	97.669153 
2525.000000	97.669824 
2524.000000	97.670532 
2523.000000	97.671145 
2522.000000	97.671655 
2521.000000	97.672155 
2520.000000	97.672732 
2519.000000	97.673391 
2518.000000	97.674044 
2517.000000	97.674546 
2516.000000	97.674791 
2515.000000	97.674816 
2514.000000	97.674864 
2513.000000	97.675200 
2512.000000	97.675852 
2511.000000	97.676560 
2510.000000	97.677068 
2509.000000	97.677442 
2508.000000	97.677902 
2507.000000	97.678448 
2506.000000	97.678868 
2505.000000	97.679125 
2504.000000	97.679446 
2503.000000	97.679923 
2502.000000	97.680283 
2501.000000	97.680263 
2500.000000	97.679942 
2499.000000	97.679592 
2498.000000	97.679360 
2497.000000	97.679287 
2496.000000	97.679515 
2495.000000	97.680220 
2494.000000	97.681314 
2493.000000	97.682277 
2492.000000	97.682544 
2491.000000	97.681939 
2490.000000	97.680730 
2489.000000	97.679459 
2488.000000	97.678566 
2487.000000	97.678220 
2486.000000	97.678339 
2485.000000	97.678731 
2484.000000	97.679227 
2483.000000	97.679633 
2482.000000	97.679691 
2481.000000	97.679308 
2480.000000	97.678796 
2479.000000	97.678660 
2478.000000	97.679078 
2477.000000	97.679746 
2476.000000	97.680281 
2475.000000	97.680599 
2474.000000	97.680780 
2473.000000	97.680751 
2472.000000	97.680303 
2471.000000	97.679348 
2470.000000	97.678089 
2469.000000	97.677003 
2468.000000	97.676630 
2467.000000	97.677260 
2466.000000	97.678656 
2465.000000	97.680108 
2464.000000	97.680941 
2463.000000	97.680997 
2462.000000	97.680672 
2461.000000	97.680613 
2460.000000	97.681314 
2459.000000	97.682744 
2458.000000	97.684149 
2457.000000	97.684446 
2456.000000	97.683138 
2455.000000	97.680837 
2454.000000	97.678777 
2453.000000	97.677600 
2452.000000	97.676874 
2451.000000	97.675952 
2450.000000	97.675068 
2449.000000	97.675073 
2448.000000	97.676083 
2447.000000	97.677079 
2446.000000	97.677095 
2445.000000	97.676292 
2444.000000	97.675623 
2443.000000	97.675698 
2442.000000	97.676413 
2441.000000	97.677381 
2440.000000	97.678288 
2439.000000	97.678993 
2438.000000	97.679575 
2437.000000	97.680237 
2436.000000	97.680946 
2435.000000	97.681297 
2434.000000	97.681020 
2433.000000	97.680477 
2432.000000	97.680350 
2431.000000	97.680839 
2430.000000	97.681607 
2429.000000	97.682299 
2428.000000	97.682836 
2427.000000	97.683202 
2426.000000	97.683266 
2425.000000	97.683009 
2424.000000	97.682692 
2423.000000	97.682602 
2422.000000	97.682777 
2421.000000	97.683081 
2420.000000	97.683386 
2419.000000	97.683619 
2418.000000	97.683729 
2417.000000	97.683753 
2416.000000	97.683821 
2415.000000	97.684047 
2414.000000	97.684424 
2413.000000	97.684874 
2412.000000	97.685303 
2411.000000	97.685614 
2410.000000	97.685773 
2409.000000	97.685823 
2408.000000	97.685838 
2407.000000	97.685862 
2406.000000	97.685885 
2405.000000	97.685882 
2404.000000	97.685839 
2403.000000	97.685753 
2402.000000	97.685621 
2401.000000	97.685451 
2400.000000	97.685267 
2399.000000	97.685091 
2398.000000	97.684923 
2397.000000	97.684742 
2396.000000	97.684513 
2395.000000	97.684197 
2394.000000	97.683769 
2393.000000	97.683240 
2392.000000	97.682656 
2391.000000	97.682060 
2390.000000	97.681443 
2389.000000	97.680770 
2388.000000	97.680008 
2387.000000	97.679148 
2386.000000	97.678199 
2385.000000	97.677185 
2384.000000	97.676135 
2383.000000	97.675066 
2382.000000	97.673981 
2381.000000	97.672871 
2380.000000	97.671724 
2379.000000	97.670538 
2378.000000	97.669326 
2377.000000	97.668111 
2376.000000	97.666910 
2375.000000	97.665719 
2374.000000	97.664503 
2373.000000	97.663218 
2372.000000	97.661837 
2371.000000	97.660374 
2370.000000	97.658860 
2369.000000	97.657331 
2368.000000	97.655805 
2367.000000	97.654291 
2366.000000	97.652786 
2365.000000	97.651285 
2364.000000	97.649796 
2363.000000	97.648338 
2362.000000	97.646940 
2361.000000	97.645617 
2360.000000	97.644362 
2359.000000	97.643147 
2358.000000	97.641939 
2357.000000	97.640715 
2356.000000	97.639471 
2355.000000	97.638231 
2354.000000	97.637028 
2353.000000	97.635898 
2352.000000	97.634889 
2351.000000	97.634051 
2350.000000	97.633367 
2349.000000	97.632685 
2348.000000	97.631807 
2347.000000	97.630748 
2346.000000	97.629928 
2345.000000	97.629775 
2344.000000	97.630289 
2343.000000	97.631013 
2342.000000	97.631479 
2341.000000	97.631536 
2340.000000	97.631326 
2339.000000	97.631177 
2338.000000	97.631310 
2337.000000	97.631841 
2336.000000	97.632833 
2335.000000	97.633926 
2334.000000	97.633956 
2333.000000	97.632161 
2332.000000	97.630024 
2331.000000	97.630371 
2330.000000	97.633460 
2329.000000	97.636079 
2328.000000	97.635568 
2327.000000	97.632624 
2326.000000	97.629821 
2325.000000	97.628639 
2324.000000	97.629996 
2323.000000	97.634738 
2322.000000	97.642122 
2321.000000	97.649112 
2320.000000	97.653048 
2319.000000	97.654563 
2318.000000	97.655431 
2317.000000	97.656001 
2316.000000	97.655774 
2315.000000	97.656055 
2314.000000	97.659078 
2313.000000	97.665351 
2312.000000	97.673368 
2311.000000	97.681590 
2310.000000	97.688897 
2309.000000	97.693988 
2308.000000	97.696792 
2307.000000	97.699419 
2306.000000	97.703584 
2305.000000	97.707371 
2304.000000	97.707093 
2303.000000	97.701991 
2302.000000	97.695550 
2301.000000	97.691547 
2300.000000	97.690152 
2299.000000	97.688385 
2298.000000	97.683142 
2297.000000	97.673946 
2296.000000	97.664083 
2295.000000	97.658446 
2294.000000	97.659112 
2293.000000	97.663041 
2292.000000	97.665372 
2291.000000	97.664413 
2290.000000	97.662543 
2289.000000	97.662694 
2288.000000	97.665660 
2287.000000	97.670241 
2286.000000	97.674419 
2285.000000	97.676270 
2284.000000	97.675094 
2283.000000	97.671739 
2282.000000	97.667092 
2281.000000	97.660758 
2280.000000	97.652087 
2279.000000	97.642104 
2278.000000	97.633305 
2277.000000	97.627955 
2276.000000	97.627162 
2275.000000	97.630725 
2274.000000	97.636713 
2273.000000	97.642407 
2272.000000	97.646937 
2271.000000	97.651737 
2270.000000	97.657385 
2269.000000	97.661844 
2268.000000	97.663387 
2267.000000	97.663369 
2266.000000	97.664189 
2265.000000	97.665909 
2264.000000	97.666695 
2263.000000	97.665365 
2262.000000	97.661778 
2261.000000	97.656267 
2260.000000	97.650759 
2259.000000	97.648877 
2258.000000	97.652686 
2257.000000	97.660095 
2256.000000	97.667144 
2255.000000	97.672055 
2254.000000	97.674882 
2253.000000	97.674596 
2252.000000	97.670011 
2251.000000	97.662898 
2250.000000	97.656959 
2249.000000	97.653293 
2248.000000	97.650081 
2247.000000	97.646519 
2246.000000	97.644114 
2245.000000	97.643846 
2244.000000	97.644315 
2243.000000	97.643730 
2242.000000	97.642062 
2241.000000	97.640483 
2240.000000	97.639916 
2239.000000	97.640633 
2238.000000	97.642155 
2237.000000	97.643301 
2236.000000	97.643191 
2235.000000	97.642135 
2234.000000	97.641055 
2233.000000	97.640348 
2232.000000	97.639849 
2231.000000	97.639416 
2230.000000	97.638973 
2229.000000	97.638268 
2228.000000	97.637118 
2227.000000	97.635751 
2226.000000	97.634506 
2225.000000	97.633424 
2224.000000	97.632374 
2223.000000	97.631321 
2222.000000	97.630288 
2221.000000	97.629312 
2220.000000	97.628383 
2219.000000	97.627464 
2218.000000	97.626525 
2217.000000	97.625561 
2216.000000	97.624582 
2215.000000	97.623592 
2214.000000	97.622584 
2213.000000	97.621553 
2212.000000	97.620510 
2211.000000	97.619475 
2210.000000	97.618468 
2209.000000	97.617489 
2208.000000	97.616523 
2207.000000	97.615557 
2206.000000	97.614591 
2205.000000	97.613630 
2204.000000	97.612668 
2203.000000	97.611689 
2202.000000	97.610677 
2201.000000	97.609630 
2200.000000	97.608554 
2199.000000	97.607464 
2198.000000	97.606384 
2197.000000	97.605342 
2196.000000	97.604360 
2195.000000	97.603439 
2194.000000	97.602567 
2193.000000	97.601727 
2192.000000	97.600909 
2191.000000	97.600107 
2190.000000	97.599323 
2189.000000	97.598559 
2188.000000	97.597828 
2187.000000	97.597141 
2186.000000	97.596516 
2185.000000	97.595973 
2184.000000	97.595523 
2183.000000	97.595176 
2182.000000	97.595010 
2181.000000	97.595179 
2180.000000	97.595666 
2179.000000	97.596143 
2178.000000	97.596254 
2177.000000	97.595942 
2176.000000	97.595609 
2175.000000	97.595765 
2174.000000	97.596636 
2173.000000	97.597915 
2172.000000	97.599055 
2171.000000	97.599932 
2170.000000	97.600815 
2169.000000	97.601455 
2168.000000	97.600797 
2167.000000	97.598497 
2166.000000	97.596359 
2165.000000	97.596693 
2164.000000	97.599318 
2163.000000	97.601723 
2162.000000	97.602664 
2161.000000	97.603915 
2160.000000	97.607765 
2159.000000	97.614337 
2158.000000	97.622013 
2157.000000	97.629205 
2156.000000	97.634842 
2155.000000	97.638305 
2154.000000	97.640141 
2153.000000	97.642198 
2152.000000	97.645661 
2151.000000	97.648918 
2150.000000	97.648546 
2149.000000	97.643193 
2148.000000	97.636222 
2147.000000	97.633569 
2146.000000	97.638710 
2145.000000	97.650377 
2144.000000	97.664661 
2143.000000	97.678443 
2142.000000	97.689825 
2141.000000	97.696690 
2140.000000	97.697476 
2139.000000	97.694139 
2138.000000	97.692362 
2137.000000	97.696637 
2136.000000	97.705545 
2135.000000	97.712780 
2134.000000	97.713263 
2133.000000	97.707934 
2132.000000	97.703114 
2131.000000	97.704894 
2130.000000	97.713982 
2129.000000	97.725601 
2128.000000	97.733877 
2127.000000	97.736153 
2126.000000	97.733323 
2125.000000	97.727700 
2124.000000	97.721563 
2123.000000	97.716833 
2122.000000	97.714473 
2121.000000	97.713712 
2120.000000	97.712595 
2119.000000	97.709655 
2118.000000	97.704770 
2117.000000	97.698768 
2116.000000	97.692852 
2115.000000	97.688135 
2114.000000	97.685022 
2113.000000	97.683002 
2112.000000	97.681412 
2111.000000	97.680027 
2110.000000	97.678537 
2109.000000	97.676363 
2108.000000	97.673789 
2107.000000	97.672314 
2106.000000	97.672912 
2105.000000	97.675344 
2104.000000	97.680123 
2103.000000	97.688438 
2102.000000	97.698120 
2101.000000	97.702468 
2100.000000	97.696789 
2099.000000	97.685215 
2098.000000	97.677871 
2097.000000	97.680311 
2096.000000	97.689230 
2095.000000	97.698495 
2094.000000	97.706011 
2093.000000	97.713043 
2092.000000	97.719598 
2091.000000	97.723607 
2090.000000	97.723827 
2089.000000	97.721383 
2088.000000	97.718477 
2087.000000	97.716415 
2086.000000	97.714735 
2085.000000	97.712061 
2084.000000	97.707918 
2083.000000	97.703348 
2082.000000	97.699431 
2081.000000	97.696028 
2080.000000	97.692825 
2079.000000	97.690714 
2078.000000	97.690628 
2077.000000	97.691504 
2076.000000	97.691180 
2075.000000	97.689201 
2074.000000	97.687010 
2073.000000	97.685452 
2072.000000	97.683914 
2071.000000	97.682012 
2070.000000	97.680601 
2069.000000	97.680635 
2068.000000	97.682005 
2067.000000	97.683922 
2066.000000	97.685602 
2065.000000	97.686407 
2064.000000	97.686079 
2063.000000	97.684951 
2062.000000	97.683728 
2061.000000	97.683071 
2060.000000	97.683163 
2059.000000	97.683777 
2058.000000	97.684508 
2057.000000	97.684990 
2056.000000	97.684951 
2055.000000	97.684309 
2054.000000	97.683420 
2053.000000	97.682825 
2052.000000	97.682723 
2051.000000	97.682848 
2050.000000	97.682804 
2049.000000	97.682568 
2048.000000	97.682476 
2047.000000	97.682738 
2046.000000	97.683151 
2045.000000	97.683374 
2044.000000	97.683330 
2043.000000	97.683284 
2042.000000	97.683589 
2041.000000	97.684428 
2040.000000	97.685769 
2039.000000	97.687416 
2038.000000	97.689058 
2037.000000	97.690268 
2036.000000	97.690678 
2035.000000	97.690269 
2034.000000	97.689628 
2033.000000	97.689672 
2032.000000	97.690871 
2031.000000	97.692855 
2030.000000	97.694688 
2029.000000	97.695774 
2028.000000	97.696304 
2027.000000	97.696903 
2026.000000	97.697941 
2025.000000	97.699322 
2024.000000	97.700862 
2023.000000	97.702568 
2022.000000	97.704373 
2021.000000	97.705724 
2020.000000	97.705901 
2019.000000	97.704815 
2018.000000	97.703046 
2017.000000	97.701398 
2016.000000	97.700399 
2015.000000	97.700069 
2014.000000	97.699943 
2013.000000	97.699360 
2012.000000	97.698081 
2011.000000	97.696624 
2010.000000	97.695878 
2009.000000	97.696148 
2008.000000	97.696991 
2007.000000	97.697763 
2006.000000	97.698182 
2005.000000	97.698294 
2004.000000	97.698221 
2003.000000	97.698100 
2002.000000	97.698061 
2001.000000	97.698183 
2000.000000	97.698469 
1999.000000	97.698860 
1998.000000	97.699245 
1997.000000	97.699540 
1996.000000	97.699747 
1995.000000	97.699947 
1994.000000	97.700192 
1993.000000	97.700418 
1992.000000	97.700488 
1991.000000	97.700355 
1990.000000	97.700141 
1989.000000	97.700016 
1988.000000	97.700019 
1987.000000	97.700025 
1986.000000	97.699895 
1985.000000	97.699617 
1984.000000	97.699246 
1983.000000	97.698812 
1982.000000	97.698390 
1981.000000	97.698171 
1980.000000	97.698292 
1979.000000	97.698586 
1978.000000	97.698603 
1977.000000	97.698027 
1976.000000	97.697061 
1975.000000	97.696359 
1974.000000	97.696436 
1973.000000	97.697475 
1972.000000	97.699435 
1971.000000	97.701825 
1970.000000	97.703452 
1969.000000	97.703139 
1968.000000	97.700884 
1967.000000	97.698194 
1966.000000	97.696858 
1965.000000	97.697840 
1964.000000	97.701500 
1963.000000	97.707656 
1962.000000	97.714772 
1961.000000	97.720033 
1960.000000	97.721341 
1959.000000	97.718814 
1958.000000	97.714214 
1957.000000	97.709575 
1956.000000	97.706197 
1955.000000	97.704129 
1954.000000	97.702323 
1953.000000	97.699689 
1952.000000	97.695975 
1951.000000	97.691612 
1950.000000	97.687517 
1949.000000	97.685104 
1948.000000	97.685617 
1947.000000	97.688691 
1946.000000	97.691851 
1945.000000	97.692425 
1944.000000	97.689753 
1943.000000	97.684987 
1942.000000	97.679720 
1941.000000	97.675352 
1940.000000	97.673012 
1939.000000	97.672755 
1938.000000	97.672981 
1937.000000	97.672300 
1936.000000	97.671628 
1935.000000	97.672447 
1934.000000	97.673875 
1933.000000	97.674672 
1932.000000	97.676680 
1931.000000	97.682624 
1930.000000	97.691007 
1929.000000	97.695854 
1928.000000	97.693676 
1927.000000	97.687396 
1926.000000	97.682679 
1925.000000	97.681645 
1924.000000	97.681953 
1923.000000	97.681052 
1922.000000	97.678434 
1921.000000	97.674364 
1920.000000	97.669537 
1919.000000	97.665627 
1918.000000	97.663982 
1917.000000	97.663701 
1916.000000	97.662827 
1915.000000	97.661328 
1914.000000	97.660478 
1913.000000	97.660343 
1912.000000	97.659758 
1911.000000	97.658524 
1910.000000	97.657994 
1909.000000	97.658728 
1908.000000	97.659549 
1907.000000	97.659240 
1906.000000	97.657867 
1905.000000	97.656047 
1904.000000	97.654041 
1903.000000	97.652509 
1902.000000	97.652358 
1901.000000	97.653054 
1900.000000	97.652959 
1899.000000	97.651502 
1898.000000	97.649716 
1897.000000	97.648515 
1896.000000	97.647223 
1895.000000	97.644738 
1894.000000	97.641272 
1893.000000	97.638086 
1892.000000	97.636303 
1891.000000	97.636456 
1890.000000	97.638252 
1889.000000	97.640062 
1888.000000	97.639894 
1887.000000	97.637616 
1886.000000	97.635063 
1885.000000	97.633644 
1884.000000	97.632738 
1883.000000	97.631325 
1882.000000	97.630116 
1881.000000	97.630637 
1880.000000	97.633344 
1879.000000	97.637392 
1878.000000	97.641454 
1877.000000	97.644423 
1876.000000	97.645517 
1875.000000	97.644645 
1874.000000	97.642852 
1873.000000	97.641717 
1872.000000	97.642046 
1871.000000	97.643490 
1870.000000	97.645173 
1869.000000	97.646479 
1868.000000	97.647387 
1867.000000	97.648188 
1866.000000	97.648939 
1865.000000	97.649258 
1864.000000	97.648918 
1863.000000	97.648400 
1862.000000	97.648550 
1861.000000	97.649669 
1860.000000	97.651345 
1859.000000	97.653103 
1858.000000	97.654857 
1857.000000	97.656594 
1856.000000	97.658174 
1855.000000	97.659555 
1854.000000	97.660861 
1853.000000	97.662190 
1852.000000	97.663591 
1851.000000	97.665097 
1850.000000	97.666658 
1849.000000	97.668195 
1848.000000	97.669666 
1847.000000	97.671089 
1846.000000	97.672488 
1845.000000	97.673878 
1844.000000	97.675251 
1843.000000	97.676615 
1842.000000	97.677986 
1841.000000	97.679372 
1840.000000	97.680766 
1839.000000	97.682142 
1838.000000	97.683468 
1837.000000	97.684717 
1836.000000	97.685889 
1835.000000	97.687009 
1834.000000	97.688115 
1833.000000	97.689228 
1832.000000	97.690336 
1831.000000	97.691408 
1830.000000	97.692421 
1829.000000	97.693378 
1828.000000	97.694307 
1827.000000	97.695233 
1826.000000	97.696166 
1825.000000	97.697091 
1824.000000	97.697991 
1823.000000	97.698856 
1822.000000	97.699685 
1821.000000	97.700481 
1820.000000	97.701235 
1819.000000	97.701941 
1818.000000	97.702594 
1817.000000	97.703194 
1816.000000	97.703739 
1815.000000	97.704226 
1814.000000	97.704659 
1813.000000	97.705048 
1812.000000	97.705392 
1811.000000	97.705684 
1810.000000	97.705919 
1809.000000	97.706107 
1808.000000	97.706256 
1807.000000	97.706373 
1806.000000	97.706471 
1805.000000	97.706563 
1804.000000	97.706658 
1803.000000	97.706751 
1802.000000	97.706842 
1801.000000	97.706933 
1800.000000	97.707023 
1799.000000	97.707104 
1798.000000	97.707163 
1797.000000	97.707219 
1796.000000	97.707234 
1795.000000	97.707058 
1794.000000	97.706736 
1793.000000	97.706637 
1792.000000	97.706824 
1791.000000	97.706632 
1790.000000	97.705887 
1789.000000	97.705340 
1788.000000	97.705482 
1787.000000	97.706012 
1786.000000	97.706527 
1785.000000	97.707028 
1784.000000	97.707336 
1783.000000	97.707577 
1782.000000	97.707870 
1781.000000	97.707728 
1780.000000	97.706918 
1779.000000	97.705915 
1778.000000	97.705849 
1777.000000	97.706768 
1776.000000	97.707519 
1775.000000	97.707524 
1774.000000	97.706765 
1773.000000	97.705377 
1772.000000	97.704115 
1771.000000	97.703347 
1770.000000	97.702744 
1769.000000	97.702910 
1768.000000	97.704657 
1767.000000	97.707259 
1766.000000	97.709115 
1765.000000	97.710276 
1764.000000	97.712495 
1763.000000	97.715968 
1762.000000	97.718085 
1761.000000	97.717658 
1760.000000	97.716675 
1759.000000	97.716770 
1758.000000	97.717378 
1757.000000	97.716046 
1756.000000	97.713205 
1755.000000	97.710578 
1754.000000	97.707403 
1753.000000	97.702784 
1752.000000	97.699027 
1751.000000	97.699797 
1750.000000	97.703535 
1749.000000	97.703898 
1748.000000	97.698662 
1747.000000	97.692722 
1746.000000	97.689823 
1745.000000	97.690036 
1744.000000	97.692532 
1743.000000	97.694561 
1742.000000	97.692907 
1741.000000	97.688594 
1740.000000	97.685959 
1739.000000	97.686696 
1738.000000	97.687021 
1737.000000	97.684660 
1736.000000	97.681541 
1735.000000	97.678587 
1734.000000	97.675054 
1733.000000	97.671949 
1732.000000	97.671346 
1731.000000	97.675903 
1730.000000	97.686101 
1729.000000	97.694934 
1728.000000	97.697643 
1727.000000	97.695502 
1726.000000	97.691170 
1725.000000	97.685369 
1724.000000	97.678879 
1723.000000	97.672852 
1722.000000	97.669111 
1721.000000	97.667574 
1720.000000	97.666894 
1719.000000	97.663252 
1718.000000	97.653143 
1717.000000	97.641081 
1716.000000	97.629464 
1715.000000	97.617167 
1714.000000	97.609682 
1713.000000	97.608557 
1712.000000	97.607080 
1711.000000	97.602179 
1710.000000	97.597405 
1709.000000	97.594530 
1708.000000	97.591274 
1707.000000	97.585936 
1706.000000	97.579600 
1705.000000	97.572626 
1704.000000	97.559373 
1703.000000	97.538904 
1702.000000	97.518212 
1701.000000	97.506039 
1700.000000	97.499743 
1699.000000	97.486715 
1698.000000	97.470079 
1697.000000	97.460956 
1696.000000	97.457508 
1695.000000	97.450431 
1694.000000	97.438460 
1693.000000	97.426503 
1692.000000	97.417208 
1691.000000	97.408595 
1690.000000	97.398062 
1689.000000	97.384311 
1688.000000	97.368402 
1687.000000	97.353262 
1686.000000	97.342188 
1685.000000	97.336369 
1684.000000	97.329263 
1683.000000	97.317724 
1682.000000	97.304686 
1681.000000	97.290546 
1680.000000	97.277592 
1679.000000	97.264974 
1678.000000	97.251349 
1677.000000	97.235961 
1676.000000	97.221635 
1675.000000	97.210289 
1674.000000	97.196999 
1673.000000	97.177875 
1672.000000	97.158458 
1671.000000	97.145303 
1670.000000	97.137389 
1669.000000	97.127022 
1668.000000	97.113789 
1667.000000	97.103108 
1666.000000	97.094436 
1665.000000	97.085755 
1664.000000	97.077248 
1663.000000	97.069892 
1662.000000	97.061681 
1661.000000	97.046771 
1660.000000	97.028001 
1659.000000	97.012871 
1658.000000	97.003158 
1657.000000	96.990341 
1656.000000	96.974414 
1655.000000	96.962988 
1654.000000	96.958882 
1653.000000	96.953245 
1652.000000	96.939295 
1651.000000	96.917579 
1650.000000	96.892010 
1649.000000	96.876901 
1648.000000	96.871285 
1647.000000	96.872244 
1646.000000	96.873716 
1645.000000	96.873749 
1644.000000	96.866870 
1643.000000	96.858237 
1642.000000	96.855043 
1641.000000	96.857279 
1640.000000	96.858050 
1639.000000	96.851793 
1638.000000	96.842068 
1637.000000	96.835611 
1636.000000	96.835008 
1635.000000	96.842540 
1634.000000	96.853334 
1633.000000	96.858092 
1632.000000	96.855824 
1631.000000	96.853725 
1630.000000	96.860156 
1629.000000	96.874456 
1628.000000	96.888588 
1627.000000	96.899580 
1626.000000	96.910874 
1625.000000	96.924693 
1624.000000	96.940355 
1623.000000	96.957203 
1622.000000	96.973220 
1621.000000	96.981319 
1620.000000	96.980790 
1619.000000	96.980958 
1618.000000	96.991616 
1617.000000	97.010434 
1616.000000	97.026086 
1615.000000	97.036957 
1614.000000	97.046848 
1613.000000	97.055581 
1612.000000	97.060724 
1611.000000	97.064359 
1610.000000	97.071343 
1609.000000	97.082719 
1608.000000	97.097469 
1607.000000	97.115900 
1606.000000	97.134735 
1605.000000	97.147847 
1604.000000	97.156042 
1603.000000	97.164882 
1602.000000	97.175976 
1601.000000	97.186290 
1600.000000	97.194991 
1599.000000	97.204464 
1598.000000	97.214159 
1597.000000	97.221093 
1596.000000	97.225520 
1595.000000	97.231758 
1594.000000	97.242098 
1593.000000	97.252983 
1592.000000	97.260494 
1591.000000	97.265632 
1590.000000	97.271471 
1589.000000	97.278521 
1588.000000	97.286287 
1587.000000	97.295660 
1586.000000	97.306443 
1585.000000	97.315096 
1584.000000	97.320351 
1583.000000	97.326303 
1582.000000	97.335347 
1581.000000	97.344451 
1580.000000	97.350737 
1579.000000	97.356251 
1578.000000	97.363986 
1577.000000	97.372892 
1576.000000	97.379863 
1575.000000	97.386050 
1574.000000	97.391717 
1573.000000	97.395464 
1572.000000	97.399830 
1571.000000	97.407092 
1570.000000	97.414958 
1569.000000	97.417574 
1568.000000	97.416510 
1567.000000	97.417719 
1566.000000	97.422865 
1565.000000	97.428744 
1564.000000	97.433945 
1563.000000	97.438640 
1562.000000	97.443531 
1561.000000	97.447617 
1560.000000	97.450777 
1559.000000	97.452195 
1558.000000	97.454646 
1557.000000	97.459042 
1556.000000	97.461905 
1555.000000	97.466975 
1554.000000	97.472067 
1553.000000	97.476666 
1552.000000	97.480362 
1551.000000	97.483507 
1550.000000	97.485489 
1549.000000	97.486910 
1548.000000	97.488954 
1547.000000	97.492204 
1546.000000	97.495963 
1545.000000	97.499260 
1544.000000	97.501958 
1543.000000	97.504491 
1542.000000	97.507290 
1541.000000	97.510384 
1540.000000	97.513081 
1539.000000	97.515501 
1538.000000	97.517937 
1537.000000	97.520268 
1536.000000	97.522594 
1535.000000	97.524970 
1534.000000	97.527353 
1533.000000	97.529701 
1532.000000	97.532022 
1531.000000	97.534320 
1530.000000	97.536592 
1529.000000	97.538866 
1528.000000	97.541168 
1527.000000	97.543440 
1526.000000	97.545579 
1525.000000	97.547682 
1524.000000	97.550177 
1523.000000	97.553430 
1522.000000	97.556974 
1521.000000	97.559612 
1520.000000	97.560778 
1519.000000	97.561076 
1518.000000	97.561613 
1517.000000	97.562871 
1516.000000	97.564271 
1515.000000	97.565775 
1514.000000	97.567914 
1513.000000	97.571454 
1512.000000	97.575559 
1511.000000	97.577266 
1510.000000	97.575537 
1509.000000	97.573394 
1508.000000	97.574644 
1507.000000	97.576390 
1506.000000	97.577742 
1505.000000	97.580153 
1504.000000	97.579568 
1503.000000	97.576638 
1502.000000	97.573002 
1501.000000	97.571346 
1500.000000	97.573672 
1499.000000	97.579312 
1498.000000	97.583304 
1497.000000	97.584231 
1496.000000	97.584890 
1495.000000	97.585995 
1494.000000	97.587603 
1493.000000	97.591614 
1492.000000	97.599273 
1491.000000	97.607924 
1490.000000	97.612891 
1489.000000	97.614149 
1488.000000	97.612805 
1487.000000	97.608684 
1486.000000	97.606409 
1485.000000	97.606220 
1484.000000	97.604071 
1483.000000	97.598984 
1482.000000	97.592446 
1481.000000	97.587180 
1480.000000	97.583761 
1479.000000	97.581610 
1478.000000	97.580546 
1477.000000	97.580296 
1476.000000	97.577699 
1475.000000	97.570292 
1474.000000	97.560853 
1473.000000	97.555025 
1472.000000	97.555645 
1471.000000	97.558167 
1470.000000	97.558156 
1469.000000	97.556282 
1468.000000	97.553569 
1467.000000	97.549217 
1466.000000	97.543731 
1465.000000	97.539236 
1464.000000	97.537365 
1463.000000	97.535105 
1462.000000	97.529431 
1461.000000	97.522307 
1460.000000	97.517453 
1459.000000	97.515773 
1458.000000	97.510030 
1457.000000	97.496059 
1456.000000	97.483087 
1455.000000	97.474947 
1454.000000	97.466669 
1453.000000	97.459666 
1452.000000	97.456322 
1451.000000	97.456835 
1450.000000	97.459361 
1449.000000	97.464227 
1448.000000	97.470395 
1447.000000	97.473692 
1446.000000	97.470990 
1445.000000	97.464280 
1444.000000	97.459215 
1443.000000	97.456741 
1442.000000	97.453684 
1441.000000	97.448070 
1440.000000	97.441753 
1439.000000	97.436592 
1438.000000	97.431250 
1437.000000	97.425454 
1436.000000	97.422178 
1435.000000	97.419864 
1434.000000	97.414070 
1433.000000	97.407819 
1432.000000	97.405179 
1431.000000	97.405202 
1430.000000	97.402875 
1429.000000	97.397168 
1428.000000	97.391152 
1427.000000	97.387301 
1426.000000	97.385715 
1425.000000	97.384241 
1424.000000	97.383037 
1423.000000	97.380879 
1422.000000	97.375477 
1421.000000	97.369150 
1420.000000	97.366621 
1419.000000	97.362760 
1418.000000	97.346668 
1417.000000	97.323613 
1416.000000	97.307995 
1415.000000	97.303606 
1414.000000	97.301318 
1413.000000	97.293003 
1412.000000	97.281079 
1411.000000	97.271217 
1410.000000	97.263060 
1409.000000	97.256112 
1408.000000	97.252989 
1407.000000	97.254452 
1406.000000	97.257122 
1405.000000	97.259212 
1404.000000	97.266466 
1403.000000	97.280943 
1402.000000	97.296727 
1401.000000	97.310645 
1400.000000	97.325041 
1399.000000	97.339621 
1398.000000	97.346501 
1397.000000	97.339499 
1396.000000	97.322483 
1395.000000	97.308061 
1394.000000	97.306526 
1393.000000	97.318950 
1392.000000	97.341844 
1391.000000	97.369045 
1390.000000	97.392955 
1389.000000	97.408090 
1388.000000	97.413034 
1387.000000	97.410135 
1386.000000	97.404246 
1385.000000	97.400753 
1384.000000	97.403905 
1383.000000	97.413411 
1382.000000	97.424392 
1381.000000	97.433277 
1380.000000	97.440692 
1379.000000	97.449602 
1378.000000	97.461381 
1377.000000	97.474962 
1376.000000	97.488715 
1375.000000	97.501742 
1374.000000	97.513518 
1373.000000	97.524961 
1372.000000	97.538159 
1371.000000	97.554536 
1370.000000	97.572812 
1369.000000	97.587951 
1368.000000	97.597595 
1367.000000	97.604256 
1366.000000	97.611836 
1365.000000	97.622748 
1364.000000	97.636179 
1363.000000	97.648106 
1362.000000	97.655561 
1361.000000	97.659816 
1360.000000	97.664388 
1359.000000	97.672121 
1358.000000	97.683337 
1357.000000	97.696037 
1356.000000	97.708208 
1355.000000	97.718486 
1354.000000	97.725799 
1353.000000	97.730980 
1352.000000	97.735529 
1351.000000	97.741492 
1350.000000	97.751146 
1349.000000	97.762246 
1348.000000	97.771217 
1347.000000	97.776713 
1346.000000	97.780215 
1345.000000	97.783327 
1344.000000	97.787093 
1343.000000	97.792334 
1342.000000	97.798905 
1341.000000	97.803976 
1340.000000	97.804022 
1339.000000	97.799538 
1338.000000	97.794677 
1337.000000	97.792667 
1336.000000	97.793818 
1335.000000	97.796319 
1334.000000	97.798025 
1333.000000	97.798077 
1332.000000	97.797025 
1331.000000	97.796155 
1330.000000	97.796094 
1329.000000	97.796245 
1328.000000	97.795976 
1327.000000	97.796034 
1326.000000	97.797108 
1325.000000	97.797624 
1324.000000	97.797112 
1323.000000	97.796956 
1322.000000	97.797316 
1321.000000	97.796151 
1320.000000	97.792742 
1319.000000	97.789314 
1318.000000	97.787961 
1317.000000	97.788272 
1316.000000	97.788764 
1315.000000	97.788708 
1314.000000	97.787828 
1313.000000	97.786671 
1312.000000	97.787005 
1311.000000	97.789894 
1310.000000	97.793409 
1309.000000	97.794726 
1308.000000	97.793888 
1307.000000	97.793922 
1306.000000	97.796974 
1305.000000	97.801519 
1304.000000	97.805242 
1303.000000	97.806565 
1302.000000	97.804209 
1301.000000	97.798206 
1300.000000	97.792289 
1299.000000	97.791638 
1298.000000	97.796827 
1297.000000	97.802366 
1296.000000	97.802772 
1295.000000	97.798473 
1294.000000	97.794055 
1293.000000	97.792801 
1292.000000	97.794465 
1291.000000	97.797054 
1290.000000	97.799060 
1289.000000	97.800212 
1288.000000	97.800969 
1287.000000	97.801566 
1286.000000	97.801424 
1285.000000	97.800090 
1284.000000	97.798531 
1283.000000	97.797954 
1282.000000	97.797672 
1281.000000	97.795609 
1280.000000	97.791383 
1279.000000	97.787689 
1278.000000	97.787414 
1277.000000	97.790480 
1276.000000	97.794119 
1275.000000	97.796244 
1274.000000	97.797433 
1273.000000	97.799532 
1272.000000	97.802754 
1271.000000	97.804826 
1270.000000	97.803397 
1269.000000	97.798852 
1268.000000	97.794103 
1267.000000	97.791273 
1266.000000	97.789539 
1265.000000	97.787496 
1264.000000	97.785825 
1263.000000	97.785810 
1262.000000	97.786723 
1261.000000	97.786797 
1260.000000	97.786306 
1259.000000	97.787513 
1258.000000	97.790868 
1257.000000	97.793551 
1256.000000	97.792067 
1255.000000	97.785722 
1254.000000	97.777661 
1253.000000	97.772445 
1252.000000	97.771567 
1251.000000	97.771832 
1250.000000	97.769882 
1249.000000	97.768039 
1248.000000	97.772460 
1247.000000	97.784066 
1246.000000	97.794623 
1245.000000	97.795273 
1244.000000	97.786496 
1243.000000	97.777178 
1242.000000	97.776057 
1241.000000	97.786041 
1240.000000	97.803433 
1239.000000	97.819070 
1238.000000	97.823165 
1237.000000	97.813362 
1236.000000	97.796840 
1235.000000	97.782066 
1234.000000	97.770679 
1233.000000	97.760264 
1232.000000	97.751583 
1231.000000	97.747971 
1230.000000	97.749728 
1229.000000	97.753878 
1228.000000	97.757603 
1227.000000	97.757554 
1226.000000	97.748328 
1225.000000	97.727158 
1224.000000	97.699310 
1223.000000	97.674072 
1222.000000	97.655345 
1221.000000	97.639625 
1220.000000	97.622074 
1219.000000	97.600368 
1218.000000	97.573528 
1217.000000	97.541517 
1216.000000	97.505632 
1215.000000	97.466145 
1214.000000	97.421283 
1213.000000	97.372141 
1212.000000	97.325417 
1211.000000	97.285209 
1210.000000	97.244718 
1209.000000	97.193419 
1208.000000	97.131258 
1207.000000	97.068710 
1206.000000	97.012988 
1205.000000	96.961051 
1204.000000	96.907068 
1203.000000	96.849590 
1202.000000	96.789326 
1201.000000	96.725795 
1200.000000	96.659121 
1199.000000	96.591176 
1198.000000	96.522623 
1197.000000	96.452362 
1196.000000	96.381099 
1195.000000	96.311975 
1194.000000	96.246459 
1193.000000	96.182205 
1192.000000	96.115672 
1191.000000	96.044489 
1190.000000	95.967808 
1189.000000	95.887134 
1188.000000	95.805918 
1187.000000	95.725519 
1186.000000	95.643079 
1185.000000	95.556346 
1184.000000	95.467770 
1183.000000	95.380023 
1182.000000	95.291228 
1181.000000	95.199858 
1180.000000	95.110409 
1179.000000	95.026829 
1178.000000	94.942905 
1177.000000	94.847735 
1176.000000	94.739685 
1175.000000	94.626894 
1174.000000	94.514768 
1173.000000	94.401419 
1172.000000	94.285800 
1171.000000	94.170863 
1170.000000	94.056766 
1169.000000	93.939728 
1168.000000	93.820742 
1167.000000	93.708583 
1166.000000	93.612205 
1165.000000	93.537104 
1164.000000	93.490117 
1163.000000	93.478784 
1162.000000	93.502316 
1161.000000	93.548917 
1160.000000	93.603354 
1159.000000	93.651395 
1158.000000	93.677964 
1157.000000	93.670935 
1156.000000	93.629628 
1155.000000	93.563296 
1154.000000	93.479924 
1153.000000	93.382715 
1152.000000	93.277598 
1151.000000	93.174507 
1150.000000	93.077759 
1149.000000	92.982973 
1148.000000	92.886587 
1147.000000	92.790594 
1146.000000	92.695104 
1145.000000	92.594804 
1144.000000	92.487213 
1143.000000	92.377491 
1142.000000	92.270947 
1141.000000	92.166942 
1140.000000	92.063244 
1139.000000	91.959620 
1138.000000	91.854222 
1137.000000	91.743390 
1136.000000	91.628025 
1135.000000	91.513443 
1134.000000	91.400318 
1133.000000	91.282879 
1132.000000	91.158715 
1131.000000	91.033127 
1130.000000	90.910976 
1129.000000	90.791044 
1128.000000	90.670706 
1127.000000	90.548913 
1126.000000	90.422586 
1125.000000	90.287833 
1124.000000	90.146940 
1123.000000	90.006900 
1122.000000	89.869538 
1121.000000	89.731189 
1120.000000	89.593020 
1119.000000	89.461701 
1118.000000	89.337795 
1117.000000	89.213823 
1116.000000	89.086588 
1115.000000	88.961877 
1114.000000	88.844363 
1113.000000	88.732514 
1112.000000	88.625537 
1111.000000	88.524800 
1110.000000	88.426051 
1109.000000	88.321017 
1108.000000	88.209008 
1107.000000	88.096594 
1106.000000	87.985382 
1105.000000	87.870870 
1104.000000	87.753453 
1103.000000	87.638612 
1102.000000	87.524839 
1101.000000	87.405616 
1100.000000	87.284227 
1099.000000	87.171586 
1098.000000	87.070546 
1097.000000	86.972133 
1096.000000	86.870983 
1095.000000	86.769573 
1094.000000	86.665700 
1093.000000	86.550674 
1092.000000	86.424127 
1091.000000	86.297391 
1090.000000	86.178570 
1089.000000	86.066107 
1088.000000	85.958353 
1087.000000	85.855381 
1086.000000	85.749970 
1085.000000	85.632199 
1084.000000	85.505651 
1083.000000	85.384651 
1082.000000	85.273724 
1081.000000	85.164985 
1080.000000	85.056841 
1079.000000	84.957255 
1078.000000	84.865263 
1077.000000	84.767300 
1076.000000	84.656707 
1075.000000	84.540411 
1074.000000	84.422383 
1073.000000	84.296779 
1072.000000	84.159990 
1071.000000	84.010805 
1070.000000	83.835296 
1069.000000	83.613095 
1068.000000	83.347346 
1067.000000	83.072143 
1066.000000	82.821187 
1065.000000	82.601348 
1064.000000	82.401408 
1063.000000	82.206872 
1062.000000	81.997989 
1061.000000	81.753714 
1060.000000	81.471903 
1059.000000	81.174717 
1058.000000	80.885429 
1057.000000	80.609814 
1056.000000	80.343868 
1055.000000	80.083334 
1054.000000	79.818896 
1053.000000	79.538460 
1052.000000	79.242969 
1051.000000	78.945669 
1050.000000	78.649074 
1049.000000	78.340230 
1048.000000	78.015061 
1047.000000	77.687261 
1046.000000	77.367015 
1045.000000	77.050380 
1044.000000	76.734120 
1043.000000	76.422165 
1042.000000	76.113136 
1041.000000	75.799656 
1040.000000	75.484940 
1039.000000	75.183299 
1038.000000	74.900841 
1037.000000	74.632882 
1036.000000	74.381526 
1035.000000	74.155568 
1034.000000	73.950998 
1033.000000	73.752352 
1032.000000	73.555145 
1031.000000	73.366320 
1030.000000	73.183779 
1029.000000	73.000861 
1028.000000	72.831496 
1027.000000	72.702326 
1026.000000	72.614828 
1025.000000	72.540774 
1024.000000	72.459945 
1023.000000	72.376594 
1022.000000	72.294028 
1021.000000	72.201791 
1020.000000	72.096625 
1019.000000	71.991039 
1018.000000	71.892370 
1017.000000	71.795385 
1016.000000	71.701201 
1015.000000	71.620225 
1014.000000	71.550842 
1013.000000	71.478639 
1012.000000	71.401953 
1011.000000	71.334857 
1010.000000	71.280454 
1009.000000	71.225432 
1008.000000	71.165937 
1007.000000	71.115133 
1006.000000	71.080873 
1005.000000	71.059756 
1004.000000	71.056071 
1003.000000	71.080307 
1002.000000	71.123995 
1001.000000	71.161982 
1000.000000	71.186316 
999.000000	 71.214288 
998.000000	 71.258341 
997.000000	 71.312544 
996.000000	 71.372730 
995.000000	 71.444752 
994.000000	 71.527504 
993.000000	 71.611620 
992.000000	 71.699206 
991.000000	 71.801134 
990.000000	 71.912310 
989.000000	 72.015260 
988.000000	 72.111382 
987.000000	 72.221843 
986.000000	 72.353592 
985.000000	 72.491911 
984.000000	 72.631183 
983.000000	 72.784952 
982.000000	 72.958719 
981.000000	 73.140102 
980.000000	 73.324043 
979.000000	 73.522365 
978.000000	 73.739684 
977.000000	 73.964113 
976.000000	 74.190130 
975.000000	 74.427745 
974.000000	 74.681264 
973.000000	 74.941423 
972.000000	 75.205767 
971.000000	 75.484756 
970.000000	 75.780063 
969.000000	 76.077590 
968.000000	 76.368941 
967.000000	 76.660248 
966.000000	 76.954288 
965.000000	 77.244103 
964.000000	 77.529885 
963.000000	 77.822109 
962.000000	 78.121942 
961.000000	 78.417236 
960.000000	 78.702700 
959.000000	 78.985137 
958.000000	 79.264476 
957.000000	 79.529102 
956.000000	 79.775308 
955.000000	 80.013304 
954.000000	 80.249324 
953.000000	 80.478764 
952.000000	 80.700416 
951.000000	 80.919386 
950.000000	 81.132322 
949.000000	 81.327856 
948.000000	 81.505238 
947.000000	 81.675098 
946.000000	 81.839013 
945.000000	 81.986391 
944.000000	 82.114689 
943.000000	 82.234359 
942.000000	 82.350342 
941.000000	 82.457116 
940.000000	 82.556256 
939.000000	 82.660120 
938.000000	 82.772885 
937.000000	 82.885510 
936.000000	 82.994398 
935.000000	 83.107467 
934.000000	 83.226987 
933.000000	 83.344099 
932.000000	 83.455766 
931.000000	 83.570233 
930.000000	 83.690248 
929.000000	 83.806786 
928.000000	 83.914596 
927.000000	 84.018930 
926.000000	 84.122490 
925.000000	 84.219934 
924.000000	 84.308476 
923.000000	 84.389945 
922.000000	 84.461169 
921.000000	 84.517784 
920.000000	 84.568175 
919.000000	 84.626599 
918.000000	 84.691095 
917.000000	 84.746005 
916.000000	 84.788902 
915.000000	 84.837371 
914.000000	 84.906326 
913.000000	 84.996188 
912.000000	 85.105762 
911.000000	 85.238252 
910.000000	 85.391134 
909.000000	 85.558124 
908.000000	 85.744438 
907.000000	 85.962458 
906.000000	 86.209847 
905.000000	 86.469300 
904.000000	 86.731635 
903.000000	 87.001375 
902.000000	 87.278750 
901.000000	 87.555751 
900.000000	 87.831857 
899.000000	 88.114857 
898.000000	 88.403514 
897.000000	 88.685782 
896.000000	 88.955362 
895.000000	 89.213687 
894.000000	 89.457068 
893.000000	 89.680286 
892.000000	 89.892210 
891.000000	 90.108673 
890.000000	 90.328947 
889.000000	 90.537526 
888.000000	 90.729442 
887.000000	 90.914944 
886.000000	 91.098951 
885.000000	 91.275334 
884.000000	 91.442262 
883.000000	 91.603324 
882.000000	 91.753505 
881.000000	 91.886842 
880.000000	 92.020349 
879.000000	 92.185887 
878.000000	 92.390944 
877.000000	 92.608286 
876.000000	 92.809995 
875.000000	 92.990895 
874.000000	 93.155842 
873.000000	 93.309121 
872.000000	 93.463389 
871.000000	 93.635592 
870.000000	 93.824216 
869.000000	 94.009091 
868.000000	 94.180045 
867.000000	 94.347271 
866.000000	 94.518842 
865.000000	 94.688169 
864.000000	 94.851259 
863.000000	 95.017220 
862.000000	 95.191412 
861.000000	 95.363669 
860.000000	 95.523424 
859.000000	 95.673769 
858.000000	 95.822314 
857.000000	 95.969415 
856.000000	 96.112375 
855.000000	 96.250035 
854.000000	 96.376660 
853.000000	 96.482157 
852.000000	 96.565279 
851.000000	 96.638633 
850.000000	 96.716045 
849.000000	 96.801337 
848.000000	 96.889769 
847.000000	 96.970701 
846.000000	 97.029801 
845.000000	 97.061341 
844.000000	 97.078420 
843.000000	 97.098437 
842.000000	 97.118943 
841.000000	 97.122075 
840.000000	 97.101512 
839.000000	 97.068009 
838.000000	 97.028387 
837.000000	 96.978315 
836.000000	 96.919879 
835.000000	 96.867558 
834.000000	 96.829276 
833.000000	 96.797388 
832.000000	 96.765910 
831.000000	 96.741656 
830.000000	 96.730567 
829.000000	 96.727850 
828.000000	 96.731136 
827.000000	 96.750160 
826.000000	 96.793433 
825.000000	 96.856611 
824.000000	 96.930932 
823.000000	 97.009726 
822.000000	 97.082061 
821.000000	 97.136158 
820.000000	 97.173672 
819.000000	 97.206011 
818.000000	 97.234016 
817.000000	 97.244343 
816.000000	 97.226949 
815.000000	 97.182782 
814.000000	 97.112613 
813.000000	 97.011445 
812.000000	 96.876018 
811.000000	 96.704016 
810.000000	 96.482383 
809.000000	 96.190087 
808.000000	 95.817788 
807.000000	 95.375371 
806.000000	 94.879840 
805.000000	 94.349026 
804.000000	 93.808611 
803.000000	 93.288440 
802.000000	 92.806611 
801.000000	 92.372612 
800.000000	 92.007832 
799.000000	 91.742051 
798.000000	 91.584074 
797.000000	 91.515102 
796.000000	 91.514514 
795.000000	 91.571081 
794.000000	 91.666937 
793.000000	 91.776378 
792.000000	 91.887215 
791.000000	 92.001320 
790.000000	 92.109328 
789.000000	 92.187340 
788.000000	 92.223229 
787.000000	 92.223370 
786.000000	 92.188389 
785.000000	 92.105162 
784.000000	 91.969843 
783.000000	 91.797795 
782.000000	 91.604939 
781.000000	 91.402058 
780.000000	 91.213981 
779.000000	 91.079048 
778.000000	 91.018082 
777.000000	 91.023770 
776.000000	 91.086985 
775.000000	 91.209590 
774.000000	 91.383144 
773.000000	 91.580470 
772.000000	 91.780121 
771.000000	 91.978310 
770.000000	 92.168854 
769.000000	 92.334889 
768.000000	 92.469634 
767.000000	 92.582672 
766.000000	 92.676855 
765.000000	 92.742568 
764.000000	 92.784114 
763.000000	 92.825401 
762.000000	 92.876078 
761.000000	 92.917836 
760.000000	 92.941329 
759.000000	 92.972104 
758.000000	 93.038003 
757.000000	 93.130708 
756.000000	 93.223253 
755.000000	 93.311033 
754.000000	 93.411325 
753.000000	 93.529101 
752.000000	 93.643462 
751.000000	 93.727631 
750.000000	 93.773822 
749.000000	 93.801998 
748.000000	 93.847923 
747.000000	 93.934120 
746.000000	 94.048786 
745.000000	 94.162811 
744.000000	 94.268342 
743.000000	 94.385011 
742.000000	 94.526193 
741.000000	 94.679616 
740.000000	 94.828369 
739.000000	 94.971185 
738.000000	 95.111466 
737.000000	 95.243154 
736.000000	 95.359806 
735.000000	 95.465621 
734.000000	 95.567882 
733.000000	 95.668195 
732.000000	 95.765954 
731.000000	 95.857892 
730.000000	 95.930937 
729.000000	 95.971122 
728.000000	 95.984574 
727.000000	 95.995612 
726.000000	 96.020700 
725.000000	 96.059081 
724.000000	 96.110252 
723.000000	 96.180656 
722.000000	 96.267409 
721.000000	 96.353756 
720.000000	 96.428617 
719.000000	 96.495661 
718.000000	 96.558101 
717.000000	 96.613347 
716.000000	 96.667053 
715.000000	 96.730673 
714.000000	 96.798342 
713.000000	 96.847377 
712.000000	 96.870253 
711.000000	 96.885686 
710.000000	 96.909683 
709.000000	 96.936162 
708.000000	 96.955092 
707.000000	 96.967803 
706.000000	 96.972278 
705.000000	 96.954192 
704.000000	 96.906175 
703.000000	 96.837559 
702.000000	 96.750039 
701.000000	 96.620775 
700.000000	 96.424613 
699.000000	 96.160887 
698.000000	 95.851978 
697.000000	 95.533865 
696.000000	 95.257488 
695.000000	 95.077479 
694.000000	 95.019567 
693.000000	 95.066991 
692.000000	 95.184728 
691.000000	 95.343094 
690.000000	 95.516055 
689.000000	 95.679290 
688.000000	 95.823221 
687.000000	 95.952983 
686.000000	 96.066386 
685.000000	 96.151832 
684.000000	 96.213874 
683.000000	 96.275272 
682.000000	 96.346506 
681.000000	 96.416528 
680.000000	 96.479665 
679.000000	 96.546828 
678.000000	 96.620883 
677.000000	 96.689648 
676.000000	 96.754511 
675.000000	 96.834467 
674.000000	 96.929545 
673.000000	 97.007755 
672.000000	 97.040843 
671.000000	 97.030326 
670.000000	 96.998890 
669.000000	 96.985590 
668.000000	 97.043510 
667.000000	 97.187333 
666.000000	 97.350567 
665.000000	 97.461256 
664.000000	 97.516847 
663.000000	 97.545213 
662.000000	 97.569260 
661.000000	 97.597317 
660.000000	 97.643272 
659.000000	 97.722826 
658.000000	 97.818369 
657.000000	 97.884775 
656.000000	 97.904205 
655.000000	 97.898343 
654.000000	 97.881947 
653.000000	 97.842566 
652.000000	 97.781036 
651.000000	 97.732685 
650.000000	 97.719549 

