4000.000000	97.196411 
3999.000000	97.194850 
3998.000000	97.191833 
3997.000000	97.188570 
3996.000000	97.186065 
3995.000000	97.184680 
3994.000000	97.184512 
3993.000000	97.185403 
3992.000000	97.186679 
3991.000000	97.187568 
3990.000000	97.187934 
3989.000000	97.188207 
3988.000000	97.188655 
3987.000000	97.189126 
3986.000000	97.189569 
3985.000000	97.190253 
3984.000000	97.191162 
3983.000000	97.191717 
3982.000000	97.191506 
3981.000000	97.190858 
3980.000000	97.190311 
3979.000000	97.189774 
3978.000000	97.188910 
3977.000000	97.188122 
3976.000000	97.188255 
3975.000000	97.189212 
3974.000000	97.189638 
3973.000000	97.188350 
3972.000000	97.185517 
3971.000000	97.182280 
3970.000000	97.179813 
3969.000000	97.178763 
3968.000000	97.179135 
3967.000000	97.180291 
3966.000000	97.181290 
3965.000000	97.181468 
3964.000000	97.180619 
3963.000000	97.178946 
3962.000000	97.177028 
3961.000000	97.175728 
3960.000000	97.175505 
3959.000000	97.175753 
3958.000000	97.175640 
3957.000000	97.175115 
3956.000000	97.174595 
3955.000000	97.173886 
3954.000000	97.172182 
3953.000000	97.169167 
3952.000000	97.165484 
3951.000000	97.162363 
3950.000000	97.160718 
3949.000000	97.160482 
3948.000000	97.160704 
3947.000000	97.160572 
3946.000000	97.160143 
3945.000000	97.159776 
3944.000000	97.159488 
3943.000000	97.159301 
3942.000000	97.159837 
3941.000000	97.161886 
3940.000000	97.165015 
3939.000000	97.167032 
3938.000000	97.166426 
3937.000000	97.163972 
3936.000000	97.161460 
3935.000000	97.159494 
3934.000000	97.157584 
3933.000000	97.156282 
3932.000000	97.156708 
3931.000000	97.158393 
3930.000000	97.159268 
3929.000000	97.158153 
3928.000000	97.156415 
3927.000000	97.155692 
3926.000000	97.155405 
3925.000000	97.154143 
3924.000000	97.152487 
3923.000000	97.151989 
3922.000000	97.152044 
3921.000000	97.151006 
3920.000000	97.149557 
3919.000000	97.149874 
3918.000000	97.152111 
3917.000000	97.154248 
3916.000000	97.155166 
3915.000000	97.155555 
3914.000000	97.155894 
3913.000000	97.155560 
3912.000000	97.154526 
3911.000000	97.153247 
3910.000000	97.152003 
3909.000000	97.150759 
3908.000000	97.149601 
3907.000000	97.148789 
3906.000000	97.148364 
3905.000000	97.148188 
3904.000000	97.148139 
3903.000000	97.148142 
3902.000000	97.148083 
3901.000000	97.148041 
3900.000000	97.148017 
3899.000000	97.147971 
3898.000000	97.147879 
3897.000000	97.147744 
3896.000000	97.147579 
3895.000000	97.147383 
3894.000000	97.147144 
3893.000000	97.146863 
3892.000000	97.146553 
3891.000000	97.146223 
3890.000000	97.145893 
3889.000000	97.145590 
3888.000000	97.145322 
3887.000000	97.145076 
3886.000000	97.144837 
3885.000000	97.144611 
3884.000000	97.144411 
3883.000000	97.144237 
3882.000000	97.144070 
3881.000000	97.143898 
3880.000000	97.143730 
3879.000000	97.143579 
3878.000000	97.143447 
3877.000000	97.143314 
3876.000000	97.143161 
3875.000000	97.142996 
3874.000000	97.142850 
3873.000000	97.142758 
3872.000000	97.142726 
3871.000000	97.142735 
3870.000000	97.142770 
3869.000000	97.142850 
3868.000000	97.143000 
3867.000000	97.143206 
3866.000000	97.143423 
3865.000000	97.143633 
3864.000000	97.143852 
3863.000000	97.144078 
3862.000000	97.144275 
3861.000000	97.144415 
3860.000000	97.144510 
3859.000000	97.144585 
3858.000000	97.144659 
3857.000000	97.144759 
3856.000000	97.144931 
3855.000000	97.145220 
3854.000000	97.145623 
3853.000000	97.146100 
3852.000000	97.146665 
3851.000000	97.147370 
3850.000000	97.148200 
3849.000000	97.149090 
3848.000000	97.149984 
3847.000000	97.150855 
3846.000000	97.151697 
3845.000000	97.152521 
3844.000000	97.153341 
3843.000000	97.154159 
3842.000000	97.154976 
3841.000000	97.155803 
3840.000000	97.156658 
3839.000000	97.157546 
3838.000000	97.158453 
3837.000000	97.159367 
3836.000000	97.160296 
3835.000000	97.161254 
3834.000000	97.162240 
3833.000000	97.163243 
3832.000000	97.164244 
3831.000000	97.165234 
3830.000000	97.166208 
3829.000000	97.167171 
3828.000000	97.168123 
3827.000000	97.169059 
3826.000000	97.169970 
3825.000000	97.170865 
3824.000000	97.171763 
3823.000000	97.172673 
3822.000000	97.173575 
3821.000000	97.174448 
3820.000000	97.175320 
3819.000000	97.176242 
3818.000000	97.177213 
3817.000000	97.178186 
3816.000000	97.179128 
3815.000000	97.180053 
3814.000000	97.180983 
3813.000000	97.181898 
3812.000000	97.182755 
3811.000000	97.183552 
3810.000000	97.184312 
3809.000000	97.185030 
3808.000000	97.185672 
3807.000000	97.186232 
3806.000000	97.186755 
3805.000000	97.187302 
3804.000000	97.187895 
3803.000000	97.188509 
3802.000000	97.189115 
3801.000000	97.189716 
3800.000000	97.190342 
3799.000000	97.190997 
3798.000000	97.191634 
3797.000000	97.192203 
3796.000000	97.192695 
3795.000000	97.193123 
3794.000000	97.193493 
3793.000000	97.193800 
3792.000000	97.194036 
3791.000000	97.194196 
3790.000000	97.194277 
3789.000000	97.194290 
3788.000000	97.194249 
3787.000000	97.194169 
3786.000000	97.194050 
3785.000000	97.193886 
3784.000000	97.193691 
3783.000000	97.193484 
3782.000000	97.193253 
3781.000000	97.192967 
3780.000000	97.192613 
3779.000000	97.192201 
3778.000000	97.191744 
3777.000000	97.191234 
3776.000000	97.190660 
3775.000000	97.190043 
3774.000000	97.189413 
3773.000000	97.188778 
3772.000000	97.188123 
3771.000000	97.187426 
3770.000000	97.186691 
3769.000000	97.185934 
3768.000000	97.185163 
3767.000000	97.184368 
3766.000000	97.183545 
3765.000000	97.182708 
3764.000000	97.181874 
3763.000000	97.181034 
3762.000000	97.180155 
3761.000000	97.179216 
3760.000000	97.178225 
3759.000000	97.177189 
3758.000000	97.176094 
3757.000000	97.174925 
3756.000000	97.173697 
3755.000000	97.172459 
3754.000000	97.171259 
3753.000000	97.170119 
3752.000000	97.169040 
3751.000000	97.167996 
3750.000000	97.166938 
3749.000000	97.165755 
3748.000000	97.164450 
3747.000000	97.163308 
3746.000000	97.162503 
3745.000000	97.161736 
3744.000000	97.160268 
3743.000000	97.158605 
3742.000000	97.158436 
3741.000000	97.158468 
3740.000000	97.156141 
3739.000000	97.152149 
3738.000000	97.149124 
3737.000000	97.147691 
3736.000000	97.146434 
3735.000000	97.145940 
3734.000000	97.148031 
3733.000000	97.150460 
3732.000000	97.148677 
3731.000000	97.143416 
3730.000000	97.139999 
3729.000000	97.139498 
3728.000000	97.137659 
3727.000000	97.132674 
3726.000000	97.128139 
3725.000000	97.128132 
3724.000000	97.130865 
3723.000000	97.131034 
3722.000000	97.127281 
3721.000000	97.121946 
3720.000000	97.116937 
3719.000000	97.111079 
3718.000000	97.102257 
3717.000000	97.091682 
3716.000000	97.083427 
3715.000000	97.079486 
3714.000000	97.078423 
3713.000000	97.080088 
3712.000000	97.083284 
3711.000000	97.081788 
3710.000000	97.072564 
3709.000000	97.058795 
3708.000000	97.042882 
3707.000000	97.025317 
3706.000000	97.007723 
3705.000000	96.992232 
3704.000000	96.978917 
3703.000000	96.965682 
3702.000000	96.948963 
3701.000000	96.927222 
3700.000000	96.905885 
3699.000000	96.891170 
3698.000000	96.880732 
3697.000000	96.869490 
3696.000000	96.858424 
3695.000000	96.851157 
3694.000000	96.845339 
3693.000000	96.835314 
3692.000000	96.821766 
3691.000000	96.810165 
3690.000000	96.800631 
3689.000000	96.785828 
3688.000000	96.765282 
3687.000000	96.751827 
3686.000000	96.751227 
3685.000000	96.751210 
3684.000000	96.741437 
3683.000000	96.726077 
3682.000000	96.712178 
3681.000000	96.697007 
3680.000000	96.673276 
3679.000000	96.644852 
3678.000000	96.622335 
3677.000000	96.606489 
3676.000000	96.584040 
3675.000000	96.546559 
3674.000000	96.513989 
3673.000000	96.502813 
3672.000000	96.494652 
3671.000000	96.473075 
3670.000000	96.442782 
3669.000000	96.414162 
3668.000000	96.395687 
3667.000000	96.383950 
3666.000000	96.368793 
3665.000000	96.348282 
3664.000000	96.326500 
3663.000000	96.304564 
3662.000000	96.279274 
3661.000000	96.248888 
3660.000000	96.216921 
3659.000000	96.189352 
3658.000000	96.166625 
3657.000000	96.141420 
3656.000000	96.106271 
3655.000000	96.069450 
3654.000000	96.044110 
3653.000000	96.022183 
3652.000000	95.989496 
3651.000000	95.952315 
3650.000000	95.922839 
3649.000000	95.895486 
3648.000000	95.863403 
3647.000000	95.836682 
3646.000000	95.827758 
3645.000000	95.833079 
3644.000000	95.837687 
3643.000000	95.830995 
3642.000000	95.815057 
3641.000000	95.797733 
3640.000000	95.781246 
3639.000000	95.760767 
3638.000000	95.734081 
3637.000000	95.708061 
3636.000000	95.686524 
3635.000000	95.661349 
3634.000000	95.624556 
3633.000000	95.583829 
3632.000000	95.552905 
3631.000000	95.532634 
3630.000000	95.515475 
3629.000000	95.487869 
3628.000000	95.450608 
3627.000000	95.436877 
3626.000000	95.451867 
3625.000000	95.460776 
3624.000000	95.450383 
3623.000000	95.434570 
3622.000000	95.423839 
3621.000000	95.416246 
3620.000000	95.408950 
3619.000000	95.404350 
3618.000000	95.409253 
3617.000000	95.431617 
3616.000000	95.468732 
3615.000000	95.508132 
3614.000000	95.541072 
3613.000000	95.567777 
3612.000000	95.593650 
3611.000000	95.621244 
3610.000000	95.646627 
3609.000000	95.665897 
3608.000000	95.680865 
3607.000000	95.696344 
3606.000000	95.714611 
3605.000000	95.733566 
3604.000000	95.752257 
3603.000000	95.773117 
3602.000000	95.794419 
3601.000000	95.808419 
3600.000000	95.811868 
3599.000000	95.811444 
3598.000000	95.815076 
3597.000000	95.826996 
3596.000000	95.846403 
3595.000000	95.866445 
3594.000000	95.878343 
3593.000000	95.879347 
3592.000000	95.873035 
3591.000000	95.863053 
3590.000000	95.852495 
3589.000000	95.846685 
3588.000000	95.850671 
3587.000000	95.864027 
3586.000000	95.884399 
3585.000000	95.907679 
3584.000000	95.926432 
3583.000000	95.937477 
3582.000000	95.944355 
3581.000000	95.950495 
3580.000000	95.955292 
3579.000000	95.957129 
3578.000000	95.956128 
3577.000000	95.954167 
3576.000000	95.953112 
3575.000000	95.952571 
3574.000000	95.950261 
3573.000000	95.943621 
3572.000000	95.931514 
3571.000000	95.914916 
3570.000000	95.897305 
3569.000000	95.884246 
3568.000000	95.881176 
3567.000000	95.888785 
3566.000000	95.902613 
3565.000000	95.917169 
3564.000000	95.926648 
3563.000000	95.928230 
3562.000000	95.925426 
3561.000000	95.924081 
3560.000000	95.926344 
3559.000000	95.929920 
3558.000000	95.931698 
3557.000000	95.930706 
3556.000000	95.928620 
3555.000000	95.927574 
3554.000000	95.927699 
3553.000000	95.927177 
3552.000000	95.924621 
3551.000000	95.920690 
3550.000000	95.916537 
3549.000000	95.912259 
3548.000000	95.908454 
3547.000000	95.906966 
3546.000000	95.908247 
3545.000000	95.910622 
3544.000000	95.912954 
3543.000000	95.915656 
3542.000000	95.919004 
3541.000000	95.922074 
3540.000000	95.923934 
3539.000000	95.924599 
3538.000000	95.924642 
3537.000000	95.924646 
3536.000000	95.924922 
3535.000000	95.925408 
3534.000000	95.925505 
3533.000000	95.924763 
3532.000000	95.923702 
3531.000000	95.923531 
3530.000000	95.924478 
3529.000000	95.924929 
3528.000000	95.923100 
3527.000000	95.919351 
3526.000000	95.916097 
3525.000000	95.915344 
3524.000000	95.917312 
3523.000000	95.921005 
3522.000000	95.925264 
3521.000000	95.929192 
3520.000000	95.932359 
3519.000000	95.934869 
3518.000000	95.936863 
3517.000000	95.937975 
3516.000000	95.937435 
3515.000000	95.935048 
3514.000000	95.932034 
3513.000000	95.930298 
3512.000000	95.930511 
3511.000000	95.931568 
3510.000000	95.931967 
3509.000000	95.931347 
3508.000000	95.930536 
3507.000000	95.930208 
3506.000000	95.929879 
3505.000000	95.928721 
3504.000000	95.926923 
3503.000000	95.925635 
3502.000000	95.925776 
3501.000000	95.927142 
3500.000000	95.928687 
3499.000000	95.929555 
3498.000000	95.929721 
3497.000000	95.929605 
3496.000000	95.929294 
3495.000000	95.928405 
3494.000000	95.926813 
3493.000000	95.925221 
3492.000000	95.924442 
3491.000000	95.924400 
3490.000000	95.924330 
3489.000000	95.923685 
3488.000000	95.922380 
3487.000000	95.920362 
3486.000000	95.917661 
3485.000000	95.914948 
3484.000000	95.913302 
3483.000000	95.913028 
3482.000000	95.913196 
3481.000000	95.912962 
3480.000000	95.912672 
3479.000000	95.912874 
3478.000000	95.912938 
3477.000000	95.911491 
3476.000000	95.908030 
3475.000000	95.903393 
3474.000000	95.898893 
3473.000000	95.895412 
3472.000000	95.893084 
3471.000000	95.891301 
3470.000000	95.889132 
3469.000000	95.886077 
3468.000000	95.882536 
3467.000000	95.879500 
3466.000000	95.877707 
3465.000000	95.876908 
3464.000000	95.875858 
3463.000000	95.873250 
3462.000000	95.868805 
3461.000000	95.863505 
3460.000000	95.858715 
3459.000000	95.854915 
3458.000000	95.851467 
3457.000000	95.847519 
3456.000000	95.842966 
3455.000000	95.838709 
3454.000000	95.835820 
3453.000000	95.834507 
3452.000000	95.833997 
3451.000000	95.833298 
3450.000000	95.831751 
3449.000000	95.828903 
3448.000000	95.824456 
3447.000000	95.818659 
3446.000000	95.812605 
3445.000000	95.807611 
3444.000000	95.804227 
3443.000000	95.802091 
3442.000000	95.800378 
3441.000000	95.798195 
3440.000000	95.794891 
3439.000000	95.790299 
3438.000000	95.784894 
3437.000000	95.779520 
3436.000000	95.774872 
3435.000000	95.771390 
3434.000000	95.769227 
3433.000000	95.768018 
3432.000000	95.766960 
3431.000000	95.765523 
3430.000000	95.763908 
3429.000000	95.762491 
3428.000000	95.760960 
3427.000000	95.758362 
3426.000000	95.754401 
3425.000000	95.750371 
3424.000000	95.748105 
3423.000000	95.747792 
3422.000000	95.747484 
3421.000000	95.745412 
3420.000000	95.742148 
3419.000000	95.739723 
3418.000000	95.739011 
3417.000000	95.738986 
3416.000000	95.738299 
3415.000000	95.736489 
3414.000000	95.733627 
3413.000000	95.729897 
3412.000000	95.725955 
3411.000000	95.722848 
3410.000000	95.721127 
3409.000000	95.720548 
3408.000000	95.720749 
3407.000000	95.721409 
3406.000000	95.721711 
3405.000000	95.720578 
3404.000000	95.717739 
3403.000000	95.714044 
3402.000000	95.710656 
3401.000000	95.708436 
3400.000000	95.707882 
3399.000000	95.708873 
3398.000000	95.710399 
3397.000000	95.711268 
3396.000000	95.711237 
3395.000000	95.711022 
3394.000000	95.711288 
3393.000000	95.712092 
3392.000000	95.713190 
3391.000000	95.714351 
3390.000000	95.715433 
3389.000000	95.716628 
3388.000000	95.718651 
3387.000000	95.722074 
3386.000000	95.726276 
3385.000000	95.729496 
3384.000000	95.730301 
3383.000000	95.728977 
3382.000000	95.727433 
3381.000000	95.727664 
3380.000000	95.730026 
3379.000000	95.733046 
3378.000000	95.735133 
3377.000000	95.736482 
3376.000000	95.738686 
3375.000000	95.742370 
3374.000000	95.745995 
3373.000000	95.747462 
3372.000000	95.746440 
3371.000000	95.744683 
3370.000000	95.744336 
3369.000000	95.746208 
3368.000000	95.749610 
3367.000000	95.753190 
3366.000000	95.755879 
3365.000000	95.757452 
3364.000000	95.758444 
3363.000000	95.759581 
3362.000000	95.761231 
3361.000000	95.763371 
3360.000000	95.765912 
3359.000000	95.768842 
3358.000000	95.772093 
3357.000000	95.775482 
3356.000000	95.778805 
3355.000000	95.781924 
3354.000000	95.784806 
3353.000000	95.787617 
3352.000000	95.790694 
3351.000000	95.794262 
3350.000000	95.798177 
3349.000000	95.801997 
3348.000000	95.805331 
3347.000000	95.808152 
3346.000000	95.810730 
3345.000000	95.813305 
3344.000000	95.815756 
3343.000000	95.817617 
3342.000000	95.818637 
3341.000000	95.819348 
3340.000000	95.820696 
3339.000000	95.823028 
3338.000000	95.825887 
3337.000000	95.828677 
3336.000000	95.831309 
3335.000000	95.834050 
3334.000000	95.836998 
3333.000000	95.839951 
3332.000000	95.842679 
3331.000000	95.845124 
3330.000000	95.847363 
3329.000000	95.849536 
3328.000000	95.851806 
3327.000000	95.854284 
3326.000000	95.856943 
3325.000000	95.859640 
3324.000000	95.862234 
3323.000000	95.864692 
3322.000000	95.867091 
3321.000000	95.869530 
3320.000000	95.872039 
3319.000000	95.874580 
3318.000000	95.877113 
3317.000000	95.879624 
3316.000000	95.882114 
3315.000000	95.884583 
3314.000000	95.887032 
3313.000000	95.889464 
3312.000000	95.891889 
3311.000000	95.894315 
3310.000000	95.896751 
3309.000000	95.899199 
3308.000000	95.901657 
3307.000000	95.904120 
3306.000000	95.906586 
3305.000000	95.909063 
3304.000000	95.911562 
3303.000000	95.914095 
3302.000000	95.916663 
3301.000000	95.919262 
3300.000000	95.921880 
3299.000000	95.924507 
3298.000000	95.927139 
3297.000000	95.929779 
3296.000000	95.932436 
3295.000000	95.935117 
3294.000000	95.937830 
3293.000000	95.940573 
3292.000000	95.943342 
3291.000000	95.946131 
3290.000000	95.948931 
3289.000000	95.951733 
3288.000000	95.954529 
3287.000000	95.957322 
3286.000000	95.960117 
3285.000000	95.962922 
3284.000000	95.965741 
3283.000000	95.968576 
3282.000000	95.971431 
3281.000000	95.974304 
3280.000000	95.977194 
3279.000000	95.980093 
3278.000000	95.982997 
3277.000000	95.985907 
3276.000000	95.988828 
3275.000000	95.991763 
3274.000000	95.994712 
3273.000000	95.997677 
3272.000000	96.000663 
3271.000000	96.003673 
3270.000000	96.006706 
3269.000000	96.009754 
3268.000000	96.012807 
3267.000000	96.015857 
3266.000000	96.018910 
3265.000000	96.021974 
3264.000000	96.025057 
3263.000000	96.028159 
3262.000000	96.031276 
3261.000000	96.034397 
3260.000000	96.037516 
3259.000000	96.040634 
3258.000000	96.043755 
3257.000000	96.046886 
3256.000000	96.050036 
3255.000000	96.053206 
3254.000000	96.056391 
3253.000000	96.059584 
3252.000000	96.062778 
3251.000000	96.065971 
3250.000000	96.069161 
3249.000000	96.072350 
3248.000000	96.075542 
3247.000000	96.078741 
3246.000000	96.081954 
3245.000000	96.085188 
3244.000000	96.088447 
3243.000000	96.091731 
3242.000000	96.095027 
3241.000000	96.098322 
3240.000000	96.101614 
3239.000000	96.104920 
3238.000000	96.108264 
3237.000000	96.111654 
3236.000000	96.115080 
3235.000000	96.118518 
3234.000000	96.121946 
3233.000000	96.125353 
3232.000000	96.128757 
3231.000000	96.132189 
3230.000000	96.135658 
3229.000000	96.139148 
3228.000000	96.142647 
3227.000000	96.146172 
3226.000000	96.149744 
3225.000000	96.153355 
3224.000000	96.156978 
3223.000000	96.160595 
3222.000000	96.164209 
3221.000000	96.167827 
3220.000000	96.171455 
3219.000000	96.175096 
3218.000000	96.178750 
3217.000000	96.182418 
3216.000000	96.186104 
3215.000000	96.189809 
3214.000000	96.193531 
3213.000000	96.197267 
3212.000000	96.201011 
3211.000000	96.204763 
3210.000000	96.208523 
3209.000000	96.212298 
3208.000000	96.216093 
3207.000000	96.219909 
3206.000000	96.223746 
3205.000000	96.227601 
3204.000000	96.231475 
3203.000000	96.235367 
3202.000000	96.239273 
3201.000000	96.243186 
3200.000000	96.247099 
3199.000000	96.251010 
3198.000000	96.254923 
3197.000000	96.258838 
3196.000000	96.262755 
3195.000000	96.266668 
3194.000000	96.270578 
3193.000000	96.274489 
3192.000000	96.278406 
3191.000000	96.282328 
3190.000000	96.286246 
3189.000000	96.290150 
3188.000000	96.294036 
3187.000000	96.297909 
3186.000000	96.301779 
3185.000000	96.305654 
3184.000000	96.309531 
3183.000000	96.313402 
3182.000000	96.317259 
3181.000000	96.321103 
3180.000000	96.324937 
3179.000000	96.328763 
3178.000000	96.332583 
3177.000000	96.336397 
3176.000000	96.340203 
3175.000000	96.343998 
3174.000000	96.347778 
3173.000000	96.351538 
3172.000000	96.355274 
3171.000000	96.358983 
3170.000000	96.362665 
3169.000000	96.366324 
3168.000000	96.369967 
3167.000000	96.373600 
3166.000000	96.377219 
3165.000000	96.380821 
3164.000000	96.384401 
3163.000000	96.387956 
3162.000000	96.391488 
3161.000000	96.394996 
3160.000000	96.398485 
3159.000000	96.401956 
3158.000000	96.405416 
3157.000000	96.408866 
3156.000000	96.412310 
3155.000000	96.415744 
3154.000000	96.419164 
3153.000000	96.422568 
3152.000000	96.425958 
3151.000000	96.429337 
3150.000000	96.432706 
3149.000000	96.436062 
3148.000000	96.439407 
3147.000000	96.442748 
3146.000000	96.446092 
3145.000000	96.449437 
3144.000000	96.452776 
3143.000000	96.456094 
3142.000000	96.459378 
3141.000000	96.462625 
3140.000000	96.465839 
3139.000000	96.469029 
3138.000000	96.472203 
3137.000000	96.475366 
3136.000000	96.478518 
3135.000000	96.481657 
3134.000000	96.484778 
3133.000000	96.487877 
3132.000000	96.490963 
3131.000000	96.494052 
3130.000000	96.497145 
3129.000000	96.500228 
3128.000000	96.503300 
3127.000000	96.506390 
3126.000000	96.509528 
3125.000000	96.512697 
3124.000000	96.515825 
3123.000000	96.518838 
3122.000000	96.521710 
3121.000000	96.524502 
3120.000000	96.527335 
3119.000000	96.530276 
3118.000000	96.533280 
3117.000000	96.536229 
3116.000000	96.539078 
3115.000000	96.541878 
3114.000000	96.544693 
3113.000000	96.547515 
3112.000000	96.550328 
3111.000000	96.553180 
3110.000000	96.556147 
3109.000000	96.559237 
3108.000000	96.562365 
3107.000000	96.565433 
3106.000000	96.568362 
3105.000000	96.571050 
3104.000000	96.573379 
3103.000000	96.575311 
3102.000000	96.576962 
3101.000000	96.578571 
3100.000000	96.580323 
3099.000000	96.582291 
3098.000000	96.584612 
3097.000000	96.587642 
3096.000000	96.591620 
3095.000000	96.596062 
3094.000000	96.599872 
3093.000000	96.602355 
3092.000000	96.603871 
3091.000000	96.605325 
3090.000000	96.607083 
3089.000000	96.608819 
3088.000000	96.610216 
3087.000000	96.611468 
3086.000000	96.613152 
3085.000000	96.615682 
3084.000000	96.618797 
3083.000000	96.621618 
3082.000000	96.623455 
3081.000000	96.624614 
3080.000000	96.626137 
3079.000000	96.628527 
3078.000000	96.631254 
3077.000000	96.633834 
3076.000000	96.636662 
3075.000000	96.640087 
3074.000000	96.643340 
3073.000000	96.645398 
3072.000000	96.646419 
3071.000000	96.647222 
3070.000000	96.647887 
3069.000000	96.648142 
3068.000000	96.648686 
3067.000000	96.650580 
3066.000000	96.653374 
3065.000000	96.655297 
3064.000000	96.655465 
3063.000000	96.654612 
3062.000000	96.653633 
3061.000000	96.652772 
3060.000000	96.652318 
3059.000000	96.652859 
3058.000000	96.654631 
3057.000000	96.657562 
3056.000000	96.661632 
3055.000000	96.665931 
3054.000000	96.667835 
3053.000000	96.665177 
3052.000000	96.659643 
3051.000000	96.656237 
3050.000000	96.658183 
3049.000000	96.663623 
3048.000000	96.667979 
3047.000000	96.668430 
3046.000000	96.665197 
3045.000000	96.660061 
3044.000000	96.655317 
3043.000000	96.653438 
3042.000000	96.655894 
3041.000000	96.661499 
3040.000000	96.666588 
3039.000000	96.667802 
3038.000000	96.664773 
3037.000000	96.659974 
3036.000000	96.655863 
3035.000000	96.652297 
3034.000000	96.647330 
3033.000000	96.640329 
3032.000000	96.633258 
3031.000000	96.628596 
3030.000000	96.626777 
3029.000000	96.626066 
3028.000000	96.624069 
3027.000000	96.618852 
3026.000000	96.609813 
3025.000000	96.598634 
3024.000000	96.588675 
3023.000000	96.581992 
3022.000000	96.577307 
3021.000000	96.572094 
3020.000000	96.566017 
3019.000000	96.560710 
3018.000000	96.556457 
3017.000000	96.551050 
3016.000000	96.542426 
3015.000000	96.531116 
3014.000000	96.519764 
3013.000000	96.511126 
3012.000000	96.506281 
3011.000000	96.503428 
3010.000000	96.498495 
3009.000000	96.488442 
3008.000000	96.474251 
3007.000000	96.459789 
3006.000000	96.447731 
3005.000000	96.437746 
3004.000000	96.428495 
3003.000000	96.419670 
3002.000000	96.411653 
3001.000000	96.404643 
3000.000000	96.398610 
2999.000000	96.392856 
2998.000000	96.385498 
2997.000000	96.374965 
2996.000000	96.362358 
2995.000000	96.350730 
2994.000000	96.341211 
2993.000000	96.331301 
2992.000000	96.318024 
2991.000000	96.301768 
2990.000000	96.286049 
2989.000000	96.274394 
2988.000000	96.268452 
2987.000000	96.268170 
2986.000000	96.272444 
2985.000000	96.279652 
2984.000000	96.288204 
2983.000000	96.296807 
2982.000000	96.304294 
2981.000000	96.309611 
2980.000000	96.312148 
2979.000000	96.311754 
2978.000000	96.308589 
2977.000000	96.303584 
2976.000000	96.298881 
2975.000000	96.296756 
2974.000000	96.297856 
2973.000000	96.301314 
2972.000000	96.306552 
2971.000000	96.313848 
2970.000000	96.322863 
2969.000000	96.332048 
2968.000000	96.340315 
2967.000000	96.348251 
2966.000000	96.356794 
2965.000000	96.365536 
2964.000000	96.373312 
2963.000000	96.379859 
2962.000000	96.385936 
2961.000000	96.392187 
2960.000000	96.398837 
2959.000000	96.406355 
2958.000000	96.415439 
2957.000000	96.425927 
2956.000000	96.436033 
2955.000000	96.443153 
2954.000000	96.446013 
2953.000000	96.446485 
2952.000000	96.448914 
2951.000000	96.456480 
2950.000000	96.467711 
2949.000000	96.477348 
2948.000000	96.481257 
2947.000000	96.479958 
2946.000000	96.477301 
2945.000000	96.476560 
2944.000000	96.478391 
2943.000000	96.481711 
2942.000000	96.485014 
2941.000000	96.486855 
2940.000000	96.486504 
2939.000000	96.484830 
2938.000000	96.483826 
2937.000000	96.484616 
2936.000000	96.486317 
2935.000000	96.487208 
2934.000000	96.486568 
2933.000000	96.484868 
2932.000000	96.482691 
2931.000000	96.480297 
2930.000000	96.478251 
2929.000000	96.477564 
2928.000000	96.478679 
2927.000000	96.480689 
2926.000000	96.482176 
2925.000000	96.482824 
2924.000000	96.483718 
2923.000000	96.485966 
2922.000000	96.489458 
2921.000000	96.493204 
2920.000000	96.496556 
2919.000000	96.499628 
2918.000000	96.502443 
2917.000000	96.504011 
2916.000000	96.502732 
2915.000000	96.498089 
2914.000000	96.491945 
2913.000000	96.487623 
2912.000000	96.487104 
2911.000000	96.489313 
2910.000000	96.491472 
2909.000000	96.492083 
2908.000000	96.491987 
2907.000000	96.492420 
2906.000000	96.492947 
2905.000000	96.491800 
2904.000000	96.488029 
2903.000000	96.483179 
2902.000000	96.480787 
2901.000000	96.484038 
2900.000000	96.493320 
2899.000000	96.505836 
2898.000000	96.517768 
2897.000000	96.527060 
2896.000000	96.533705 
2895.000000	96.537865 
2894.000000	96.539465 
2893.000000	96.539900 
2892.000000	96.542291 
2891.000000	96.548463 
2890.000000	96.556620 
2889.000000	96.563472 
2888.000000	96.568118 
2887.000000	96.572134 
2886.000000	96.576251 
2885.000000	96.579260 
2884.000000	96.580813 
2883.000000	96.583175 
2882.000000	96.588652 
2881.000000	96.596608 
2880.000000	96.604701 
2879.000000	96.612394 
2878.000000	96.621293 
2877.000000	96.631972 
2876.000000	96.642327 
2875.000000	96.649952 
2874.000000	96.654941 
2873.000000	96.659246 
2872.000000	96.663924 
2871.000000	96.668189 
2870.000000	96.671180 
2869.000000	96.673503 
2868.000000	96.676518 
2867.000000	96.680740 
2866.000000	96.685547 
2865.000000	96.690217 
2864.000000	96.694813 
2863.000000	96.700243 
2862.000000	96.707714 
2861.000000	96.717791 
2860.000000	96.729507 
2859.000000	96.740692 
2858.000000	96.749932 
2857.000000	96.758105 
2856.000000	96.767220 
2855.000000	96.777627 
2854.000000	96.787245 
2853.000000	96.793907 
2852.000000	96.797605 
2851.000000	96.800153 
2850.000000	96.803329 
2849.000000	96.807804 
2848.000000	96.813438 
2847.000000	96.819722 
2846.000000	96.825959 
2845.000000	96.831626 
2844.000000	96.836713 
2843.000000	96.841522 
2842.000000	96.846214 
2841.000000	96.850653 
2840.000000	96.854519 
2839.000000	96.857551 
2838.000000	96.859973 
2837.000000	96.862708 
2836.000000	96.866705 
2835.000000	96.871933 
2834.000000	96.877540 
2833.000000	96.883121 
2832.000000	96.889091 
2831.000000	96.895372 
2830.000000	96.900511 
2829.000000	96.903006 
2828.000000	96.903225 
2827.000000	96.903342 
2826.000000	96.905386 
2825.000000	96.909672 
2824.000000	96.914947 
2823.000000	96.919504 
2822.000000	96.922271 
2821.000000	96.923365 
2820.000000	96.923702 
2819.000000	96.923935 
2818.000000	96.924051 
2817.000000	96.924252 
2816.000000	96.925602 
2815.000000	96.928999 
2814.000000	96.933602 
2813.000000	96.937019 
2812.000000	96.937444 
2811.000000	96.935258 
2810.000000	96.932689 
2809.000000	96.932013 
2808.000000	96.933972 
2807.000000	96.937683 
2806.000000	96.941701 
2805.000000	96.945281 
2804.000000	96.948588 
2803.000000	96.951797 
2802.000000	96.954511 
2801.000000	96.956344 
2800.000000	96.957666 
2799.000000	96.959213 
2798.000000	96.961104 
2797.000000	96.962757 
2796.000000	96.963756 
2795.000000	96.964334 
2794.000000	96.964988 
2793.000000	96.965981 
2792.000000	96.967373 
2791.000000	96.969147 
2790.000000	96.971129 
2789.000000	96.972963 
2788.000000	96.974386 
2787.000000	96.975460 
2786.000000	96.976452 
2785.000000	96.977610 
2784.000000	96.979011 
2783.000000	96.980567 
2782.000000	96.982102 
2781.000000	96.983522 
2780.000000	96.984898 
2779.000000	96.986362 
2778.000000	96.987945 
2777.000000	96.989542 
2776.000000	96.991019 
2775.000000	96.992348 
2774.000000	96.993622 
2773.000000	96.994933 
2772.000000	96.996270 
2771.000000	96.997574 
2770.000000	96.998868 
2769.000000	97.000255 
2768.000000	97.001780 
2767.000000	97.003348 
2766.000000	97.004806 
2765.000000	97.006092 
2764.000000	97.007264 
2763.000000	97.008386 
2762.000000	97.009458 
2761.000000	97.010472 
2760.000000	97.011476 
2759.000000	97.012546 
2758.000000	97.013704 
2757.000000	97.014891 
2756.000000	97.016016 
2755.000000	97.017048 
2754.000000	97.018038 
2753.000000	97.019062 
2752.000000	97.020139 
2751.000000	97.021225 
2750.000000	97.022264 
2749.000000	97.023254 
2748.000000	97.024220 
2747.000000	97.025158 
2746.000000	97.026050 
2745.000000	97.026915 
2744.000000	97.027793 
2743.000000	97.028702 
2742.000000	97.029630 
2741.000000	97.030557 
2740.000000	97.031469 
2739.000000	97.032367 
2738.000000	97.033253 
2737.000000	97.034128 
2736.000000	97.034993 
2735.000000	97.035850 
2734.000000	97.036704 
2733.000000	97.037558 
2732.000000	97.038412 
2731.000000	97.039265 
2730.000000	97.040115 
2729.000000	97.040960 
2728.000000	97.041795 
2727.000000	97.042616 
2726.000000	97.043419 
2725.000000	97.044208 
2724.000000	97.044990 
2723.000000	97.045775 
2722.000000	97.046565 
2721.000000	97.047360 
2720.000000	97.048158 
2719.000000	97.048961 
2718.000000	97.049769 
2717.000000	97.050578 
2716.000000	97.051385 
2715.000000	97.052190 
2714.000000	97.052993 
2713.000000	97.053800 
2712.000000	97.054611 
2711.000000	97.055424 
2710.000000	97.056233 
2709.000000	97.057036 
2708.000000	97.057837 
2707.000000	97.058638 
2706.000000	97.059438 
2705.000000	97.060231 
2704.000000	97.061013 
2703.000000	97.061781 
2702.000000	97.062534 
2701.000000	97.063273 
2700.000000	97.063997 
2699.000000	97.064706 
2698.000000	97.065397 
2697.000000	97.066066 
2696.000000	97.066711 
2695.000000	97.067329 
2694.000000	97.067920 
2693.000000	97.068490 
2692.000000	97.069046 
2691.000000	97.069586 
2690.000000	97.070103 
2689.000000	97.070598 
2688.000000	97.071074 
2687.000000	97.071523 
2686.000000	97.071934 
2685.000000	97.072321 
2684.000000	97.072729 
2683.000000	97.073174 
2682.000000	97.073607 
2681.000000	97.073959 
2680.000000	97.074217 
2679.000000	97.074433 
2678.000000	97.074663 
2677.000000	97.074960 
2676.000000	97.075376 
2675.000000	97.075871 
2674.000000	97.076242 
2673.000000	97.076302 
2672.000000	97.076132 
2671.000000	97.075984 
2670.000000	97.075950 
2669.000000	97.075938 
2668.000000	97.075908 
2667.000000	97.075908 
2666.000000	97.075899 
2665.000000	97.075733 
2664.000000	97.075393 
2663.000000	97.075093 
2662.000000	97.075026 
2661.000000	97.075117 
2660.000000	97.075112 
2659.000000	97.074852 
2658.000000	97.074405 
2657.000000	97.073938 
2656.000000	97.073568 
2655.000000	97.073291 
2654.000000	97.073016 
2653.000000	97.072652 
2652.000000	97.072219 
2651.000000	97.071842 
2650.000000	97.071632 
2649.000000	97.071576 
2648.000000	97.071551 
2647.000000	97.071423 
2646.000000	97.071125 
2645.000000	97.070669 
2644.000000	97.070141 
2643.000000	97.069674 
2642.000000	97.069352 
2641.000000	97.069145 
2640.000000	97.068953 
2639.000000	97.068732 
2638.000000	97.068533 
2637.000000	97.068406 
2636.000000	97.068333 
2635.000000	97.068273 
2634.000000	97.068216 
2633.000000	97.068163 
2632.000000	97.068082 
2631.000000	97.067934 
2630.000000	97.067732 
2629.000000	97.067526 
2628.000000	97.067364 
2627.000000	97.067258 
2626.000000	97.067194 
2625.000000	97.067154 
2624.000000	97.067127 
2623.000000	97.067108 
2622.000000	97.067087 
2621.000000	97.067055 
2620.000000	97.067016 
2619.000000	97.066982 
2618.000000	97.066969 
2617.000000	97.066989 
2616.000000	97.067049 
2615.000000	97.067147 
2614.000000	97.067272 
2613.000000	97.067415 
2612.000000	97.067572 
2611.000000	97.067743 
2610.000000	97.067929 
2609.000000	97.068125 
2608.000000	97.068325 
2607.000000	97.068525 
2606.000000	97.068727 
2605.000000	97.068934 
2604.000000	97.069148 
2603.000000	97.069369 
2602.000000	97.069593 
2601.000000	97.069818 
2600.000000	97.070044 
2599.000000	97.070273 
2598.000000	97.070504 
2597.000000	97.070737 
2596.000000	97.070970 
2595.000000	97.071202 
2594.000000	97.071435 
2593.000000	97.071675 
2592.000000	97.071930 
2591.000000	97.072208 
2590.000000	97.072511 
2589.000000	97.072834 
2588.000000	97.073174 
2587.000000	97.073527 
2586.000000	97.073891 
2585.000000	97.074263 
2584.000000	97.074635 
2583.000000	97.075001 
2582.000000	97.075360 
2581.000000	97.075716 
2580.000000	97.076079 
2579.000000	97.076455 
2578.000000	97.076844 
2577.000000	97.077247 
2576.000000	97.077655 
2575.000000	97.078052 
2574.000000	97.078430 
2573.000000	97.078781 
2572.000000	97.079111 
2571.000000	97.079421 
2570.000000	97.079707 
2569.000000	97.079963 
2568.000000	97.080199 
2567.000000	97.080445 
2566.000000	97.080714 
2565.000000	97.080975 
2564.000000	97.081192 
2563.000000	97.081384 
2562.000000	97.081584 
2561.000000	97.081799 
2560.000000	97.082052 
2559.000000	97.082427 
2558.000000	97.082973 
2557.000000	97.083578 
2556.000000	97.084040 
2555.000000	97.084267 
2554.000000	97.084345 
2553.000000	97.084413 
2552.000000	97.084490 
2551.000000	97.084578 
2550.000000	97.084844 
2549.000000	97.085460 
2548.000000	97.086187 
2547.000000	97.086442 
2546.000000	97.085964 
2545.000000	97.085216 
2544.000000	97.084861 
2543.000000	97.084922 
2542.000000	97.084903 
2541.000000	97.084641 
2540.000000	97.084587 
2539.000000	97.085071 
2538.000000	97.085742 
2537.000000	97.086072 
2536.000000	97.086172 
2535.000000	97.086596 
2534.000000	97.087439 
2533.000000	97.088074 
2532.000000	97.087929 
2531.000000	97.087134 
2530.000000	97.086284 
2529.000000	97.085736 
2528.000000	97.085338 
2527.000000	97.084860 
2526.000000	97.084482 
2525.000000	97.084702 
2524.000000	97.085756 
2523.000000	97.087292 
2522.000000	97.088644 
2521.000000	97.089438 
2520.000000	97.089806 
2519.000000	97.090068 
2518.000000	97.090354 
2517.000000	97.090513 
2516.000000	97.090283 
2515.000000	97.089553 
2514.000000	97.088638 
2513.000000	97.088249 
2512.000000	97.088896 
2511.000000	97.090417 
2510.000000	97.092212 
2509.000000	97.093840 
2508.000000	97.095156 
2507.000000	97.096028 
2506.000000	97.096431 
2505.000000	97.096809 
2504.000000	97.097797 
2503.000000	97.099413 
2502.000000	97.100887 
2501.000000	97.101563 
2500.000000	97.101608 
2499.000000	97.101650 
2498.000000	97.101970 
2497.000000	97.102403 
2496.000000	97.102872 
2495.000000	97.103531 
2494.000000	97.104407 
2493.000000	97.105258 
2492.000000	97.105894 
2491.000000	97.106436 
2490.000000	97.107136 
2489.000000	97.108023 
2488.000000	97.108835 
2487.000000	97.109309 
2486.000000	97.109446 
2485.000000	97.109498 
2484.000000	97.109748 
2483.000000	97.110306 
2482.000000	97.111094 
2481.000000	97.111930 
2480.000000	97.112644 
2479.000000	97.113174 
2478.000000	97.113612 
2477.000000	97.114169 
2476.000000	97.114923 
2475.000000	97.115595 
2474.000000	97.115744 
2473.000000	97.115265 
2472.000000	97.114602 
2471.000000	97.114308 
2470.000000	97.114535 
2469.000000	97.115104 
2468.000000	97.115807 
2467.000000	97.116485 
2466.000000	97.116872 
2465.000000	97.116701 
2464.000000	97.116077 
2463.000000	97.115582 
2462.000000	97.115857 
2461.000000	97.117142 
2460.000000	97.119136 
2459.000000	97.121147 
2458.000000	97.122447 
2457.000000	97.122640 
2456.000000	97.121777 
2455.000000	97.120251 
2454.000000	97.118631 
2453.000000	97.117455 
2452.000000	97.116940 
2451.000000	97.116874 
2450.000000	97.117034 
2449.000000	97.117654 
2448.000000	97.119047 
2447.000000	97.120814 
2446.000000	97.121991 
2445.000000	97.122133 
2444.000000	97.121700 
2443.000000	97.121278 
2442.000000	97.121044 
2441.000000	97.121211 
2440.000000	97.122251 
2439.000000	97.124285 
2438.000000	97.126846 
2437.000000	97.129556 
2436.000000	97.132412 
2435.000000	97.135066 
2434.000000	97.136605 
2433.000000	97.136616 
2432.000000	97.135912 
2431.000000	97.135708 
2430.000000	97.136499 
2429.000000	97.138146 
2428.000000	97.140330 
2427.000000	97.142329 
2426.000000	97.143012 
2425.000000	97.141796 
2424.000000	97.139537 
2423.000000	97.137940 
2422.000000	97.137873 
2421.000000	97.139069 
2420.000000	97.141124 
2419.000000	97.143669 
2418.000000	97.145987 
2417.000000	97.147683 
2416.000000	97.149401 
2415.000000	97.151660 
2414.000000	97.153680 
2413.000000	97.154672 
2412.000000	97.155441 
2411.000000	97.157116 
2410.000000	97.159049 
2409.000000	97.159725 
2408.000000	97.159359 
2407.000000	97.159705 
2406.000000	97.161353 
2405.000000	97.162860 
2404.000000	97.162819 
2403.000000	97.161453 
2402.000000	97.159946 
2401.000000	97.159355 
2400.000000	97.160373 
2399.000000	97.163148 
2398.000000	97.166991 
2397.000000	97.170903 
2396.000000	97.174405 
2395.000000	97.177300 
2394.000000	97.179016 
2393.000000	97.179285 
2392.000000	97.179216 
2391.000000	97.180453 
2390.000000	97.183244 
2389.000000	97.186397 
2388.000000	97.189266 
2387.000000	97.192672 
2386.000000	97.197514 
2385.000000	97.203391 
2384.000000	97.208921 
2383.000000	97.212649 
2382.000000	97.213264 
2381.000000	97.209887 
2380.000000	97.202778 
2379.000000	97.193340 
2378.000000	97.182964 
2377.000000	97.172790 
2376.000000	97.165238 
2375.000000	97.164180 
2374.000000	97.171393 
2373.000000	97.183540 
2372.000000	97.194199 
2371.000000	97.200262 
2370.000000	97.203782 
2369.000000	97.207154 
2368.000000	97.208923 
2367.000000	97.206218 
2366.000000	97.199389 
2365.000000	97.192197 
2364.000000	97.187946 
2363.000000	97.187861 
2362.000000	97.191546 
2361.000000	97.196883 
2360.000000	97.201922 
2359.000000	97.206045 
2358.000000	97.208794 
2357.000000	97.210155 
2356.000000	97.209305 
2355.000000	97.206437 
2354.000000	97.199923 
2353.000000	97.190352 
2352.000000	97.183053 
2351.000000	97.181503 
2350.000000	97.184553 
2349.000000	97.188466 
2348.000000	97.192977 
2347.000000	97.199726 
2346.000000	97.207287 
2345.000000	97.213981 
2344.000000	97.217073 
2343.000000	97.216725 
2342.000000	97.211715 
2341.000000	97.203262 
2340.000000	97.196080 
2339.000000	97.191934 
2338.000000	97.188377 
2337.000000	97.181304 
2336.000000	97.173921 
2335.000000	97.170561 
2334.000000	97.172360 
2333.000000	97.174143 
2332.000000	97.176410 
2331.000000	97.178710 
2330.000000	97.182049 
2329.000000	97.181940 
2328.000000	97.180992 
2327.000000	97.181750 
2326.000000	97.183783 
2325.000000	97.184796 
2324.000000	97.184629 
2323.000000	97.186154 
2322.000000	97.187937 
2321.000000	97.185562 
2320.000000	97.180146 
2319.000000	97.175557 
2318.000000	97.175749 
2317.000000	97.176496 
2316.000000	97.176573 
2315.000000	97.174724 
2314.000000	97.174478 
2313.000000	97.175241 
2312.000000	97.179957 
2311.000000	97.188211 
2310.000000	97.198554 
2309.000000	97.204442 
2308.000000	97.204520 
2307.000000	97.200736 
2306.000000	97.197365 
2305.000000	97.194271 
2304.000000	97.192161 
2303.000000	97.191927 
2302.000000	97.195850 
2301.000000	97.201464 
2300.000000	97.206089 
2299.000000	97.206414 
2298.000000	97.202524 
2297.000000	97.194346 
2296.000000	97.184456 
2295.000000	97.175235 
2294.000000	97.168213 
2293.000000	97.162244 
2292.000000	97.156308 
2291.000000	97.150796 
2290.000000	97.146442 
2289.000000	97.143589 
2288.000000	97.142036 
2287.000000	97.141213 
2286.000000	97.139107 
2285.000000	97.134612 
2284.000000	97.129656 
2283.000000	97.127872 
2282.000000	97.129381 
2281.000000	97.130282 
2280.000000	97.127309 
2279.000000	97.121265 
2278.000000	97.114840 
2277.000000	97.109649 
2276.000000	97.106794 
2275.000000	97.107012 
2274.000000	97.109431 
2273.000000	97.111689 
2272.000000	97.113013 
2271.000000	97.114753 
2270.000000	97.117546 
2269.000000	97.120039 
2268.000000	97.121253 
2267.000000	97.121683 
2266.000000	97.121446 
2265.000000	97.119644 
2264.000000	97.116384 
2263.000000	97.113218 
2262.000000	97.110838 
2261.000000	97.108367 
2260.000000	97.105246 
2259.000000	97.102266 
2258.000000	97.100057 
2257.000000	97.098395 
2256.000000	97.097333 
2255.000000	97.097475 
2254.000000	97.098713 
2253.000000	97.099613 
2252.000000	97.098861 
2251.000000	97.096425 
2250.000000	97.092972 
2249.000000	97.089124 
2248.000000	97.085668 
2247.000000	97.083448 
2246.000000	97.082567 
2245.000000	97.082149 
2244.000000	97.081177 
2243.000000	97.079496 
2242.000000	97.077612 
2241.000000	97.076019 
2240.000000	97.074868 
2239.000000	97.074040 
2238.000000	97.073252 
2237.000000	97.072230 
2236.000000	97.070935 
2235.000000	97.069545 
2234.000000	97.068209 
2233.000000	97.066928 
2232.000000	97.065643 
2231.000000	97.064333 
2230.000000	97.062978 
2229.000000	97.061519 
2228.000000	97.059938 
2227.000000	97.058346 
2226.000000	97.056861 
2225.000000	97.055447 
2224.000000	97.053954 
2223.000000	97.052340 
2222.000000	97.050709 
2221.000000	97.049166 
2220.000000	97.047683 
2219.000000	97.046173 
2218.000000	97.044599 
2217.000000	97.043005 
2216.000000	97.041467 
2215.000000	97.040017 
2214.000000	97.038610 
2213.000000	97.037173 
2212.000000	97.035713 
2211.000000	97.034333 
2210.000000	97.033090 
2209.000000	97.031931 
2208.000000	97.030785 
2207.000000	97.029613 
2206.000000	97.028389 
2205.000000	97.027099 
2204.000000	97.025842 
2203.000000	97.024917 
2202.000000	97.024554 
2201.000000	97.024409 
2200.000000	97.023709 
2199.000000	97.021997 
2198.000000	97.019366 
2197.000000	97.016233 
2196.000000	97.013262 
2195.000000	97.011025 
2194.000000	97.009397 
2193.000000	97.007873 
2192.000000	97.006706 
2191.000000	97.006689 
2190.000000	97.007498 
2189.000000	97.007619 
2188.000000	97.006547 
2187.000000	97.005280 
2186.000000	97.003740 
2185.000000	97.000032 
2184.000000	96.994089 
2183.000000	96.990087 
2182.000000	96.992132 
2181.000000	96.998905 
2180.000000	97.004355 
2179.000000	97.004478 
2178.000000	97.000756 
2177.000000	96.997219 
2176.000000	96.996243 
2175.000000	96.997554 
2174.000000	96.999497 
2173.000000	97.000550 
2172.000000	97.000902 
2171.000000	97.002494 
2170.000000	97.006053 
2169.000000	97.008490 
2168.000000	97.005433 
2167.000000	96.996607 
2166.000000	96.986856 
2165.000000	96.980997 
2164.000000	96.979240 
2163.000000	96.978702 
2162.000000	96.978409 
2161.000000	96.981477 
2160.000000	96.991936 
2159.000000	97.009657 
2158.000000	97.028741 
2157.000000	97.042301 
2156.000000	97.048588 
2155.000000	97.050706 
2154.000000	97.052394 
2153.000000	97.055995 
2152.000000	97.062480 
2151.000000	97.070070 
2150.000000	97.073619 
2149.000000	97.069435 
2148.000000	97.061316 
2147.000000	97.058137 
2146.000000	97.063957 
2145.000000	97.074352 
2144.000000	97.083585 
2143.000000	97.091603 
2142.000000	97.100902 
2141.000000	97.110286 
2140.000000	97.116083 
2139.000000	97.117838 
2138.000000	97.118862 
2137.000000	97.121695 
2136.000000	97.125684 
2135.000000	97.128301 
2134.000000	97.127335 
2133.000000	97.123223 
2132.000000	97.119955 
2131.000000	97.121624 
2130.000000	97.127533 
2129.000000	97.132772 
2128.000000	97.134366 
2127.000000	97.134435 
2126.000000	97.136164 
2125.000000	97.139219 
2124.000000	97.141228 
2123.000000	97.141573 
2122.000000	97.141273 
2121.000000	97.140564 
2120.000000	97.138653 
2119.000000	97.135312 
2118.000000	97.131337 
2117.000000	97.127796 
2116.000000	97.125395 
2115.000000	97.123882 
2114.000000	97.121786 
2113.000000	97.117904 
2112.000000	97.113596 
2111.000000	97.112084 
2110.000000	97.114692 
2109.000000	97.119193 
2108.000000	97.122468 
2107.000000	97.123604 
2106.000000	97.123476 
2105.000000	97.123137 
2104.000000	97.123615 
2103.000000	97.125480 
2102.000000	97.127315 
2101.000000	97.126299 
2100.000000	97.121614 
2099.000000	97.116227 
2098.000000	97.114092 
2097.000000	97.116027 
2096.000000	97.119748 
2095.000000	97.122470 
2094.000000	97.123172 
2093.000000	97.122282 
2092.000000	97.120602 
2091.000000	97.118872 
2090.000000	97.117590 
2089.000000	97.116758 
2088.000000	97.115978 
2087.000000	97.114839 
2086.000000	97.113066 
2085.000000	97.110600 
2084.000000	97.107858 
2083.000000	97.105585 
2082.000000	97.104071 
2081.000000	97.102844 
2080.000000	97.101538 
2079.000000	97.100535 
2078.000000	97.100110 
2077.000000	97.099445 
2076.000000	97.097516 
2075.000000	97.094697 
2074.000000	97.092282 
2073.000000	97.090528 
2072.000000	97.088393 
2071.000000	97.085227 
2070.000000	97.081591 
2069.000000	97.078340 
2068.000000	97.075844 
2067.000000	97.074127 
2066.000000	97.072988 
2065.000000	97.071718 
2064.000000	97.069408 
2063.000000	97.065993 
2062.000000	97.062569 
2061.000000	97.060442 
2060.000000	97.059935 
2059.000000	97.060435 
2058.000000	97.060867 
2057.000000	97.060278 
2056.000000	97.058427 
2055.000000	97.055660 
2054.000000	97.052564 
2053.000000	97.049613 
2052.000000	97.047127 
2051.000000	97.045236 
2050.000000	97.043789 
2049.000000	97.042476 
2048.000000	97.041157 
2047.000000	97.039936 
2046.000000	97.038881 
2045.000000	97.037888 
2044.000000	97.036895 
2043.000000	97.035994 
2042.000000	97.035267 
2041.000000	97.034690 
2040.000000	97.034313 
2039.000000	97.034339 
2038.000000	97.034734 
2037.000000	97.034949 
2036.000000	97.034448 
2035.000000	97.033334 
2034.000000	97.032293 
2033.000000	97.031938 
2032.000000	97.032357 
2031.000000	97.033095 
2030.000000	97.033318 
2029.000000	97.032334 
2028.000000	97.030244 
2027.000000	97.028057 
2026.000000	97.026628 
2025.000000	97.025879 
2024.000000	97.025397 
2023.000000	97.025458 
2022.000000	97.026832 
2021.000000	97.029498 
2020.000000	97.031928 
2019.000000	97.032235 
2018.000000	97.029667 
2017.000000	97.025196 
2016.000000	97.021046 
2015.000000	97.018891 
2014.000000	97.018369 
2013.000000	97.017330 
2012.000000	97.014410 
2011.000000	97.011267 
2010.000000	97.010910 
2009.000000	97.014062 
2008.000000	97.018448 
2007.000000	97.021755 
2006.000000	97.023819 
2005.000000	97.025254 
2004.000000	97.025904 
2003.000000	97.025774 
2002.000000	97.026102 
2001.000000	97.027621 
2000.000000	97.028698 
1999.000000	97.026411 
1998.000000	97.019513 
1997.000000	97.010067 
1996.000000	97.002130 
1995.000000	96.998651 
1994.000000	96.999594 
1993.000000	97.002206 
1992.000000	97.003088 
1991.000000	97.001155 
1990.000000	96.998468 
1989.000000	96.998001 
1988.000000	97.000520 
1987.000000	97.003485 
1986.000000	97.003229 
1985.000000	96.998653 
1984.000000	96.992406 
1983.000000	96.988013 
1982.000000	96.986379 
1981.000000	96.985994 
1980.000000	96.986307 
1979.000000	96.988694 
1978.000000	96.993598 
1977.000000	96.998883 
1976.000000	97.002134 
1975.000000	97.003448 
1974.000000	97.004760 
1973.000000	97.007601 
1972.000000	97.012164 
1971.000000	97.017548 
1970.000000	97.022089 
1969.000000	97.024055 
1968.000000	97.022862 
1967.000000	97.019656 
1966.000000	97.016763 
1965.000000	97.016188 
1964.000000	97.018596 
1963.000000	97.023371 
1962.000000	97.029053 
1961.000000	97.033930 
1960.000000	97.036798 
1959.000000	97.037403 
1958.000000	97.036574 
1957.000000	97.035986 
1956.000000	97.037051 
1955.000000	97.039817 
1954.000000	97.043007 
1953.000000	97.045319 
1952.000000	97.046501 
1951.000000	97.047124 
1950.000000	97.047828 
1949.000000	97.049096 
1948.000000	97.051327 
1947.000000	97.054366 
1946.000000	97.057191 
1945.000000	97.058793 
1944.000000	97.059258 
1943.000000	97.059498 
1942.000000	97.060058 
1941.000000	97.060750 
1940.000000	97.061397 
1939.000000	97.062097 
1938.000000	97.062923 
1937.000000	97.063925 
1936.000000	97.065296 
1935.000000	97.067063 
1934.000000	97.068688 
1933.000000	97.069680 
1932.000000	97.070510 
1931.000000	97.072252 
1930.000000	97.075006 
1929.000000	97.077372 
1928.000000	97.078589 
1927.000000	97.079400 
1926.000000	97.080479 
1925.000000	97.080973 
1924.000000	97.080102 
1923.000000	97.079238 
1922.000000	97.079897 
1921.000000	97.081204 
1920.000000	97.081545 
1919.000000	97.081191 
1918.000000	97.081059 
1917.000000	97.080320 
1916.000000	97.078142 
1915.000000	97.075921 
1914.000000	97.075376 
1913.000000	97.076181 
1912.000000	97.076569 
1911.000000	97.076109 
1910.000000	97.075689 
1909.000000	97.075666 
1908.000000	97.076051 
1907.000000	97.076629 
1906.000000	97.076703 
1905.000000	97.075041 
1904.000000	97.071538 
1903.000000	97.068416 
1902.000000	97.067375 
1901.000000	97.067470 
1900.000000	97.067093 
1899.000000	97.066203 
1898.000000	97.065735 
1897.000000	97.065732 
1896.000000	97.065350 
1895.000000	97.064343 
1894.000000	97.062986 
1893.000000	97.061252 
1892.000000	97.059176 
1891.000000	97.057551 
1890.000000	97.057179 
1889.000000	97.057730 
1888.000000	97.058325 
1887.000000	97.058781 
1886.000000	97.059248 
1885.000000	97.059360 
1884.000000	97.058589 
1883.000000	97.057205 
1882.000000	97.056145 
1881.000000	97.055978 
1880.000000	97.056560 
1879.000000	97.057227 
1878.000000	97.057308 
1877.000000	97.056817 
1876.000000	97.056544 
1875.000000	97.057392 
1874.000000	97.059448 
1873.000000	97.061682 
1872.000000	97.063060 
1871.000000	97.063624 
1870.000000	97.063983 
1869.000000	97.064308 
1868.000000	97.064770 
1867.000000	97.066176 
1866.000000	97.068477 
1865.000000	97.070152 
1864.000000	97.070232 
1863.000000	97.069843 
1862.000000	97.070899 
1861.000000	97.073623 
1860.000000	97.076620 
1859.000000	97.079071 
1858.000000	97.081271 
1857.000000	97.083276 
1856.000000	97.084788 
1855.000000	97.086096 
1854.000000	97.087614 
1853.000000	97.088684 
1852.000000	97.089321 
1851.000000	97.090887 
1850.000000	97.094178 
1849.000000	97.098426 
1848.000000	97.102231 
1847.000000	97.105368 
1846.000000	97.108269 
1845.000000	97.110821 
1844.000000	97.112567 
1843.000000	97.114320 
1842.000000	97.116858 
1841.000000	97.119014 
1840.000000	97.120252 
1839.000000	97.121556 
1838.000000	97.123631 
1837.000000	97.125315 
1836.000000	97.125424 
1835.000000	97.125127 
1834.000000	97.126179 
1833.000000	97.128289 
1832.000000	97.129955 
1831.000000	97.130242 
1830.000000	97.129475 
1829.000000	97.128862 
1828.000000	97.129135 
1827.000000	97.130148 
1826.000000	97.131737 
1825.000000	97.133641 
1824.000000	97.135034 
1823.000000	97.135554 
1822.000000	97.135591 
1821.000000	97.135537 
1820.000000	97.135507 
1819.000000	97.135688 
1818.000000	97.136536 
1817.000000	97.137743 
1816.000000	97.138267 
1815.000000	97.138002 
1814.000000	97.137868 
1813.000000	97.138531 
1812.000000	97.139407 
1811.000000	97.139608 
1810.000000	97.139311 
1809.000000	97.139079 
1808.000000	97.139010 
1807.000000	97.139025 
1806.000000	97.139191 
1805.000000	97.139487 
1804.000000	97.139765 
1803.000000	97.140192 
1802.000000	97.140939 
1801.000000	97.141760 
1800.000000	97.142014 
1799.000000	97.141544 
1798.000000	97.141095 
1797.000000	97.141191 
1796.000000	97.141635 
1795.000000	97.142163 
1794.000000	97.142941 
1793.000000	97.144145 
1792.000000	97.145285 
1791.000000	97.146080 
1790.000000	97.146927 
1789.000000	97.147787 
1788.000000	97.148565 
1787.000000	97.149662 
1786.000000	97.151530 
1785.000000	97.153674 
1784.000000	97.155031 
1783.000000	97.155560 
1782.000000	97.155829 
1781.000000	97.156645 
1780.000000	97.158293 
1779.000000	97.160298 
1778.000000	97.162318 
1777.000000	97.164200 
1776.000000	97.166035 
1775.000000	97.167596 
1774.000000	97.168544 
1773.000000	97.169068 
1772.000000	97.169780 
1771.000000	97.171106 
1770.000000	97.173108 
1769.000000	97.175488 
1768.000000	97.177950 
1767.000000	97.180005 
1766.000000	97.181207 
1765.000000	97.181751 
1764.000000	97.182208 
1763.000000	97.183050 
1762.000000	97.184237 
1761.000000	97.185557 
1760.000000	97.186780 
1759.000000	97.187759 
1758.000000	97.188694 
1757.000000	97.189975 
1756.000000	97.191847 
1755.000000	97.193462 
1754.000000	97.193784 
1753.000000	97.192981 
1752.000000	97.192641 
1751.000000	97.193533 
1750.000000	97.194725 
1749.000000	97.195120 
1748.000000	97.194853 
1747.000000	97.194549 
1746.000000	97.193747 
1745.000000	97.193007 
1744.000000	97.193629 
1743.000000	97.195263 
1742.000000	97.195960 
1741.000000	97.194575 
1740.000000	97.192148 
1739.000000	97.191276 
1738.000000	97.193000 
1737.000000	97.194448 
1736.000000	97.193732 
1735.000000	97.193987 
1734.000000	97.195891 
1733.000000	97.195501 
1732.000000	97.194066 
1731.000000	97.193455 
1730.000000	97.195134 
1729.000000	97.197723 
1728.000000	97.198070 
1727.000000	97.194890 
1726.000000	97.189806 
1725.000000	97.186715 
1724.000000	97.186335 
1723.000000	97.187086 
1722.000000	97.188730 
1721.000000	97.189854 
1720.000000	97.188183 
1719.000000	97.184178 
1718.000000	97.182032 
1717.000000	97.181517 
1716.000000	97.177886 
1715.000000	97.172033 
1714.000000	97.168504 
1713.000000	97.166693 
1712.000000	97.162424 
1711.000000	97.156385 
1710.000000	97.152294 
1709.000000	97.149998 
1708.000000	97.145767 
1707.000000	97.138132 
1706.000000	97.130985 
1705.000000	97.127104 
1704.000000	97.124204 
1703.000000	97.119295 
1702.000000	97.114298 
1701.000000	97.113349 
1700.000000	97.110098 
1699.000000	97.100664 
1698.000000	97.091941 
1697.000000	97.083771 
1696.000000	97.076097 
1695.000000	97.070095 
1694.000000	97.066294 
1693.000000	97.061833 
1692.000000	97.054227 
1691.000000	97.045323 
1690.000000	97.037579 
1689.000000	97.031125 
1688.000000	97.025248 
1687.000000	97.018342 
1686.000000	97.010827 
1685.000000	97.003972 
1684.000000	96.996534 
1683.000000	96.989648 
1682.000000	96.984368 
1681.000000	96.977607 
1680.000000	96.970984 
1679.000000	96.966095 
1678.000000	96.961323 
1677.000000	96.955032 
1676.000000	96.948734 
1675.000000	96.943308 
1674.000000	96.935905 
1673.000000	96.925726 
1672.000000	96.914149 
1671.000000	96.904166 
1670.000000	96.896914 
1669.000000	96.889885 
1668.000000	96.884466 
1667.000000	96.881589 
1666.000000	96.877753 
1665.000000	96.870602 
1664.000000	96.861646 
1663.000000	96.854873 
1662.000000	96.849368 
1661.000000	96.841610 
1660.000000	96.832906 
1659.000000	96.825351 
1658.000000	96.818439 
1657.000000	96.811675 
1656.000000	96.805573 
1655.000000	96.801713 
1654.000000	96.800565 
1653.000000	96.785286 
1652.000000	96.757085 
1651.000000	96.748003 
1650.000000	96.745813 
1649.000000	96.739086 
1648.000000	96.731805 
1647.000000	96.730448 
1646.000000	96.732126 
1645.000000	96.732912 
1644.000000	96.730195 
1643.000000	96.726043 
1642.000000	96.722115 
1641.000000	96.718476 
1640.000000	96.716604 
1639.000000	96.715728 
1638.000000	96.714038 
1637.000000	96.710801 
1636.000000	96.707549 
1635.000000	96.704634 
1634.000000	96.705720 
1633.000000	96.709427 
1632.000000	96.709889 
1631.000000	96.710123 
1630.000000	96.712389 
1629.000000	96.714422 
1628.000000	96.716115 
1627.000000	96.722537 
1626.000000	96.732542 
1625.000000	96.739789 
1624.000000	96.743380 
1623.000000	96.748714 
1622.000000	96.757832 
1621.000000	96.767392 
1620.000000	96.775337 
1619.000000	96.781988 
1618.000000	96.787962 
1617.000000	96.788505 
1616.000000	96.786323 
1615.000000	96.794029 
1614.000000	96.808923 
1613.000000	96.818972 
1612.000000	96.823578 
1611.000000	96.829807 
1610.000000	96.838246 
1609.000000	96.845820 
1608.000000	96.855988 
1607.000000	96.872541 
1606.000000	96.888714 
1605.000000	96.898174 
1604.000000	96.905760 
1603.000000	96.916046 
1602.000000	96.926509 
1601.000000	96.933887 
1600.000000	96.940712 
1599.000000	96.949395 
1598.000000	96.957078 
1597.000000	96.961598 
1596.000000	96.965963 
1595.000000	96.973808 
1594.000000	96.983287 
1593.000000	96.990504 
1592.000000	96.996144 
1591.000000	97.003268 
1590.000000	97.011295 
1589.000000	97.017889 
1588.000000	97.024191 
1587.000000	97.032824 
1586.000000	97.042091 
1585.000000	97.047603 
1584.000000	97.051951 
1583.000000	97.059122 
1582.000000	97.065705 
1581.000000	97.068464 
1580.000000	97.071046 
1579.000000	97.075709 
1578.000000	97.079398 
1577.000000	97.081242 
1576.000000	97.084517 
1575.000000	97.094356 
1574.000000	97.107999 
1573.000000	97.117051 
1572.000000	97.121679 
1571.000000	97.127877 
1570.000000	97.134036 
1569.000000	97.133928 
1568.000000	97.133951 
1567.000000	97.136855 
1566.000000	97.136526 
1565.000000	97.131814 
1564.000000	97.129305 
1563.000000	97.130475 
1562.000000	97.127501 
1561.000000	97.119517 
1560.000000	97.127497 
1559.000000	97.147498 
1558.000000	97.148759 
1557.000000	97.143371 
1556.000000	97.137955 
1555.000000	97.137019 
1554.000000	97.137059 
1553.000000	97.134345 
1552.000000	97.129059 
1551.000000	97.123807 
1550.000000	97.121380 
1549.000000	97.118229 
1548.000000	97.110503 
1547.000000	97.100189 
1546.000000	97.090648 
1545.000000	97.084428 
1544.000000	97.081565 
1543.000000	97.079146 
1542.000000	97.075161 
1541.000000	97.065347 
1540.000000	97.042964 
1539.000000	97.018000 
1538.000000	97.005049 
1537.000000	96.996752 
1536.000000	96.983124 
1535.000000	96.967004 
1534.000000	96.955068 
1533.000000	96.948314 
1532.000000	96.941649 
1531.000000	96.930097 
1530.000000	96.914588 
1529.000000	96.898111 
1528.000000	96.882669 
1527.000000	96.870435 
1526.000000	96.860639 
1525.000000	96.849137 
1524.000000	96.833014 
1523.000000	96.814730 
1522.000000	96.800747 
1521.000000	96.791422 
1520.000000	96.779473 
1519.000000	96.759564 
1518.000000	96.734068 
1517.000000	96.712274 
1516.000000	96.699057 
1515.000000	96.689967 
1514.000000	96.678762 
1513.000000	96.664809 
1512.000000	96.648269 
1511.000000	96.628335 
1510.000000	96.606359 
1509.000000	96.585606 
1508.000000	96.570319 
1507.000000	96.558830 
1506.000000	96.542382 
1505.000000	96.519217 
1504.000000	96.495053 
1503.000000	96.471870 
1502.000000	96.449813 
1501.000000	96.430051 
1500.000000	96.412237 
1499.000000	96.394012 
1498.000000	96.374813 
1497.000000	96.357039 
1496.000000	96.340968 
1495.000000	96.326772 
1494.000000	96.314943 
1493.000000	96.304006 
1492.000000	96.292534 
1491.000000	96.281107 
1490.000000	96.270824 
1489.000000	96.259192 
1488.000000	96.241002 
1487.000000	96.217712 
1486.000000	96.195375 
1485.000000	96.173180 
1484.000000	96.149600 
1483.000000	96.126452 
1482.000000	96.107256 
1481.000000	96.092399 
1480.000000	96.077301 
1479.000000	96.059919 
1478.000000	96.043302 
1477.000000	96.030269 
1476.000000	96.017592 
1475.000000	96.002524 
1474.000000	95.985778 
1473.000000	95.970010 
1472.000000	95.955276 
1471.000000	95.938638 
1470.000000	95.919334 
1469.000000	95.897834 
1468.000000	95.875219 
1467.000000	95.854089 
1466.000000	95.836939 
1465.000000	95.824183 
1464.000000	95.813971 
1463.000000	95.800680 
1462.000000	95.781761 
1461.000000	95.759462 
1460.000000	95.738214 
1459.000000	95.720923 
1458.000000	95.709556 
1457.000000	95.704034 
1456.000000	95.697205 
1455.000000	95.681763 
1454.000000	95.656173 
1453.000000	95.628935 
1452.000000	95.609738 
1451.000000	95.600606 
1450.000000	95.598414 
1449.000000	95.600792 
1448.000000	95.603860 
1447.000000	95.602279 
1446.000000	95.591476 
1445.000000	95.575863 
1444.000000	95.563687 
1443.000000	95.554796 
1442.000000	95.546065 
1441.000000	95.537427 
1440.000000	95.531033 
1439.000000	95.525775 
1438.000000	95.523672 
1437.000000	95.528949 
1436.000000	95.535192 
1435.000000	95.529936 
1434.000000	95.513866 
1433.000000	95.498811 
1432.000000	95.493605 
1431.000000	95.496678 
1430.000000	95.501514 
1429.000000	95.506257 
1428.000000	95.509820 
1427.000000	95.511053 
1426.000000	95.510000 
1425.000000	95.514198 
1424.000000	95.529819 
1423.000000	95.546232 
1422.000000	95.551703 
1421.000000	95.551752 
1420.000000	95.562148 
1419.000000	95.582043 
1418.000000	95.596070 
1417.000000	95.601085 
1416.000000	95.603694 
1415.000000	95.606847 
1414.000000	95.608395 
1413.000000	95.609332 
1412.000000	95.614592 
1411.000000	95.624420 
1410.000000	95.635359 
1409.000000	95.646866 
1408.000000	95.660338 
1407.000000	95.678118 
1406.000000	95.701365 
1405.000000	95.732061 
1404.000000	95.769190 
1403.000000	95.802162 
1402.000000	95.824229 
1401.000000	95.843122 
1400.000000	95.872688 
1399.000000	95.913308 
1398.000000	95.949531 
1397.000000	95.970706 
1396.000000	95.982587 
1395.000000	95.998161 
1394.000000	96.022584 
1393.000000	96.054203 
1392.000000	96.090079 
1391.000000	96.125242 
1390.000000	96.155387 
1389.000000	96.180700 
1388.000000	96.204400 
1387.000000	96.226847 
1386.000000	96.244596 
1385.000000	96.258406 
1384.000000	96.275039 
1383.000000	96.297665 
1382.000000	96.322927 
1381.000000	96.346716 
1380.000000	96.369977 
1379.000000	96.395609 
1378.000000	96.422061 
1377.000000	96.445512 
1376.000000	96.466429 
1375.000000	96.489593 
1374.000000	96.517137 
1373.000000	96.546105 
1372.000000	96.572570 
1371.000000	96.596515 
1370.000000	96.619905 
1369.000000	96.644028 
1368.000000	96.668770 
1367.000000	96.691178 
1366.000000	96.709344 
1365.000000	96.726260 
1364.000000	96.747688 
1363.000000	96.775187 
1362.000000	96.802972 
1361.000000	96.824322 
1360.000000	96.839392 
1359.000000	96.853001 
1358.000000	96.867809 
1357.000000	96.883428 
1356.000000	96.899627 
1355.000000	96.916288 
1354.000000	96.932698 
1353.000000	96.948346 
1352.000000	96.963093 
1351.000000	96.978140 
1350.000000	96.993444 
1349.000000	97.007370 
1348.000000	97.019154 
1347.000000	97.028963 
1346.000000	97.038112 
1345.000000	97.047718 
1344.000000	97.057544 
1343.000000	97.066288 
1342.000000	97.074421 
1341.000000	97.085190 
1340.000000	97.100990 
1339.000000	97.118445 
1338.000000	97.130920 
1337.000000	97.136343 
1336.000000	97.138025 
1335.000000	97.138892 
1334.000000	97.139466 
1333.000000	97.140521 
1332.000000	97.143594 
1331.000000	97.148480 
1330.000000	97.153205 
1329.000000	97.157211 
1328.000000	97.161940 
1327.000000	97.167947 
1326.000000	97.173339 
1325.000000	97.176337 
1324.000000	97.177000 
1323.000000	97.175389 
1322.000000	97.171650 
1321.000000	97.168061 
1320.000000	97.168168 
1319.000000	97.172653 
1318.000000	97.178491 
1317.000000	97.182787 
1316.000000	97.185050 
1315.000000	97.185490 
1314.000000	97.184315 
1313.000000	97.183265 
1312.000000	97.184654 
1311.000000	97.188028 
1310.000000	97.190491 
1309.000000	97.190940 
1308.000000	97.191261 
1307.000000	97.193178 
1306.000000	97.195905 
1305.000000	97.198327 
1304.000000	97.200740 
1303.000000	97.202607 
1302.000000	97.201779 
1301.000000	97.197626 
1300.000000	97.193138 
1299.000000	97.191954 
1298.000000	97.194459 
1297.000000	97.197816 
1296.000000	97.199000 
1295.000000	97.197077 
1294.000000	97.193700 
1293.000000	97.191953 
1292.000000	97.193511 
1291.000000	97.196748 
1290.000000	97.198824 
1289.000000	97.199259 
1288.000000	97.199544 
1287.000000	97.199707 
1286.000000	97.197977 
1285.000000	97.194394 
1284.000000	97.191880 
1283.000000	97.192326 
1282.000000	97.193717 
1281.000000	97.192746 
1280.000000	97.189147 
1279.000000	97.185798 
1278.000000	97.185484 
1277.000000	97.188746 
1276.000000	97.193859 
1275.000000	97.198032 
1274.000000	97.199416 
1273.000000	97.198734 
1272.000000	97.198147 
1271.000000	97.198401 
1270.000000	97.198259 
1269.000000	97.196927 
1268.000000	97.195300 
1267.000000	97.194063 
1266.000000	97.192601 
1265.000000	97.190885 
1264.000000	97.190556 
1263.000000	97.192758 
1262.000000	97.196100 
1261.000000	97.198224 
1260.000000	97.198909 
1259.000000	97.200002 
1258.000000	97.202361 
1257.000000	97.204080 
1256.000000	97.202253 
1255.000000	97.196796 
1254.000000	97.191942 
1253.000000	97.192272 
1252.000000	97.196763 
1251.000000	97.199080 
1250.000000	97.195403 
1249.000000	97.189859 
1248.000000	97.189495 
1247.000000	97.195151 
1246.000000	97.200678 
1245.000000	97.200556 
1244.000000	97.194980 
1243.000000	97.188113 
1242.000000	97.184754 
1241.000000	97.188422 
1240.000000	97.198728 
1239.000000	97.209584 
1238.000000	97.213209 
1237.000000	97.207234 
1236.000000	97.195811 
1235.000000	97.183760 
1234.000000	97.172477 
1233.000000	97.161780 
1232.000000	97.151941 
1231.000000	97.142262 
1230.000000	97.130751 
1229.000000	97.116944 
1228.000000	97.102427 
1227.000000	97.087030 
1226.000000	97.067056 
1225.000000	97.039210 
1224.000000	97.004292 
1223.000000	96.965410 
1222.000000	96.924339 
1221.000000	96.881189 
1220.000000	96.835903 
1219.000000	96.788168 
1218.000000	96.736905 
1217.000000	96.681139 
1216.000000	96.620291 
1215.000000	96.553211 
1214.000000	96.479280 
1213.000000	96.401670 
1212.000000	96.326452 
1211.000000	96.255769 
1210.000000	96.184022 
1209.000000	96.104058 
1208.000000	96.015710 
1207.000000	95.925241 
1206.000000	95.837298 
1205.000000	95.750492 
1204.000000	95.660782 
1203.000000	95.566325 
1202.000000	95.468743 
1201.000000	95.371389 
1200.000000	95.276539 
1199.000000	95.183269 
1198.000000	95.088521 
1197.000000	94.990992 
1196.000000	94.892563 
1195.000000	94.794952 
1194.000000	94.697013 
1193.000000	94.597035 
1192.000000	94.495416 
1191.000000	94.392705 
1190.000000	94.287227 
1189.000000	94.177358 
1188.000000	94.064233 
1187.000000	93.949521 
1186.000000	93.832706 
1185.000000	93.713467 
1184.000000	93.594172 
1183.000000	93.476363 
1182.000000	93.357137 
1181.000000	93.232987 
1180.000000	93.104900 
1179.000000	92.975238 
1178.000000	92.842083 
1177.000000	92.701866 
1176.000000	92.555473 
1175.000000	92.406244 
1174.000000	92.253893 
1173.000000	92.096424 
1172.000000	91.936265 
1171.000000	91.777610 
1170.000000	91.619028 
1169.000000	91.456379 
1168.000000	91.292994 
1167.000000	91.140037 
1166.000000	91.007460 
1165.000000	90.902472 
1164.000000	90.835971 
1163.000000	90.819737 
1162.000000	90.853482 
1161.000000	90.920515 
1160.000000	90.997401 
1159.000000	91.062577 
1158.000000	91.097629 
1157.000000	91.090375 
1156.000000	91.040129 
1155.000000	90.955337 
1154.000000	90.845283 
1153.000000	90.718011 
1152.000000	90.584132 
1151.000000	90.454104 
1150.000000	90.330141 
1149.000000	90.207668 
1148.000000	90.085486 
1147.000000	89.967171 
1146.000000	89.852013 
1145.000000	89.733247 
1144.000000	89.607478 
1143.000000	89.478472 
1142.000000	89.349739 
1141.000000	89.220488 
1140.000000	89.090588 
1139.000000	88.962188 
1138.000000	88.834614 
1137.000000	88.704491 
1136.000000	88.571998 
1135.000000	88.440020 
1134.000000	88.306791 
1133.000000	88.167528 
1132.000000	88.023760 
1131.000000	87.882189 
1130.000000	87.743345 
1129.000000	87.600572 
1128.000000	87.451551 
1127.000000	87.301309 
1126.000000	87.152001 
1125.000000	86.999352 
1124.000000	86.841660 
1123.000000	86.683151 
1122.000000	86.525957 
1121.000000	86.367836 
1120.000000	86.209934 
1119.000000	86.057210 
1118.000000	85.909183 
1117.000000	85.760482 
1116.000000	85.612321 
1115.000000	85.472706 
1114.000000	85.343308 
1113.000000	85.217247 
1112.000000	85.091627 
1111.000000	84.970060 
1110.000000	84.851211 
1109.000000	84.727800 
1108.000000	84.598590 
1107.000000	84.469455 
1106.000000	84.341426 
1105.000000	84.210019 
1104.000000	84.077385 
1103.000000	83.951313 
1102.000000	83.830603 
1101.000000	83.705183 
1100.000000	83.572730 
1099.000000	83.441830 
1098.000000	83.317224 
1097.000000	83.195493 
1096.000000	83.076121 
1095.000000	82.961952 
1094.000000	82.847412 
1093.000000	82.722050 
1092.000000	82.588206 
1091.000000	82.460254 
1090.000000	82.344254 
1089.000000	82.233132 
1088.000000	82.122983 
1087.000000	82.017473 
1086.000000	81.914397 
1085.000000	81.805243 
1084.000000	81.691034 
1083.000000	81.582055 
1082.000000	81.479060 
1081.000000	81.371323 
1080.000000	81.255849 
1079.000000	81.141338 
1078.000000	81.030105 
1077.000000	80.913099 
1076.000000	80.785955 
1075.000000	80.652723 
1074.000000	80.510924 
1073.000000	80.350127 
1072.000000	80.167418 
1071.000000	79.966240 
1070.000000	79.738248 
1069.000000	79.467013 
1068.000000	79.154936 
1067.000000	78.828581 
1066.000000	78.511495 
1065.000000	78.207725 
1064.000000	77.915458 
1063.000000	77.635354 
1062.000000	77.358553 
1061.000000	77.067598 
1060.000000	76.758969 
1059.000000	76.448717 
1058.000000	76.149311 
1057.000000	75.856840 
1056.000000	75.565111 
1055.000000	75.273412 
1054.000000	74.975228 
1053.000000	74.658987 
1052.000000	74.327088 
1051.000000	73.995267 
1050.000000	73.666757 
1049.000000	73.328723 
1048.000000	72.979285 
1047.000000	72.632963 
1046.000000	72.294845 
1045.000000	71.954096 
1044.000000	71.606437 
1043.000000	71.259817 
1042.000000	70.914866 
1041.000000	70.563025 
1040.000000	70.208303 
1039.000000	69.867930 
1038.000000	69.546954 
1037.000000	69.235149 
1036.000000	68.932458 
1035.000000	68.652851 
1034.000000	68.398725 
1033.000000	68.156408 
1032.000000	67.921100 
1031.000000	67.701521 
1030.000000	67.497205 
1029.000000	67.298394 
1028.000000	67.111845 
1027.000000	66.958062 
1026.000000	66.837256 
1025.000000	66.724937 
1024.000000	66.606309 
1023.000000	66.488424 
1022.000000	66.374445 
1021.000000	66.255052 
1020.000000	66.130558 
1019.000000	66.013335 
1018.000000	65.902646 
1017.000000	65.784088 
1016.000000	65.658249 
1015.000000	65.542251 
1014.000000	65.439034 
1013.000000	65.333661 
1012.000000	65.223732 
1011.000000	65.124124 
1010.000000	65.037436 
1009.000000	64.949839 
1008.000000	64.861095 
1007.000000	64.788723 
1006.000000	64.737216 
1005.000000	64.692963 
1004.000000	64.654212 
1003.000000	64.635118 
1002.000000	64.634526 
1001.000000	64.632254 
1000.000000	64.623517 
999.000000	 64.626634 
998.000000	 64.649197 
997.000000	 64.676690 
996.000000	 64.702025 
995.000000	 64.736925 
994.000000	 64.785932 
993.000000	 64.837615 
992.000000	 64.889055 
991.000000	 64.951365 
990.000000	 65.024410 
989.000000	 65.094183 
988.000000	 65.161557 
987.000000	 65.245434 
986.000000	 65.351375 
985.000000	 65.465682 
984.000000	 65.585933 
983.000000	 65.727643 
982.000000	 65.894000 
981.000000	 66.068546 
980.000000	 66.245302 
979.000000	 66.437582 
978.000000	 66.649492 
977.000000	 66.867777 
976.000000	 67.089893 
975.000000	 67.331722 
974.000000	 67.598396 
973.000000	 67.874257 
972.000000	 68.150291 
971.000000	 68.435981 
970.000000	 68.735706 
969.000000	 69.038484 
968.000000	 69.339043 
967.000000	 69.645262 
966.000000	 69.957753 
965.000000	 70.265445 
964.000000	 70.567473 
963.000000	 70.876176 
962.000000	 71.192698 
961.000000	 71.502667 
960.000000	 71.801092 
959.000000	 72.098237 
958.000000	 72.395926 
957.000000	 72.681655 
956.000000	 72.951888 
955.000000	 73.218465 
954.000000	 73.486304 
953.000000	 73.746386 
952.000000	 73.995332 
951.000000	 74.239597 
950.000000	 74.476019 
949.000000	 74.691140 
948.000000	 74.884832 
947.000000	 75.072479 
946.000000	 75.258710 
945.000000	 75.430700 
944.000000	 75.582632 
943.000000	 75.724956 
942.000000	 75.864169 
941.000000	 75.994974 
940.000000	 76.118373 
939.000000	 76.246042 
938.000000	 76.380356 
937.000000	 76.510521 
936.000000	 76.634459 
935.000000	 76.764115 
934.000000	 76.903443 
933.000000	 77.041745 
932.000000	 77.174886 
931.000000	 77.312890 
930.000000	 77.460177 
929.000000	 77.607617 
928.000000	 77.750391 
927.000000	 77.895150 
926.000000	 78.043594 
925.000000	 78.186270 
924.000000	 78.317318 
923.000000	 78.438859 
922.000000	 78.548672 
921.000000	 78.641716 
920.000000	 78.725713 
919.000000	 78.815834 
918.000000	 78.911434 
917.000000	 78.997654 
916.000000	 79.072704 
915.000000	 79.153621 
914.000000	 79.252429 
913.000000	 79.367408 
912.000000	 79.500915 
911.000000	 79.664186 
910.000000	 79.859666 
909.000000	 80.078631 
908.000000	 80.320010 
907.000000	 80.592204 
906.000000	 80.894249 
905.000000	 81.215309 
904.000000	 81.553552 
903.000000	 81.914173 
902.000000	 82.288384 
901.000000	 82.657336 
900.000000	 83.018642 
899.000000	 83.387055 
898.000000	 83.766785 
897.000000	 84.144121 
896.000000	 84.508561 
895.000000	 84.860269 
894.000000	 85.196336 
893.000000	 85.511068 
892.000000	 85.811167 
891.000000	 86.109949 
890.000000	 86.404670 
889.000000	 86.678805 
888.000000	 86.927016 
887.000000	 87.158209 
886.000000	 87.374721 
885.000000	 87.569880 
884.000000	 87.746321 
883.000000	 87.914279 
882.000000	 88.070876 
881.000000	 88.205199 
880.000000	 88.326400 
879.000000	 88.461352 
878.000000	 88.619049 
877.000000	 88.782258 
876.000000	 88.940287 
875.000000	 89.104645 
874.000000	 89.286098 
873.000000	 89.482311 
872.000000	 89.695780 
871.000000	 89.938192 
870.000000	 90.207114 
869.000000	 90.480538 
868.000000	 90.743980 
867.000000	 91.004332 
866.000000	 91.270483 
865.000000	 91.539466 
864.000000	 91.809314 
863.000000	 92.087833 
862.000000	 92.379189 
861.000000	 92.675004 
860.000000	 92.965252 
859.000000	 93.246081 
858.000000	 93.513207 
857.000000	 93.760331 
856.000000	 93.987558 
855.000000	 94.199695 
854.000000	 94.394287 
853.000000	 94.563631 
852.000000	 94.709926 
851.000000	 94.845624 
850.000000	 94.977384 
849.000000	 95.102089 
848.000000	 95.218588 
847.000000	 95.328789 
846.000000	 95.426781 
845.000000	 95.502394 
844.000000	 95.557005 
843.000000	 95.601141 
842.000000	 95.635462 
841.000000	 95.649172 
840.000000	 95.637931 
839.000000	 95.607427 
838.000000	 95.559121 
837.000000	 95.490702 
836.000000	 95.413370 
835.000000	 95.349801 
834.000000	 95.308482 
833.000000	 95.276486 
832.000000	 95.243884 
831.000000	 95.219044 
830.000000	 95.213128 
829.000000	 95.226290 
828.000000	 95.258294 
827.000000	 95.316681 
826.000000	 95.403375 
825.000000	 95.506654 
824.000000	 95.614868 
823.000000	 95.724259 
822.000000	 95.828594 
821.000000	 95.918246 
820.000000	 95.993404 
819.000000	 96.061139 
818.000000	 96.116340 
817.000000	 96.140941 
816.000000	 96.124695 
815.000000	 96.072592 
814.000000	 95.988543 
813.000000	 95.864859 
812.000000	 95.691094 
811.000000	 95.458974 
810.000000	 95.153647 
809.000000	 94.754446 
808.000000	 94.252822 
807.000000	 93.661442 
806.000000	 93.002633 
805.000000	 92.299583 
804.000000	 91.582414 
803.000000	 90.887203 
802.000000	 90.241292 
801.000000	 89.662980 
800.000000	 89.178949 
799.000000	 88.821769 
798.000000	 88.602380 
797.000000	 88.502604 
796.000000	 88.498791 
795.000000	 88.572567 
794.000000	 88.696796 
793.000000	 88.837413 
792.000000	 88.976817 
791.000000	 89.114591 
790.000000	 89.241084 
789.000000	 89.331849 
788.000000	 89.371557 
787.000000	 89.360873 
786.000000	 89.295636 
785.000000	 89.162507 
784.000000	 88.962302 
783.000000	 88.717824 
782.000000	 88.453793 
781.000000	 88.190152 
780.000000	 87.958795 
779.000000	 87.800380 
778.000000	 87.734218 
777.000000	 87.752063 
776.000000	 87.846492 
775.000000	 88.019648 
774.000000	 88.256644 
773.000000	 88.517920 
772.000000	 88.770424 
771.000000	 89.005744 
770.000000	 89.220674 
769.000000	 89.404135 
768.000000	 89.552655 
767.000000	 89.676095 
766.000000	 89.777886 
765.000000	 89.850386 
764.000000	 89.898987 
763.000000	 89.949021 
762.000000	 90.017292 
761.000000	 90.095950 
760.000000	 90.174242 
759.000000	 90.256324 
758.000000	 90.347827 
757.000000	 90.445508 
756.000000	 90.551380 
755.000000	 90.677080 
754.000000	 90.821605 
753.000000	 90.962027 
752.000000	 91.078083 
751.000000	 91.172297 
750.000000	 91.259056 
749.000000	 91.349703 
748.000000	 91.454517 
747.000000	 91.580937 
746.000000	 91.720762 
745.000000	 91.855874 
744.000000	 91.984785 
743.000000	 92.126842 
742.000000	 92.293518 
741.000000	 92.474155 
740.000000	 92.656823 
739.000000	 92.843359 
738.000000	 93.035388 
737.000000	 93.224004 
736.000000	 93.402832 
735.000000	 93.575166 
734.000000	 93.740617 
733.000000	 93.890287 
732.000000	 94.020630 
731.000000	 94.136083 
730.000000	 94.234358 
729.000000	 94.307579 
728.000000	 94.359998 
727.000000	 94.407730 
726.000000	 94.461123 
725.000000	 94.522727 
724.000000	 94.601449 
723.000000	 94.708424 
722.000000	 94.836100 
721.000000	 94.960977 
720.000000	 95.071724 
719.000000	 95.176600 
718.000000	 95.279300 
717.000000	 95.369806 
716.000000	 95.445232 
715.000000	 95.516482 
714.000000	 95.587929 
713.000000	 95.652876 
712.000000	 95.714855 
711.000000	 95.790138 
710.000000	 95.879474 
709.000000	 95.963100 
708.000000	 96.027034 
707.000000	 96.072915 
706.000000	 96.099470 
705.000000	 96.093807 
704.000000	 96.050057 
703.000000	 95.978217 
702.000000	 95.878340 
701.000000	 95.723389 
700.000000	 95.484752 
699.000000	 95.161232 
698.000000	 94.781126 
697.000000	 94.393411 
696.000000	 94.062180 
695.000000	 93.850390 
694.000000	 93.786082 
693.000000	 93.850922 
692.000000	 94.005751 
691.000000	 94.211614 
690.000000	 94.431552 
689.000000	 94.634383 
688.000000	 94.807385 
687.000000	 94.955331 
686.000000	 95.080595 
685.000000	 95.183334 
684.000000	 95.279751 
683.000000	 95.389210 
682.000000	 95.504192 
681.000000	 95.599056 
680.000000	 95.671317 
679.000000	 95.744066 
678.000000	 95.828529 
677.000000	 95.918602 
676.000000	 96.011673 
675.000000	 96.112292 
674.000000	 96.210744 
673.000000	 96.277156 
672.000000	 96.294137 
671.000000	 96.257449 
670.000000	 96.166971 
669.000000	 96.026447 
668.000000	 95.952485 
667.000000	 96.117880 
666.000000	 96.422835 
665.000000	 96.670859 
664.000000	 96.830265 
663.000000	 96.934494 
662.000000	 97.016461 
661.000000	 97.085090 
660.000000	 97.136884 
659.000000	 97.175669 
658.000000	 97.205330 
657.000000	 97.225360 
656.000000	 97.233300 
655.000000	 97.232368 
654.000000	 97.222794 
653.000000	 97.196012 
652.000000	 97.156612 
651.000000	 97.137120 
650.000000	 97.164383 

