4000.000000	98.657340 
3999.000000	98.657540 
3998.000000	98.656931 
3997.000000	98.655721 
3996.000000	98.654486 
3995.000000	98.653669 
3994.000000	98.653403 
3993.000000	98.653626 
3992.000000	98.654135 
3991.000000	98.654612 
3990.000000	98.654774 
3989.000000	98.654519 
3988.000000	98.653895 
3987.000000	98.653065 
3986.000000	98.652333 
3985.000000	98.652020 
3984.000000	98.652189 
3983.000000	98.652581 
3982.000000	98.652940 
3981.000000	98.653247 
3980.000000	98.653440 
3979.000000	98.653156 
3978.000000	98.652144 
3977.000000	98.650845 
3976.000000	98.650188 
3975.000000	98.650630 
3974.000000	98.651677 
3973.000000	98.652389 
3972.000000	98.652216 
3971.000000	98.651230 
3970.000000	98.649857 
3969.000000	98.648649 
3968.000000	98.648125 
3967.000000	98.648494 
3966.000000	98.649509 
3965.000000	98.650557 
3964.000000	98.650886 
3963.000000	98.649955 
3962.000000	98.647846 
3961.000000	98.645329 
3960.000000	98.643234 
3959.000000	98.641825 
3958.000000	98.640891 
3957.000000	98.640335 
3956.000000	98.640206 
3955.000000	98.640141 
3954.000000	98.639521 
3953.000000	98.638133 
3952.000000	98.636412 
3951.000000	98.634874 
3950.000000	98.633527 
3949.000000	98.632159 
3948.000000	98.630809 
3947.000000	98.629946 
3946.000000	98.630201 
3945.000000	98.631799 
3944.000000	98.634050 
3943.000000	98.635668 
3942.000000	98.636205 
3941.000000	98.636418 
3940.000000	98.637006 
3939.000000	98.637645 
3938.000000	98.637451 
3937.000000	98.636102 
3936.000000	98.634069 
3935.000000	98.631723 
3934.000000	98.629161 
3933.000000	98.626752 
3932.000000	98.625369 
3931.000000	98.625446 
3930.000000	98.626469 
3929.000000	98.627892 
3928.000000	98.629732 
3927.000000	98.632037 
3926.000000	98.634084 
3925.000000	98.634747 
3924.000000	98.633877 
3923.000000	98.632339 
3922.000000	98.630788 
3921.000000	98.629425 
3920.000000	98.628543 
3919.000000	98.628502 
3918.000000	98.628912 
3917.000000	98.628770 
3916.000000	98.627775 
3915.000000	98.626733 
3914.000000	98.626457 
3913.000000	98.626953 
3912.000000	98.627794 
3911.000000	98.628857 
3910.000000	98.630053 
3909.000000	98.631017 
3908.000000	98.631349 
3907.000000	98.630760 
3906.000000	98.629170 
3905.000000	98.626407 
3904.000000	98.622647 
3903.000000	98.619035 
3902.000000	98.617006 
3901.000000	98.617111 
3900.000000	98.618713 
3899.000000	98.620609 
3898.000000	98.622119 
3897.000000	98.623045 
3896.000000	98.623206 
3895.000000	98.622809 
3894.000000	98.622483 
3893.000000	98.622629 
3892.000000	98.622509 
3891.000000	98.620911 
3890.000000	98.617896 
3889.000000	98.614685 
3888.000000	98.612442 
3887.000000	98.611437 
3886.000000	98.611311 
3885.000000	98.611670 
3884.000000	98.612162 
3883.000000	98.612175 
3882.000000	98.611398 
3881.000000	98.610428 
3880.000000	98.610252 
3879.000000	98.610992 
3878.000000	98.611900 
3877.000000	98.612351 
3876.000000	98.612395 
3875.000000	98.612165 
3874.000000	98.611563 
3873.000000	98.610652 
3872.000000	98.609709 
3871.000000	98.608734 
3870.000000	98.607653 
3869.000000	98.607019 
3868.000000	98.607256 
3867.000000	98.607874 
3866.000000	98.608053 
3865.000000	98.607711 
3864.000000	98.607509 
3863.000000	98.607777 
3862.000000	98.608079 
3861.000000	98.608200 
3860.000000	98.608445 
3859.000000	98.608941 
3858.000000	98.609339 
3857.000000	98.609272 
3856.000000	98.608880 
3855.000000	98.608586 
3854.000000	98.608337 
3853.000000	98.607930 
3852.000000	98.607669 
3851.000000	98.607805 
3850.000000	98.608116 
3849.000000	98.608485 
3848.000000	98.609078 
3847.000000	98.610036 
3846.000000	98.610971 
3845.000000	98.611288 
3844.000000	98.610827 
3843.000000	98.609891 
3842.000000	98.608974 
3841.000000	98.608550 
3840.000000	98.608707 
3839.000000	98.609175 
3838.000000	98.609689 
3837.000000	98.609962 
3836.000000	98.609850 
3835.000000	98.609470 
3834.000000	98.609241 
3833.000000	98.609653 
3832.000000	98.610767 
3831.000000	98.612244 
3830.000000	98.613667 
3829.000000	98.614830 
3828.000000	98.616092 
3827.000000	98.617821 
3826.000000	98.619395 
3825.000000	98.619830 
3824.000000	98.618600 
3823.000000	98.616119 
3822.000000	98.613426 
3821.000000	98.611187 
3820.000000	98.610162 
3819.000000	98.610441 
3818.000000	98.610869 
3817.000000	98.610659 
3816.000000	98.610876 
3815.000000	98.613480 
3814.000000	98.618340 
3813.000000	98.622683 
3812.000000	98.624518 
3811.000000	98.625220 
3810.000000	98.627277 
3809.000000	98.630799 
3808.000000	98.632934 
3807.000000	98.631166 
3806.000000	98.626387 
3805.000000	98.621217 
3804.000000	98.616485 
3803.000000	98.612446 
3802.000000	98.609602 
3801.000000	98.608567 
3800.000000	98.609825 
3799.000000	98.611737 
3798.000000	98.612521 
3797.000000	98.613359 
3796.000000	98.616684 
3795.000000	98.622532 
3794.000000	98.628103 
3793.000000	98.631270 
3792.000000	98.633105 
3791.000000	98.636175 
3790.000000	98.640425 
3789.000000	98.642994 
3788.000000	98.642274 
3787.000000	98.639791 
3786.000000	98.637795 
3785.000000	98.636393 
3784.000000	98.634224 
3783.000000	98.631060 
3782.000000	98.627950 
3781.000000	98.626112 
3780.000000	98.626323 
3779.000000	98.628739 
3778.000000	98.632302 
3777.000000	98.635002 
3776.000000	98.635174 
3775.000000	98.632893 
3774.000000	98.630059 
3773.000000	98.628666 
3772.000000	98.628930 
3771.000000	98.628843 
3770.000000	98.626565 
3769.000000	98.622950 
3768.000000	98.620003 
3767.000000	98.618375 
3766.000000	98.617970 
3765.000000	98.619002 
3764.000000	98.622049 
3763.000000	98.626454 
3762.000000	98.629755 
3761.000000	98.630171 
3760.000000	98.628644 
3759.000000	98.627717 
3758.000000	98.626519 
3757.000000	98.621429 
3756.000000	98.611532 
3755.000000	98.598637 
3754.000000	98.584650 
3753.000000	98.571026 
3752.000000	98.560965 
3751.000000	98.557609 
3750.000000	98.558678 
3749.000000	98.559425 
3748.000000	98.559575 
3747.000000	98.562432 
3746.000000	98.569981 
3745.000000	98.579133 
3744.000000	98.588421 
3743.000000	98.599117 
3742.000000	98.607141 
3741.000000	98.606598 
3740.000000	98.598936 
3739.000000	98.593324 
3738.000000	98.596277 
3737.000000	98.602577 
3736.000000	98.603330 
3735.000000	98.598523 
3734.000000	98.595607 
3733.000000	98.597478 
3732.000000	98.601162 
3731.000000	98.604712 
3730.000000	98.607521 
3729.000000	98.608301 
3728.000000	98.606398 
3727.000000	98.603343 
3726.000000	98.602226 
3725.000000	98.604077 
3724.000000	98.606458 
3723.000000	98.606814 
3722.000000	98.605616 
3721.000000	98.605094 
3720.000000	98.605302 
3719.000000	98.605551 
3718.000000	98.605348 
3717.000000	98.603423 
3716.000000	98.598494 
3715.000000	98.589475 
3714.000000	98.577668 
3713.000000	98.568055 
3712.000000	98.564714 
3711.000000	98.565784 
3710.000000	98.565426 
3709.000000	98.560392 
3708.000000	98.551397 
3707.000000	98.539850 
3706.000000	98.527109 
3705.000000	98.514830 
3704.000000	98.504576 
3703.000000	98.496555 
3702.000000	98.488665 
3701.000000	98.478576 
3700.000000	98.466301 
3699.000000	98.453937 
3698.000000	98.443462 
3697.000000	98.435179 
3696.000000	98.429018 
3695.000000	98.425018 
3694.000000	98.421643 
3693.000000	98.416405 
3692.000000	98.407977 
3691.000000	98.396773 
3690.000000	98.383540 
3689.000000	98.370489 
3688.000000	98.361838 
3687.000000	98.359428 
3686.000000	98.360825 
3685.000000	98.362146 
3684.000000	98.361553 
3683.000000	98.360209 
3682.000000	98.359300 
3681.000000	98.356144 
3680.000000	98.346516 
3679.000000	98.329920 
3678.000000	98.311467 
3677.000000	98.296600 
3676.000000	98.284643 
3675.000000	98.273320 
3674.000000	98.263114 
3673.000000	98.253813 
3672.000000	98.243328 
3671.000000	98.231760 
3670.000000	98.221192 
3669.000000	98.213223 
3668.000000	98.206980 
3667.000000	98.200107 
3666.000000	98.192302 
3665.000000	98.184825 
3664.000000	98.177735 
3663.000000	98.170147 
3662.000000	98.161129 
3661.000000	98.149969 
3660.000000	98.137106 
3659.000000	98.123933 
3658.000000	98.112555 
3657.000000	98.103264 
3656.000000	98.094070 
3655.000000	98.083685 
3654.000000	98.071625 
3653.000000	98.057897 
3652.000000	98.043472 
3651.000000	98.030332 
3650.000000	98.019308 
3649.000000	98.009180 
3648.000000	97.999833 
3647.000000	97.993338 
3646.000000	97.991520 
3645.000000	97.994087 
3644.000000	97.999114 
3643.000000	98.004810 
3642.000000	98.009701 
3641.000000	98.012302 
3640.000000	98.011549 
3639.000000	98.006623 
3638.000000	97.997736 
3637.000000	97.986156 
3636.000000	97.973180 
3635.000000	97.958728 
3634.000000	97.942169 
3633.000000	97.924986 
3632.000000	97.910393 
3631.000000	97.900631 
3630.000000	97.894010 
3629.000000	97.885470 
3628.000000	97.874061 
3627.000000	97.864728 
3626.000000	97.859791 
3625.000000	97.858434 
3624.000000	97.859688 
3623.000000	97.862039 
3622.000000	97.862967 
3621.000000	97.859984 
3620.000000	97.852540 
3619.000000	97.843445 
3618.000000	97.837560 
3617.000000	97.838812 
3616.000000	97.849126 
3615.000000	97.867643 
3614.000000	97.889744 
3613.000000	97.909247 
3612.000000	97.922503 
3611.000000	97.929569 
3610.000000	97.932945 
3609.000000	97.935468 
3608.000000	97.938487 
3607.000000	97.942369 
3606.000000	97.947480 
3605.000000	97.954895 
3604.000000	97.965869 
3603.000000	97.979791 
3602.000000	97.993433 
3601.000000	98.002538 
3600.000000	98.005239 
3599.000000	98.003590 
3598.000000	98.001680 
3597.000000	98.002525 
3596.000000	98.007049 
3595.000000	98.012980 
3594.000000	98.016308 
3593.000000	98.015201 
3592.000000	98.010885 
3591.000000	98.005992 
3590.000000	98.003109 
3589.000000	98.003445 
3588.000000	98.006052 
3587.000000	98.009275 
3586.000000	98.012920 
3585.000000	98.017697 
3584.000000	98.024075 
3583.000000	98.031861 
3582.000000	98.040568 
3581.000000	98.049066 
3580.000000	98.055953 
3579.000000	98.060399 
3578.000000	98.062638 
3577.000000	98.063606 
3576.000000	98.063690 
3575.000000	98.062294 
3574.000000	98.058234 
3573.000000	98.051273 
3572.000000	98.042541 
3571.000000	98.033793 
3570.000000	98.026604 
3569.000000	98.022103 
3568.000000	98.020907 
3567.000000	98.023161 
3566.000000	98.028239 
3565.000000	98.034331 
3564.000000	98.039163 
3563.000000	98.041763 
3562.000000	98.042789 
3561.000000	98.043398 
3560.000000	98.043923 
3559.000000	98.043847 
3558.000000	98.042811 
3557.000000	98.041244 
3556.000000	98.039896 
3555.000000	98.039203 
3554.000000	98.039153 
3553.000000	98.039310 
3552.000000	98.039044 
3551.000000	98.037770 
3550.000000	98.035485 
3549.000000	98.033172 
3548.000000	98.032234 
3547.000000	98.032938 
3546.000000	98.033840 
3545.000000	98.033340 
3544.000000	98.031634 
3543.000000	98.030364 
3542.000000	98.030677 
3541.000000	98.032391 
3540.000000	98.034636 
3539.000000	98.036519 
3538.000000	98.037362 
3537.000000	98.036866 
3536.000000	98.035366 
3535.000000	98.033572 
3534.000000	98.032072 
3533.000000	98.031080 
3532.000000	98.030628 
3531.000000	98.030732 
3530.000000	98.031253 
3529.000000	98.031753 
3528.000000	98.031724 
3527.000000	98.030995 
3526.000000	98.029822 
3525.000000	98.028670 
3524.000000	98.027914 
3523.000000	98.027685 
3522.000000	98.027895 
3521.000000	98.028391 
3520.000000	98.029133 
3519.000000	98.030111 
3518.000000	98.031115 
3517.000000	98.031693 
3516.000000	98.031519 
3515.000000	98.030733 
3514.000000	98.029902 
3513.000000	98.029529 
3512.000000	98.029627 
3511.000000	98.029788 
3510.000000	98.029619 
3509.000000	98.029095 
3508.000000	98.028489 
3507.000000	98.028037 
3506.000000	98.027725 
3505.000000	98.027401 
3504.000000	98.027014 
3503.000000	98.026687 
3502.000000	98.026556 
3501.000000	98.026588 
3500.000000	98.026620 
3499.000000	98.026527 
3498.000000	98.026267 
3497.000000	98.025808 
3496.000000	98.025085 
3495.000000	98.024106 
3494.000000	98.023052 
3493.000000	98.022199 
3492.000000	98.021702 
3491.000000	98.021505 
3490.000000	98.021424 
3489.000000	98.021276 
3488.000000	98.020944 
3487.000000	98.020361 
3486.000000	98.019541 
3485.000000	98.018633 
3484.000000	98.017824 
3483.000000	98.017145 
3482.000000	98.016476 
3481.000000	98.015714 
3480.000000	98.014876 
3479.000000	98.014020 
3478.000000	98.013143 
3477.000000	98.012191 
3476.000000	98.011140 
3475.000000	98.010036 
3474.000000	98.008968 
3473.000000	98.007998 
3472.000000	98.007123 
3471.000000	98.006263 
3470.000000	98.005287 
3469.000000	98.004119 
3468.000000	98.002816 
3467.000000	98.001549 
3466.000000	98.000466 
3465.000000	97.999574 
3464.000000	97.998712 
3463.000000	97.997678 
3462.000000	97.996366 
3461.000000	97.994798 
3460.000000	97.993083 
3459.000000	97.991352 
3458.000000	97.989706 
3457.000000	97.988194 
3456.000000	97.986829 
3455.000000	97.985609 
3454.000000	97.984517 
3453.000000	97.983499 
3452.000000	97.982477 
3451.000000	97.981435 
3450.000000	97.980429 
3449.000000	97.979460 
3448.000000	97.978364 
3447.000000	97.976942 
3446.000000	97.975166 
3445.000000	97.973235 
3444.000000	97.971469 
3443.000000	97.970118 
3442.000000	97.969257 
3441.000000	97.968709 
3440.000000	97.968068 
3439.000000	97.966929 
3438.000000	97.965120 
3437.000000	97.962789 
3436.000000	97.960375 
3435.000000	97.958380 
3434.000000	97.957048 
3433.000000	97.956190 
3432.000000	97.955329 
3431.000000	97.954186 
3430.000000	97.952924 
3429.000000	97.951845 
3428.000000	97.950970 
3427.000000	97.950067 
3426.000000	97.949045 
3425.000000	97.948139 
3424.000000	97.947607 
3423.000000	97.947355 
3422.000000	97.947009 
3421.000000	97.946363 
3420.000000	97.945565 
3419.000000	97.944849 
3418.000000	97.944227 
3417.000000	97.943560 
3416.000000	97.942810 
3415.000000	97.942056 
3414.000000	97.941277 
3413.000000	97.940278 
3412.000000	97.938955 
3411.000000	97.937536 
3410.000000	97.936478 
3409.000000	97.936072 
3408.000000	97.936215 
3407.000000	97.936454 
3406.000000	97.936321 
3405.000000	97.935674 
3404.000000	97.934714 
3403.000000	97.933803 
3402.000000	97.933166 
3401.000000	97.932802 
3400.000000	97.932616 
3399.000000	97.932534 
3398.000000	97.932501 
3397.000000	97.932496 
3396.000000	97.932586 
3395.000000	97.932861 
3394.000000	97.933237 
3393.000000	97.933425 
3392.000000	97.933176 
3391.000000	97.932524 
3390.000000	97.931739 
3389.000000	97.931094 
3388.000000	97.930748 
3387.000000	97.930780 
3386.000000	97.931176 
3385.000000	97.931721 
3384.000000	97.932034 
3383.000000	97.931904 
3382.000000	97.931629 
3381.000000	97.931857 
3380.000000	97.932923 
3379.000000	97.934436 
3378.000000	97.935656 
3377.000000	97.936378 
3376.000000	97.937103 
3375.000000	97.938235 
3374.000000	97.939338 
3373.000000	97.939542 
3372.000000	97.938591 
3371.000000	97.937309 
3370.000000	97.936898 
3369.000000	97.937801 
3368.000000	97.939444 
3367.000000	97.940876 
3366.000000	97.941632 
3365.000000	97.941977 
3364.000000	97.942485 
3363.000000	97.943482 
3362.000000	97.944817 
3361.000000	97.946124 
3360.000000	97.947260 
3359.000000	97.948390 
3358.000000	97.949684 
3357.000000	97.951067 
3356.000000	97.952352 
3355.000000	97.953545 
3354.000000	97.954878 
3353.000000	97.956531 
3352.000000	97.958403 
3351.000000	97.960173 
3350.000000	97.961563 
3349.000000	97.962566 
3348.000000	97.963539 
3347.000000	97.965010 
3346.000000	97.967311 
3345.000000	97.970240 
3344.000000	97.973087 
3343.000000	97.975126 
3342.000000	97.976069 
3341.000000	97.976205 
3340.000000	97.976072 
3339.000000	97.975966 
3338.000000	97.975949 
3337.000000	97.976152 
3336.000000	97.976788 
3335.000000	97.977908 
3334.000000	97.979265 
3333.000000	97.980496 
3332.000000	97.981412 
3331.000000	97.982076 
3330.000000	97.982660 
3329.000000	97.983295 
3328.000000	97.984030 
3327.000000	97.984859 
3326.000000	97.985742 
3325.000000	97.986625 
3324.000000	97.987477 
3323.000000	97.988294 
3322.000000	97.989080 
3321.000000	97.989839 
3320.000000	97.990576 
3319.000000	97.991304 
3318.000000	97.992025 
3317.000000	97.992727 
3316.000000	97.993393 
3315.000000	97.994021 
3314.000000	97.994620 
3313.000000	97.995209 
3312.000000	97.995802 
3311.000000	97.996412 
3310.000000	97.997044 
3309.000000	97.997696 
3308.000000	97.998356 
3307.000000	97.999006 
3306.000000	97.999639 
3305.000000	98.000260 
3304.000000	98.000887 
3303.000000	98.001538 
3302.000000	98.002222 
3301.000000	98.002937 
3300.000000	98.003673 
3299.000000	98.004421 
3298.000000	98.005180 
3297.000000	98.005961 
3296.000000	98.006777 
3295.000000	98.007631 
3294.000000	98.008520 
3293.000000	98.009437 
3292.000000	98.010370 
3291.000000	98.011313 
3290.000000	98.012254 
3289.000000	98.013178 
3288.000000	98.014067 
3287.000000	98.014921 
3286.000000	98.015759 
3285.000000	98.016612 
3284.000000	98.017505 
3283.000000	98.018450 
3282.000000	98.019456 
3281.000000	98.020523 
3280.000000	98.021628 
3279.000000	98.022723 
3278.000000	98.023763 
3277.000000	98.024742 
3276.000000	98.025695 
3275.000000	98.026651 
3274.000000	98.027596 
3273.000000	98.028528 
3272.000000	98.029519 
3271.000000	98.030678 
3270.000000	98.032024 
3269.000000	98.033414 
3268.000000	98.034629 
3267.000000	98.035556 
3266.000000	98.036321 
3265.000000	98.037264 
3264.000000	98.038682 
3263.000000	98.040554 
3262.000000	98.042507 
3261.000000	98.044167 
3260.000000	98.045410 
3259.000000	98.046312 
3258.000000	98.046968 
3257.000000	98.047530 
3256.000000	98.048306 
3255.000000	98.049432 
3254.000000	98.050543 
3253.000000	98.051130 
3252.000000	98.051237 
3251.000000	98.051518 
3250.000000	98.052457 
3249.000000	98.053837 
3248.000000	98.055126 
3247.000000	98.056261 
3246.000000	98.057705 
3245.000000	98.059723 
3244.000000	98.061956 
3243.000000	98.063811 
3242.000000	98.065065 
3241.000000	98.065935 
3240.000000	98.066668 
3239.000000	98.067285 
3238.000000	98.067732 
3237.000000	98.068121 
3236.000000	98.068697 
3235.000000	98.069604 
3234.000000	98.070775 
3233.000000	98.072068 
3232.000000	98.073465 
3231.000000	98.075076 
3230.000000	98.076932 
3229.000000	98.078814 
3228.000000	98.080361 
3227.000000	98.081441 
3226.000000	98.082332 
3225.000000	98.083467 
3224.000000	98.085003 
3223.000000	98.086728 
3222.000000	98.088347 
3221.000000	98.089759 
3220.000000	98.091042 
3219.000000	98.092238 
3218.000000	98.093308 
3217.000000	98.094262 
3216.000000	98.095214 
3215.000000	98.096314 
3214.000000	98.097627 
3213.000000	98.099098 
3212.000000	98.100587 
3211.000000	98.101962 
3210.000000	98.103184 
3209.000000	98.104308 
3208.000000	98.105418 
3207.000000	98.106564 
3206.000000	98.107758 
3205.000000	98.109013 
3204.000000	98.110349 
3203.000000	98.111757 
3202.000000	98.113188 
3201.000000	98.114587 
3200.000000	98.115933 
3199.000000	98.117242 
3198.000000	98.118539 
3197.000000	98.119848 
3196.000000	98.121186 
3195.000000	98.122554 
3194.000000	98.123950 
3193.000000	98.125361 
3192.000000	98.126780 
3191.000000	98.128195 
3190.000000	98.129597 
3189.000000	98.130983 
3188.000000	98.132356 
3187.000000	98.133733 
3186.000000	98.135125 
3185.000000	98.136538 
3184.000000	98.137963 
3183.000000	98.139386 
3182.000000	98.140793 
3181.000000	98.142186 
3180.000000	98.143577 
3179.000000	98.144977 
3178.000000	98.146388 
3177.000000	98.147805 
3176.000000	98.149222 
3175.000000	98.150635 
3174.000000	98.152051 
3173.000000	98.153497 
3172.000000	98.154976 
3171.000000	98.156424 
3170.000000	98.157766 
3169.000000	98.159000 
3168.000000	98.160199 
3167.000000	98.161428 
3166.000000	98.162698 
3165.000000	98.164018 
3164.000000	98.165424 
3163.000000	98.166919 
3162.000000	98.168439 
3161.000000	98.169909 
3160.000000	98.171291 
3159.000000	98.172563 
3158.000000	98.173742 
3157.000000	98.174970 
3156.000000	98.176442 
3155.000000	98.178169 
3154.000000	98.179911 
3153.000000	98.181484 
3152.000000	98.183016 
3151.000000	98.184707 
3150.000000	98.186388 
3149.000000	98.187661 
3148.000000	98.188453 
3147.000000	98.189172 
3146.000000	98.190252 
3145.000000	98.191675 
3144.000000	98.193056 
3143.000000	98.194055 
3142.000000	98.194656 
3141.000000	98.195155 
3140.000000	98.195983 
3139.000000	98.197415 
3138.000000	98.199323 
3137.000000	98.201202 
3136.000000	98.202533 
3135.000000	98.203220 
3134.000000	98.203725 
3133.000000	98.204745 
3132.000000	98.206605 
3131.000000	98.209004 
3130.000000	98.211282 
3129.000000	98.213064 
3128.000000	98.214553 
3127.000000	98.216224 
3126.000000	98.218277 
3125.000000	98.220418 
3124.000000	98.222146 
3123.000000	98.223188 
3122.000000	98.223673 
3121.000000	98.224038 
3120.000000	98.224724 
3119.000000	98.225886 
3118.000000	98.227344 
3117.000000	98.228779 
3116.000000	98.230003 
3115.000000	98.231050 
3114.000000	98.232096 
3113.000000	98.233345 
3112.000000	98.234938 
3111.000000	98.236868 
3110.000000	98.238961 
3109.000000	98.241017 
3108.000000	98.243027 
3107.000000	98.245163 
3106.000000	98.247445 
3105.000000	98.249479 
3104.000000	98.250701 
3103.000000	98.250920 
3102.000000	98.250627 
3101.000000	98.250720 
3100.000000	98.251772 
3099.000000	98.253680 
3098.000000	98.255891 
3097.000000	98.257873 
3096.000000	98.259413 
3095.000000	98.260526 
3094.000000	98.261246 
3093.000000	98.261622 
3092.000000	98.261815 
3091.000000	98.262008 
3090.000000	98.262284 
3089.000000	98.262648 
3088.000000	98.263157 
3087.000000	98.264049 
3086.000000	98.265644 
3085.000000	98.267987 
3084.000000	98.270480 
3083.000000	98.272095 
3082.000000	98.272268 
3081.000000	98.271628 
3080.000000	98.271645 
3079.000000	98.273234 
3078.000000	98.275965 
3077.000000	98.278830 
3076.000000	98.281406 
3075.000000	98.283626 
3074.000000	98.284839 
3073.000000	98.284229 
3072.000000	98.282163 
3071.000000	98.280020 
3070.000000	98.278420 
3069.000000	98.276791 
3068.000000	98.275144 
3067.000000	98.275012 
3066.000000	98.277640 
3065.000000	98.281971 
3064.000000	98.285320 
3063.000000	98.285707 
3062.000000	98.283072 
3061.000000	98.279018 
3060.000000	98.275988 
3059.000000	98.275956 
3058.000000	98.279120 
3057.000000	98.283861 
3056.000000	98.288009 
3055.000000	98.289738 
3054.000000	98.287695 
3053.000000	98.281943 
3052.000000	98.275430 
3051.000000	98.272809 
3050.000000	98.276052 
3049.000000	98.281845 
3048.000000	98.284599 
3047.000000	98.281681 
3046.000000	98.274560 
3045.000000	98.265899 
3044.000000	98.257497 
3043.000000	98.251149 
3042.000000	98.249151 
3041.000000	98.252175 
3040.000000	98.257396 
3039.000000	98.260406 
3038.000000	98.259099 
3037.000000	98.254743 
3036.000000	98.249476 
3035.000000	98.243959 
3034.000000	98.237953 
3033.000000	98.231923 
3032.000000	98.226529 
3031.000000	98.221036 
3030.000000	98.213812 
3029.000000	98.204392 
3028.000000	98.193579 
3027.000000	98.181310 
3026.000000	98.166109 
3025.000000	98.147753 
3024.000000	98.129261 
3023.000000	98.114670 
3022.000000	98.105349 
3021.000000	98.099936 
3020.000000	98.097044 
3019.000000	98.095842 
3018.000000	98.093923 
3017.000000	98.087124 
3016.000000	98.073131 
3015.000000	98.054358 
3014.000000	98.036316 
3013.000000	98.023389 
3012.000000	98.016193 
3011.000000	98.011692 
3010.000000	98.005071 
3009.000000	97.992604 
3008.000000	97.973828 
3007.000000	97.951088 
3006.000000	97.927104 
3005.000000	97.903911 
3004.000000	97.884013 
3003.000000	97.870353 
3002.000000	97.863667 
3001.000000	97.860731 
3000.000000	97.856534 
2999.000000	97.847815 
2998.000000	97.833956 
2997.000000	97.815970 
2996.000000	97.796440 
2995.000000	97.779410 
2994.000000	97.767617 
2993.000000	97.759032 
2992.000000	97.747836 
2991.000000	97.730276 
2990.000000	97.709239 
2989.000000	97.692268 
2988.000000	97.685138 
2987.000000	97.687610 
2986.000000	97.694634 
2985.000000	97.701097 
2984.000000	97.705355 
2983.000000	97.708641 
2982.000000	97.712167 
2981.000000	97.715504 
2980.000000	97.717232 
2979.000000	97.715973 
2978.000000	97.710748 
2977.000000	97.701607 
2976.000000	97.690665 
2975.000000	97.681755 
2974.000000	97.678222 
2973.000000	97.681277 
2972.000000	97.690386 
2971.000000	97.704071 
2970.000000	97.719729 
2969.000000	97.734087 
2968.000000	97.745376 
2967.000000	97.754620 
2966.000000	97.763847 
2965.000000	97.773699 
2964.000000	97.783686 
2963.000000	97.793737 
2962.000000	97.803924 
2961.000000	97.813164 
2960.000000	97.820037 
2959.000000	97.825076 
2958.000000	97.830764 
2957.000000	97.838720 
2956.000000	97.847772 
2955.000000	97.855219 
2954.000000	97.859633 
2953.000000	97.862542 
2952.000000	97.867818 
2951.000000	97.878669 
2950.000000	97.893964 
2949.000000	97.907834 
2948.000000	97.914412 
2947.000000	97.913188 
2946.000000	97.909046 
2945.000000	97.907363 
2944.000000	97.909942 
2943.000000	97.915363 
2942.000000	97.921155 
2941.000000	97.924877 
2940.000000	97.925013 
2939.000000	97.922597 
2938.000000	97.921102 
2937.000000	97.923231 
2936.000000	97.927903 
2935.000000	97.931210 
2934.000000	97.930097 
2933.000000	97.924523 
2932.000000	97.916760 
2931.000000	97.909509 
2930.000000	97.904467 
2929.000000	97.901877 
2928.000000	97.901091 
2927.000000	97.901539 
2926.000000	97.902961 
2925.000000	97.904903 
2924.000000	97.906768 
2923.000000	97.908539 
2922.000000	97.910631 
2921.000000	97.912678 
2920.000000	97.913485 
2919.000000	97.912829 
2918.000000	97.912188 
2917.000000	97.912477 
2916.000000	97.911846 
2915.000000	97.907376 
2914.000000	97.898986 
2913.000000	97.890130 
2912.000000	97.884090 
2911.000000	97.880588 
2910.000000	97.876910 
2909.000000	97.871694 
2908.000000	97.866613 
2907.000000	97.864091 
2906.000000	97.863982 
2905.000000	97.862860 
2904.000000	97.857112 
2903.000000	97.847164 
2902.000000	97.839091 
2901.000000	97.839979 
2900.000000	97.852011 
2899.000000	97.870687 
2898.000000	97.888419 
2897.000000	97.900503 
2896.000000	97.907043 
2895.000000	97.910417 
2894.000000	97.912854 
2893.000000	97.916341 
2892.000000	97.922612 
2891.000000	97.931515 
2890.000000	97.940283 
2889.000000	97.946084 
2888.000000	97.949033 
2887.000000	97.951335 
2886.000000	97.953862 
2885.000000	97.955546 
2884.000000	97.956548 
2883.000000	97.959741 
2882.000000	97.967481 
2881.000000	97.978405 
2880.000000	97.989311 
2879.000000	97.999475 
2878.000000	98.010781 
2877.000000	98.023691 
2876.000000	98.035515 
2875.000000	98.043608 
2874.000000	98.048570 
2873.000000	98.053052 
2872.000000	98.058566 
2871.000000	98.064682 
2870.000000	98.070488 
2869.000000	98.075427 
2868.000000	98.079187 
2867.000000	98.082282 
2866.000000	98.086637 
2865.000000	98.094291 
2864.000000	98.105249 
2863.000000	98.117536 
2862.000000	98.129514 
2861.000000	98.141078 
2860.000000	98.152277 
2859.000000	98.162162 
2858.000000	98.170083 
2857.000000	98.177463 
2856.000000	98.186859 
2855.000000	98.199069 
2854.000000	98.212023 
2853.000000	98.222740 
2852.000000	98.229789 
2851.000000	98.233752 
2850.000000	98.236171 
2849.000000	98.238503 
2848.000000	98.241649 
2847.000000	98.245813 
2846.000000	98.250634 
2845.000000	98.255695 
2844.000000	98.260952 
2843.000000	98.266585 
2842.000000	98.272534 
2841.000000	98.278417 
2840.000000	98.283900 
2839.000000	98.288895 
2838.000000	98.293302 
2837.000000	98.296723 
2836.000000	98.298751 
2835.000000	98.299623 
2834.000000	98.300561 
2833.000000	98.303313 
2832.000000	98.308922 
2831.000000	98.316528 
2830.000000	98.323462 
2829.000000	98.327217 
2828.000000	98.327822 
2827.000000	98.328197 
2826.000000	98.331774 
2825.000000	98.339552 
2824.000000	98.349451 
2823.000000	98.358171 
2822.000000	98.363505 
2821.000000	98.365256 
2820.000000	98.364676 
2819.000000	98.363328 
2818.000000	98.362020 
2817.000000	98.360551 
2816.000000	98.358576 
2815.000000	98.356597 
2814.000000	98.355686 
2813.000000	98.356203 
2812.000000	98.357323 
2811.000000	98.358138 
2810.000000	98.358882 
2809.000000	98.360630 
2808.000000	98.363967 
2807.000000	98.368353 
2806.000000	98.372666 
2805.000000	98.375965 
2804.000000	98.377733 
2803.000000	98.377903 
2802.000000	98.377041 
2801.000000	98.376354 
2800.000000	98.377000 
2799.000000	98.379139 
2798.000000	98.381701 
2797.000000	98.383250 
2796.000000	98.383188 
2795.000000	98.382122 
2794.000000	98.381172 
2793.000000	98.380986 
2792.000000	98.381455 
2791.000000	98.382225 
2790.000000	98.383206 
2789.000000	98.384557 
2788.000000	98.386325 
2787.000000	98.388292 
2786.000000	98.390113 
2785.000000	98.391486 
2784.000000	98.392269 
2783.000000	98.392590 
2782.000000	98.392912 
2781.000000	98.393847 
2780.000000	98.395758 
2779.000000	98.398450 
2778.000000	98.401256 
2777.000000	98.403471 
2776.000000	98.404805 
2775.000000	98.405502 
2774.000000	98.406060 
2773.000000	98.406765 
2772.000000	98.407482 
2771.000000	98.407977 
2770.000000	98.408346 
2769.000000	98.409015 
2768.000000	98.410291 
2767.000000	98.412042 
2766.000000	98.413831 
2765.000000	98.415319 
2764.000000	98.416485 
2763.000000	98.417465 
2762.000000	98.418320 
2761.000000	98.419051 
2760.000000	98.419778 
2759.000000	98.420743 
2758.000000	98.422029 
2757.000000	98.423316 
2756.000000	98.424121 
2755.000000	98.424313 
2754.000000	98.424286 
2753.000000	98.424570 
2752.000000	98.425301 
2751.000000	98.426231 
2750.000000	98.427165 
2749.000000	98.428189 
2748.000000	98.429368 
2747.000000	98.430412 
2746.000000	98.430912 
2745.000000	98.430827 
2744.000000	98.430577 
2743.000000	98.430619 
2742.000000	98.431046 
2741.000000	98.431692 
2740.000000	98.432413 
2739.000000	98.433116 
2738.000000	98.433624 
2737.000000	98.433753 
2736.000000	98.433581 
2735.000000	98.433524 
2734.000000	98.433969 
2733.000000	98.434930 
2732.000000	98.436082 
2731.000000	98.437104 
2730.000000	98.437929 
2729.000000	98.438658 
2728.000000	98.439357 
2727.000000	98.439957 
2726.000000	98.440354 
2725.000000	98.440573 
2724.000000	98.440786 
2723.000000	98.441156 
2722.000000	98.441695 
2721.000000	98.442299 
2720.000000	98.442885 
2719.000000	98.443444 
2718.000000	98.443984 
2717.000000	98.444492 
2716.000000	98.444965 
2715.000000	98.445442 
2714.000000	98.445967 
2713.000000	98.446546 
2712.000000	98.447151 
2711.000000	98.447763 
2710.000000	98.448381 
2709.000000	98.449007 
2708.000000	98.449636 
2707.000000	98.450265 
2706.000000	98.450893 
2705.000000	98.451519 
2704.000000	98.452145 
2703.000000	98.452773 
2702.000000	98.453405 
2701.000000	98.454045 
2700.000000	98.454692 
2699.000000	98.455340 
2698.000000	98.455984 
2697.000000	98.456614 
2696.000000	98.457228 
2695.000000	98.457827 
2694.000000	98.458410 
2693.000000	98.458972 
2692.000000	98.459504 
2691.000000	98.460003 
2690.000000	98.460473 
2689.000000	98.460929 
2688.000000	98.461382 
2687.000000	98.461832 
2686.000000	98.462279 
2685.000000	98.462718 
2684.000000	98.463150 
2683.000000	98.463572 
2682.000000	98.463980 
2681.000000	98.464371 
2680.000000	98.464740 
2679.000000	98.465092 
2678.000000	98.465430 
2677.000000	98.465757 
2676.000000	98.466078 
2675.000000	98.466393 
2674.000000	98.466703 
2673.000000	98.467010 
2672.000000	98.467314 
2671.000000	98.467612 
2670.000000	98.467902 
2669.000000	98.468179 
2668.000000	98.468437 
2667.000000	98.468674 
2666.000000	98.468891 
2665.000000	98.469087 
2664.000000	98.469266 
2663.000000	98.469442 
2662.000000	98.469646 
2661.000000	98.469913 
2660.000000	98.470237 
2659.000000	98.470542 
2658.000000	98.470753 
2657.000000	98.470880 
2656.000000	98.470983 
2655.000000	98.471086 
2654.000000	98.471133 
2653.000000	98.471058 
2652.000000	98.470896 
2651.000000	98.470810 
2650.000000	98.470962 
2649.000000	98.471375 
2648.000000	98.471925 
2647.000000	98.472412 
2646.000000	98.472688 
2645.000000	98.472710 
2644.000000	98.472554 
2643.000000	98.472391 
2642.000000	98.472362 
2641.000000	98.472470 
2640.000000	98.472629 
2639.000000	98.472782 
2638.000000	98.472949 
2637.000000	98.473144 
2636.000000	98.473340 
2635.000000	98.473554 
2634.000000	98.473871 
2633.000000	98.474322 
2632.000000	98.474792 
2631.000000	98.475107 
2630.000000	98.475194 
2629.000000	98.475117 
2628.000000	98.474997 
2627.000000	98.474923 
2626.000000	98.474959 
2625.000000	98.475149 
2624.000000	98.475500 
2623.000000	98.475974 
2622.000000	98.476498 
2621.000000	98.476902 
2620.000000	98.476920 
2619.000000	98.476395 
2618.000000	98.475524 
2617.000000	98.474812 
2616.000000	98.474624 
2615.000000	98.474855 
2614.000000	98.475042 
2613.000000	98.474845 
2612.000000	98.474368 
2611.000000	98.474016 
2610.000000	98.474102 
2609.000000	98.474579 
2608.000000	98.475048 
2607.000000	98.475053 
2606.000000	98.474551 
2605.000000	98.474077 
2604.000000	98.474266 
2603.000000	98.475093 
2602.000000	98.475765 
2601.000000	98.475600 
2600.000000	98.474771 
2599.000000	98.473987 
2598.000000	98.473646 
2597.000000	98.473645 
2596.000000	98.473819 
2595.000000	98.474015 
2594.000000	98.473791 
2593.000000	98.472659 
2592.000000	98.470809 
2591.000000	98.469086 
2590.000000	98.467933 
2589.000000	98.467046 
2588.000000	98.466319 
2587.000000	98.466510 
2586.000000	98.468379 
2585.000000	98.471533 
2584.000000	98.474598 
2583.000000	98.476477 
2582.000000	98.476998 
2581.000000	98.476568 
2580.000000	98.475778 
2579.000000	98.475325 
2578.000000	98.475740 
2577.000000	98.476846 
2576.000000	98.477691 
2575.000000	98.477261 
2574.000000	98.475233 
2573.000000	98.472182 
2572.000000	98.469177 
2571.000000	98.467069 
2570.000000	98.466041 
2569.000000	98.465773 
2568.000000	98.466049 
2567.000000	98.466850 
2566.000000	98.467804 
2565.000000	98.468169 
2564.000000	98.467607 
2563.000000	98.466707 
2562.000000	98.466408 
2561.000000	98.467119 
2560.000000	98.468705 
2559.000000	98.470900 
2558.000000	98.473202 
2557.000000	98.474830 
2556.000000	98.475442 
2555.000000	98.475670 
2554.000000	98.476259 
2553.000000	98.476780 
2552.000000	98.476161 
2551.000000	98.474450 
2550.000000	98.473161 
2549.000000	98.473438 
2548.000000	98.474689 
2547.000000	98.475488 
2546.000000	98.475302 
2545.000000	98.474745 
2544.000000	98.474414 
2543.000000	98.474209 
2542.000000	98.473891 
2541.000000	98.473680 
2540.000000	98.473964 
2539.000000	98.474707 
2538.000000	98.475495 
2537.000000	98.476041 
2536.000000	98.476418 
2535.000000	98.476808 
2534.000000	98.477247 
2533.000000	98.477661 
2532.000000	98.478019 
2531.000000	98.478357 
2530.000000	98.478654 
2529.000000	98.478767 
2528.000000	98.478550 
2527.000000	98.478062 
2526.000000	98.477643 
2525.000000	98.477691 
2524.000000	98.478300 
2523.000000	98.479210 
2522.000000	98.480058 
2521.000000	98.480730 
2520.000000	98.481346 
2519.000000	98.481994 
2518.000000	98.482586 
2517.000000	98.482958 
2516.000000	98.483061 
2515.000000	98.483000 
2514.000000	98.482953 
2513.000000	98.483057 
2512.000000	98.483354 
2511.000000	98.483809 
2510.000000	98.484339 
2509.000000	98.484835 
2508.000000	98.485191 
2507.000000	98.485341 
2506.000000	98.485321 
2505.000000	98.485327 
2504.000000	98.485597 
2503.000000	98.486211 
2502.000000	98.487051 
2501.000000	98.487904 
2500.000000	98.488659 
2499.000000	98.489314 
2498.000000	98.489851 
2497.000000	98.490178 
2496.000000	98.490246 
2495.000000	98.490173 
2494.000000	98.490208 
2493.000000	98.490540 
2492.000000	98.491188 
2491.000000	98.492040 
2490.000000	98.492930 
2489.000000	98.493683 
2488.000000	98.494145 
2487.000000	98.494278 
2486.000000	98.494271 
2485.000000	98.494452 
2484.000000	98.494999 
2483.000000	98.495795 
2482.000000	98.496563 
2481.000000	98.497145 
2480.000000	98.497576 
2479.000000	98.497889 
2478.000000	98.497967 
2477.000000	98.497615 
2476.000000	98.496757 
2475.000000	98.495568 
2474.000000	98.494492 
2473.000000	98.494081 
2472.000000	98.494629 
2471.000000	98.495909 
2470.000000	98.497311 
2469.000000	98.498374 
2468.000000	98.499159 
2467.000000	98.499952 
2466.000000	98.500742 
2465.000000	98.501264 
2464.000000	98.501618 
2463.000000	98.502492 
2462.000000	98.504472 
2461.000000	98.507275 
2460.000000	98.510006 
2459.000000	98.512132 
2458.000000	98.513586 
2457.000000	98.514001 
2456.000000	98.512641 
2455.000000	98.509524 
2454.000000	98.506161 
2453.000000	98.504277 
2452.000000	98.503821 
2451.000000	98.503143 
2450.000000	98.501326 
2449.000000	98.499612 
2448.000000	98.499891 
2447.000000	98.502479 
2446.000000	98.505878 
2445.000000	98.508266 
2444.000000	98.508937 
2443.000000	98.508416 
2442.000000	98.507839 
2441.000000	98.508192 
2440.000000	98.509699 
2439.000000	98.511901 
2438.000000	98.514334 
2437.000000	98.516883 
2436.000000	98.519289 
2435.000000	98.520759 
2434.000000	98.520662 
2433.000000	98.519472 
2432.000000	98.518467 
2431.000000	98.518441 
2430.000000	98.519114 
2429.000000	98.519780 
2428.000000	98.520069 
2427.000000	98.520059 
2426.000000	98.519987 
2425.000000	98.519992 
2424.000000	98.519851 
2423.000000	98.518978 
2422.000000	98.517142 
2421.000000	98.515350 
2420.000000	98.515355 
2419.000000	98.517975 
2418.000000	98.522272 
2417.000000	98.526476 
2416.000000	98.529291 
2415.000000	98.530451 
2414.000000	98.530649 
2413.000000	98.531354 
2412.000000	98.533630 
2411.000000	98.536483 
2410.000000	98.537367 
2409.000000	98.535217 
2408.000000	98.531838 
2407.000000	98.529805 
2406.000000	98.529834 
2405.000000	98.530832 
2404.000000	98.531591 
2403.000000	98.531439 
2402.000000	98.530103 
2401.000000	98.528153 
2400.000000	98.527166 
2399.000000	98.528239 
2398.000000	98.530628 
2397.000000	98.532724 
2396.000000	98.533872 
2395.000000	98.534332 
2394.000000	98.534123 
2393.000000	98.533279 
2392.000000	98.532833 
2391.000000	98.533994 
2390.000000	98.536285 
2389.000000	98.537967 
2388.000000	98.538549 
2387.000000	98.539564 
2386.000000	98.542326 
2385.000000	98.546011 
2384.000000	98.548576 
2383.000000	98.548633 
2382.000000	98.545864 
2381.000000	98.540695 
2380.000000	98.534449 
2379.000000	98.528779 
2378.000000	98.523848 
2377.000000	98.518054 
2376.000000	98.510877 
2375.000000	98.505165 
2374.000000	98.504426 
2373.000000	98.508405 
2372.000000	98.513210 
2371.000000	98.516031 
2370.000000	98.517469 
2369.000000	98.518048 
2368.000000	98.515483 
2367.000000	98.507817 
2366.000000	98.497436 
2365.000000	98.489334 
2364.000000	98.485644 
2363.000000	98.484928 
2362.000000	98.485874 
2361.000000	98.488838 
2360.000000	98.494241 
2359.000000	98.500453 
2358.000000	98.504387 
2357.000000	98.504327 
2356.000000	98.501028 
2355.000000	98.496905 
2354.000000	98.492929 
2353.000000	98.489536 
2352.000000	98.488532 
2351.000000	98.490715 
2350.000000	98.494371 
2349.000000	98.496431 
2348.000000	98.495981 
2347.000000	98.494236 
2346.000000	98.493057 
2345.000000	98.494192 
2344.000000	98.497522 
2343.000000	98.501772 
2342.000000	98.505035 
2341.000000	98.507048 
2340.000000	98.509010 
2339.000000	98.510642 
2338.000000	98.509946 
2337.000000	98.505937 
2336.000000	98.501463 
2335.000000	98.500067 
2334.000000	98.501455 
2333.000000	98.502418 
2332.000000	98.502131 
2331.000000	98.502046 
2330.000000	98.503161 
2329.000000	98.504426 
2328.000000	98.506887 
2327.000000	98.512595 
2326.000000	98.520910 
2325.000000	98.529242 
2324.000000	98.535262 
2323.000000	98.539466 
2322.000000	98.541518 
2321.000000	98.540510 
2320.000000	98.537652 
2319.000000	98.536455 
2318.000000	98.538975 
2317.000000	98.542577 
2316.000000	98.544052 
2315.000000	98.543545 
2314.000000	98.544501 
2313.000000	98.548610 
2312.000000	98.554619 
2311.000000	98.560436 
2310.000000	98.565148 
2309.000000	98.568656 
2308.000000	98.570974 
2307.000000	98.572450 
2306.000000	98.572931 
2305.000000	98.571701 
2304.000000	98.568611 
2303.000000	98.565915 
2302.000000	98.566946 
2301.000000	98.572293 
2300.000000	98.578315 
2299.000000	98.580318 
2298.000000	98.577049 
2297.000000	98.571029 
2296.000000	98.565758 
2295.000000	98.562881 
2294.000000	98.561961 
2293.000000	98.561974 
2292.000000	98.562165 
2291.000000	98.562315 
2290.000000	98.562252 
2289.000000	98.561974 
2288.000000	98.561444 
2287.000000	98.560468 
2286.000000	98.558608 
2285.000000	98.555921 
2284.000000	98.553237 
2283.000000	98.551592 
2282.000000	98.551138 
2281.000000	98.551139 
2280.000000	98.550949 
2279.000000	98.550476 
2278.000000	98.549825 
2277.000000	98.549097 
2276.000000	98.548673 
2275.000000	98.548995 
2274.000000	98.550049 
2273.000000	98.551337 
2272.000000	98.552384 
2271.000000	98.552932 
2270.000000	98.552748 
2269.000000	98.551737 
2268.000000	98.550224 
2267.000000	98.548776 
2266.000000	98.547685 
2265.000000	98.546852 
2264.000000	98.546119 
2263.000000	98.545420 
2262.000000	98.544677 
2261.000000	98.543803 
2260.000000	98.542854 
2259.000000	98.542004 
2258.000000	98.541348 
2257.000000	98.540837 
2256.000000	98.540410 
2255.000000	98.540042 
2254.000000	98.539683 
2253.000000	98.539226 
2252.000000	98.538567 
2251.000000	98.537702 
2250.000000	98.536724 
2249.000000	98.535750 
2248.000000	98.534852 
2247.000000	98.534024 
2246.000000	98.533239 
2245.000000	98.532481 
2244.000000	98.531729 
2243.000000	98.530982 
2242.000000	98.530268 
2241.000000	98.529620 
2240.000000	98.529042 
2239.000000	98.528511 
2238.000000	98.527985 
2237.000000	98.527428 
2236.000000	98.526827 
2235.000000	98.526189 
2234.000000	98.525533 
2233.000000	98.524876 
2232.000000	98.524234 
2231.000000	98.523617 
2230.000000	98.523028 
2229.000000	98.522457 
2228.000000	98.521890 
2227.000000	98.521320 
2226.000000	98.520742 
2225.000000	98.520150 
2224.000000	98.519540 
2223.000000	98.518924 
2222.000000	98.518325 
2221.000000	98.517758 
2220.000000	98.517211 
2219.000000	98.516655 
2218.000000	98.516074 
2217.000000	98.515479 
2216.000000	98.514914 
2215.000000	98.514428 
2214.000000	98.514033 
2213.000000	98.513699 
2212.000000	98.513407 
2211.000000	98.513184 
2210.000000	98.513078 
2209.000000	98.513097 
2208.000000	98.513198 
2207.000000	98.513310 
2206.000000	98.513372 
2205.000000	98.513348 
2204.000000	98.513248 
2203.000000	98.513141 
2202.000000	98.513103 
2201.000000	98.513111 
2200.000000	98.513041 
2199.000000	98.512814 
2198.000000	98.512450 
2197.000000	98.512071 
2196.000000	98.511851 
2195.000000	98.511907 
2194.000000	98.512231 
2193.000000	98.512677 
2192.000000	98.513105 
2191.000000	98.513483 
2190.000000	98.513840 
2189.000000	98.514169 
2188.000000	98.514405 
2187.000000	98.514491 
2186.000000	98.514431 
2185.000000	98.514301 
2184.000000	98.514290 
2183.000000	98.514642 
2182.000000	98.515468 
2181.000000	98.516627 
2180.000000	98.517755 
2179.000000	98.518617 
2178.000000	98.519253 
2177.000000	98.519961 
2176.000000	98.521023 
2175.000000	98.522455 
2174.000000	98.523991 
2173.000000	98.525316 
2172.000000	98.526339 
2171.000000	98.527298 
2170.000000	98.528514 
2169.000000	98.529931 
2168.000000	98.531020 
2167.000000	98.531351 
2166.000000	98.531167 
2165.000000	98.531193 
2164.000000	98.531789 
2163.000000	98.532645 
2162.000000	98.533474 
2161.000000	98.534735 
2160.000000	98.537247 
2159.000000	98.541181 
2158.000000	98.545623 
2157.000000	98.549162 
2156.000000	98.550810 
2155.000000	98.550393 
2154.000000	98.548500 
2153.000000	98.546360 
2152.000000	98.545283 
2151.000000	98.545688 
2150.000000	98.546749 
2149.000000	98.547382 
2148.000000	98.547800 
2147.000000	98.549395 
2146.000000	98.552844 
2145.000000	98.557128 
2144.000000	98.560952 
2143.000000	98.564358 
2142.000000	98.567914 
2141.000000	98.570980 
2140.000000	98.572280 
2139.000000	98.572133 
2138.000000	98.572351 
2137.000000	98.573495 
2136.000000	98.573885 
2135.000000	98.571866 
2134.000000	98.567823 
2133.000000	98.563852 
2132.000000	98.561940 
2131.000000	98.562555 
2130.000000	98.564601 
2129.000000	98.566369 
2128.000000	98.567109 
2127.000000	98.567741 
2126.000000	98.569680 
2125.000000	98.573049 
2124.000000	98.576378 
2123.000000	98.578114 
2122.000000	98.577890 
2121.000000	98.576328 
2120.000000	98.574258 
2119.000000	98.572353 
2118.000000	98.571199 
2117.000000	98.571188 
2116.000000	98.572157 
2115.000000	98.573262 
2114.000000	98.573493 
2113.000000	98.572500 
2112.000000	98.570964 
2111.000000	98.570036 
2110.000000	98.570310 
2109.000000	98.571469 
2108.000000	98.572807 
2107.000000	98.573902 
2106.000000	98.574642 
2105.000000	98.575083 
2104.000000	98.575514 
2103.000000	98.576293 
2102.000000	98.577340 
2101.000000	98.578020 
2100.000000	98.577852 
2099.000000	98.577177 
2098.000000	98.576923 
2097.000000	98.577636 
2096.000000	98.579074 
2095.000000	98.580491 
2094.000000	98.581274 
2093.000000	98.581243 
2092.000000	98.580557 
2091.000000	98.579674 
2090.000000	98.579177 
2089.000000	98.579448 
2088.000000	98.580413 
2087.000000	98.581582 
2086.000000	98.582376 
2085.000000	98.582472 
2084.000000	98.582000 
2083.000000	98.581555 
2082.000000	98.581810 
2081.000000	98.583032 
2080.000000	98.585003 
2079.000000	98.587244 
2078.000000	98.589115 
2077.000000	98.589866 
2076.000000	98.589117 
2075.000000	98.587478 
2074.000000	98.586095 
2073.000000	98.585292 
2072.000000	98.584442 
2071.000000	98.583084 
2070.000000	98.581543 
2069.000000	98.580463 
2068.000000	98.580243 
2067.000000	98.580967 
2066.000000	98.582338 
2065.000000	98.583486 
2064.000000	98.583442 
2063.000000	98.582273 
2062.000000	98.581252 
2061.000000	98.581587 
2060.000000	98.583223 
2059.000000	98.585358 
2058.000000	98.587324 
2057.000000	98.588699 
2056.000000	98.589266 
2055.000000	98.589159 
2054.000000	98.588941 
2053.000000	98.589179 
2052.000000	98.589928 
2051.000000	98.590826 
2050.000000	98.591566 
2049.000000	98.592156 
2048.000000	98.592783 
2047.000000	98.593564 
2046.000000	98.594460 
2045.000000	98.595374 
2044.000000	98.596280 
2043.000000	98.597248 
2042.000000	98.598351 
2041.000000	98.599591 
2040.000000	98.600901 
2039.000000	98.602201 
2038.000000	98.603428 
2037.000000	98.604547 
2036.000000	98.605548 
2035.000000	98.606458 
2034.000000	98.607333 
2033.000000	98.608219 
2032.000000	98.609128 
2031.000000	98.610036 
2030.000000	98.610906 
2029.000000	98.611708 
2028.000000	98.612422 
2027.000000	98.613044 
2026.000000	98.613584 
2025.000000	98.614070 
2024.000000	98.614551 
2023.000000	98.615083 
2022.000000	98.615691 
2021.000000	98.616349 
2020.000000	98.616976 
2019.000000	98.617472 
2018.000000	98.617776 
2017.000000	98.617882 
2016.000000	98.617838 
2015.000000	98.617704 
2014.000000	98.617519 
2013.000000	98.617298 
2012.000000	98.617047 
2011.000000	98.616783 
2010.000000	98.616521 
2009.000000	98.616242 
2008.000000	98.615902 
2007.000000	98.615456 
2006.000000	98.614902 
2005.000000	98.614282 
2004.000000	98.613646 
2003.000000	98.613026 
2002.000000	98.612414 
2001.000000	98.611760 
2000.000000	98.610992 
1999.000000	98.610053 
1998.000000	98.608912 
1997.000000	98.607597 
1996.000000	98.606189 
1995.000000	98.604808 
1994.000000	98.603571 
1993.000000	98.602543 
1992.000000	98.601652 
1991.000000	98.600759 
1990.000000	98.599822 
1989.000000	98.598915 
1988.000000	98.598082 
1987.000000	98.597211 
1986.000000	98.596153 
1985.000000	98.594934 
1984.000000	98.593820 
1983.000000	98.593050 
1982.000000	98.592575 
1981.000000	98.592071 
1980.000000	98.591259 
1979.000000	98.590086 
1978.000000	98.588545 
1977.000000	98.586452 
1976.000000	98.583711 
1975.000000	98.580831 
1974.000000	98.578756 
1973.000000	98.578141 
1972.000000	98.578853 
1971.000000	98.580162 
1970.000000	98.581383 
1969.000000	98.582054 
1968.000000	98.581802 
1967.000000	98.580529 
1966.000000	98.578816 
1965.000000	98.577756 
1964.000000	98.578125 
1963.000000	98.579798 
1962.000000	98.581792 
1961.000000	98.582765 
1960.000000	98.581762 
1959.000000	98.578743 
1958.000000	98.574711 
1957.000000	98.571243 
1956.000000	98.569409 
1955.000000	98.569146 
1954.000000	98.569627 
1953.000000	98.570212 
1952.000000	98.570692 
1951.000000	98.570747 
1950.000000	98.570054 
1949.000000	98.569030 
1948.000000	98.568827 
1947.000000	98.570120 
1946.000000	98.572178 
1945.000000	98.573448 
1944.000000	98.572983 
1943.000000	98.570981 
1942.000000	98.568341 
1941.000000	98.565853 
1940.000000	98.563778 
1939.000000	98.561952 
1938.000000	98.560312 
1937.000000	98.559419 
1936.000000	98.559972 
1935.000000	98.561609 
1934.000000	98.562797 
1933.000000	98.562543 
1932.000000	98.561556 
1931.000000	98.561193 
1930.000000	98.561868 
1929.000000	98.562872 
1928.000000	98.563661 
1927.000000	98.564469 
1926.000000	98.565326 
1925.000000	98.565364 
1924.000000	98.563742 
1923.000000	98.560960 
1922.000000	98.558412 
1921.000000	98.556784 
1920.000000	98.555799 
1919.000000	98.555098 
1918.000000	98.554481 
1917.000000	98.553593 
1916.000000	98.552351 
1915.000000	98.551631 
1914.000000	98.552385 
1913.000000	98.554242 
1912.000000	98.555687 
1911.000000	98.555676 
1910.000000	98.554463 
1909.000000	98.553045 
1908.000000	98.552520 
1907.000000	98.553436 
1906.000000	98.555133 
1905.000000	98.555877 
1904.000000	98.554458 
1903.000000	98.551904 
1902.000000	98.550409 
1901.000000	98.550511 
1900.000000	98.550752 
1899.000000	98.549953 
1898.000000	98.548558 
1897.000000	98.547575 
1896.000000	98.546848 
1895.000000	98.545201 
1894.000000	98.541800 
1893.000000	98.536936 
1892.000000	98.532068 
1891.000000	98.529149 
1890.000000	98.529229 
1889.000000	98.531418 
1888.000000	98.533976 
1887.000000	98.536367 
1886.000000	98.538841 
1885.000000	98.540654 
1884.000000	98.540520 
1883.000000	98.538786 
1882.000000	98.537728 
1881.000000	98.539053 
1880.000000	98.542185 
1879.000000	98.544966 
1878.000000	98.545567 
1877.000000	98.543832 
1876.000000	98.541195 
1875.000000	98.539618 
1874.000000	98.540231 
1873.000000	98.542705 
1872.000000	98.545809 
1871.000000	98.548451 
1870.000000	98.549936 
1869.000000	98.549773 
1868.000000	98.548117 
1867.000000	98.546237 
1866.000000	98.545249 
1865.000000	98.544690 
1864.000000	98.543667 
1863.000000	98.542956 
1862.000000	98.544484 
1861.000000	98.548683 
1860.000000	98.553725 
1859.000000	98.557843 
1858.000000	98.561086 
1857.000000	98.564146 
1856.000000	98.567150 
1855.000000	98.570017 
1854.000000	98.572625 
1853.000000	98.574326 
1852.000000	98.574852 
1851.000000	98.575205 
1850.000000	98.576293 
1849.000000	98.577599 
1848.000000	98.577962 
1847.000000	98.577409 
1846.000000	98.577155 
1845.000000	98.578113 
1844.000000	98.580003 
1843.000000	98.581985 
1842.000000	98.583737 
1841.000000	98.585611 
1840.000000	98.588454 
1839.000000	98.592779 
1838.000000	98.597487 
1837.000000	98.600141 
1836.000000	98.599530 
1835.000000	98.597342 
1834.000000	98.596288 
1833.000000	98.596867 
1832.000000	98.597895 
1831.000000	98.598513 
1830.000000	98.598826 
1829.000000	98.599267 
1828.000000	98.599914 
1827.000000	98.600769 
1826.000000	98.601967 
1825.000000	98.603404 
1824.000000	98.604564 
1823.000000	98.605045 
1822.000000	98.604980 
1821.000000	98.604565 
1820.000000	98.603843 
1819.000000	98.603061 
1818.000000	98.602835 
1817.000000	98.603448 
1816.000000	98.604291 
1815.000000	98.604738 
1814.000000	98.605012 
1813.000000	98.605656 
1812.000000	98.606544 
1811.000000	98.606962 
1810.000000	98.606858 
1809.000000	98.606931 
1808.000000	98.607425 
1807.000000	98.607928 
1806.000000	98.608228 
1805.000000	98.608478 
1804.000000	98.608577 
1803.000000	98.608143 
1802.000000	98.607147 
1801.000000	98.606312 
1800.000000	98.606317 
1799.000000	98.607001 
1798.000000	98.607792 
1797.000000	98.608158 
1796.000000	98.607819 
1795.000000	98.607112 
1794.000000	98.606906 
1793.000000	98.607849 
1792.000000	98.609482 
1791.000000	98.610623 
1790.000000	98.610990 
1789.000000	98.611210 
1788.000000	98.611731 
1787.000000	98.612523 
1786.000000	98.613435 
1785.000000	98.614362 
1784.000000	98.615142 
1783.000000	98.615782 
1782.000000	98.616329 
1781.000000	98.616756 
1780.000000	98.617201 
1779.000000	98.617972 
1778.000000	98.619386 
1777.000000	98.621269 
1776.000000	98.623024 
1775.000000	98.624286 
1774.000000	98.625145 
1773.000000	98.626076 
1772.000000	98.627368 
1771.000000	98.628617 
1770.000000	98.629446 
1769.000000	98.630016 
1768.000000	98.630618 
1767.000000	98.631356 
1766.000000	98.632174 
1765.000000	98.633064 
1764.000000	98.634048 
1763.000000	98.635072 
1762.000000	98.636055 
1761.000000	98.637012 
1760.000000	98.638009 
1759.000000	98.639036 
1758.000000	98.640020 
1757.000000	98.640912 
1756.000000	98.641859 
1755.000000	98.642925 
1754.000000	98.643858 
1753.000000	98.644407 
1752.000000	98.644722 
1751.000000	98.645362 
1750.000000	98.646587 
1749.000000	98.647882 
1748.000000	98.648598 
1747.000000	98.648772 
1746.000000	98.648816 
1745.000000	98.649117 
1744.000000	98.649882 
1743.000000	98.650830 
1742.000000	98.651408 
1741.000000	98.651645 
1740.000000	98.652175 
1739.000000	98.653402 
1738.000000	98.654953 
1737.000000	98.656382 
1736.000000	98.657330 
1735.000000	98.657233 
1734.000000	98.655920 
1733.000000	98.654127 
1732.000000	98.653116 
1731.000000	98.653770 
1730.000000	98.655874 
1729.000000	98.657685 
1728.000000	98.657973 
1727.000000	98.657133 
1726.000000	98.656309 
1725.000000	98.656226 
1724.000000	98.656810 
1723.000000	98.657415 
1722.000000	98.657822 
1721.000000	98.658168 
1720.000000	98.658612 
1719.000000	98.658824 
1718.000000	98.658284 
1717.000000	98.656712 
1716.000000	98.653245 
1715.000000	98.648253 
1714.000000	98.644325 
1713.000000	98.642794 
1712.000000	98.642612 
1711.000000	98.642679 
1710.000000	98.642618 
1709.000000	98.641754 
1708.000000	98.639666 
1707.000000	98.637274 
1706.000000	98.636047 
1705.000000	98.635601 
1704.000000	98.633316 
1703.000000	98.628334 
1702.000000	98.621841 
1701.000000	98.616695 
1700.000000	98.614406 
1699.000000	98.612516 
1698.000000	98.610089 
1697.000000	98.608154 
1696.000000	98.606301 
1695.000000	98.603929 
1694.000000	98.601506 
1693.000000	98.599604 
1692.000000	98.598003 
1691.000000	98.595937 
1690.000000	98.593039 
1689.000000	98.589493 
1688.000000	98.585806 
1687.000000	98.582365 
1686.000000	98.579212 
1685.000000	98.576437 
1684.000000	98.573367 
1683.000000	98.569526 
1682.000000	98.565567 
1681.000000	98.561920 
1680.000000	98.558942 
1679.000000	98.556552 
1678.000000	98.554293 
1677.000000	98.551543 
1676.000000	98.548237 
1675.000000	98.544843 
1674.000000	98.541321 
1673.000000	98.537408 
1672.000000	98.533654 
1671.000000	98.530782 
1670.000000	98.528647 
1669.000000	98.525970 
1668.000000	98.522872 
1667.000000	98.520515 
1666.000000	98.518332 
1665.000000	98.515426 
1664.000000	98.512332 
1663.000000	98.510527 
1662.000000	98.509392 
1661.000000	98.506092 
1660.000000	98.501312 
1659.000000	98.497750 
1658.000000	98.496239 
1657.000000	98.494292 
1656.000000	98.491872 
1655.000000	98.489425 
1654.000000	98.487678 
1653.000000	98.484619 
1652.000000	98.475629 
1651.000000	98.463665 
1650.000000	98.453313 
1649.000000	98.448329 
1648.000000	98.447332 
1647.000000	98.447938 
1646.000000	98.447641 
1645.000000	98.447074 
1644.000000	98.446046 
1643.000000	98.445985 
1642.000000	98.447507 
1641.000000	98.448888 
1640.000000	98.447984 
1639.000000	98.444383 
1638.000000	98.439881 
1637.000000	98.436347 
1636.000000	98.434430 
1635.000000	98.434327 
1634.000000	98.434735 
1633.000000	98.433922 
1632.000000	98.431718 
1631.000000	98.430104 
1630.000000	98.431400 
1629.000000	98.434949 
1628.000000	98.438415 
1627.000000	98.441783 
1626.000000	98.446280 
1625.000000	98.451528 
1624.000000	98.456716 
1623.000000	98.461877 
1622.000000	98.466509 
1621.000000	98.468952 
1620.000000	98.470418 
1619.000000	98.474118 
1618.000000	98.481023 
1617.000000	98.486867 
1616.000000	98.486770 
1615.000000	98.483207 
1614.000000	98.480213 
1613.000000	98.477602 
1612.000000	98.474430 
1611.000000	98.472628 
1610.000000	98.474025 
1609.000000	98.477528 
1608.000000	98.482563 
1607.000000	98.490692 
1606.000000	98.500715 
1605.000000	98.508799 
1604.000000	98.514986 
1603.000000	98.522261 
1602.000000	98.531102 
1601.000000	98.538890 
1600.000000	98.544430 
1599.000000	98.549229 
1598.000000	98.553865 
1597.000000	98.557305 
1596.000000	98.559571 
1595.000000	98.562686 
1594.000000	98.567868 
1593.000000	98.573324 
1592.000000	98.576766 
1591.000000	98.578234 
1590.000000	98.579052 
1589.000000	98.579959 
1588.000000	98.581999 
1587.000000	98.586659 
1586.000000	98.593052 
1585.000000	98.597212 
1584.000000	98.598000 
1583.000000	98.599266 
1582.000000	98.603381 
1581.000000	98.608699 
1580.000000	98.613934 
1579.000000	98.620841 
1578.000000	98.630575 
1577.000000	98.641219 
1576.000000	98.648908 
1575.000000	98.652312 
1574.000000	98.652689 
1573.000000	98.651943 
1572.000000	98.652367 
1571.000000	98.654210 
1570.000000	98.654173 
1569.000000	98.647727 
1568.000000	98.639012 
1567.000000	98.634816 
1566.000000	98.634964 
1565.000000	98.634708 
1564.000000	98.633703 
1563.000000	98.633625 
1562.000000	98.635423 
1561.000000	98.635478 
1560.000000	98.637617 
1559.000000	98.644937 
1558.000000	98.647651 
1557.000000	98.645434 
1556.000000	98.642384 
1555.000000	98.643281 
1554.000000	98.644076 
1553.000000	98.643303 
1552.000000	98.640438 
1551.000000	98.635533 
1550.000000	98.627716 
1549.000000	98.619414 
1548.000000	98.614098 
1547.000000	98.612699 
1546.000000	98.611774 
1545.000000	98.607225 
1544.000000	98.598656 
1543.000000	98.589034 
1542.000000	98.582417 
1541.000000	98.581415 
1540.000000	98.580681 
1539.000000	98.575177 
1538.000000	98.566083 
1537.000000	98.554585 
1536.000000	98.542745 
1535.000000	98.533069 
1534.000000	98.527926 
1533.000000	98.526632 
1532.000000	98.525532 
1531.000000	98.521580 
1530.000000	98.515841 
1529.000000	98.510012 
1528.000000	98.503267 
1527.000000	98.494089 
1526.000000	98.482629 
1525.000000	98.470868 
1524.000000	98.460986 
1523.000000	98.453922 
1522.000000	98.449093 
1521.000000	98.443686 
1520.000000	98.434651 
1519.000000	98.422193 
1518.000000	98.408572 
1517.000000	98.395657 
1516.000000	98.384512 
1515.000000	98.376265 
1514.000000	98.371118 
1513.000000	98.368080 
1512.000000	98.364654 
1511.000000	98.358009 
1510.000000	98.348252 
1509.000000	98.337825 
1508.000000	98.328715 
1507.000000	98.319066 
1506.000000	98.307728 
1505.000000	98.295652 
1504.000000	98.282434 
1503.000000	98.269305 
1502.000000	98.257153 
1501.000000	98.247008 
1500.000000	98.238951 
1499.000000	98.231338 
1498.000000	98.221071 
1497.000000	98.208381 
1496.000000	98.196496 
1495.000000	98.187221 
1494.000000	98.180590 
1493.000000	98.176384 
1492.000000	98.173903 
1491.000000	98.171348 
1490.000000	98.166859 
1489.000000	98.160432 
1488.000000	98.151965 
1487.000000	98.140843 
1486.000000	98.128944 
1485.000000	98.117156 
1484.000000	98.105794 
1483.000000	98.096494 
1482.000000	98.089959 
1481.000000	98.084782 
1480.000000	98.077996 
1479.000000	98.068545 
1478.000000	98.057838 
1477.000000	98.047578 
1476.000000	98.037008 
1475.000000	98.024871 
1474.000000	98.013153 
1473.000000	98.006101 
1472.000000	98.004194 
1471.000000	98.001571 
1470.000000	97.994767 
1469.000000	97.985658 
1468.000000	97.976197 
1467.000000	97.966689 
1466.000000	97.958406 
1465.000000	97.953758 
1464.000000	97.953080 
1463.000000	97.951542 
1462.000000	97.945121 
1461.000000	97.935632 
1460.000000	97.927893 
1459.000000	97.924540 
1458.000000	97.920717 
1457.000000	97.910656 
1456.000000	97.896997 
1455.000000	97.883065 
1454.000000	97.868610 
1453.000000	97.856803 
1452.000000	97.850367 
1451.000000	97.849668 
1450.000000	97.853077 
1449.000000	97.859973 
1448.000000	97.867973 
1447.000000	97.872716 
1446.000000	97.872146 
1445.000000	97.869160 
1444.000000	97.868563 
1443.000000	97.870023 
1442.000000	97.870042 
1441.000000	97.867192 
1440.000000	97.863698 
1439.000000	97.861672 
1438.000000	97.861197 
1437.000000	97.863414 
1436.000000	97.868984 
1435.000000	97.873723 
1434.000000	97.874428 
1433.000000	97.873892 
1432.000000	97.874548 
1431.000000	97.876025 
1430.000000	97.876851 
1429.000000	97.877734 
1428.000000	97.879720 
1427.000000	97.882945 
1426.000000	97.887606 
1425.000000	97.893936 
1424.000000	97.902235 
1423.000000	97.909319 
1422.000000	97.912125 
1421.000000	97.912991 
1420.000000	97.916732 
1419.000000	97.920896 
1418.000000	97.917496 
1417.000000	97.909041 
1416.000000	97.904841 
1415.000000	97.906970 
1414.000000	97.909188 
1413.000000	97.906740 
1412.000000	97.902228 
1411.000000	97.900136 
1410.000000	97.900432 
1409.000000	97.901968 
1408.000000	97.905559 
1407.000000	97.912332 
1406.000000	97.921728 
1405.000000	97.932909 
1404.000000	97.947017 
1403.000000	97.963006 
1402.000000	97.978221 
1401.000000	97.993652 
1400.000000	98.012400 
1399.000000	98.032796 
1398.000000	98.047015 
1397.000000	98.050083 
1396.000000	98.045286 
1395.000000	98.041930 
1394.000000	98.047801 
1393.000000	98.064246 
1392.000000	98.088498 
1391.000000	98.115366 
1390.000000	98.139096 
1389.000000	98.156162 
1388.000000	98.166298 
1387.000000	98.171456 
1386.000000	98.174403 
1385.000000	98.178269 
1384.000000	98.186054 
1383.000000	98.198229 
1382.000000	98.212201 
1381.000000	98.225280 
1380.000000	98.236614 
1379.000000	98.247383 
1378.000000	98.259351 
1377.000000	98.273323 
1376.000000	98.288558 
1375.000000	98.303526 
1374.000000	98.317322 
1373.000000	98.331151 
1372.000000	98.346903 
1371.000000	98.364965 
1370.000000	98.383646 
1369.000000	98.399654 
1368.000000	98.412134 
1367.000000	98.423182 
1366.000000	98.435306 
1365.000000	98.449594 
1364.000000	98.464474 
1363.000000	98.476441 
1362.000000	98.484185 
1361.000000	98.490557 
1360.000000	98.499048 
1359.000000	98.510502 
1358.000000	98.523082 
1357.000000	98.534308 
1356.000000	98.543385 
1355.000000	98.551279 
1354.000000	98.559463 
1353.000000	98.569144 
1352.000000	98.579466 
1351.000000	98.588912 
1350.000000	98.597618 
1349.000000	98.605392 
1348.000000	98.611909 
1347.000000	98.617035 
1346.000000	98.621451 
1345.000000	98.625902 
1344.000000	98.630910 
1343.000000	98.637043 
1342.000000	98.644858 
1341.000000	98.653358 
1340.000000	98.659579 
1339.000000	98.661089 
1338.000000	98.658243 
1337.000000	98.653686 
1336.000000	98.650132 
1335.000000	98.648505 
1334.000000	98.648070 
1333.000000	98.647782 
1332.000000	98.647156 
1331.000000	98.646599 
1330.000000	98.646868 
1329.000000	98.648296 
1328.000000	98.650929 
1327.000000	98.655201 
1326.000000	98.660859 
1325.000000	98.665236 
1324.000000	98.665729 
1323.000000	98.662425 
1322.000000	98.657872 
1321.000000	98.654650 
1320.000000	98.653887 
1319.000000	98.655250 
1318.000000	98.657443 
1317.000000	98.658807 
1316.000000	98.657822 
1315.000000	98.653746 
1314.000000	98.647415 
1313.000000	98.641798 
1312.000000	98.640366 
1311.000000	98.643975 
1310.000000	98.649700 
1309.000000	98.653607 
1308.000000	98.654248 
1307.000000	98.653307 
1306.000000	98.653289 
1305.000000	98.655044 
1304.000000	98.658202 
1303.000000	98.661656 
1302.000000	98.663827 
1301.000000	98.663638 
1300.000000	98.662009 
1299.000000	98.661187 
1298.000000	98.662056 
1297.000000	98.662817 
1296.000000	98.661136 
1295.000000	98.657342 
1294.000000	98.654283 
1293.000000	98.654390 
1292.000000	98.657494 
1291.000000	98.661285 
1290.000000	98.663451 
1289.000000	98.663219 
1288.000000	98.661158 
1287.000000	98.658177 
1286.000000	98.655036 
1285.000000	98.652686 
1284.000000	98.652261 
1283.000000	98.653733 
1282.000000	98.655034 
1281.000000	98.653749 
1280.000000	98.650107 
1279.000000	98.647486 
1278.000000	98.649030 
1277.000000	98.654204 
1276.000000	98.659208 
1275.000000	98.660933 
1274.000000	98.659846 
1273.000000	98.659133 
1272.000000	98.661372 
1271.000000	98.665878 
1270.000000	98.668959 
1269.000000	98.667008 
1268.000000	98.659859 
1267.000000	98.650960 
1266.000000	98.643944 
1265.000000	98.639862 
1264.000000	98.637887 
1263.000000	98.637267 
1262.000000	98.637617 
1261.000000	98.638356 
1260.000000	98.639586 
1259.000000	98.642767 
1258.000000	98.648141 
1257.000000	98.652140 
1256.000000	98.649968 
1255.000000	98.641909 
1254.000000	98.634813 
1253.000000	98.634839 
1252.000000	98.639676 
1251.000000	98.640918 
1250.000000	98.634229 
1249.000000	98.624583 
1248.000000	98.620393 
1247.000000	98.624099 
1246.000000	98.629934 
1245.000000	98.630214 
1244.000000	98.622360 
1243.000000	98.610674 
1242.000000	98.603069 
1241.000000	98.605303 
1240.000000	98.616084 
1239.000000	98.627229 
1238.000000	98.630209 
1237.000000	98.623073 
1236.000000	98.610172 
1235.000000	98.595954 
1234.000000	98.581166 
1233.000000	98.564936 
1232.000000	98.547613 
1231.000000	98.530199 
1230.000000	98.513271 
1229.000000	98.498064 
1228.000000	98.486304 
1227.000000	98.476719 
1226.000000	98.463546 
1225.000000	98.441243 
1224.000000	98.410079 
1223.000000	98.375172 
1222.000000	98.340553 
1221.000000	98.305855 
1220.000000	98.268244 
1219.000000	98.225334 
1218.000000	98.176105 
1217.000000	98.121000 
1216.000000	98.061517 
1215.000000	97.998846 
1214.000000	97.933563 
1213.000000	97.867928 
1212.000000	97.806619 
1211.000000	97.751809 
1210.000000	97.698470 
1209.000000	97.638547 
1208.000000	97.570048 
1207.000000	97.498563 
1206.000000	97.429301 
1205.000000	97.361186 
1204.000000	97.290228 
1203.000000	97.215229 
1202.000000	97.137988 
1201.000000	97.060360 
1200.000000	96.983361 
1199.000000	96.907614 
1198.000000	96.832743 
1197.000000	96.757653 
1196.000000	96.682454 
1195.000000	96.608776 
1194.000000	96.537447 
1193.000000	96.467288 
1192.000000	96.396758 
1191.000000	96.324952 
1190.000000	96.250381 
1189.000000	96.170766 
1188.000000	96.085011 
1187.000000	95.994097 
1186.000000	95.899655 
1185.000000	95.802926 
1184.000000	95.704950 
1183.000000	95.605951 
1182.000000	95.504649 
1181.000000	95.399909 
1180.000000	95.292575 
1179.000000	95.183642 
1178.000000	95.071424 
1177.000000	94.953345 
1176.000000	94.829895 
1175.000000	94.703899 
1174.000000	94.576754 
1173.000000	94.448773 
1172.000000	94.322227 
1171.000000	94.199377 
1170.000000	94.077992 
1169.000000	93.954264 
1168.000000	93.830880 
1167.000000	93.717405 
1166.000000	93.622438 
1165.000000	93.550720 
1164.000000	93.507814 
1163.000000	93.500025 
1162.000000	93.526446 
1161.000000	93.575311 
1160.000000	93.629724 
1159.000000	93.673512 
1158.000000	93.692422 
1157.000000	93.676655 
1156.000000	93.625227 
1155.000000	93.544918 
1154.000000	93.444107 
1153.000000	93.330428 
1152.000000	93.213308 
1151.000000	93.102215 
1150.000000	93.000073 
1149.000000	92.903089 
1148.000000	92.808373 
1147.000000	92.716556 
1146.000000	92.626149 
1145.000000	92.532036 
1144.000000	92.432340 
1143.000000	92.331455 
1142.000000	92.233546 
1141.000000	92.137765 
1140.000000	92.042073 
1139.000000	91.946800 
1138.000000	91.852216 
1137.000000	91.757308 
1136.000000	91.662781 
1135.000000	91.570477 
1134.000000	91.478421 
1133.000000	91.381727 
1132.000000	91.279800 
1131.000000	91.177203 
1130.000000	91.076162 
1129.000000	90.974059 
1128.000000	90.869702 
1127.000000	90.765664 
1126.000000	90.662505 
1125.000000	90.557032 
1124.000000	90.448513 
1123.000000	90.340703 
1122.000000	90.235555 
1121.000000	90.130808 
1120.000000	90.025584 
1119.000000	89.922030 
1118.000000	89.819782 
1117.000000	89.715686 
1116.000000	89.610639 
1115.000000	89.509428 
1114.000000	89.412294 
1113.000000	89.314698 
1112.000000	89.217123 
1111.000000	89.125922 
1110.000000	89.042349 
1109.000000	88.959741 
1108.000000	88.873053 
1107.000000	88.782764 
1106.000000	88.689012 
1105.000000	88.591247 
1104.000000	88.494478 
1103.000000	88.405798 
1102.000000	88.322845 
1101.000000	88.236480 
1100.000000	88.146061 
1099.000000	88.060560 
1098.000000	87.984540 
1097.000000	87.912373 
1096.000000	87.839370 
1095.000000	87.766638 
1094.000000	87.692698 
1093.000000	87.612218 
1092.000000	87.526855 
1091.000000	87.446282 
1090.000000	87.374588 
1089.000000	87.305796 
1088.000000	87.235603 
1087.000000	87.166867 
1086.000000	87.100951 
1085.000000	87.034889 
1084.000000	86.969761 
1083.000000	86.910340 
1082.000000	86.853847 
1081.000000	86.791321 
1080.000000	86.723445 
1079.000000	86.662724 
1078.000000	86.615669 
1077.000000	86.573909 
1076.000000	86.526464 
1075.000000	86.469274 
1074.000000	86.399885 
1073.000000	86.315058 
1072.000000	86.216463 
1071.000000	86.106012 
1070.000000	85.972509 
1069.000000	85.797695 
1068.000000	85.581569 
1067.000000	85.349976 
1066.000000	85.130788 
1065.000000	84.932024 
1064.000000	84.747432 
1063.000000	84.568433 
1062.000000	84.382960 
1061.000000	84.177526 
1060.000000	83.952068 
1059.000000	83.724261 
1058.000000	83.510882 
1057.000000	83.312215 
1056.000000	83.119560 
1055.000000	82.927285 
1054.000000	82.731589 
1053.000000	82.528321 
1052.000000	82.319498 
1051.000000	82.112829 
1050.000000	81.908577 
1049.000000	81.697060 
1048.000000	81.474082 
1047.000000	81.247274 
1046.000000	81.023728 
1045.000000	80.803399 
1044.000000	80.586802 
1043.000000	80.376730 
1042.000000	80.170009 
1041.000000	79.959628 
1040.000000	79.747794 
1039.000000	79.545833 
1038.000000	79.359779 
1037.000000	79.187330 
1036.000000	79.028573 
1035.000000	78.886610 
1034.000000	78.758294 
1033.000000	78.638180 
1032.000000	78.529753 
1031.000000	78.437522 
1030.000000	78.351591 
1029.000000	78.259010 
1028.000000	78.168568 
1027.000000	78.103124 
1026.000000	78.066788 
1025.000000	78.039794 
1024.000000	78.006972 
1023.000000	77.970606 
1022.000000	77.933104 
1021.000000	77.889347 
1020.000000	77.840879 
1019.000000	77.797654 
1018.000000	77.760570 
1017.000000	77.719909 
1016.000000	77.674273 
1015.000000	77.633106 
1014.000000	77.598267 
1013.000000	77.562361 
1012.000000	77.527608 
1011.000000	77.506066 
1010.000000	77.497699 
1009.000000	77.488256 
1008.000000	77.473319 
1007.000000	77.465452 
1006.000000	77.473605 
1005.000000	77.494418 
1004.000000	77.526881 
1003.000000	77.575262 
1002.000000	77.633095 
1001.000000	77.684565 
1000.000000	77.727658 
999.000000	 77.777407 
998.000000	 77.841222 
997.000000	 77.909656 
996.000000	 77.976444 
995.000000	 78.049076 
994.000000	 78.133426 
993.000000	 78.225139 
992.000000	 78.321403 
991.000000	 78.424617 
990.000000	 78.530206 
989.000000	 78.628088 
988.000000	 78.720949 
987.000000	 78.824496 
986.000000	 78.945794 
985.000000	 79.078021 
984.000000	 79.219101 
983.000000	 79.376574 
982.000000	 79.549577 
981.000000	 79.724639 
980.000000	 79.895314 
979.000000	 80.069525 
978.000000	 80.252372 
977.000000	 80.438703 
976.000000	 80.627783 
975.000000	 80.828157 
974.000000	 81.041575 
973.000000	 81.257750 
972.000000	 81.471250 
971.000000	 81.688980 
970.000000	 81.915083 
969.000000	 82.142493 
968.000000	 82.365236 
967.000000	 82.586262 
966.000000	 82.808185 
965.000000	 83.028625 
964.000000	 83.248664 
963.000000	 83.473300 
962.000000	 83.699718 
961.000000	 83.917585 
960.000000	 84.124529 
959.000000	 84.328983 
958.000000	 84.534433 
957.000000	 84.733415 
956.000000	 84.921097 
955.000000	 85.102834 
954.000000	 85.284092 
953.000000	 85.463380 
952.000000	 85.638299 
951.000000	 85.807944 
950.000000	 85.967031 
949.000000	 86.108968 
948.000000	 86.237439 
947.000000	 86.364408 
946.000000	 86.494157 
945.000000	 86.619744 
944.000000	 86.736948 
943.000000	 86.850066 
942.000000	 86.961749 
941.000000	 87.068973 
940.000000	 87.172410 
939.000000	 87.278586 
938.000000	 87.389196 
937.000000	 87.498522 
936.000000	 87.604390 
935.000000	 87.711526 
934.000000	 87.821464 
933.000000	 87.929373 
932.000000	 88.033561 
931.000000	 88.138187 
930.000000	 88.243999 
929.000000	 88.346144 
928.000000	 88.443777 
927.000000	 88.542441 
926.000000	 88.644218 
925.000000	 88.743875 
924.000000	 88.836444 
923.000000	 88.920638 
922.000000	 88.994903 
921.000000	 89.059607 
920.000000	 89.123176 
919.000000	 89.195549 
918.000000	 89.274093 
917.000000	 89.345830 
916.000000	 89.405342 
915.000000	 89.461608 
914.000000	 89.526229 
913.000000	 89.604192 
912.000000	 89.696849 
911.000000	 89.804157 
910.000000	 89.922562 
909.000000	 90.049351 
908.000000	 90.189200 
907.000000	 90.347998 
906.000000	 90.521827 
905.000000	 90.701331 
904.000000	 90.884406 
903.000000	 91.073904 
902.000000	 91.265940 
901.000000	 91.453065 
900.000000	 91.637378 
899.000000	 91.827963 
898.000000	 92.025774 
897.000000	 92.221798 
896.000000	 92.408818 
895.000000	 92.584348 
894.000000	 92.744954 
893.000000	 92.890008 
892.000000	 93.029044 
891.000000	 93.172789 
890.000000	 93.317577 
889.000000	 93.450312 
888.000000	 93.566732 
887.000000	 93.672334 
886.000000	 93.767913 
885.000000	 93.848519 
884.000000	 93.915977 
883.000000	 93.978066 
882.000000	 94.035840 
881.000000	 94.087400 
880.000000	 94.144229 
879.000000	 94.225417 
878.000000	 94.332308 
877.000000	 94.446519 
876.000000	 94.557523 
875.000000	 94.674731 
874.000000	 94.807104 
873.000000	 94.949322 
872.000000	 95.095675 
871.000000	 95.250586 
870.000000	 95.415885 
869.000000	 95.581238 
868.000000	 95.736226 
867.000000	 95.881421 
866.000000	 96.020869 
865.000000	 96.153998 
864.000000	 96.282075 
863.000000	 96.413549 
862.000000	 96.554803 
861.000000	 96.701191 
860.000000	 96.842689 
859.000000	 96.973273 
858.000000	 97.091635 
857.000000	 97.198875 
856.000000	 97.298936 
855.000000	 97.395811 
854.000000	 97.487410 
853.000000	 97.567243 
852.000000	 97.633649 
851.000000	 97.692315 
850.000000	 97.749975 
849.000000	 97.811878 
848.000000	 97.883689 
847.000000	 97.966395 
846.000000	 98.049240 
845.000000	 98.117600 
844.000000	 98.168922 
843.000000	 98.212257 
842.000000	 98.252463 
841.000000	 98.285010 
840.000000	 98.306392 
839.000000	 98.317829 
838.000000	 98.317405 
837.000000	 98.301462 
836.000000	 98.277659 
835.000000	 98.264366 
834.000000	 98.270416 
833.000000	 98.285193 
832.000000	 98.295102 
831.000000	 98.300441 
830.000000	 98.309434 
829.000000	 98.324908 
828.000000	 98.345985 
827.000000	 98.376091 
826.000000	 98.419569 
825.000000	 98.473920 
824.000000	 98.531863 
823.000000	 98.587075 
822.000000	 98.634511 
821.000000	 98.671452 
820.000000	 98.700809 
819.000000	 98.725929 
818.000000	 98.739554 
817.000000	 98.725216 
816.000000	 98.672959 
815.000000	 98.588253 
814.000000	 98.482280 
813.000000	 98.357628 
812.000000	 98.205407 
811.000000	 98.010599 
810.000000	 97.757470 
809.000000	 97.435777 
808.000000	 97.046257 
807.000000	 96.597955 
806.000000	 96.100682 
805.000000	 95.566542 
804.000000	 95.019487 
803.000000	 94.493279 
802.000000	 94.015456 
801.000000	 93.601862 
800.000000	 93.268117 
799.000000	 93.031540 
798.000000	 92.895156 
797.000000	 92.842192 
796.000000	 92.851674 
795.000000	 92.907748 
794.000000	 92.991697 
793.000000	 93.081223 
792.000000	 93.164031 
791.000000	 93.239670 
790.000000	 93.303504 
789.000000	 93.340760 
788.000000	 93.339746 
787.000000	 93.298717 
786.000000	 93.216638 
785.000000	 93.089879 
784.000000	 92.922583 
783.000000	 92.729345 
782.000000	 92.524792 
781.000000	 92.322718 
780.000000	 92.146907 
779.000000	 92.026242 
778.000000	 91.973146 
777.000000	 91.980444 
776.000000	 92.042253 
775.000000	 92.160564 
774.000000	 92.326231 
773.000000	 92.512156 
772.000000	 92.694355 
771.000000	 92.865906 
770.000000	 93.024705 
769.000000	 93.163669 
768.000000	 93.280279 
767.000000	 93.380857 
766.000000	 93.467568 
765.000000	 93.535155 
764.000000	 93.588191 
763.000000	 93.646781 
762.000000	 93.725245 
761.000000	 93.817260 
760.000000	 93.910813 
759.000000	 94.005465 
758.000000	 94.105851 
757.000000	 94.210713 
756.000000	 94.318937 
755.000000	 94.435510 
754.000000	 94.560080 
753.000000	 94.677918 
752.000000	 94.772940 
751.000000	 94.844694 
750.000000	 94.906576 
749.000000	 94.973298 
748.000000	 95.054266 
747.000000	 95.150279 
746.000000	 95.250296 
745.000000	 95.339387 
744.000000	 95.416085 
743.000000	 95.495463 
742.000000	 95.591314 
741.000000	 95.703266 
740.000000	 95.824205 
739.000000	 95.949446 
738.000000	 96.073060 
737.000000	 96.184812 
736.000000	 96.278147 
735.000000	 96.355659 
734.000000	 96.423573 
733.000000	 96.486771 
732.000000	 96.549152 
731.000000	 96.609688 
730.000000	 96.657843 
729.000000	 96.684222 
728.000000	 96.696562 
727.000000	 96.715680 
726.000000	 96.755475 
725.000000	 96.814833 
724.000000	 96.887748 
723.000000	 96.969691 
722.000000	 97.052955 
721.000000	 97.128000 
720.000000	 97.193555 
719.000000	 97.256097 
718.000000	 97.316862 
717.000000	 97.370218 
716.000000	 97.416631 
715.000000	 97.464477 
714.000000	 97.516661 
713.000000	 97.568379 
712.000000	 97.620487 
711.000000	 97.681272 
710.000000	 97.751139 
709.000000	 97.820066 
708.000000	 97.881564 
707.000000	 97.935842 
706.000000	 97.977300 
705.000000	 97.992307 
704.000000	 97.974882 
703.000000	 97.932545 
702.000000	 97.866763 
701.000000	 97.758875 
700.000000	 97.586108 
699.000000	 97.343274 
698.000000	 97.048636 
697.000000	 96.741141 
696.000000	 96.475719 
695.000000	 96.306385 
694.000000	 96.256528 
693.000000	 96.308922 
692.000000	 96.428090 
691.000000	 96.582608 
690.000000	 96.748534 
689.000000	 96.906767 
688.000000	 97.047940 
687.000000	 97.173923 
686.000000	 97.285080 
685.000000	 97.376270 
684.000000	 97.449834 
683.000000	 97.517216 
682.000000	 97.584547 
681.000000	 97.649009 
680.000000	 97.711491 
679.000000	 97.777669 
678.000000	 97.845391 
677.000000	 97.910444 
676.000000	 97.977893 
675.000000	 98.056175 
674.000000	 98.134369 
673.000000	 98.182095 
672.000000	 98.178669 
671.000000	 98.125425 
670.000000	 98.035389 
669.000000	 97.936090 
668.000000	 97.915559 
667.000000	 98.056042 
666.000000	 98.258378 
665.000000	 98.404825 
664.000000	 98.491974 
663.000000	 98.551562 
662.000000	 98.606552 
661.000000	 98.655934 
660.000000	 98.690422 
659.000000	 98.711096 
658.000000	 98.724332 
657.000000	 98.731928 
656.000000	 98.728853 
655.000000	 98.711310 
654.000000	 98.677721 
653.000000	 98.630002 
652.000000	 98.585501 
651.000000	 98.576068 
650.000000	 98.611663 

