4000.000000	98.253054 
3999.000000	98.250857 
3998.000000	98.246869 
3997.000000	98.242595 
3996.000000	98.239408 
3995.000000	98.237875 
3994.000000	98.237879 
3993.000000	98.238886 
3992.000000	98.240124 
3991.000000	98.240819 
3990.000000	98.240639 
3989.000000	98.239946 
3988.000000	98.239484 
3987.000000	98.239909 
3986.000000	98.241582 
3985.000000	98.244394 
3984.000000	98.247561 
3983.000000	98.249969 
3982.000000	98.251090 
3981.000000	98.251373 
3980.000000	98.251372 
3979.000000	98.250924 
3978.000000	98.249758 
3977.000000	98.248379 
3976.000000	98.247663 
3975.000000	98.247631 
3974.000000	98.247295 
3973.000000	98.245795 
3972.000000	98.243232 
3971.000000	98.240453 
3970.000000	98.238245 
3969.000000	98.236920 
3968.000000	98.236540 
3967.000000	98.237015 
3966.000000	98.238014 
3965.000000	98.238979 
3964.000000	98.239185 
3963.000000	98.238091 
3962.000000	98.235908 
3961.000000	98.233553 
3960.000000	98.231854 
3959.000000	98.231059 
3958.000000	98.230923 
3957.000000	98.231066 
3956.000000	98.231191 
3955.000000	98.230961 
3954.000000	98.230133 
3953.000000	98.228742 
3952.000000	98.227073 
3951.000000	98.225408 
3950.000000	98.223698 
3949.000000	98.221798 
3948.000000	98.219873 
3947.000000	98.218451 
3946.000000	98.218019 
3945.000000	98.218641 
3944.000000	98.219819 
3943.000000	98.220564 
3942.000000	98.220402 
3941.000000	98.219855 
3940.000000	98.219654 
3939.000000	98.219900 
3938.000000	98.220020 
3937.000000	98.219407 
3936.000000	98.217971 
3935.000000	98.216050 
3934.000000	98.214198 
3933.000000	98.212874 
3932.000000	98.212225 
3931.000000	98.211959 
3930.000000	98.211670 
3929.000000	98.211483 
3928.000000	98.211896 
3927.000000	98.213015 
3926.000000	98.214173 
3925.000000	98.214355 
3924.000000	98.213133 
3923.000000	98.210971 
3922.000000	98.208705 
3921.000000	98.206980 
3920.000000	98.206064 
3919.000000	98.205913 
3918.000000	98.206221 
3917.000000	98.206521 
3916.000000	98.206522 
3915.000000	98.206277 
3914.000000	98.206062 
3913.000000	98.206035 
3912.000000	98.206041 
3911.000000	98.205863 
3910.000000	98.205389 
3909.000000	98.204665 
3908.000000	98.203882 
3907.000000	98.203091 
3906.000000	98.202112 
3905.000000	98.200560 
3904.000000	98.198239 
3903.000000	98.195655 
3902.000000	98.193783 
3901.000000	98.193153 
3900.000000	98.193537 
3899.000000	98.194149 
3898.000000	98.194364 
3897.000000	98.194103 
3896.000000	98.193534 
3895.000000	98.192894 
3894.000000	98.192373 
3893.000000	98.191964 
3892.000000	98.191416 
3891.000000	98.190493 
3890.000000	98.189259 
3889.000000	98.187947 
3888.000000	98.186811 
3887.000000	98.186022 
3886.000000	98.185552 
3885.000000	98.185165 
3884.000000	98.184623 
3883.000000	98.183885 
3882.000000	98.183082 
3881.000000	98.182355 
3880.000000	98.181741 
3879.000000	98.181168 
3878.000000	98.180568 
3877.000000	98.179949 
3876.000000	98.179369 
3875.000000	98.178822 
3874.000000	98.178228 
3873.000000	98.177542 
3872.000000	98.176809 
3871.000000	98.176123 
3870.000000	98.175539 
3869.000000	98.175062 
3868.000000	98.174663 
3867.000000	98.174305 
3866.000000	98.173987 
3865.000000	98.173721 
3864.000000	98.173496 
3863.000000	98.173282 
3862.000000	98.173053 
3861.000000	98.172814 
3860.000000	98.172598 
3859.000000	98.172416 
3858.000000	98.172248 
3857.000000	98.172046 
3856.000000	98.171776 
3855.000000	98.171463 
3854.000000	98.171101 
3853.000000	98.170660 
3852.000000	98.170238 
3851.000000	98.169947 
3850.000000	98.169775 
3849.000000	98.169696 
3848.000000	98.169705 
3847.000000	98.169795 
3846.000000	98.169906 
3845.000000	98.169919 
3844.000000	98.169756 
3843.000000	98.169450 
3842.000000	98.169085 
3841.000000	98.168766 
3840.000000	98.168605 
3839.000000	98.168685 
3838.000000	98.169020 
3837.000000	98.169461 
3836.000000	98.169806 
3835.000000	98.169956 
3834.000000	98.169933 
3833.000000	98.169907 
3832.000000	98.170057 
3831.000000	98.170402 
3830.000000	98.170853 
3829.000000	98.171308 
3828.000000	98.171819 
3827.000000	98.172559 
3826.000000	98.173405 
3825.000000	98.173826 
3824.000000	98.173362 
3823.000000	98.172370 
3822.000000	98.171832 
3821.000000	98.172038 
3820.000000	98.172377 
3819.000000	98.172105 
3818.000000	98.171039 
3817.000000	98.170236 
3816.000000	98.171203 
3815.000000	98.174089 
3814.000000	98.177250 
3813.000000	98.179056 
3812.000000	98.179514 
3811.000000	98.179885 
3810.000000	98.180799 
3809.000000	98.181382 
3808.000000	98.180527 
3807.000000	98.178379 
3806.000000	98.175917 
3805.000000	98.173462 
3804.000000	98.170605 
3803.000000	98.168707 
3802.000000	98.169891 
3801.000000	98.173566 
3800.000000	98.177040 
3799.000000	98.178133 
3798.000000	98.177107 
3797.000000	98.176941 
3796.000000	98.180158 
3795.000000	98.185918 
3794.000000	98.191001 
3793.000000	98.193578 
3792.000000	98.194596 
3791.000000	98.195942 
3790.000000	98.197705 
3789.000000	98.198317 
3788.000000	98.197219 
3787.000000	98.195603 
3786.000000	98.194815 
3785.000000	98.194860 
3784.000000	98.194692 
3783.000000	98.193422 
3782.000000	98.191019 
3781.000000	98.188399 
3780.000000	98.186863 
3779.000000	98.187571 
3778.000000	98.190634 
3777.000000	98.194392 
3776.000000	98.196484 
3775.000000	98.196070 
3774.000000	98.193577 
3773.000000	98.189248 
3772.000000	98.183727 
3771.000000	98.178555 
3770.000000	98.174708 
3769.000000	98.172209 
3768.000000	98.170812 
3767.000000	98.169726 
3766.000000	98.168853 
3765.000000	98.168847 
3764.000000	98.169700 
3763.000000	98.169912 
3762.000000	98.168423 
3761.000000	98.166319 
3760.000000	98.164448 
3759.000000	98.162394 
3758.000000	98.159014 
3757.000000	98.153129 
3756.000000	98.144156 
3755.000000	98.132271 
3754.000000	98.119039 
3753.000000	98.107070 
3752.000000	98.097954 
3751.000000	98.090792 
3750.000000	98.085448 
3749.000000	98.083709 
3748.000000	98.085129 
3747.000000	98.086979 
3746.000000	98.089722 
3745.000000	98.094962 
3744.000000	98.102921 
3743.000000	98.110146 
3742.000000	98.109757 
3741.000000	98.099042 
3740.000000	98.083423 
3739.000000	98.071575 
3738.000000	98.069001 
3737.000000	98.074736 
3736.000000	98.084097 
3735.000000	98.092705 
3734.000000	98.098286 
3733.000000	98.100490 
3732.000000	98.101036 
3731.000000	98.102693 
3730.000000	98.105246 
3729.000000	98.105469 
3728.000000	98.102914 
3727.000000	98.101067 
3726.000000	98.102559 
3725.000000	98.106183 
3724.000000	98.110089 
3723.000000	98.114416 
3722.000000	98.119503 
3721.000000	98.124799 
3720.000000	98.127774 
3719.000000	98.126741 
3718.000000	98.123653 
3717.000000	98.120798 
3716.000000	98.117742 
3715.000000	98.111653 
3714.000000	98.101586 
3713.000000	98.091128 
3712.000000	98.083277 
3711.000000	98.077936 
3710.000000	98.073792 
3709.000000	98.070001 
3708.000000	98.066615 
3707.000000	98.063007 
3706.000000	98.058394 
3705.000000	98.053374 
3704.000000	98.050046 
3703.000000	98.049127 
3702.000000	98.046828 
3701.000000	98.038617 
3700.000000	98.024640 
3699.000000	98.008816 
3698.000000	97.996038 
3697.000000	97.988674 
3696.000000	97.985041 
3695.000000	97.981595 
3694.000000	97.976588 
3693.000000	97.971623 
3692.000000	97.968492 
3691.000000	97.965900 
3690.000000	97.958887 
3689.000000	97.946173 
3688.000000	97.934905 
3687.000000	97.930681 
3686.000000	97.929942 
3685.000000	97.926839 
3684.000000	97.920058 
3683.000000	97.912447 
3682.000000	97.906604 
3681.000000	97.901106 
3680.000000	97.891985 
3679.000000	97.875053 
3678.000000	97.849928 
3677.000000	97.823136 
3676.000000	97.801316 
3675.000000	97.785454 
3674.000000	97.772670 
3673.000000	97.758567 
3672.000000	97.741549 
3671.000000	97.727730 
3670.000000	97.720441 
3669.000000	97.715017 
3668.000000	97.706785 
3667.000000	97.694973 
3666.000000	97.682169 
3665.000000	97.671588 
3664.000000	97.663156 
3663.000000	97.654412 
3662.000000	97.642960 
3661.000000	97.627255 
3660.000000	97.607353 
3659.000000	97.584653 
3658.000000	97.562201 
3657.000000	97.542199 
3656.000000	97.524162 
3655.000000	97.506940 
3654.000000	97.488585 
3653.000000	97.467329 
3652.000000	97.443002 
3651.000000	97.416435 
3650.000000	97.387603 
3649.000000	97.360152 
3648.000000	97.342987 
3647.000000	97.339843 
3646.000000	97.346092 
3645.000000	97.355201 
3644.000000	97.362758 
3643.000000	97.366632 
3642.000000	97.366016 
3641.000000	97.360164 
3640.000000	97.349540 
3639.000000	97.335569 
3638.000000	97.319527 
3637.000000	97.301438 
3636.000000	97.280861 
3635.000000	97.258713 
3634.000000	97.236722 
3633.000000	97.215421 
3632.000000	97.193488 
3631.000000	97.170239 
3630.000000	97.147640 
3629.000000	97.127192 
3628.000000	97.111392 
3627.000000	97.103948 
3626.000000	97.103884 
3625.000000	97.109400 
3624.000000	97.121017 
3623.000000	97.138121 
3622.000000	97.157274 
3621.000000	97.174289 
3620.000000	97.184238 
3619.000000	97.183504 
3618.000000	97.175537 
3617.000000	97.169132 
3616.000000	97.171370 
3615.000000	97.184730 
3614.000000	97.205542 
3613.000000	97.225816 
3612.000000	97.239760 
3611.000000	97.247603 
3610.000000	97.254229 
3609.000000	97.264767 
3608.000000	97.279083 
3607.000000	97.293376 
3606.000000	97.306223 
3605.000000	97.320452 
3604.000000	97.339850 
3603.000000	97.363973 
3602.000000	97.387195 
3601.000000	97.403366 
3600.000000	97.410003 
3599.000000	97.409427 
3598.000000	97.407465 
3597.000000	97.409046 
3596.000000	97.415655 
3595.000000	97.424795 
3594.000000	97.431372 
3593.000000	97.432547 
3592.000000	97.429253 
3591.000000	97.424103 
3590.000000	97.420672 
3589.000000	97.422412 
3588.000000	97.428978 
3587.000000	97.435973 
3586.000000	97.440838 
3585.000000	97.444957 
3584.000000	97.451200 
3583.000000	97.460325 
3582.000000	97.470556 
3581.000000	97.478412 
3580.000000	97.481169 
3579.000000	97.478557 
3578.000000	97.472674 
3577.000000	97.466621 
3576.000000	97.462142 
3575.000000	97.459229 
3574.000000	97.456370 
3573.000000	97.451795 
3572.000000	97.444398 
3571.000000	97.433872 
3570.000000	97.421064 
3569.000000	97.409269 
3568.000000	97.402848 
3567.000000	97.403212 
3566.000000	97.407868 
3565.000000	97.413172 
3564.000000	97.416938 
3563.000000	97.419627 
3562.000000	97.422689 
3561.000000	97.426267 
3560.000000	97.428824 
3559.000000	97.428687 
3558.000000	97.426015 
3557.000000	97.422942 
3556.000000	97.421494 
3555.000000	97.421818 
3554.000000	97.422587 
3553.000000	97.422105 
3552.000000	97.419499 
3551.000000	97.415023 
3550.000000	97.409810 
3549.000000	97.405674 
3548.000000	97.404281 
3547.000000	97.405280 
3546.000000	97.406267 
3545.000000	97.405224 
3544.000000	97.402753 
3543.000000	97.401064 
3542.000000	97.401414 
3541.000000	97.403400 
3540.000000	97.406077 
3539.000000	97.408652 
3538.000000	97.410502 
3537.000000	97.411123 
3536.000000	97.410504 
3535.000000	97.409123 
3534.000000	97.407552 
3533.000000	97.406265 
3532.000000	97.405601 
3531.000000	97.405705 
3530.000000	97.406274 
3529.000000	97.406608 
3528.000000	97.406149 
3527.000000	97.404985 
3526.000000	97.403780 
3525.000000	97.403224 
3524.000000	97.403501 
3523.000000	97.404308 
3522.000000	97.405167 
3521.000000	97.405782 
3520.000000	97.406179 
3519.000000	97.406501 
3518.000000	97.406756 
3517.000000	97.406756 
3516.000000	97.406351 
3515.000000	97.405689 
3514.000000	97.405144 
3513.000000	97.404986 
3512.000000	97.405156 
3511.000000	97.405324 
3510.000000	97.405180 
3509.000000	97.404719 
3508.000000	97.404225 
3507.000000	97.403969 
3506.000000	97.403970 
3505.000000	97.404023 
3504.000000	97.403895 
3503.000000	97.403502 
3502.000000	97.402971 
3501.000000	97.402540 
3500.000000	97.402385 
3499.000000	97.402518 
3498.000000	97.402753 
3497.000000	97.402768 
3496.000000	97.402288 
3495.000000	97.401280 
3494.000000	97.400012 
3493.000000	97.398882 
3492.000000	97.398119 
3491.000000	97.397659 
3490.000000	97.397301 
3489.000000	97.396944 
3488.000000	97.396504 
3487.000000	97.395680 
3486.000000	97.394170 
3485.000000	97.392236 
3484.000000	97.390726 
3483.000000	97.390218 
3482.000000	97.390341 
3481.000000	97.390192 
3480.000000	97.389382 
3479.000000	97.388230 
3478.000000	97.387026 
3477.000000	97.385575 
3476.000000	97.383534 
3475.000000	97.380987 
3474.000000	97.378538 
3473.000000	97.376846 
3472.000000	97.376053 
3471.000000	97.375609 
3470.000000	97.374624 
3469.000000	97.372590 
3468.000000	97.369743 
3467.000000	97.366784 
3466.000000	97.364366 
3465.000000	97.362695 
3464.000000	97.361478 
3463.000000	97.360127 
3462.000000	97.358180 
3461.000000	97.355660 
3460.000000	97.352921 
3459.000000	97.350074 
3458.000000	97.346797 
3457.000000	97.342800 
3456.000000	97.338498 
3455.000000	97.334861 
3454.000000	97.332574 
3453.000000	97.331503 
3452.000000	97.330880 
3451.000000	97.330063 
3450.000000	97.328924 
3449.000000	97.327543 
3448.000000	97.325685 
3447.000000	97.322847 
3446.000000	97.318881 
3445.000000	97.314455 
3444.000000	97.310714 
3443.000000	97.308386 
3442.000000	97.307257 
3441.000000	97.306404 
3440.000000	97.304994 
3439.000000	97.302801 
3438.000000	97.300017 
3437.000000	97.296861 
3436.000000	97.293687 
3435.000000	97.291150 
3434.000000	97.289827 
3433.000000	97.289589 
3432.000000	97.289554 
3431.000000	97.288934 
3430.000000	97.287675 
3429.000000	97.286129 
3428.000000	97.284370 
3427.000000	97.282176 
3426.000000	97.279695 
3425.000000	97.277691 
3424.000000	97.276838 
3423.000000	97.276912 
3422.000000	97.276871 
3421.000000	97.275913 
3420.000000	97.274256 
3419.000000	97.272762 
3418.000000	97.271965 
3417.000000	97.271701 
3416.000000	97.271533 
3415.000000	97.271196 
3414.000000	97.270608 
3413.000000	97.269692 
3412.000000	97.268458 
3411.000000	97.267184 
3410.000000	97.266316 
3409.000000	97.266137 
3408.000000	97.266531 
3407.000000	97.267028 
3406.000000	97.267128 
3405.000000	97.266676 
3404.000000	97.265973 
3403.000000	97.265474 
3402.000000	97.265339 
3401.000000	97.265368 
3400.000000	97.265304 
3399.000000	97.265101 
3398.000000	97.264859 
3397.000000	97.264699 
3396.000000	97.264759 
3395.000000	97.265183 
3394.000000	97.265937 
3393.000000	97.266722 
3392.000000	97.267174 
3391.000000	97.267177 
3390.000000	97.266954 
3389.000000	97.266903 
3388.000000	97.267336 
3387.000000	97.268313 
3386.000000	97.269640 
3385.000000	97.270921 
3384.000000	97.271752 
3383.000000	97.272023 
3382.000000	97.272122 
3381.000000	97.272693 
3380.000000	97.273994 
3379.000000	97.275603 
3378.000000	97.276882 
3377.000000	97.277777 
3376.000000	97.278833 
3375.000000	97.280354 
3374.000000	97.281893 
3373.000000	97.282821 
3372.000000	97.283221 
3371.000000	97.283917 
3370.000000	97.285561 
3369.000000	97.287990 
3368.000000	97.290476 
3367.000000	97.292421 
3366.000000	97.293695 
3365.000000	97.294471 
3364.000000	97.294992 
3363.000000	97.295462 
3362.000000	97.296008 
3361.000000	97.296692 
3360.000000	97.297647 
3359.000000	97.299094 
3358.000000	97.301068 
3357.000000	97.303180 
3356.000000	97.304879 
3355.000000	97.306073 
3354.000000	97.307365 
3353.000000	97.309542 
3352.000000	97.312884 
3351.000000	97.316945 
3350.000000	97.320880 
3349.000000	97.323924 
3348.000000	97.325795 
3347.000000	97.326828 
3346.000000	97.327745 
3345.000000	97.329087 
3344.000000	97.330701 
3343.000000	97.331941 
3342.000000	97.332442 
3341.000000	97.332629 
3340.000000	97.333275 
3339.000000	97.334617 
3338.000000	97.336227 
3337.000000	97.337667 
3336.000000	97.338997 
3335.000000	97.340539 
3334.000000	97.342313 
3333.000000	97.343946 
3332.000000	97.345115 
3331.000000	97.345919 
3330.000000	97.346727 
3329.000000	97.347749 
3328.000000	97.348919 
3327.000000	97.350156 
3326.000000	97.351561 
3325.000000	97.353209 
3324.000000	97.354856 
3323.000000	97.356095 
3322.000000	97.356850 
3321.000000	97.357565 
3320.000000	97.358810 
3319.000000	97.360793 
3318.000000	97.363301 
3317.000000	97.365950 
3316.000000	97.368395 
3315.000000	97.370434 
3314.000000	97.372084 
3313.000000	97.373561 
3312.000000	97.375103 
3311.000000	97.376820 
3310.000000	97.378728 
3309.000000	97.380797 
3308.000000	97.382819 
3307.000000	97.384361 
3306.000000	97.385118 
3305.000000	97.385265 
3304.000000	97.385406 
3303.000000	97.386141 
3302.000000	97.387657 
3301.000000	97.389715 
3300.000000	97.391812 
3299.000000	97.393484 
3298.000000	97.394593 
3297.000000	97.395416 
3296.000000	97.396442 
3295.000000	97.397968 
3294.000000	97.399923 
3293.000000	97.402032 
3292.000000	97.404102 
3291.000000	97.406108 
3290.000000	97.408053 
3289.000000	97.409895 
3288.000000	97.411614 
3287.000000	97.413255 
3286.000000	97.414838 
3285.000000	97.416275 
3284.000000	97.417472 
3283.000000	97.418533 
3282.000000	97.419771 
3281.000000	97.421408 
3280.000000	97.423309 
3279.000000	97.425103 
3278.000000	97.426641 
3277.000000	97.428193 
3276.000000	97.430069 
3275.000000	97.432196 
3274.000000	97.434224 
3273.000000	97.436001 
3272.000000	97.437757 
3271.000000	97.439768 
3270.000000	97.442006 
3269.000000	97.444171 
3268.000000	97.446010 
3267.000000	97.447531 
3266.000000	97.449001 
3265.000000	97.450747 
3264.000000	97.452900 
3263.000000	97.455301 
3262.000000	97.457615 
3261.000000	97.459641 
3260.000000	97.461420 
3259.000000	97.463056 
3258.000000	97.464578 
3257.000000	97.466043 
3256.000000	97.467620 
3255.000000	97.469399 
3254.000000	97.471246 
3253.000000	97.473005 
3252.000000	97.474763 
3251.000000	97.476752 
3250.000000	97.478995 
3249.000000	97.481216 
3248.000000	97.483126 
3247.000000	97.484730 
3246.000000	97.486284 
3245.000000	97.488017 
3244.000000	97.489910 
3243.000000	97.491767 
3242.000000	97.493446 
3241.000000	97.494998 
3240.000000	97.496603 
3239.000000	97.498408 
3238.000000	97.500468 
3237.000000	97.502794 
3236.000000	97.505370 
3235.000000	97.508071 
3234.000000	97.510613 
3233.000000	97.512704 
3232.000000	97.514251 
3231.000000	97.515443 
3230.000000	97.516638 
3229.000000	97.518088 
3228.000000	97.519823 
3227.000000	97.521740 
3226.000000	97.523777 
3225.000000	97.525958 
3224.000000	97.528260 
3223.000000	97.530535 
3222.000000	97.532638 
3221.000000	97.534592 
3220.000000	97.536557 
3219.000000	97.538614 
3218.000000	97.540669 
3217.000000	97.542596 
3216.000000	97.544414 
3215.000000	97.546288 
3214.000000	97.548374 
3213.000000	97.550645 
3212.000000	97.552871 
3211.000000	97.554811 
3210.000000	97.556431 
3209.000000	97.557926 
3208.000000	97.559525 
3207.000000	97.561288 
3206.000000	97.563123 
3205.000000	97.564957 
3204.000000	97.566855 
3203.000000	97.568961 
3202.000000	97.571321 
3201.000000	97.573788 
3200.000000	97.576095 
3199.000000	97.578098 
3198.000000	97.579878 
3197.000000	97.581661 
3196.000000	97.583583 
3195.000000	97.585591 
3194.000000	97.587595 
3193.000000	97.589635 
3192.000000	97.591817 
3191.000000	97.594129 
3190.000000	97.596399 
3189.000000	97.598471 
3188.000000	97.600351 
3187.000000	97.602211 
3186.000000	97.604241 
3185.000000	97.606485 
3184.000000	97.608820 
3183.000000	97.611073 
3182.000000	97.613214 
3181.000000	97.615334 
3180.000000	97.617462 
3179.000000	97.619498 
3178.000000	97.621395 
3177.000000	97.623306 
3176.000000	97.625425 
3175.000000	97.627769 
3174.000000	97.630199 
3173.000000	97.632576 
3172.000000	97.634829 
3171.000000	97.636899 
3170.000000	97.638768 
3169.000000	97.640555 
3168.000000	97.642432 
3167.000000	97.644431 
3166.000000	97.646442 
3165.000000	97.648389 
3164.000000	97.650281 
3163.000000	97.652103 
3162.000000	97.653810 
3161.000000	97.655452 
3160.000000	97.657173 
3159.000000	97.659047 
3158.000000	97.661022 
3157.000000	97.663039 
3156.000000	97.665110 
3155.000000	97.667224 
3154.000000	97.669304 
3153.000000	97.671298 
3152.000000	97.673237 
3151.000000	97.675139 
3150.000000	97.676938 
3149.000000	97.678579 
3148.000000	97.680134 
3147.000000	97.681773 
3146.000000	97.683637 
3145.000000	97.685747 
3144.000000	97.687982 
3143.000000	97.690102 
3142.000000	97.691902 
3141.000000	97.693353 
3140.000000	97.694620 
3139.000000	97.695966 
3138.000000	97.697559 
3137.000000	97.699403 
3136.000000	97.701333 
3135.000000	97.703092 
3134.000000	97.704527 
3133.000000	97.705752 
3132.000000	97.707080 
3131.000000	97.708694 
3130.000000	97.710528 
3129.000000	97.712479 
3128.000000	97.714589 
3127.000000	97.716892 
3126.000000	97.719249 
3125.000000	97.721420 
3124.000000	97.723277 
3123.000000	97.724841 
3122.000000	97.726248 
3121.000000	97.727713 
3120.000000	97.729446 
3119.000000	97.731478 
3118.000000	97.733618 
3117.000000	97.735662 
3116.000000	97.737584 
3115.000000	97.739436 
3114.000000	97.741200 
3113.000000	97.742870 
3112.000000	97.744596 
3111.000000	97.746543 
3110.000000	97.748622 
3109.000000	97.750507 
3108.000000	97.752013 
3107.000000	97.753357 
3106.000000	97.754925 
3105.000000	97.756761 
3104.000000	97.758413 
3103.000000	97.759396 
3102.000000	97.759739 
3101.000000	97.759948 
3100.000000	97.760482 
3099.000000	97.761489 
3098.000000	97.763075 
3097.000000	97.765496 
3096.000000	97.768803 
3095.000000	97.772415 
3094.000000	97.775421 
3093.000000	97.777356 
3092.000000	97.778447 
3091.000000	97.779158 
3090.000000	97.779768 
3089.000000	97.780412 
3088.000000	97.781188 
3087.000000	97.782188 
3086.000000	97.783553 
3085.000000	97.785412 
3084.000000	97.787491 
3083.000000	97.788969 
3082.000000	97.789254 
3081.000000	97.788944 
3080.000000	97.789403 
3079.000000	97.791057 
3078.000000	97.792932 
3077.000000	97.794282 
3076.000000	97.795725 
3075.000000	97.797911 
3074.000000	97.800023 
3073.000000	97.800816 
3072.000000	97.800535 
3071.000000	97.800587 
3070.000000	97.801633 
3069.000000	97.803154 
3068.000000	97.804733 
3067.000000	97.806453 
3066.000000	97.807951 
3065.000000	97.808236 
3064.000000	97.806843 
3063.000000	97.804370 
3062.000000	97.801719 
3061.000000	97.799489 
3060.000000	97.798263 
3059.000000	97.798680 
3058.000000	97.800949 
3057.000000	97.804631 
3056.000000	97.808738 
3055.000000	97.811622 
3054.000000	97.811350 
3053.000000	97.807534 
3052.000000	97.802851 
3051.000000	97.801432 
3050.000000	97.804918 
3049.000000	97.810718 
3048.000000	97.814595 
3047.000000	97.814376 
3046.000000	97.810739 
3045.000000	97.805607 
3044.000000	97.800871 
3043.000000	97.798303 
3042.000000	97.799160 
3041.000000	97.802818 
3040.000000	97.806218 
3039.000000	97.805754 
3038.000000	97.800319 
3037.000000	97.792216 
3036.000000	97.784688 
3035.000000	97.778757 
3034.000000	97.773165 
3033.000000	97.767008 
3032.000000	97.761148 
3031.000000	97.756873 
3030.000000	97.754326 
3029.000000	97.752676 
3028.000000	97.750673 
3027.000000	97.746579 
3026.000000	97.738950 
3025.000000	97.728482 
3024.000000	97.718056 
3023.000000	97.709702 
3022.000000	97.702455 
3021.000000	97.694630 
3020.000000	97.687078 
3019.000000	97.682029 
3018.000000	97.678980 
3017.000000	97.674023 
3016.000000	97.664089 
3015.000000	97.650316 
3014.000000	97.636669 
3013.000000	97.626309 
3012.000000	97.619624 
3011.000000	97.614507 
3010.000000	97.607806 
3009.000000	97.597577 
3008.000000	97.584680 
3007.000000	97.571694 
3006.000000	97.559968 
3005.000000	97.548527 
3004.000000	97.536159 
3003.000000	97.523504 
3002.000000	97.512472 
3001.000000	97.504357 
3000.000000	97.498922 
2999.000000	97.494468 
2998.000000	97.488392 
2997.000000	97.478808 
2996.000000	97.466513 
2995.000000	97.454465 
2994.000000	97.444358 
2993.000000	97.434358 
2992.000000	97.421192 
2991.000000	97.404244 
2990.000000	97.386720 
2989.000000	97.373014 
2988.000000	97.365758 
2987.000000	97.365147 
2986.000000	97.369801 
2985.000000	97.377637 
2984.000000	97.386393 
2983.000000	97.394170 
2982.000000	97.400018 
2981.000000	97.404025 
2980.000000	97.406550 
2979.000000	97.407154 
2978.000000	97.404680 
2977.000000	97.398898 
2976.000000	97.391911 
2975.000000	97.387185 
2974.000000	97.386968 
2973.000000	97.391057 
2972.000000	97.397867 
2971.000000	97.405912 
2970.000000	97.414048 
2969.000000	97.421424 
2968.000000	97.428030 
2967.000000	97.434772 
2966.000000	97.442303 
2965.000000	97.450119 
2964.000000	97.457351 
2963.000000	97.463956 
2962.000000	97.470529 
2961.000000	97.477339 
2960.000000	97.484385 
2959.000000	97.492224 
2958.000000	97.501826 
2957.000000	97.513251 
2956.000000	97.524840 
2955.000000	97.534050 
2954.000000	97.539365 
2953.000000	97.541871 
2952.000000	97.545045 
2951.000000	97.552147 
2950.000000	97.562921 
2949.000000	97.573272 
2948.000000	97.579102 
2947.000000	97.580199 
2946.000000	97.579715 
2945.000000	97.580236 
2944.000000	97.581546 
2943.000000	97.582371 
2942.000000	97.582567 
2941.000000	97.582575 
2940.000000	97.582113 
2939.000000	97.580948 
2938.000000	97.580340 
2937.000000	97.582118 
2936.000000	97.586151 
2935.000000	97.589925 
2934.000000	97.591049 
2933.000000	97.589397 
2932.000000	97.586521 
2931.000000	97.583854 
2930.000000	97.582058 
2929.000000	97.581486 
2928.000000	97.582285 
2927.000000	97.583909 
2926.000000	97.585142 
2925.000000	97.585128 
2924.000000	97.584361 
2923.000000	97.584301 
2922.000000	97.585742 
2921.000000	97.587763 
2920.000000	97.588829 
2919.000000	97.588896 
2918.000000	97.589558 
2917.000000	97.591453 
2916.000000	97.592330 
2915.000000	97.589081 
2914.000000	97.581752 
2913.000000	97.574173 
2912.000000	97.569988 
2911.000000	97.568921 
2910.000000	97.567938 
2909.000000	97.565362 
2908.000000	97.562574 
2907.000000	97.561569 
2906.000000	97.561948 
2905.000000	97.560849 
2904.000000	97.555875 
2903.000000	97.547648 
2902.000000	97.540867 
2901.000000	97.540638 
2900.000000	97.548683 
2899.000000	97.562325 
2898.000000	97.576515 
2897.000000	97.587623 
2896.000000	97.594563 
2895.000000	97.597519 
2894.000000	97.597432 
2893.000000	97.596861 
2892.000000	97.599231 
2891.000000	97.605738 
2890.000000	97.613827 
2889.000000	97.619987 
2888.000000	97.623509 
2887.000000	97.626132 
2886.000000	97.628648 
2885.000000	97.630034 
2884.000000	97.630352 
2883.000000	97.632325 
2882.000000	97.638399 
2881.000000	97.647493 
2880.000000	97.656422 
2879.000000	97.664147 
2878.000000	97.672659 
2877.000000	97.683466 
2876.000000	97.695099 
2875.000000	97.705003 
2874.000000	97.712504 
2873.000000	97.718621 
2872.000000	97.723838 
2871.000000	97.727669 
2870.000000	97.730227 
2869.000000	97.732768 
2868.000000	97.736357 
2867.000000	97.740961 
2866.000000	97.746229 
2865.000000	97.752293 
2864.000000	97.759402 
2863.000000	97.767525 
2862.000000	97.776740 
2861.000000	97.787181 
2860.000000	97.798083 
2859.000000	97.807778 
2858.000000	97.815513 
2857.000000	97.822693 
2856.000000	97.831337 
2855.000000	97.841538 
2854.000000	97.851395 
2853.000000	97.859207 
2852.000000	97.864790 
2851.000000	97.868849 
2850.000000	97.872130 
2849.000000	97.875356 
2848.000000	97.879135 
2847.000000	97.883421 
2846.000000	97.887544 
2845.000000	97.891101 
2844.000000	97.894517 
2843.000000	97.898533 
2842.000000	97.903411 
2841.000000	97.908681 
2840.000000	97.913387 
2839.000000	97.916693 
2838.000000	97.918607 
2837.000000	97.920114 
2836.000000	97.922319 
2835.000000	97.925533 
2834.000000	97.929525 
2833.000000	97.934451 
2832.000000	97.940746 
2831.000000	97.947893 
2830.000000	97.953991 
2829.000000	97.957167 
2828.000000	97.957305 
2827.000000	97.956268 
2826.000000	97.956543 
2825.000000	97.959508 
2824.000000	97.964565 
2823.000000	97.969551 
2822.000000	97.972269 
2821.000000	97.972082 
2820.000000	97.970160 
2819.000000	97.968270 
2818.000000	97.967404 
2817.000000	97.967638 
2816.000000	97.968931 
2815.000000	97.971429 
2814.000000	97.974900 
2813.000000	97.978264 
2812.000000	97.980174 
2811.000000	97.980200 
2810.000000	97.979299 
2809.000000	97.978998 
2808.000000	97.980139 
2807.000000	97.982495 
2806.000000	97.985408 
2805.000000	97.988370 
2804.000000	97.990969 
2803.000000	97.992744 
2802.000000	97.993581 
2801.000000	97.994138 
2800.000000	97.995387 
2799.000000	97.997567 
2798.000000	97.999872 
2797.000000	98.001316 
2796.000000	98.001736 
2795.000000	98.001772 
2794.000000	98.002140 
2793.000000	98.003050 
2792.000000	98.004306 
2791.000000	98.005663 
2790.000000	98.006976 
2789.000000	98.008176 
2788.000000	98.009276 
2787.000000	98.010380 
2786.000000	98.011603 
2785.000000	98.012949 
2784.000000	98.014314 
2783.000000	98.015602 
2782.000000	98.016809 
2781.000000	98.017998 
2780.000000	98.019209 
2779.000000	98.020437 
2778.000000	98.021666 
2777.000000	98.022883 
2776.000000	98.024078 
2775.000000	98.025249 
2774.000000	98.026411 
2773.000000	98.027571 
2772.000000	98.028725 
2771.000000	98.029862 
2770.000000	98.030989 
2769.000000	98.032129 
2768.000000	98.033297 
2767.000000	98.034482 
2766.000000	98.035645 
2765.000000	98.036757 
2764.000000	98.037817 
2763.000000	98.038844 
2762.000000	98.039844 
2761.000000	98.040821 
2760.000000	98.041787 
2759.000000	98.042761 
2758.000000	98.043751 
2757.000000	98.044741 
2756.000000	98.045706 
2755.000000	98.046641 
2754.000000	98.047567 
2753.000000	98.048505 
2752.000000	98.049449 
2751.000000	98.050373 
2750.000000	98.051263 
2749.000000	98.052129 
2748.000000	98.052983 
2747.000000	98.053813 
2746.000000	98.054608 
2745.000000	98.055378 
2744.000000	98.056136 
2743.000000	98.056888 
2742.000000	98.057634 
2741.000000	98.058373 
2740.000000	98.059108 
2739.000000	98.059838 
2738.000000	98.060563 
2737.000000	98.061281 
2736.000000	98.061993 
2735.000000	98.062702 
2734.000000	98.063412 
2733.000000	98.064122 
2732.000000	98.064830 
2731.000000	98.065529 
2730.000000	98.066216 
2729.000000	98.066888 
2728.000000	98.067540 
2727.000000	98.068167 
2726.000000	98.068770 
2725.000000	98.069352 
2724.000000	98.069922 
2723.000000	98.070488 
2722.000000	98.071056 
2721.000000	98.071630 
2720.000000	98.072210 
2719.000000	98.072799 
2718.000000	98.073396 
2717.000000	98.073996 
2716.000000	98.074594 
2715.000000	98.075187 
2714.000000	98.075779 
2713.000000	98.076376 
2712.000000	98.076977 
2711.000000	98.077578 
2710.000000	98.078172 
2709.000000	98.078760 
2708.000000	98.079344 
2707.000000	98.079929 
2706.000000	98.080515 
2705.000000	98.081100 
2704.000000	98.081684 
2703.000000	98.082268 
2702.000000	98.082852 
2701.000000	98.083438 
2700.000000	98.084023 
2699.000000	98.084605 
2698.000000	98.085185 
2697.000000	98.085757 
2696.000000	98.086309 
2695.000000	98.086830 
2694.000000	98.087326 
2693.000000	98.087812 
2692.000000	98.088294 
2691.000000	98.088766 
2690.000000	98.089221 
2689.000000	98.089662 
2688.000000	98.090098 
2687.000000	98.090536 
2686.000000	98.090981 
2685.000000	98.091438 
2684.000000	98.091909 
2683.000000	98.092384 
2682.000000	98.092848 
2681.000000	98.093292 
2680.000000	98.093718 
2679.000000	98.094134 
2678.000000	98.094541 
2677.000000	98.094939 
2676.000000	98.095325 
2675.000000	98.095680 
2674.000000	98.095975 
2673.000000	98.096214 
2672.000000	98.096442 
2671.000000	98.096689 
2670.000000	98.096930 
2669.000000	98.097129 
2668.000000	98.097300 
2667.000000	98.097479 
2666.000000	98.097670 
2665.000000	98.097845 
2664.000000	98.097988 
2663.000000	98.098118 
2662.000000	98.098265 
2661.000000	98.098428 
2660.000000	98.098574 
2659.000000	98.098676 
2658.000000	98.098742 
2657.000000	98.098801 
2656.000000	98.098874 
2655.000000	98.098954 
2654.000000	98.099006 
2653.000000	98.098996 
2652.000000	98.098920 
2651.000000	98.098825 
2650.000000	98.098782 
2649.000000	98.098824 
2648.000000	98.098917 
2647.000000	98.098967 
2646.000000	98.098893 
2645.000000	98.098667 
2644.000000	98.098312 
2643.000000	98.097914 
2642.000000	98.097600 
2641.000000	98.097459 
2640.000000	98.097473 
2639.000000	98.097543 
2638.000000	98.097598 
2637.000000	98.097626 
2636.000000	98.097610 
2635.000000	98.097537 
2634.000000	98.097444 
2633.000000	98.097399 
2632.000000	98.097386 
2631.000000	98.097293 
2630.000000	98.097063 
2629.000000	98.096775 
2628.000000	98.096532 
2627.000000	98.096342 
2626.000000	98.096180 
2625.000000	98.096109 
2624.000000	98.096223 
2623.000000	98.096499 
2622.000000	98.096769 
2621.000000	98.096848 
2620.000000	98.096603 
2619.000000	98.095971 
2618.000000	98.095053 
2617.000000	98.094196 
2616.000000	98.093753 
2615.000000	98.093762 
2614.000000	98.093916 
2613.000000	98.093913 
2612.000000	98.093774 
2611.000000	98.093725 
2610.000000	98.093937 
2609.000000	98.094409 
2608.000000	98.094963 
2607.000000	98.095305 
2606.000000	98.095276 
2605.000000	98.095042 
2604.000000	98.094894 
2603.000000	98.094847 
2602.000000	98.094678 
2601.000000	98.094401 
2600.000000	98.094367 
2599.000000	98.094717 
2598.000000	98.095072 
2597.000000	98.095018 
2596.000000	98.094616 
2595.000000	98.094151 
2594.000000	98.093617 
2593.000000	98.092912 
2592.000000	98.092401 
2591.000000	98.092645 
2590.000000	98.093555 
2589.000000	98.094282 
2588.000000	98.094249 
2587.000000	98.093862 
2586.000000	98.093911 
2585.000000	98.094577 
2584.000000	98.095364 
2583.000000	98.095795 
2582.000000	98.095856 
2581.000000	98.095871 
2580.000000	98.096207 
2579.000000	98.097095 
2578.000000	98.098433 
2577.000000	98.099682 
2576.000000	98.100164 
2575.000000	98.099647 
2574.000000	98.098609 
2573.000000	98.097822 
2572.000000	98.097517 
2571.000000	98.097099 
2570.000000	98.095878 
2569.000000	98.094010 
2568.000000	98.092490 
2567.000000	98.092067 
2566.000000	98.092452 
2565.000000	98.092837 
2564.000000	98.092924 
2563.000000	98.093066 
2562.000000	98.093551 
2561.000000	98.094309 
2560.000000	98.095393 
2559.000000	98.097173 
2558.000000	98.099679 
2557.000000	98.102005 
2556.000000	98.102995 
2555.000000	98.102471 
2554.000000	98.101378 
2553.000000	98.100664 
2552.000000	98.100321 
2551.000000	98.099977 
2550.000000	98.099848 
2549.000000	98.100373 
2548.000000	98.101128 
2547.000000	98.101029 
2546.000000	98.099807 
2545.000000	98.098467 
2544.000000	98.097881 
2543.000000	98.097606 
2542.000000	98.096770 
2541.000000	98.095584 
2540.000000	98.095160 
2539.000000	98.095949 
2538.000000	98.097150 
2537.000000	98.097735 
2536.000000	98.097660 
2535.000000	98.097629 
2534.000000	98.098024 
2533.000000	98.098514 
2532.000000	98.098633 
2531.000000	98.098359 
2530.000000	98.097966 
2529.000000	98.097562 
2528.000000	98.097020 
2527.000000	98.096344 
2526.000000	98.095884 
2525.000000	98.096013 
2524.000000	98.096702 
2523.000000	98.097538 
2522.000000	98.098123 
2521.000000	98.098379 
2520.000000	98.098433 
2519.000000	98.098383 
2518.000000	98.098246 
2517.000000	98.098016 
2516.000000	98.097665 
2515.000000	98.097162 
2514.000000	98.096631 
2513.000000	98.096400 
2512.000000	98.096720 
2511.000000	98.097515 
2510.000000	98.098505 
2509.000000	98.099453 
2508.000000	98.100206 
2507.000000	98.100644 
2506.000000	98.100789 
2505.000000	98.100895 
2504.000000	98.101266 
2503.000000	98.101933 
2502.000000	98.102637 
2501.000000	98.103118 
2500.000000	98.103366 
2499.000000	98.103522 
2498.000000	98.103698 
2497.000000	98.103917 
2496.000000	98.104221 
2495.000000	98.104677 
2494.000000	98.105256 
2493.000000	98.105790 
2492.000000	98.106146 
2491.000000	98.106413 
2490.000000	98.106832 
2489.000000	98.107517 
2488.000000	98.108275 
2487.000000	98.108783 
2486.000000	98.108945 
2485.000000	98.108998 
2484.000000	98.109255 
2483.000000	98.109770 
2482.000000	98.110378 
2481.000000	98.110922 
2480.000000	98.111359 
2479.000000	98.111698 
2478.000000	98.112037 
2477.000000	98.112578 
2476.000000	98.113335 
2475.000000	98.113889 
2474.000000	98.113797 
2473.000000	98.113208 
2472.000000	98.112708 
2471.000000	98.112510 
2470.000000	98.112284 
2469.000000	98.111874 
2468.000000	98.111662 
2467.000000	98.111933 
2466.000000	98.112320 
2465.000000	98.112298 
2464.000000	98.111987 
2463.000000	98.112085 
2462.000000	98.113183 
2461.000000	98.115403 
2460.000000	98.118364 
2459.000000	98.121278 
2458.000000	98.123188 
2457.000000	98.123439 
2456.000000	98.121961 
2455.000000	98.119272 
2454.000000	98.116383 
2453.000000	98.114309 
2452.000000	98.113254 
2451.000000	98.112499 
2450.000000	98.111517 
2449.000000	98.110902 
2448.000000	98.111512 
2447.000000	98.113029 
2446.000000	98.114153 
2445.000000	98.114201 
2444.000000	98.113605 
2443.000000	98.112889 
2442.000000	98.112138 
2441.000000	98.111591 
2440.000000	98.111800 
2439.000000	98.113010 
2438.000000	98.115040 
2437.000000	98.117775 
2436.000000	98.120982 
2435.000000	98.123664 
2434.000000	98.124608 
2433.000000	98.123811 
2432.000000	98.122709 
2431.000000	98.122614 
2430.000000	98.123615 
2429.000000	98.125176 
2428.000000	98.126821 
2427.000000	98.127850 
2426.000000	98.127313 
2425.000000	98.124972 
2424.000000	98.121767 
2423.000000	98.119000 
2422.000000	98.117559 
2421.000000	98.118016 
2420.000000	98.120476 
2419.000000	98.123904 
2418.000000	98.126607 
2417.000000	98.128097 
2416.000000	98.129331 
2415.000000	98.130748 
2414.000000	98.131432 
2413.000000	98.130940 
2412.000000	98.130511 
2411.000000	98.131235 
2410.000000	98.132144 
2409.000000	98.131690 
2408.000000	98.130091 
2407.000000	98.128660 
2406.000000	98.127628 
2405.000000	98.126034 
2404.000000	98.123392 
2403.000000	98.120303 
2402.000000	98.117714 
2401.000000	98.116505 
2400.000000	98.117416 
2399.000000	98.120379 
2398.000000	98.124152 
2397.000000	98.127387 
2396.000000	98.129725 
2395.000000	98.131044 
2394.000000	98.130411 
2393.000000	98.127438 
2392.000000	98.123649 
2391.000000	98.121257 
2390.000000	98.120600 
2389.000000	98.120002 
2388.000000	98.118055 
2387.000000	98.114930 
2386.000000	98.111320 
2385.000000	98.107489 
2384.000000	98.103725 
2383.000000	98.100459 
2382.000000	98.097908 
2381.000000	98.096093 
2380.000000	98.095270 
2379.000000	98.095774 
2378.000000	98.097193 
2377.000000	98.098189 
2376.000000	98.097785 
2375.000000	98.096353 
2374.000000	98.094841 
2373.000000	98.093279 
2372.000000	98.090989 
2371.000000	98.088177 
2370.000000	98.086105 
2369.000000	98.085272 
2368.000000	98.084496 
2367.000000	98.082427 
2366.000000	98.079265 
2365.000000	98.076373 
2364.000000	98.074830 
2363.000000	98.074592 
2362.000000	98.074835 
2361.000000	98.075338 
2360.000000	98.076120 
2359.000000	98.076734 
2358.000000	98.076965 
2357.000000	98.076635 
2356.000000	98.076030 
2355.000000	98.075078 
2354.000000	98.073272 
2353.000000	98.070959 
2352.000000	98.069449 
2351.000000	98.070262 
2350.000000	98.072193 
2349.000000	98.071971 
2348.000000	98.067616 
2347.000000	98.059953 
2346.000000	98.053934 
2345.000000	98.053257 
2344.000000	98.057810 
2343.000000	98.063917 
2342.000000	98.068529 
2341.000000	98.072603 
2340.000000	98.076884 
2339.000000	98.080965 
2338.000000	98.083392 
2337.000000	98.084100 
2336.000000	98.083990 
2335.000000	98.083957 
2334.000000	98.083575 
2333.000000	98.082833 
2332.000000	98.082290 
2331.000000	98.083355 
2330.000000	98.085546 
2329.000000	98.087385 
2328.000000	98.088448 
2327.000000	98.088672 
2326.000000	98.089086 
2325.000000	98.089588 
2324.000000	98.090955 
2323.000000	98.093599 
2322.000000	98.096920 
2321.000000	98.100167 
2320.000000	98.102687 
2319.000000	98.105394 
2318.000000	98.108008 
2317.000000	98.109812 
2316.000000	98.109863 
2315.000000	98.108887 
2314.000000	98.108041 
2313.000000	98.108105 
2312.000000	98.109202 
2311.000000	98.111210 
2310.000000	98.113758 
2309.000000	98.115687 
2308.000000	98.116372 
2307.000000	98.116274 
2306.000000	98.116631 
2305.000000	98.117601 
2304.000000	98.118507 
2303.000000	98.119159 
2302.000000	98.120178 
2301.000000	98.122029 
2300.000000	98.124184 
2299.000000	98.125556 
2298.000000	98.125453 
2297.000000	98.123774 
2296.000000	98.121289 
2295.000000	98.119041 
2294.000000	98.118057 
2293.000000	98.118066 
2292.000000	98.118415 
2291.000000	98.118679 
2290.000000	98.119475 
2289.000000	98.121376 
2288.000000	98.124169 
2287.000000	98.126746 
2286.000000	98.128133 
2285.000000	98.128278 
2284.000000	98.128049 
2283.000000	98.128327 
2282.000000	98.129126 
2281.000000	98.129675 
2280.000000	98.129137 
2279.000000	98.127405 
2278.000000	98.125084 
2277.000000	98.123160 
2276.000000	98.122292 
2275.000000	98.122474 
2274.000000	98.123221 
2273.000000	98.124278 
2272.000000	98.125968 
2271.000000	98.128538 
2270.000000	98.131417 
2269.000000	98.133539 
2268.000000	98.134416 
2267.000000	98.134455 
2266.000000	98.134262 
2265.000000	98.134148 
2264.000000	98.134226 
2263.000000	98.134338 
2262.000000	98.133983 
2261.000000	98.132756 
2260.000000	98.131066 
2259.000000	98.129848 
2258.000000	98.129559 
2257.000000	98.130028 
2256.000000	98.131172 
2255.000000	98.133162 
2254.000000	98.135531 
2253.000000	98.136938 
2252.000000	98.136468 
2251.000000	98.134506 
2250.000000	98.132081 
2249.000000	98.129785 
2248.000000	98.127886 
2247.000000	98.126936 
2246.000000	98.127321 
2245.000000	98.128451 
2244.000000	98.129011 
2243.000000	98.128342 
2242.000000	98.127045 
2241.000000	98.126275 
2240.000000	98.126620 
2239.000000	98.127840 
2238.000000	98.129229 
2237.000000	98.130145 
2236.000000	98.130424 
2235.000000	98.130412 
2234.000000	98.130572 
2233.000000	98.130997 
2232.000000	98.131423 
2231.000000	98.131649 
2230.000000	98.131636 
2229.000000	98.131274 
2228.000000	98.130458 
2227.000000	98.129485 
2226.000000	98.128915 
2225.000000	98.128905 
2224.000000	98.128981 
2223.000000	98.128697 
2222.000000	98.128241 
2221.000000	98.128095 
2220.000000	98.128300 
2219.000000	98.128511 
2218.000000	98.128510 
2217.000000	98.128416 
2216.000000	98.128420 
2215.000000	98.128522 
2214.000000	98.128587 
2213.000000	98.128556 
2212.000000	98.128532 
2211.000000	98.128667 
2210.000000	98.129000 
2209.000000	98.129454 
2208.000000	98.129932 
2207.000000	98.130396 
2206.000000	98.130852 
2205.000000	98.131295 
2204.000000	98.131707 
2203.000000	98.132072 
2202.000000	98.132390 
2201.000000	98.132673 
2200.000000	98.132934 
2199.000000	98.133175 
2198.000000	98.133402 
2197.000000	98.133637 
2196.000000	98.133907 
2195.000000	98.134232 
2194.000000	98.134618 
2193.000000	98.135061 
2192.000000	98.135551 
2191.000000	98.136071 
2190.000000	98.136602 
2189.000000	98.137133 
2188.000000	98.137667 
2187.000000	98.138211 
2186.000000	98.138767 
2185.000000	98.139341 
2184.000000	98.139953 
2183.000000	98.140633 
2182.000000	98.141400 
2181.000000	98.142236 
2180.000000	98.143096 
2179.000000	98.143949 
2178.000000	98.144799 
2177.000000	98.145673 
2176.000000	98.146585 
2175.000000	98.147539 
2174.000000	98.148528 
2173.000000	98.149539 
2172.000000	98.150576 
2171.000000	98.151661 
2170.000000	98.152795 
2169.000000	98.153895 
2168.000000	98.154826 
2167.000000	98.155523 
2166.000000	98.156099 
2165.000000	98.156715 
2164.000000	98.157347 
2163.000000	98.157884 
2162.000000	98.158502 
2161.000000	98.159630 
2160.000000	98.161424 
2159.000000	98.163504 
2158.000000	98.165350 
2157.000000	98.166835 
2156.000000	98.168099 
2155.000000	98.169184 
2154.000000	98.170094 
2153.000000	98.171047 
2152.000000	98.172248 
2151.000000	98.173350 
2150.000000	98.173606 
2149.000000	98.172740 
2148.000000	98.171424 
2147.000000	98.170676 
2146.000000	98.170843 
2145.000000	98.171515 
2144.000000	98.172353 
2143.000000	98.173613 
2142.000000	98.175483 
2141.000000	98.177357 
2140.000000	98.178346 
2139.000000	98.178482 
2138.000000	98.178879 
2137.000000	98.180305 
2136.000000	98.182058 
2135.000000	98.182688 
2134.000000	98.181535 
2133.000000	98.179230 
2132.000000	98.177216 
2131.000000	98.176558 
2130.000000	98.177253 
2129.000000	98.178431 
2128.000000	98.179119 
2127.000000	98.179112 
2126.000000	98.178982 
2125.000000	98.179325 
2124.000000	98.180119 
2123.000000	98.180871 
2122.000000	98.181190 
2121.000000	98.181039 
2120.000000	98.180524 
2119.000000	98.179705 
2118.000000	98.178707 
2117.000000	98.177866 
2116.000000	98.177503 
2115.000000	98.177533 
2114.000000	98.177453 
2113.000000	98.176926 
2112.000000	98.176310 
2111.000000	98.176317 
2110.000000	98.177156 
2109.000000	98.178328 
2108.000000	98.179226 
2107.000000	98.179762 
2106.000000	98.180203 
2105.000000	98.180729 
2104.000000	98.181381 
2103.000000	98.182189 
2102.000000	98.183010 
2101.000000	98.183351 
2100.000000	98.182772 
2099.000000	98.181588 
2098.000000	98.180926 
2097.000000	98.181562 
2096.000000	98.183246 
2095.000000	98.185061 
2094.000000	98.186352 
2093.000000	98.187064 
2092.000000	98.187305 
2091.000000	98.187254 
2090.000000	98.187365 
2089.000000	98.188158 
2088.000000	98.189641 
2087.000000	98.191099 
2086.000000	98.191720 
2085.000000	98.191349 
2084.000000	98.190610 
2083.000000	98.190333 
2082.000000	98.190845 
2081.000000	98.191853 
2080.000000	98.192925 
2079.000000	98.193945 
2078.000000	98.194994 
2077.000000	98.195958 
2076.000000	98.196587 
2075.000000	98.196968 
2074.000000	98.197416 
2073.000000	98.197759 
2072.000000	98.197337 
2071.000000	98.195956 
2070.000000	98.194412 
2069.000000	98.193718 
2068.000000	98.194108 
2067.000000	98.195158 
2066.000000	98.196476 
2065.000000	98.197700 
2064.000000	98.198187 
2063.000000	98.197662 
2062.000000	98.197050 
2061.000000	98.197855 
2060.000000	98.200578 
2059.000000	98.204481 
2058.000000	98.208362 
2057.000000	98.211249 
2056.000000	98.212580 
2055.000000	98.212258 
2054.000000	98.211103 
2053.000000	98.210681 
2052.000000	98.212020 
2051.000000	98.214647 
2050.000000	98.216996 
2049.000000	98.217935 
2048.000000	98.217763 
2047.000000	98.217636 
2046.000000	98.218342 
2045.000000	98.219827 
2044.000000	98.221664 
2043.000000	98.223578 
2042.000000	98.225540 
2041.000000	98.227604 
2040.000000	98.229860 
2039.000000	98.232449 
2038.000000	98.235331 
2037.000000	98.237963 
2036.000000	98.239556 
2035.000000	98.239926 
2034.000000	98.239994 
2033.000000	98.241130 
2032.000000	98.243804 
2031.000000	98.246951 
2030.000000	98.248710 
2029.000000	98.247943 
2028.000000	98.245176 
2027.000000	98.242131 
2026.000000	98.240188 
2025.000000	98.239573 
2024.000000	98.240052 
2023.000000	98.241949 
2022.000000	98.245825 
2021.000000	98.250953 
2020.000000	98.254740 
2019.000000	98.254731 
2018.000000	98.250639 
2017.000000	98.244552 
2016.000000	98.239418 
2015.000000	98.236735 
2014.000000	98.235947 
2013.000000	98.235264 
2012.000000	98.233465 
2011.000000	98.231385 
2010.000000	98.230916 
2009.000000	98.232396 
2008.000000	98.233879 
2007.000000	98.233609 
2006.000000	98.232275 
2005.000000	98.231729 
2004.000000	98.232458 
2003.000000	98.233518 
2002.000000	98.234239 
2001.000000	98.234531 
2000.000000	98.233811 
1999.000000	98.231135 
1998.000000	98.226579 
1997.000000	98.221585 
1996.000000	98.217738 
1995.000000	98.215541 
1994.000000	98.214544 
1993.000000	98.213967 
1992.000000	98.213143 
1991.000000	98.211931 
1990.000000	98.210828 
1989.000000	98.210326 
1988.000000	98.210223 
1987.000000	98.209797 
1986.000000	98.208631 
1985.000000	98.207007 
1984.000000	98.205550 
1983.000000	98.204623 
1982.000000	98.204125 
1981.000000	98.203747 
1980.000000	98.203243 
1979.000000	98.202522 
1978.000000	98.201612 
1977.000000	98.200591 
1976.000000	98.199550 
1975.000000	98.198571 
1974.000000	98.197711 
1973.000000	98.196982 
1972.000000	98.196329 
1971.000000	98.195654 
1970.000000	98.194878 
1969.000000	98.193979 
1968.000000	98.192981 
1967.000000	98.191929 
1966.000000	98.190896 
1965.000000	98.189953 
1964.000000	98.189131 
1963.000000	98.188396 
1962.000000	98.187685 
1961.000000	98.186934 
1960.000000	98.186106 
1959.000000	98.185203 
1958.000000	98.184267 
1957.000000	98.183365 
1956.000000	98.182553 
1955.000000	98.181835 
1954.000000	98.181132 
1953.000000	98.180346 
1952.000000	98.179479 
1951.000000	98.178585 
1950.000000	98.177676 
1949.000000	98.176789 
1948.000000	98.176097 
1947.000000	98.175751 
1946.000000	98.175526 
1945.000000	98.174895 
1944.000000	98.173555 
1943.000000	98.171640 
1942.000000	98.169409 
1941.000000	98.166980 
1940.000000	98.164545 
1939.000000	98.162384 
1938.000000	98.160612 
1937.000000	98.159340 
1936.000000	98.158840 
1935.000000	98.158959 
1934.000000	98.158748 
1933.000000	98.157671 
1932.000000	98.156647 
1931.000000	98.156918 
1930.000000	98.158304 
1929.000000	98.159256 
1928.000000	98.158830 
1927.000000	98.157628 
1926.000000	98.156681 
1925.000000	98.156292 
1924.000000	98.156035 
1923.000000	98.155320 
1922.000000	98.153689 
1921.000000	98.150933 
1920.000000	98.147543 
1919.000000	98.144765 
1918.000000	98.143410 
1917.000000	98.142595 
1916.000000	98.140919 
1915.000000	98.139004 
1914.000000	98.138663 
1913.000000	98.139876 
1912.000000	98.140388 
1911.000000	98.138648 
1910.000000	98.135881 
1909.000000	98.134150 
1908.000000	98.133732 
1907.000000	98.133573 
1906.000000	98.132820 
1905.000000	98.130775 
1904.000000	98.126608 
1903.000000	98.121057 
1902.000000	98.116857 
1901.000000	98.115364 
1900.000000	98.114873 
1899.000000	98.113384 
1898.000000	98.111224 
1897.000000	98.109915 
1896.000000	98.109125 
1895.000000	98.106891 
1894.000000	98.102601 
1893.000000	98.097523 
1892.000000	98.093146 
1891.000000	98.090481 
1890.000000	98.090000 
1889.000000	98.090881 
1888.000000	98.091389 
1887.000000	98.091368 
1886.000000	98.092343 
1885.000000	98.094061 
1884.000000	98.093328 
1883.000000	98.088266 
1882.000000	98.081984 
1881.000000	98.079056 
1880.000000	98.079938 
1879.000000	98.081048 
1878.000000	98.079555 
1877.000000	98.076875 
1876.000000	98.076208 
1875.000000	98.078362 
1874.000000	98.081627 
1873.000000	98.084062 
1872.000000	98.084940 
1871.000000	98.084767 
1870.000000	98.084785 
1869.000000	98.085968 
1868.000000	98.087677 
1867.000000	98.089086 
1866.000000	98.090418 
1865.000000	98.090949 
1864.000000	98.089474 
1863.000000	98.087182 
1862.000000	98.087259 
1861.000000	98.091101 
1860.000000	98.096552 
1859.000000	98.101074 
1858.000000	98.104894 
1857.000000	98.108961 
1856.000000	98.112561 
1855.000000	98.115046 
1854.000000	98.117127 
1853.000000	98.119028 
1852.000000	98.120288 
1851.000000	98.121762 
1850.000000	98.125040 
1849.000000	98.129838 
1848.000000	98.133715 
1847.000000	98.135366 
1846.000000	98.136346 
1845.000000	98.138691 
1844.000000	98.141730 
1843.000000	98.143697 
1842.000000	98.144912 
1841.000000	98.146623 
1840.000000	98.149720 
1839.000000	98.154316 
1838.000000	98.159007 
1837.000000	98.161514 
1836.000000	98.160841 
1835.000000	98.158732 
1834.000000	98.157949 
1833.000000	98.159344 
1832.000000	98.162211 
1831.000000	98.165375 
1830.000000	98.167272 
1829.000000	98.167296 
1828.000000	98.166747 
1827.000000	98.167105 
1826.000000	98.168730 
1825.000000	98.171067 
1824.000000	98.172949 
1823.000000	98.173497 
1822.000000	98.173106 
1821.000000	98.172724 
1820.000000	98.172410 
1819.000000	98.171251 
1818.000000	98.169582 
1817.000000	98.169447 
1816.000000	98.171085 
1815.000000	98.172566 
1814.000000	98.173298 
1813.000000	98.175063 
1812.000000	98.178304 
1811.000000	98.179309 
1810.000000	98.176030 
1809.000000	98.172203 
1808.000000	98.171010 
1807.000000	98.171075 
1806.000000	98.171015 
1805.000000	98.171756 
1804.000000	98.172970 
1803.000000	98.171911 
1802.000000	98.167485 
1801.000000	98.163156 
1800.000000	98.161670 
1799.000000	98.160789 
1798.000000	98.159244 
1797.000000	98.158555 
1796.000000	98.157835 
1795.000000	98.154684 
1794.000000	98.150288 
1793.000000	98.149787 
1792.000000	98.153916 
1791.000000	98.156737 
1790.000000	98.156573 
1789.000000	98.157507 
1788.000000	98.160931 
1787.000000	98.164350 
1786.000000	98.166390 
1785.000000	98.168643 
1784.000000	98.171824 
1783.000000	98.175020 
1782.000000	98.177677 
1781.000000	98.180170 
1780.000000	98.182762 
1779.000000	98.184969 
1778.000000	98.187242 
1777.000000	98.190054 
1776.000000	98.192476 
1775.000000	98.193672 
1774.000000	98.193957 
1773.000000	98.195025 
1772.000000	98.198095 
1771.000000	98.201570 
1770.000000	98.203290 
1769.000000	98.203773 
1768.000000	98.205121 
1767.000000	98.207715 
1766.000000	98.210159 
1765.000000	98.212090 
1764.000000	98.214642 
1763.000000	98.218169 
1762.000000	98.220986 
1761.000000	98.222137 
1760.000000	98.222873 
1759.000000	98.223966 
1758.000000	98.224799 
1757.000000	98.224789 
1756.000000	98.224859 
1755.000000	98.225599 
1754.000000	98.225665 
1753.000000	98.223980 
1752.000000	98.222151 
1751.000000	98.223162 
1750.000000	98.227288 
1749.000000	98.231715 
1748.000000	98.234399 
1747.000000	98.235951 
1746.000000	98.237207 
1745.000000	98.238407 
1744.000000	98.240061 
1743.000000	98.242109 
1742.000000	98.243206 
1741.000000	98.242628 
1740.000000	98.241693 
1739.000000	98.242052 
1738.000000	98.242975 
1737.000000	98.242765 
1736.000000	98.240926 
1735.000000	98.238715 
1734.000000	98.237493 
1733.000000	98.237507 
1732.000000	98.239138 
1731.000000	98.242736 
1730.000000	98.247676 
1729.000000	98.251466 
1728.000000	98.252701 
1727.000000	98.252261 
1726.000000	98.251473 
1725.000000	98.250712 
1724.000000	98.250112 
1723.000000	98.249722 
1722.000000	98.249462 
1721.000000	98.248785 
1720.000000	98.247282 
1719.000000	98.244661 
1718.000000	98.240993 
1717.000000	98.238806 
1716.000000	98.238479 
1715.000000	98.237012 
1714.000000	98.234859 
1713.000000	98.233975 
1712.000000	98.233613 
1711.000000	98.232530 
1710.000000	98.230941 
1709.000000	98.229616 
1708.000000	98.228866 
1707.000000	98.228548 
1706.000000	98.228516 
1705.000000	98.228275 
1704.000000	98.225528 
1703.000000	98.218937 
1702.000000	98.209713 
1701.000000	98.202784 
1700.000000	98.200443 
1699.000000	98.198107 
1698.000000	98.194401 
1697.000000	98.192239 
1696.000000	98.191763 
1695.000000	98.190355 
1694.000000	98.187765 
1693.000000	98.185450 
1692.000000	98.183439 
1691.000000	98.181082 
1690.000000	98.178154 
1689.000000	98.174835 
1688.000000	98.171288 
1687.000000	98.167601 
1686.000000	98.164179 
1685.000000	98.162043 
1684.000000	98.160297 
1683.000000	98.157732 
1682.000000	98.155083 
1681.000000	98.152274 
1680.000000	98.149315 
1679.000000	98.146354 
1678.000000	98.143363 
1677.000000	98.140099 
1676.000000	98.136734 
1675.000000	98.133682 
1674.000000	98.130500 
1673.000000	98.126617 
1672.000000	98.122564 
1671.000000	98.119624 
1670.000000	98.118359 
1669.000000	98.117020 
1668.000000	98.114652 
1667.000000	98.112649 
1666.000000	98.111169 
1665.000000	98.109415 
1664.000000	98.107512 
1663.000000	98.106033 
1662.000000	98.104449 
1661.000000	98.101001 
1660.000000	98.095927 
1659.000000	98.091815 
1658.000000	98.090781 
1657.000000	98.090445 
1656.000000	98.088431 
1655.000000	98.085187 
1654.000000	98.084880 
1653.000000	98.081545 
1652.000000	98.071564 
1651.000000	98.065407 
1650.000000	98.061956 
1649.000000	98.059681 
1648.000000	98.058011 
1647.000000	98.055247 
1646.000000	98.049716 
1645.000000	98.045651 
1644.000000	98.043932 
1643.000000	98.042656 
1642.000000	98.041455 
1641.000000	98.041264 
1640.000000	98.041439 
1639.000000	98.040268 
1638.000000	98.037800 
1637.000000	98.035980 
1636.000000	98.034099 
1635.000000	98.032564 
1634.000000	98.034946 
1633.000000	98.039222 
1632.000000	98.040474 
1631.000000	98.039016 
1630.000000	98.039203 
1629.000000	98.041977 
1628.000000	98.044114 
1627.000000	98.045091 
1626.000000	98.047732 
1625.000000	98.052486 
1624.000000	98.057109 
1623.000000	98.060662 
1622.000000	98.064484 
1621.000000	98.067200 
1620.000000	98.066834 
1619.000000	98.065264 
1618.000000	98.066764 
1617.000000	98.069776 
1616.000000	98.068174 
1615.000000	98.065704 
1614.000000	98.067284 
1613.000000	98.069059 
1612.000000	98.066899 
1611.000000	98.063881 
1610.000000	98.066132 
1609.000000	98.073519 
1608.000000	98.081338 
1607.000000	98.088692 
1606.000000	98.096054 
1605.000000	98.101093 
1604.000000	98.103502 
1603.000000	98.107136 
1602.000000	98.113977 
1601.000000	98.120604 
1600.000000	98.124198 
1599.000000	98.127423 
1598.000000	98.133140 
1597.000000	98.139908 
1596.000000	98.145182 
1595.000000	98.149893 
1594.000000	98.156431 
1593.000000	98.163300 
1592.000000	98.167259 
1591.000000	98.169217 
1590.000000	98.172496 
1589.000000	98.176726 
1588.000000	98.179591 
1587.000000	98.182601 
1586.000000	98.188220 
1585.000000	98.193684 
1584.000000	98.195836 
1583.000000	98.197755 
1582.000000	98.203403 
1581.000000	98.210499 
1580.000000	98.215089 
1579.000000	98.218733 
1578.000000	98.225440 
1577.000000	98.233369 
1576.000000	98.235186 
1575.000000	98.234761 
1574.000000	98.239547 
1573.000000	98.245568 
1572.000000	98.250076 
1571.000000	98.256052 
1570.000000	98.262651 
1569.000000	98.259677 
1568.000000	98.248234 
1567.000000	98.240658 
1566.000000	98.240888 
1565.000000	98.242301 
1564.000000	98.242716 
1563.000000	98.242962 
1562.000000	98.243721 
1561.000000	98.238619 
1560.000000	98.231162 
1559.000000	98.225866 
1558.000000	98.221358 
1557.000000	98.222246 
1556.000000	98.220565 
1555.000000	98.218351 
1554.000000	98.213103 
1553.000000	98.207926 
1552.000000	98.204181 
1551.000000	98.202014 
1550.000000	98.196671 
1549.000000	98.186550 
1548.000000	98.175396 
1547.000000	98.167800 
1546.000000	98.163645 
1545.000000	98.160449 
1544.000000	98.155888 
1543.000000	98.148893 
1542.000000	98.141483 
1541.000000	98.137375 
1540.000000	98.126054 
1539.000000	98.104137 
1538.000000	98.087049 
1537.000000	98.076129 
1536.000000	98.065199 
1535.000000	98.053485 
1534.000000	98.044088 
1533.000000	98.037267 
1532.000000	98.030160 
1531.000000	98.019083 
1530.000000	98.005495 
1529.000000	97.993494 
1528.000000	97.982968 
1527.000000	97.970521 
1526.000000	97.955247 
1525.000000	97.941394 
1524.000000	97.932370 
1523.000000	97.926384 
1522.000000	97.918807 
1521.000000	97.906077 
1520.000000	97.889367 
1519.000000	97.871747 
1518.000000	97.854475 
1517.000000	97.838334 
1516.000000	97.823592 
1515.000000	97.810419 
1514.000000	97.798346 
1513.000000	97.787313 
1512.000000	97.777455 
1511.000000	97.766378 
1510.000000	97.752110 
1509.000000	97.736108 
1508.000000	97.722799 
1507.000000	97.709363 
1506.000000	97.692103 
1505.000000	97.677475 
1504.000000	97.666675 
1503.000000	97.656155 
1502.000000	97.644007 
1501.000000	97.631317 
1500.000000	97.619865 
1499.000000	97.608995 
1498.000000	97.594701 
1497.000000	97.576765 
1496.000000	97.560368 
1495.000000	97.547815 
1494.000000	97.536952 
1493.000000	97.526603 
1492.000000	97.518164 
1491.000000	97.512588 
1490.000000	97.507344 
1489.000000	97.500370 
1488.000000	97.490886 
1487.000000	97.476919 
1486.000000	97.460289 
1485.000000	97.443728 
1484.000000	97.428265 
1483.000000	97.414803 
1482.000000	97.402958 
1481.000000	97.391870 
1480.000000	97.380499 
1479.000000	97.368270 
1478.000000	97.355997 
1477.000000	97.345638 
1476.000000	97.336080 
1475.000000	97.322577 
1474.000000	97.304481 
1473.000000	97.289012 
1472.000000	97.282481 
1471.000000	97.280514 
1470.000000	97.276385 
1469.000000	97.269611 
1468.000000	97.261968 
1467.000000	97.252801 
1466.000000	97.241311 
1465.000000	97.230044 
1464.000000	97.222215 
1463.000000	97.215659 
1462.000000	97.206331 
1461.000000	97.196012 
1460.000000	97.190003 
1459.000000	97.189916 
1458.000000	97.184800 
1457.000000	97.164029 
1456.000000	97.141973 
1455.000000	97.131813 
1454.000000	97.125055 
1453.000000	97.117827 
1452.000000	97.114164 
1451.000000	97.116560 
1450.000000	97.121815 
1449.000000	97.128753 
1448.000000	97.138063 
1447.000000	97.145641 
1446.000000	97.145767 
1445.000000	97.140221 
1444.000000	97.136237 
1443.000000	97.135786 
1442.000000	97.135080 
1441.000000	97.131810 
1440.000000	97.128775 
1439.000000	97.127889 
1438.000000	97.125486 
1437.000000	97.120001 
1436.000000	97.118344 
1435.000000	97.123586 
1434.000000	97.129199 
1433.000000	97.132948 
1432.000000	97.138189 
1431.000000	97.147093 
1430.000000	97.155403 
1429.000000	97.159175 
1428.000000	97.161135 
1427.000000	97.165362 
1426.000000	97.172001 
1425.000000	97.178443 
1424.000000	97.186249 
1423.000000	97.196509 
1422.000000	97.204854 
1421.000000	97.209224 
1420.000000	97.215915 
1419.000000	97.226535 
1418.000000	97.229462 
1417.000000	97.224268 
1416.000000	97.224737 
1415.000000	97.236159 
1414.000000	97.249744 
1413.000000	97.256359 
1412.000000	97.258899 
1411.000000	97.265304 
1410.000000	97.274829 
1409.000000	97.283518 
1408.000000	97.293022 
1407.000000	97.306630 
1406.000000	97.323043 
1405.000000	97.339024 
1404.000000	97.357005 
1403.000000	97.378314 
1402.000000	97.397856 
1401.000000	97.413879 
1400.000000	97.432269 
1399.000000	97.456999 
1398.000000	97.480644 
1397.000000	97.494137 
1396.000000	97.499283 
1395.000000	97.506105 
1394.000000	97.520084 
1393.000000	97.539602 
1392.000000	97.564721 
1391.000000	97.594932 
1390.000000	97.625225 
1389.000000	97.649640 
1388.000000	97.665845 
1387.000000	97.675967 
1386.000000	97.683723 
1385.000000	97.692314 
1384.000000	97.704458 
1383.000000	97.720647 
1382.000000	97.738065 
1381.000000	97.753958 
1380.000000	97.767871 
1379.000000	97.781648 
1378.000000	97.797364 
1377.000000	97.815329 
1376.000000	97.834246 
1375.000000	97.852514 
1374.000000	97.868616 
1373.000000	97.882691 
1372.000000	97.897010 
1371.000000	97.913882 
1370.000000	97.933278 
1369.000000	97.950953 
1368.000000	97.964415 
1367.000000	97.976245 
1366.000000	97.990138 
1365.000000	98.007366 
1364.000000	98.025430 
1363.000000	98.039333 
1362.000000	98.046938 
1361.000000	98.051663 
1360.000000	98.058456 
1359.000000	98.069999 
1358.000000	98.085767 
1357.000000	98.102515 
1356.000000	98.116900 
1355.000000	98.127793 
1354.000000	98.136395 
1353.000000	98.145740 
1352.000000	98.156868 
1351.000000	98.168515 
1350.000000	98.180120 
1349.000000	98.189162 
1348.000000	98.193668 
1347.000000	98.195514 
1346.000000	98.198937 
1345.000000	98.205327 
1344.000000	98.212521 
1343.000000	98.219148 
1342.000000	98.226682 
1341.000000	98.235673 
1340.000000	98.243145 
1339.000000	98.246375 
1338.000000	98.246051 
1337.000000	98.244399 
1336.000000	98.242720 
1335.000000	98.241232 
1334.000000	98.240274 
1333.000000	98.240569 
1332.000000	98.242262 
1331.000000	98.245135 
1330.000000	98.248782 
1329.000000	98.251938 
1328.000000	98.253181 
1327.000000	98.253269 
1326.000000	98.254301 
1325.000000	98.255356 
1324.000000	98.254477 
1323.000000	98.252011 
1322.000000	98.249713 
1321.000000	98.248283 
1320.000000	98.247773 
1319.000000	98.248589 
1318.000000	98.250295 
1317.000000	98.251307 
1316.000000	98.250759 
1315.000000	98.249240 
1314.000000	98.247149 
1313.000000	98.244711 
1312.000000	98.243510 
1311.000000	98.245493 
1310.000000	98.249675 
1309.000000	98.252663 
1308.000000	98.252811 
1307.000000	98.252102 
1306.000000	98.253154 
1305.000000	98.255415 
1304.000000	98.257430 
1303.000000	98.258758 
1302.000000	98.258719 
1301.000000	98.255998 
1300.000000	98.251506 
1299.000000	98.248904 
1298.000000	98.250268 
1297.000000	98.253226 
1296.000000	98.254083 
1295.000000	98.252491 
1294.000000	98.250675 
1293.000000	98.250097 
1292.000000	98.250827 
1291.000000	98.252620 
1290.000000	98.254882 
1289.000000	98.256298 
1288.000000	98.255739 
1287.000000	98.253138 
1286.000000	98.248930 
1285.000000	98.243976 
1284.000000	98.240433 
1283.000000	98.240267 
1282.000000	98.242264 
1281.000000	98.242539 
1280.000000	98.239246 
1279.000000	98.235342 
1278.000000	98.234977 
1277.000000	98.238957 
1276.000000	98.244867 
1275.000000	98.250389 
1274.000000	98.254507 
1273.000000	98.256864 
1272.000000	98.257884 
1271.000000	98.258656 
1270.000000	98.259179 
1269.000000	98.257669 
1268.000000	98.253133 
1267.000000	98.247150 
1266.000000	98.241694 
1265.000000	98.237685 
1264.000000	98.236526 
1263.000000	98.239894 
1262.000000	98.246478 
1261.000000	98.251586 
1260.000000	98.252532 
1259.000000	98.252373 
1258.000000	98.254876 
1257.000000	98.258385 
1256.000000	98.257831 
1255.000000	98.251681 
1254.000000	98.243792 
1253.000000	98.238193 
1252.000000	98.234242 
1251.000000	98.228277 
1250.000000	98.218876 
1249.000000	98.209265 
1248.000000	98.204274 
1247.000000	98.204799 
1246.000000	98.205679 
1245.000000	98.200629 
1244.000000	98.188751 
1243.000000	98.175018 
1242.000000	98.165239 
1241.000000	98.161814 
1240.000000	98.162896 
1239.000000	98.163124 
1238.000000	98.156284 
1237.000000	98.140248 
1236.000000	98.119116 
1235.000000	98.098490 
1234.000000	98.079453 
1233.000000	98.059460 
1232.000000	98.037583 
1231.000000	98.015007 
1230.000000	97.991321 
1229.000000	97.964575 
1228.000000	97.934376 
1227.000000	97.900700 
1226.000000	97.860128 
1225.000000	97.808026 
1224.000000	97.745058 
1223.000000	97.677316 
1222.000000	97.608890 
1221.000000	97.538006 
1220.000000	97.461546 
1219.000000	97.379192 
1218.000000	97.291399 
1217.000000	97.197268 
1216.000000	97.096334 
1215.000000	96.989608 
1214.000000	96.878109 
1213.000000	96.763721 
1212.000000	96.651271 
1211.000000	96.544302 
1210.000000	96.438426 
1209.000000	96.324970 
1208.000000	96.202621 
1207.000000	96.079597 
1206.000000	95.962452 
1205.000000	95.848600 
1204.000000	95.732544 
1203.000000	95.613791 
1202.000000	95.495494 
1201.000000	95.379709 
1200.000000	95.266877 
1199.000000	95.156384 
1198.000000	95.045340 
1197.000000	94.930683 
1196.000000	94.813883 
1195.000000	94.699651 
1194.000000	94.589129 
1193.000000	94.478332 
1192.000000	94.364056 
1191.000000	94.246738 
1190.000000	94.126811 
1189.000000	94.003179 
1188.000000	93.876232 
1187.000000	93.747702 
1186.000000	93.616881 
1185.000000	93.481776 
1184.000000	93.343939 
1183.000000	93.206769 
1182.000000	93.069107 
1181.000000	92.926207 
1180.000000	92.776845 
1179.000000	92.623284 
1178.000000	92.464369 
1177.000000	92.295880 
1176.000000	92.118231 
1175.000000	91.936595 
1174.000000	91.752786 
1173.000000	91.564405 
1172.000000	91.372781 
1171.000000	91.183233 
1170.000000	90.996163 
1169.000000	90.806989 
1168.000000	90.617130 
1167.000000	90.436740 
1166.000000	90.275501 
1165.000000	90.140878 
1164.000000	90.047066 
1163.000000	90.012911 
1162.000000	90.044443 
1161.000000	90.125693 
1160.000000	90.228343 
1159.000000	90.323154 
1158.000000	90.383121 
1157.000000	90.389003 
1156.000000	90.338266 
1155.000000	90.242938 
1154.000000	90.116345 
1153.000000	89.967407 
1152.000000	89.806966 
1151.000000	89.648125 
1150.000000	89.495896 
1149.000000	89.345520 
1148.000000	89.194492 
1147.000000	89.047010 
1146.000000	88.903747 
1145.000000	88.757987 
1144.000000	88.606593 
1143.000000	88.455205 
1142.000000	88.307880 
1141.000000	88.160804 
1140.000000	88.010756 
1139.000000	87.860652 
1138.000000	87.712342 
1137.000000	87.562836 
1136.000000	87.411523 
1135.000000	87.262119 
1134.000000	87.114125 
1133.000000	86.961956 
1132.000000	86.805638 
1131.000000	86.652056 
1130.000000	86.502295 
1129.000000	86.348584 
1128.000000	86.187580 
1127.000000	86.025645 
1126.000000	85.866874 
1125.000000	85.706927 
1124.000000	85.543146 
1123.000000	85.379941 
1122.000000	85.219649 
1121.000000	85.058766 
1120.000000	84.897274 
1119.000000	84.740329 
1118.000000	84.586944 
1117.000000	84.429511 
1116.000000	84.268132 
1115.000000	84.112268 
1114.000000	83.964437 
1113.000000	83.816363 
1112.000000	83.665493 
1111.000000	83.519758 
1110.000000	83.381405 
1109.000000	83.242264 
1108.000000	83.099214 
1107.000000	82.958202 
1106.000000	82.819582 
1105.000000	82.675754 
1104.000000	82.527215 
1103.000000	82.384839 
1102.000000	82.250990 
1101.000000	82.116162 
1100.000000	81.978095 
1099.000000	81.845670 
1098.000000	81.722683 
1097.000000	81.601142 
1096.000000	81.477588 
1095.000000	81.357677 
1094.000000	81.240370 
1093.000000	81.115545 
1092.000000	80.983378 
1091.000000	80.858798 
1090.000000	80.750633 
1089.000000	80.652359 
1088.000000	80.557682 
1087.000000	80.468031 
1086.000000	80.380721 
1085.000000	80.288176 
1084.000000	80.193690 
1083.000000	80.110100 
1082.000000	80.038555 
1081.000000	79.966726 
1080.000000	79.891481 
1079.000000	79.823556 
1078.000000	79.765413 
1077.000000	79.704559 
1076.000000	79.633835 
1075.000000	79.558230 
1074.000000	79.476848 
1073.000000	79.378106 
1072.000000	79.256949 
1071.000000	79.115991 
1070.000000	78.945729 
1069.000000	78.726784 
1068.000000	78.459424 
1067.000000	78.171246 
1066.000000	77.887933 
1065.000000	77.614416 
1064.000000	77.350569 
1063.000000	77.101400 
1062.000000	76.861850 
1061.000000	76.614515 
1060.000000	76.354779 
1059.000000	76.099999 
1058.000000	75.864502 
1057.000000	75.643719 
1056.000000	75.430302 
1055.000000	75.225129 
1054.000000	75.023538 
1053.000000	74.811295 
1052.000000	74.585062 
1051.000000	74.357973 
1050.000000	74.135206 
1049.000000	73.905038 
1048.000000	73.662417 
1047.000000	73.417512 
1046.000000	73.173713 
1045.000000	72.920915 
1044.000000	72.656228 
1043.000000	72.388956 
1042.000000	72.120275 
1041.000000	71.840356 
1040.000000	71.551584 
1039.000000	71.272740 
1038.000000	71.014190 
1037.000000	70.770458 
1036.000000	70.541443 
1035.000000	70.337268 
1034.000000	70.157205 
1033.000000	69.987709 
1032.000000	69.826032 
1031.000000	69.682016 
1030.000000	69.553883 
1029.000000	69.428894 
1028.000000	69.311385 
1027.000000	69.221478 
1026.000000	69.160578 
1025.000000	69.105934 
1024.000000	69.044945 
1023.000000	68.986596 
1022.000000	68.933116 
1021.000000	68.870401 
1020.000000	68.794476 
1019.000000	68.719444 
1018.000000	68.651167 
1017.000000	68.579849 
1016.000000	68.505421 
1015.000000	68.442708 
1014.000000	68.393936 
1013.000000	68.343032 
1012.000000	68.284411 
1011.000000	68.231078 
1010.000000	68.187958 
1009.000000	68.144479 
1008.000000	68.099967 
1007.000000	68.069066 
1006.000000	68.055291 
1005.000000	68.046009 
1004.000000	68.039160 
1003.000000	68.047038 
1002.000000	68.067876 
1001.000000	68.082862 
1000.000000	68.088622 
999.000000	 68.103966 
998.000000	 68.136534 
997.000000	 68.171141 
996.000000	 68.199335 
995.000000	 68.232836 
994.000000	 68.278858 
993.000000	 68.329035 
992.000000	 68.381167 
991.000000	 68.445633 
990.000000	 68.522353 
989.000000	 68.597567 
988.000000	 68.671026 
987.000000	 68.760360 
986.000000	 68.871688 
985.000000	 68.992559 
984.000000	 69.120362 
983.000000	 69.269980 
982.000000	 69.445619 
981.000000	 69.632618 
980.000000	 69.825342 
979.000000	 70.036438 
978.000000	 70.269944 
977.000000	 70.512248 
976.000000	 70.758715 
975.000000	 71.023311 
974.000000	 71.312244 
973.000000	 71.612810 
972.000000	 71.917241 
971.000000	 72.233751 
970.000000	 72.565080 
969.000000	 72.899233 
968.000000	 73.230000 
967.000000	 73.564801 
966.000000	 73.904845 
965.000000	 74.239292 
964.000000	 74.565863 
963.000000	 74.895553 
962.000000	 75.230266 
961.000000	 75.557000 
960.000000	 75.870418 
959.000000	 76.179996 
958.000000	 76.488714 
957.000000	 76.785718 
956.000000	 77.066780 
955.000000	 77.341940 
954.000000	 77.616614 
953.000000	 77.883992 
952.000000	 78.141046 
951.000000	 78.392411 
950.000000	 78.634036 
949.000000	 78.853466 
948.000000	 79.051347 
947.000000	 79.242880 
946.000000	 79.433210 
945.000000	 79.611496 
944.000000	 79.774380 
943.000000	 79.934299 
942.000000	 80.098304 
941.000000	 80.258703 
940.000000	 80.411702 
939.000000	 80.565754 
938.000000	 80.724621 
937.000000	 80.880814 
936.000000	 81.032607 
935.000000	 81.189280 
934.000000	 81.353256 
933.000000	 81.515165 
932.000000	 81.672647 
931.000000	 81.835880 
930.000000	 82.008452 
929.000000	 82.180606 
928.000000	 82.347602 
927.000000	 82.517156 
926.000000	 82.692366 
925.000000	 82.863771 
924.000000	 83.024109 
923.000000	 83.175567 
922.000000	 83.318625 
921.000000	 83.450227 
920.000000	 83.576483 
919.000000	 83.709723 
918.000000	 83.848664 
917.000000	 83.978744 
916.000000	 84.096658 
915.000000	 84.217490 
914.000000	 84.352974 
913.000000	 84.500004 
912.000000	 84.655368 
911.000000	 84.824692 
910.000000	 85.011370 
909.000000	 85.212757 
908.000000	 85.431658 
907.000000	 85.675673 
906.000000	 85.941917 
905.000000	 86.218109 
904.000000	 86.500626 
903.000000	 86.794779 
902.000000	 87.096640 
901.000000	 87.393537 
900.000000	 87.684517 
899.000000	 87.981494 
898.000000	 88.287237 
897.000000	 88.589231 
896.000000	 88.877990 
895.000000	 89.154094 
894.000000	 89.415755 
893.000000	 89.657645 
892.000000	 89.884850 
891.000000	 90.110361 
890.000000	 90.334553 
889.000000	 90.542638 
888.000000	 90.724977 
887.000000	 90.884622 
886.000000	 91.024483 
885.000000	 91.144280 
884.000000	 91.251433 
883.000000	 91.356537 
882.000000	 91.456357 
881.000000	 91.541476 
880.000000	 91.623224 
879.000000	 91.730335 
878.000000	 91.873498 
877.000000	 92.035730 
876.000000	 92.203850 
875.000000	 92.386043 
874.000000	 92.590958 
873.000000	 92.813776 
872.000000	 93.052439 
871.000000	 93.314638 
870.000000	 93.597560 
869.000000	 93.880055 
868.000000	 94.145040 
867.000000	 94.393444 
866.000000	 94.629505 
865.000000	 94.850095 
864.000000	 95.056953 
863.000000	 95.262915 
862.000000	 95.475484 
861.000000	 95.686629 
860.000000	 95.887019 
859.000000	 96.078009 
858.000000	 96.262623 
857.000000	 96.437234 
856.000000	 96.599644 
855.000000	 96.754016 
854.000000	 96.900918 
853.000000	 97.033139 
852.000000	 97.147449 
851.000000	 97.250517 
850.000000	 97.348711 
849.000000	 97.442576 
848.000000	 97.534574 
847.000000	 97.629530 
846.000000	 97.722981 
845.000000	 97.801666 
844.000000	 97.859917 
843.000000	 97.903538 
842.000000	 97.934539 
841.000000	 97.945928 
840.000000	 97.935663 
839.000000	 97.911226 
838.000000	 97.875568 
837.000000	 97.823829 
836.000000	 97.760673 
835.000000	 97.705853 
834.000000	 97.673307 
833.000000	 97.657196 
832.000000	 97.647163 
831.000000	 97.644726 
830.000000	 97.655707 
829.000000	 97.679245 
828.000000	 97.714928 
827.000000	 97.769073 
826.000000	 97.842429 
825.000000	 97.922001 
824.000000	 97.995116 
823.000000	 98.060363 
822.000000	 98.116679 
821.000000	 98.155548 
820.000000	 98.172074 
819.000000	 98.170037 
818.000000	 98.148493 
817.000000	 98.094849 
816.000000	 97.997860 
815.000000	 97.857930 
814.000000	 97.678126 
813.000000	 97.452624 
812.000000	 97.168425 
811.000000	 96.809200 
810.000000	 96.353056 
809.000000	 95.778561 
808.000000	 95.082779 
807.000000	 94.287703 
806.000000	 93.424510 
805.000000	 92.520906 
804.000000	 91.608603 
803.000000	 90.727683 
802.000000	 89.912076 
801.000000	 89.183579 
800.000000	 88.568305 
799.000000	 88.100851 
798.000000	 87.799938 
797.000000	 87.654470 
796.000000	 87.640252 
795.000000	 87.731863 
794.000000	 87.893330 
793.000000	 88.081018 
792.000000	 88.266507 
791.000000	 88.440341 
790.000000	 88.589407 
789.000000	 88.689779 
788.000000	 88.725293 
787.000000	 88.692629 
786.000000	 88.583841 
785.000000	 88.385054 
784.000000	 88.100121 
783.000000	 87.758295 
782.000000	 87.393643 
781.000000	 87.036063 
780.000000	 86.725219 
779.000000	 86.506685 
778.000000	 86.402943 
777.000000	 86.408197 
776.000000	 86.516693 
775.000000	 86.729946 
774.000000	 87.028527 
773.000000	 87.365429 
772.000000	 87.700968 
771.000000	 88.023404 
770.000000	 88.328159 
769.000000	 88.602248 
768.000000	 88.839655 
767.000000	 89.048393 
766.000000	 89.230707 
765.000000	 89.377860 
764.000000	 89.495616 
763.000000	 89.612701 
762.000000	 89.750361 
761.000000	 89.902241 
760.000000	 90.055818 
759.000000	 90.213549 
758.000000	 90.380121 
757.000000	 90.548977 
756.000000	 90.716801 
755.000000	 90.894231 
754.000000	 91.086604 
753.000000	 91.277580 
752.000000	 91.445542 
751.000000	 91.585691 
750.000000	 91.708087 
749.000000	 91.826820 
748.000000	 91.957894 
747.000000	 92.111953 
746.000000	 92.279894 
745.000000	 92.440421 
744.000000	 92.590239 
743.000000	 92.751495 
742.000000	 92.941329 
741.000000	 93.150776 
740.000000	 93.362754 
739.000000	 93.573343 
738.000000	 93.783676 
737.000000	 93.985619 
736.000000	 94.168409 
735.000000	 94.329508 
734.000000	 94.470558 
733.000000	 94.592250 
732.000000	 94.698200 
731.000000	 94.792870 
730.000000	 94.871722 
729.000000	 94.925349 
728.000000	 94.957287 
727.000000	 94.986179 
726.000000	 95.028002 
725.000000	 95.088864 
724.000000	 95.175014 
723.000000	 95.292028 
722.000000	 95.430276 
721.000000	 95.568196 
720.000000	 95.695974 
719.000000	 95.820802 
718.000000	 95.944726 
717.000000	 96.057033 
716.000000	 96.153813 
715.000000	 96.245899 
714.000000	 96.341053 
713.000000	 96.435542 
712.000000	 96.530112 
711.000000	 96.635157 
710.000000	 96.750529 
709.000000	 96.857647 
708.000000	 96.941802 
707.000000	 97.006072 
706.000000	 97.053521 
705.000000	 97.072184 
704.000000	 97.047412 
703.000000	 96.972285 
702.000000	 96.833792 
701.000000	 96.604307 
700.000000	 96.260923 
699.000000	 95.807566 
698.000000	 95.278103 
697.000000	 94.735916 
696.000000	 94.273603 
695.000000	 93.983454 
694.000000	 93.905842 
693.000000	 94.011906 
692.000000	 94.238690 
691.000000	 94.529218 
690.000000	 94.840488 
689.000000	 95.139478 
688.000000	 95.409855 
687.000000	 95.651007 
686.000000	 95.860214 
685.000000	 96.029898 
684.000000	 96.166297 
683.000000	 96.289949 
682.000000	 96.411050 
681.000000	 96.523465 
680.000000	 96.627246 
679.000000	 96.735769 
678.000000	 96.853147 
677.000000	 96.966653 
676.000000	 97.074223 
675.000000	 97.187608 
674.000000	 97.301390 
673.000000	 97.391055 
672.000000	 97.451467 
671.000000	 97.509938 
670.000000	 97.593912 
669.000000	 97.717022 
668.000000	 97.876749 
667.000000	 98.017307 
666.000000	 98.087284 
665.000000	 98.101053 
664.000000	 98.093893 
663.000000	 98.100575 
662.000000	 98.139332 
661.000000	 98.197331 
660.000000	 98.256427 
659.000000	 98.316672 
658.000000	 98.373308 
657.000000	 98.399446 
656.000000	 98.381179 
655.000000	 98.338520 
654.000000	 98.291264 
653.000000	 98.233401 
652.000000	 98.167695 
651.000000	 98.134676 
650.000000	 98.164652 

