4000.000000	96.368144 
3999.000000	96.366046 
3998.000000	96.362462 
3997.000000	96.358922 
3996.000000	96.356635 
3995.000000	96.355826 
3994.000000	96.356016 
3993.000000	96.356489 
3992.000000	96.356514 
3991.000000	96.355581 
3990.000000	96.353838 
3989.000000	96.352141 
3988.000000	96.351326 
3987.000000	96.351651 
3986.000000	96.353006 
3985.000000	96.355172 
3984.000000	96.357579 
3983.000000	96.359309 
3982.000000	96.360009 
3981.000000	96.360342 
3980.000000	96.360922 
3979.000000	96.361248 
3978.000000	96.360480 
3977.000000	96.358907 
3976.000000	96.357823 
3975.000000	96.357793 
3974.000000	96.357906 
3973.000000	96.356951 
3972.000000	96.354581 
3971.000000	96.351312 
3970.000000	96.348022 
3969.000000	96.345765 
3968.000000	96.345389 
3967.000000	96.346798 
3966.000000	96.348885 
3965.000000	96.350371 
3964.000000	96.350518 
3963.000000	96.349272 
3962.000000	96.347179 
3961.000000	96.345120 
3960.000000	96.343600 
3959.000000	96.342458 
3958.000000	96.341399 
3957.000000	96.340684 
3956.000000	96.340678 
3955.000000	96.340847 
3954.000000	96.340210 
3953.000000	96.338374 
3952.000000	96.335856 
3951.000000	96.333357 
3950.000000	96.331135 
3949.000000	96.329190 
3948.000000	96.327385 
3947.000000	96.325670 
3946.000000	96.324412 
3945.000000	96.324249 
3944.000000	96.325280 
3943.000000	96.326616 
3942.000000	96.327547 
3941.000000	96.328368 
3940.000000	96.329583 
3939.000000	96.330981 
3938.000000	96.331723 
3937.000000	96.331319 
3936.000000	96.329918 
3935.000000	96.327575 
3934.000000	96.324393 
3933.000000	96.321119 
3932.000000	96.318986 
3931.000000	96.318187 
3930.000000	96.317733 
3929.000000	96.317294 
3928.000000	96.317771 
3927.000000	96.319793 
3926.000000	96.322132 
3925.000000	96.322631 
3924.000000	96.320856 
3923.000000	96.318105 
3922.000000	96.315329 
3921.000000	96.312798 
3920.000000	96.311116 
3919.000000	96.311150 
3918.000000	96.312455 
3917.000000	96.313362 
3916.000000	96.313112 
3915.000000	96.312640 
3914.000000	96.312934 
3913.000000	96.313912 
3912.000000	96.314983 
3911.000000	96.315969 
3910.000000	96.316486 
3909.000000	96.315880 
3908.000000	96.314013 
3907.000000	96.311281 
3906.000000	96.308133 
3905.000000	96.304097 
3904.000000	96.298781 
3903.000000	96.293403 
3902.000000	96.290099 
3901.000000	96.289950 
3900.000000	96.292181 
3899.000000	96.295032 
3898.000000	96.297354 
3897.000000	96.298681 
3896.000000	96.298776 
3895.000000	96.298096 
3894.000000	96.297620 
3893.000000	96.297971 
3892.000000	96.298331 
3891.000000	96.297270 
3890.000000	96.294738 
3889.000000	96.292009 
3888.000000	96.290341 
3887.000000	96.289901 
3886.000000	96.290090 
3885.000000	96.290262 
3884.000000	96.290000 
3883.000000	96.289061 
3882.000000	96.287708 
3881.000000	96.286728 
3880.000000	96.286605 
3879.000000	96.286845 
3878.000000	96.286696 
3877.000000	96.286152 
3876.000000	96.285752 
3875.000000	96.285589 
3874.000000	96.285196 
3873.000000	96.284367 
3872.000000	96.283404 
3871.000000	96.282502 
3870.000000	96.281627 
3869.000000	96.281018 
3868.000000	96.280866 
3867.000000	96.280873 
3866.000000	96.280612 
3865.000000	96.280182 
3864.000000	96.280117 
3863.000000	96.280493 
3862.000000	96.280689 
3861.000000	96.280491 
3860.000000	96.280358 
3859.000000	96.280597 
3858.000000	96.280830 
3857.000000	96.280491 
3856.000000	96.279527 
3855.000000	96.278280 
3854.000000	96.276754 
3853.000000	96.275219 
3852.000000	96.274457 
3851.000000	96.274657 
3850.000000	96.275181 
3849.000000	96.275731 
3848.000000	96.276630 
3847.000000	96.278142 
3846.000000	96.279590 
3845.000000	96.280070 
3844.000000	96.279431 
3843.000000	96.278061 
3842.000000	96.276406 
3841.000000	96.275096 
3840.000000	96.274493 
3839.000000	96.274717 
3838.000000	96.275622 
3837.000000	96.276473 
3836.000000	96.276730 
3835.000000	96.276586 
3834.000000	96.276688 
3833.000000	96.277488 
3832.000000	96.278817 
3831.000000	96.280244 
3830.000000	96.281462 
3829.000000	96.282455 
3828.000000	96.283579 
3827.000000	96.284912 
3826.000000	96.285647 
3825.000000	96.285104 
3824.000000	96.283449 
3823.000000	96.281769 
3822.000000	96.281120 
3821.000000	96.281368 
3820.000000	96.281881 
3819.000000	96.282254 
3818.000000	96.282624 
3817.000000	96.283627 
3816.000000	96.286086 
3815.000000	96.290130 
3814.000000	96.294244 
3813.000000	96.296319 
3812.000000	96.295883 
3811.000000	96.294861 
3810.000000	96.295441 
3809.000000	96.297574 
3808.000000	96.299032 
3807.000000	96.298020 
3806.000000	96.295057 
3805.000000	96.291769 
3804.000000	96.289004 
3803.000000	96.287696 
3802.000000	96.288462 
3801.000000	96.290760 
3800.000000	96.293195 
3799.000000	96.293932 
3798.000000	96.293013 
3797.000000	96.293197 
3796.000000	96.297037 
3795.000000	96.303610 
3794.000000	96.309112 
3793.000000	96.311115 
3792.000000	96.311085 
3791.000000	96.312345 
3790.000000	96.315426 
3789.000000	96.317562 
3788.000000	96.316943 
3787.000000	96.314886 
3786.000000	96.313509 
3785.000000	96.312830 
3784.000000	96.311423 
3783.000000	96.309008 
3782.000000	96.306315 
3781.000000	96.304143 
3780.000000	96.303326 
3779.000000	96.304799 
3778.000000	96.308140 
3777.000000	96.311336 
3776.000000	96.312197 
3775.000000	96.310066 
3774.000000	96.306253 
3773.000000	96.302755 
3772.000000	96.300397 
3771.000000	96.298136 
3770.000000	96.295096 
3769.000000	96.292325 
3768.000000	96.290814 
3767.000000	96.290001 
3766.000000	96.289175 
3765.000000	96.288420 
3764.000000	96.288685 
3763.000000	96.289924 
3762.000000	96.290000 
3761.000000	96.287384 
3760.000000	96.283657 
3759.000000	96.281980 
3758.000000	96.280663 
3757.000000	96.275480 
3756.000000	96.266949 
3755.000000	96.258353 
3754.000000	96.250513 
3753.000000	96.241695 
3752.000000	96.233397 
3751.000000	96.229339 
3750.000000	96.226109 
3749.000000	96.217182 
3748.000000	96.204892 
3747.000000	96.197867 
3746.000000	96.200583 
3745.000000	96.208046 
3744.000000	96.217363 
3743.000000	96.228554 
3742.000000	96.234736 
3741.000000	96.229050 
3740.000000	96.215474 
3739.000000	96.207543 
3738.000000	96.212634 
3737.000000	96.221744 
3736.000000	96.224269 
3735.000000	96.223402 
3734.000000	96.227832 
3733.000000	96.235807 
3732.000000	96.240932 
3731.000000	96.243442 
3730.000000	96.245958 
3729.000000	96.247758 
3728.000000	96.247311 
3727.000000	96.245583 
3726.000000	96.245375 
3725.000000	96.246406 
3724.000000	96.245322 
3723.000000	96.241576 
3722.000000	96.239007 
3721.000000	96.240325 
3720.000000	96.242411 
3719.000000	96.242522 
3718.000000	96.240626 
3717.000000	96.236663 
3716.000000	96.230614 
3715.000000	96.221276 
3714.000000	96.208204 
3713.000000	96.194463 
3712.000000	96.183645 
3711.000000	96.175571 
3710.000000	96.166860 
3709.000000	96.156859 
3708.000000	96.147494 
3707.000000	96.138340 
3706.000000	96.127709 
3705.000000	96.115250 
3704.000000	96.102243 
3703.000000	96.089592 
3702.000000	96.075230 
3701.000000	96.056122 
3700.000000	96.032610 
3699.000000	96.009631 
3698.000000	95.992759 
3697.000000	95.983123 
3696.000000	95.978786 
3695.000000	95.976571 
3694.000000	95.971962 
3693.000000	95.962882 
3692.000000	95.952360 
3691.000000	95.945023 
3690.000000	95.939741 
3689.000000	95.932818 
3688.000000	95.925480 
3687.000000	95.920557 
3686.000000	95.917256 
3685.000000	95.911929 
3684.000000	95.903229 
3683.000000	95.894959 
3682.000000	95.890397 
3681.000000	95.883854 
3680.000000	95.865732 
3679.000000	95.834042 
3678.000000	95.797544 
3677.000000	95.763555 
3676.000000	95.729499 
3675.000000	95.695300 
3674.000000	95.664898 
3673.000000	95.637701 
3672.000000	95.610397 
3671.000000	95.585102 
3670.000000	95.567013 
3669.000000	95.556169 
3668.000000	95.545318 
3667.000000	95.529068 
3666.000000	95.510643 
3665.000000	95.494997 
3664.000000	95.481263 
3663.000000	95.465248 
3662.000000	95.443642 
3661.000000	95.415401 
3660.000000	95.382342 
3659.000000	95.346678 
3658.000000	95.310077 
3657.000000	95.271594 
3656.000000	95.230632 
3655.000000	95.190374 
3654.000000	95.153321 
3653.000000	95.118632 
3652.000000	95.083077 
3651.000000	95.043417 
3650.000000	94.998424 
3649.000000	94.951014 
3648.000000	94.909358 
3647.000000	94.882241 
3646.000000	94.872291 
3645.000000	94.874220 
3644.000000	94.879027 
3643.000000	94.880094 
3642.000000	94.874787 
3641.000000	94.863000 
3640.000000	94.845434 
3639.000000	94.822279 
3638.000000	94.795022 
3637.000000	94.766282 
3636.000000	94.737446 
3635.000000	94.706888 
3634.000000	94.673153 
3633.000000	94.638867 
3632.000000	94.607090 
3631.000000	94.575312 
3630.000000	94.536067 
3629.000000	94.489239 
3628.000000	94.448898 
3627.000000	94.427284 
3626.000000	94.422420 
3625.000000	94.427799 
3624.000000	94.439732 
3623.000000	94.455214 
3622.000000	94.468966 
3621.000000	94.474387 
3620.000000	94.468621 
3619.000000	94.456742 
3618.000000	94.448044 
3617.000000	94.449444 
3616.000000	94.464249 
3615.000000	94.491037 
3614.000000	94.522931 
3613.000000	94.552047 
3612.000000	94.574572 
3611.000000	94.590716 
3610.000000	94.603111 
3609.000000	94.615711 
3608.000000	94.631444 
3607.000000	94.650630 
3606.000000	94.671702 
3605.000000	94.694587 
3604.000000	94.721180 
3603.000000	94.750930 
3602.000000	94.778459 
3601.000000	94.796504 
3600.000000	94.802886 
3599.000000	94.802573 
3598.000000	94.802820 
3597.000000	94.807677 
3596.000000	94.817782 
3595.000000	94.829480 
3594.000000	94.837523 
3593.000000	94.840096 
3592.000000	94.839010 
3591.000000	94.837224 
3590.000000	94.836935 
3589.000000	94.838365 
3588.000000	94.840092 
3587.000000	94.841364 
3586.000000	94.843760 
3585.000000	94.849798 
3584.000000	94.861423 
3583.000000	94.878171 
3582.000000	94.896954 
3581.000000	94.912834 
3580.000000	94.922092 
3579.000000	94.924344 
3578.000000	94.922003 
3577.000000	94.918419 
3576.000000	94.915976 
3575.000000	94.915554 
3574.000000	94.915948 
3573.000000	94.915074 
3572.000000	94.910927 
3571.000000	94.902634 
3570.000000	94.890849 
3569.000000	94.877342 
3568.000000	94.864350 
3567.000000	94.854369 
3566.000000	94.849062 
3565.000000	94.848460 
3564.000000	94.851779 
3563.000000	94.858358 
3562.000000	94.866765 
3561.000000	94.874390 
3560.000000	94.878611 
3559.000000	94.878792 
3558.000000	94.876601 
3557.000000	94.874442 
3556.000000	94.873445 
3555.000000	94.873033 
3554.000000	94.871770 
3553.000000	94.868563 
3552.000000	94.863662 
3551.000000	94.858123 
3550.000000	94.852825 
3549.000000	94.848296 
3548.000000	94.844928 
3547.000000	94.842411 
3546.000000	94.839650 
3545.000000	94.836328 
3544.000000	94.834370 
3543.000000	94.836232 
3542.000000	94.841879 
3541.000000	94.848684 
3540.000000	94.853956 
3539.000000	94.856640 
3538.000000	94.856867 
3537.000000	94.855064 
3536.000000	94.852120 
3535.000000	94.848931 
3534.000000	94.845898 
3533.000000	94.843121 
3532.000000	94.841090 
3531.000000	94.840461 
3530.000000	94.840849 
3529.000000	94.840610 
3528.000000	94.838319 
3527.000000	94.834328 
3526.000000	94.830492 
3525.000000	94.828507 
3524.000000	94.828801 
3523.000000	94.830659 
3522.000000	94.832877 
3521.000000	94.834538 
3520.000000	94.835557 
3519.000000	94.836337 
3518.000000	94.837075 
3517.000000	94.837330 
3516.000000	94.836519 
3515.000000	94.834600 
3514.000000	94.832284 
3513.000000	94.830500 
3512.000000	94.829508 
3511.000000	94.828682 
3510.000000	94.827304 
3509.000000	94.825480 
3508.000000	94.824055 
3507.000000	94.823568 
3506.000000	94.823523 
3505.000000	94.822814 
3504.000000	94.820906 
3503.000000	94.818373 
3502.000000	94.816331 
3501.000000	94.815480 
3500.000000	94.815804 
3499.000000	94.816785 
3498.000000	94.817567 
3497.000000	94.817221 
3496.000000	94.815257 
3495.000000	94.812089 
3494.000000	94.808919 
3493.000000	94.806907 
3492.000000	94.806187 
3491.000000	94.805686 
3490.000000	94.804223 
3489.000000	94.801686 
3488.000000	94.798767 
3487.000000	94.795778 
3486.000000	94.792408 
3485.000000	94.788752 
3484.000000	94.785756 
3483.000000	94.784105 
3482.000000	94.783262 
3481.000000	94.782206 
3480.000000	94.780709 
3479.000000	94.779183 
3478.000000	94.777676 
3477.000000	94.775756 
3476.000000	94.773183 
3475.000000	94.770182 
3474.000000	94.767054 
3473.000000	94.763938 
3472.000000	94.760940 
3471.000000	94.758062 
3470.000000	94.755088 
3469.000000	94.751892 
3468.000000	94.748715 
3467.000000	94.746004 
3466.000000	94.743959 
3465.000000	94.742188 
3464.000000	94.739737 
3463.000000	94.735567 
3462.000000	94.729351 
3461.000000	94.722023 
3460.000000	94.715234 
3459.000000	94.709929 
3458.000000	94.705635 
3457.000000	94.701203 
3456.000000	94.696271 
3455.000000	94.691659 
3454.000000	94.688495 
3453.000000	94.686978 
3452.000000	94.686230 
3451.000000	94.685214 
3450.000000	94.683467 
3449.000000	94.680955 
3448.000000	94.677510 
3447.000000	94.672803 
3446.000000	94.666850 
3445.000000	94.660440 
3444.000000	94.654868 
3443.000000	94.651037 
3442.000000	94.648700 
3441.000000	94.646589 
3440.000000	94.643503 
3439.000000	94.639178 
3438.000000	94.634107 
3437.000000	94.628877 
3436.000000	94.624121 
3435.000000	94.620727 
3434.000000	94.619391 
3433.000000	94.619579 
3432.000000	94.619546 
3431.000000	94.617931 
3430.000000	94.614923 
3429.000000	94.611670 
3428.000000	94.608779 
3427.000000	94.605894 
3426.000000	94.602734 
3425.000000	94.599961 
3424.000000	94.598485 
3423.000000	94.597973 
3422.000000	94.596715 
3421.000000	94.593442 
3420.000000	94.588926 
3419.000000	94.585137 
3418.000000	94.583077 
3417.000000	94.582228 
3416.000000	94.581843 
3415.000000	94.581738 
3414.000000	94.581535 
3413.000000	94.580144 
3412.000000	94.576862 
3411.000000	94.572630 
3410.000000	94.569476 
3409.000000	94.568712 
3408.000000	94.569975 
3407.000000	94.571734 
3406.000000	94.572512 
3405.000000	94.571841 
3404.000000	94.570365 
3403.000000	94.568978 
3402.000000	94.568022 
3401.000000	94.567439 
3400.000000	94.567339 
3399.000000	94.567787 
3398.000000	94.568161 
3397.000000	94.567603 
3396.000000	94.566312 
3395.000000	94.565721 
3394.000000	94.566879 
3393.000000	94.569082 
3392.000000	94.570500 
3391.000000	94.570074 
3390.000000	94.568473 
3389.000000	94.567301 
3388.000000	94.567764 
3387.000000	94.569989 
3386.000000	94.573111 
3385.000000	94.575676 
3384.000000	94.576401 
3383.000000	94.575139 
3382.000000	94.573421 
3381.000000	94.573478 
3380.000000	94.576177 
3379.000000	94.580144 
3378.000000	94.583413 
3377.000000	94.585981 
3376.000000	94.589647 
3375.000000	94.595214 
3374.000000	94.600960 
3373.000000	94.604545 
3372.000000	94.605742 
3371.000000	94.606462 
3370.000000	94.608482 
3369.000000	94.611875 
3368.000000	94.615560 
3367.000000	94.618551 
3366.000000	94.620504 
3365.000000	94.621643 
3364.000000	94.622531 
3363.000000	94.623625 
3362.000000	94.624852 
3361.000000	94.625838 
3360.000000	94.626749 
3359.000000	94.628552 
3358.000000	94.632082 
3357.000000	94.637004 
3356.000000	94.641951 
3355.000000	94.645829 
3354.000000	94.648846 
3353.000000	94.652140 
3352.000000	94.656497 
3351.000000	94.661591 
3350.000000	94.666407 
3349.000000	94.670293 
3348.000000	94.673497 
3347.000000	94.676776 
3346.000000	94.680600 
3345.000000	94.684668 
3344.000000	94.688127 
3343.000000	94.690294 
3342.000000	94.691276 
3341.000000	94.692059 
3340.000000	94.693657 
3339.000000	94.696136 
3338.000000	94.698869 
3337.000000	94.701462 
3336.000000	94.704135 
3335.000000	94.707227 
3334.000000	94.710674 
3333.000000	94.714115 
3332.000000	94.717325 
3331.000000	94.720360 
3330.000000	94.723364 
3329.000000	94.726420 
3328.000000	94.729590 
3327.000000	94.732944 
3326.000000	94.736480 
3325.000000	94.740069 
3324.000000	94.743545 
3323.000000	94.746839 
3322.000000	94.750015 
3321.000000	94.753189 
3320.000000	94.756434 
3319.000000	94.759750 
3318.000000	94.763098 
3317.000000	94.766447 
3316.000000	94.769778 
3315.000000	94.773085 
3314.000000	94.776365 
3313.000000	94.779625 
3312.000000	94.782881 
3311.000000	94.786157 
3310.000000	94.789469 
3309.000000	94.792819 
3308.000000	94.796196 
3307.000000	94.799574 
3306.000000	94.802935 
3305.000000	94.806280 
3304.000000	94.809634 
3303.000000	94.813035 
3302.000000	94.816510 
3301.000000	94.820063 
3300.000000	94.823658 
3299.000000	94.827221 
3298.000000	94.830687 
3297.000000	94.834048 
3296.000000	94.837401 
3295.000000	94.840874 
3294.000000	94.844547 
3293.000000	94.848408 
3292.000000	94.852386 
3291.000000	94.856383 
3290.000000	94.860289 
3289.000000	94.864021 
3288.000000	94.867576 
3287.000000	94.871039 
3286.000000	94.874485 
3285.000000	94.877899 
3284.000000	94.881224 
3283.000000	94.884486 
3282.000000	94.887842 
3281.000000	94.891428 
3280.000000	94.895166 
3279.000000	94.898763 
3278.000000	94.902039 
3277.000000	94.905171 
3276.000000	94.908501 
3275.000000	94.912118 
3274.000000	94.915835 
3273.000000	94.919625 
3272.000000	94.923776 
3271.000000	94.928483 
3270.000000	94.933488 
3269.000000	94.938218 
3268.000000	94.942269 
3267.000000	94.945670 
3266.000000	94.948844 
3265.000000	94.952339 
3264.000000	94.956443 
3263.000000	94.960985 
3262.000000	94.965488 
3261.000000	94.969624 
3260.000000	94.973415 
3259.000000	94.977016 
3258.000000	94.980493 
3257.000000	94.983923 
3256.000000	94.987540 
3255.000000	94.991512 
3254.000000	94.995688 
3253.000000	94.999784 
3252.000000	95.003778 
3251.000000	95.007893 
3250.000000	95.012188 
3249.000000	95.016408 
3248.000000	95.020302 
3247.000000	95.023953 
3246.000000	95.027683 
3245.000000	95.031700 
3244.000000	95.035920 
3243.000000	95.040107 
3242.000000	95.044112 
3241.000000	95.047976 
3240.000000	95.051847 
3239.000000	95.055879 
3238.000000	95.060191 
3237.000000	95.064846 
3236.000000	95.069781 
3235.000000	95.074752 
3234.000000	95.079439 
3233.000000	95.083682 
3232.000000	95.087564 
3231.000000	95.091383 
3230.000000	95.095415 
3229.000000	95.099701 
3228.000000	95.104067 
3227.000000	95.108364 
3226.000000	95.112699 
3225.000000	95.117283 
3224.000000	95.122109 
3223.000000	95.126942 
3222.000000	95.131577 
3221.000000	95.136010 
3220.000000	95.140348 
3219.000000	95.144647 
3218.000000	95.148929 
3217.000000	95.153282 
3216.000000	95.157795 
3215.000000	95.162467 
3214.000000	95.167216 
3213.000000	95.171960 
3212.000000	95.176634 
3211.000000	95.181181 
3210.000000	95.185592 
3209.000000	95.189944 
3208.000000	95.194326 
3207.000000	95.198736 
3206.000000	95.203124 
3205.000000	95.207509 
3204.000000	95.211999 
3203.000000	95.216662 
3202.000000	95.221448 
3201.000000	95.226243 
3200.000000	95.230966 
3199.000000	95.235612 
3198.000000	95.240218 
3197.000000	95.244818 
3196.000000	95.249408 
3195.000000	95.253961 
3194.000000	95.258489 
3193.000000	95.263069 
3192.000000	95.267764 
3191.000000	95.272518 
3190.000000	95.277164 
3189.000000	95.281594 
3188.000000	95.285857 
3187.000000	95.290160 
3186.000000	95.294682 
3185.000000	95.299450 
3184.000000	95.304330 
3183.000000	95.309130 
3182.000000	95.313786 
3181.000000	95.318378 
3180.000000	95.322972 
3179.000000	95.327492 
3178.000000	95.331837 
3177.000000	95.336077 
3176.000000	95.340425 
3175.000000	95.345013 
3174.000000	95.349800 
3173.000000	95.354652 
3172.000000	95.359422 
3171.000000	95.363969 
3170.000000	95.368231 
3169.000000	95.372325 
3168.000000	95.376466 
3167.000000	95.380727 
3166.000000	95.385001 
3165.000000	95.389200 
3164.000000	95.393356 
3163.000000	95.397503 
3162.000000	95.401594 
3161.000000	95.405602 
3160.000000	95.409599 
3159.000000	95.413674 
3158.000000	95.417822 
3157.000000	95.421997 
3156.000000	95.426197 
3155.000000	95.430442 
3154.000000	95.434701 
3153.000000	95.438922 
3152.000000	95.443086 
3151.000000	95.447189 
3150.000000	95.451180 
3149.000000	95.454982 
3148.000000	95.458586 
3147.000000	95.462127 
3146.000000	95.465881 
3145.000000	95.470087 
3144.000000	95.474747 
3143.000000	95.479485 
3142.000000	95.483778 
3141.000000	95.487427 
3140.000000	95.490676 
3139.000000	95.493995 
3138.000000	95.497645 
3137.000000	95.501560 
3136.000000	95.505450 
3135.000000	95.508969 
3134.000000	95.511955 
3133.000000	95.514653 
3132.000000	95.517560 
3131.000000	95.520945 
3130.000000	95.524725 
3129.000000	95.528838 
3128.000000	95.533430 
3127.000000	95.538481 
3126.000000	95.543503 
3125.000000	95.547897 
3124.000000	95.551508 
3123.000000	95.554597 
3122.000000	95.557406 
3121.000000	95.560035 
3120.000000	95.562669 
3119.000000	95.565587 
3118.000000	95.568931 
3117.000000	95.572689 
3116.000000	95.576804 
3115.000000	95.581110 
3114.000000	95.585286 
3113.000000	95.589177 
3112.000000	95.593115 
3111.000000	95.597604 
3110.000000	95.602561 
3109.000000	95.607157 
3108.000000	95.610627 
3107.000000	95.613082 
3106.000000	95.615269 
3105.000000	95.617532 
3104.000000	95.619342 
3103.000000	95.620110 
3102.000000	95.620184 
3101.000000	95.620743 
3100.000000	95.622659 
3099.000000	95.625860 
3098.000000	95.629895 
3097.000000	95.634632 
3096.000000	95.640008 
3095.000000	95.645391 
3094.000000	95.649925 
3093.000000	95.653421 
3092.000000	95.656432 
3091.000000	95.659364 
3090.000000	95.661996 
3089.000000	95.664008 
3088.000000	95.665540 
3087.000000	95.667134 
3086.000000	95.669345 
3085.000000	95.672353 
3084.000000	95.675629 
3083.000000	95.678195 
3082.000000	95.679601 
3081.000000	95.680587 
3080.000000	95.682320 
3079.000000	95.685012 
3078.000000	95.687899 
3077.000000	95.690534 
3076.000000	95.693323 
3075.000000	95.696458 
3074.000000	95.699164 
3073.000000	95.700667 
3072.000000	95.701313 
3071.000000	95.702039 
3070.000000	95.703127 
3069.000000	95.704300 
3068.000000	95.705694 
3067.000000	95.707806 
3066.000000	95.710529 
3065.000000	95.713048 
3064.000000	95.714797 
3063.000000	95.715857 
3062.000000	95.716376 
3061.000000	95.716412 
3060.000000	95.716499 
3059.000000	95.717647 
3058.000000	95.720429 
3057.000000	95.724423 
3056.000000	95.728585 
3055.000000	95.731797 
3054.000000	95.733122 
3053.000000	95.732358 
3052.000000	95.730782 
3051.000000	95.730594 
3050.000000	95.732883 
3049.000000	95.736640 
3048.000000	95.739998 
3047.000000	95.742032 
3046.000000	95.742842 
3045.000000	95.742638 
3044.000000	95.741757 
3043.000000	95.741339 
3042.000000	95.742844 
3041.000000	95.746409 
3040.000000	95.750163 
3039.000000	95.751813 
3038.000000	95.750788 
3037.000000	95.748431 
3036.000000	95.746312 
3035.000000	95.744647 
3034.000000	95.742694 
3033.000000	95.740283 
3032.000000	95.738231 
3031.000000	95.737294 
3030.000000	95.737380 
3029.000000	95.737990 
3028.000000	95.738678 
3027.000000	95.738678 
3026.000000	95.736873 
3025.000000	95.733043 
3024.000000	95.728840 
3023.000000	95.726509 
3022.000000	95.726582 
3021.000000	95.727693 
3020.000000	95.728520 
3019.000000	95.728827 
3018.000000	95.728397 
3017.000000	95.726209 
3016.000000	95.721599 
3015.000000	95.715648 
3014.000000	95.710717 
3013.000000	95.708591 
3012.000000	95.709180 
3011.000000	95.710517 
3010.000000	95.709999 
3009.000000	95.706259 
3008.000000	95.700110 
3007.000000	95.693528 
3006.000000	95.687688 
3005.000000	95.682458 
3004.000000	95.677636 
3003.000000	95.673794 
3002.000000	95.671748 
3001.000000	95.671834 
3000.000000	95.673702 
2999.000000	95.675995 
2998.000000	95.676285 
2997.000000	95.672563 
2996.000000	95.665302 
2995.000000	95.657390 
2994.000000	95.651439 
2993.000000	95.647580 
2992.000000	95.644065 
2991.000000	95.639302 
2990.000000	95.633115 
2989.000000	95.626795 
2988.000000	95.622360 
2987.000000	95.621199 
2986.000000	95.623078 
2985.000000	95.626744 
2984.000000	95.631315 
2983.000000	95.636401 
2982.000000	95.641152 
2981.000000	95.644371 
2980.000000	95.645779 
2979.000000	95.646038 
2978.000000	95.645294 
2977.000000	95.643007 
2976.000000	95.639695 
2975.000000	95.637559 
2974.000000	95.638413 
2973.000000	95.641915 
2972.000000	95.646533 
2971.000000	95.651367 
2970.000000	95.656174 
2969.000000	95.660523 
2968.000000	95.664002 
2967.000000	95.666681 
2966.000000	95.668603 
2965.000000	95.669565 
2964.000000	95.670229 
2963.000000	95.672568 
2962.000000	95.677989 
2961.000000	95.685405 
2960.000000	95.692299 
2959.000000	95.697508 
2958.000000	95.702043 
2957.000000	95.707321 
2956.000000	95.713485 
2955.000000	95.719390 
2954.000000	95.723695 
2953.000000	95.726197 
2952.000000	95.728523 
2951.000000	95.732960 
2950.000000	95.739785 
2949.000000	95.746256 
2948.000000	95.749278 
2947.000000	95.748616 
2946.000000	95.746699 
2945.000000	95.745695 
2944.000000	95.745889 
2943.000000	95.746674 
2942.000000	95.747522 
2941.000000	95.747737 
2940.000000	95.746642 
2939.000000	95.744677 
2938.000000	95.743337 
2937.000000	95.743366 
2936.000000	95.743682 
2935.000000	95.742602 
2934.000000	95.739576 
2933.000000	95.735355 
2932.000000	95.731200 
2931.000000	95.728460 
2930.000000	95.728219 
2929.000000	95.730541 
2928.000000	95.734157 
2927.000000	95.737348 
2926.000000	95.739254 
2925.000000	95.740344 
2924.000000	95.741905 
2923.000000	95.745077 
2922.000000	95.749797 
2921.000000	95.754494 
2920.000000	95.757543 
2919.000000	95.759314 
2918.000000	95.761960 
2917.000000	95.766609 
2916.000000	95.771563 
2915.000000	95.774199 
2914.000000	95.774243 
2913.000000	95.774072 
2912.000000	95.775842 
2911.000000	95.779292 
2910.000000	95.782704 
2909.000000	95.785176 
2908.000000	95.787281 
2907.000000	95.789816 
2906.000000	95.792634 
2905.000000	95.794741 
2904.000000	95.795373 
2903.000000	95.794820 
2902.000000	95.794809 
2901.000000	95.797066 
2900.000000	95.801890 
2899.000000	95.808066 
2898.000000	95.814019 
2897.000000	95.819159 
2896.000000	95.823605 
2895.000000	95.827225 
2894.000000	95.829781 
2893.000000	95.831957 
2892.000000	95.835234 
2891.000000	95.840226 
2890.000000	95.845766 
2889.000000	95.850220 
2888.000000	95.853327 
2887.000000	95.856034 
2886.000000	95.858868 
2885.000000	95.861371 
2884.000000	95.863316 
2883.000000	95.865577 
2882.000000	95.869164 
2881.000000	95.873913 
2880.000000	95.878782 
2879.000000	95.883318 
2878.000000	95.888108 
2877.000000	95.893596 
2876.000000	95.899147 
2875.000000	95.903746 
2874.000000	95.907162 
2873.000000	95.909944 
2872.000000	95.912551 
2871.000000	95.915000 
2870.000000	95.917296 
2869.000000	95.919707 
2868.000000	95.922481 
2867.000000	95.925581 
2866.000000	95.928816 
2865.000000	95.932038 
2864.000000	95.935236 
2863.000000	95.938706 
2862.000000	95.943066 
2861.000000	95.948643 
2860.000000	95.954731 
2859.000000	95.959934 
2858.000000	95.963593 
2857.000000	95.966557 
2856.000000	95.970255 
2855.000000	95.975095 
2854.000000	95.980086 
2853.000000	95.983962 
2852.000000	95.986373 
2851.000000	95.988047 
2850.000000	95.990168 
2849.000000	95.993588 
2848.000000	95.998341 
2847.000000	96.003685 
2846.000000	96.008740 
2845.000000	96.013189 
2844.000000	96.017342 
2843.000000	96.021637 
2842.000000	96.026312 
2841.000000	96.031373 
2840.000000	96.036469 
2839.000000	96.040774 
2838.000000	96.043541 
2837.000000	96.044991 
2836.000000	96.046453 
2835.000000	96.049278 
2834.000000	96.053663 
2833.000000	96.058721 
2832.000000	96.063443 
2831.000000	96.067315 
2830.000000	96.070174 
2829.000000	96.071980 
2828.000000	96.073035 
2827.000000	96.074220 
2826.000000	96.076614 
2825.000000	96.080658 
2824.000000	96.085647 
2823.000000	96.090111 
2822.000000	96.092896 
2821.000000	96.093935 
2820.000000	96.094098 
2819.000000	96.094387 
2818.000000	96.095266 
2817.000000	96.096674 
2816.000000	96.098435 
2815.000000	96.100485 
2814.000000	96.102708 
2813.000000	96.104701 
2812.000000	96.105918 
2811.000000	96.106202 
2810.000000	96.106193 
2809.000000	96.106975 
2808.000000	96.109138 
2807.000000	96.112342 
2806.000000	96.115792 
2805.000000	96.118958 
2804.000000	96.121646 
2803.000000	96.123654 
2802.000000	96.124888 
2801.000000	96.125812 
2800.000000	96.127244 
2799.000000	96.129434 
2798.000000	96.131685 
2797.000000	96.133164 
2796.000000	96.133855 
2795.000000	96.134479 
2794.000000	96.135665 
2793.000000	96.137442 
2792.000000	96.139509 
2791.000000	96.141589 
2790.000000	96.143503 
2789.000000	96.145145 
2788.000000	96.146541 
2787.000000	96.147871 
2786.000000	96.149334 
2785.000000	96.150982 
2784.000000	96.152713 
2783.000000	96.154409 
2782.000000	96.156040 
2781.000000	96.157642 
2780.000000	96.159244 
2779.000000	96.160837 
2778.000000	96.162400 
2777.000000	96.163912 
2776.000000	96.165362 
2775.000000	96.166767 
2774.000000	96.168163 
2773.000000	96.169585 
2772.000000	96.171034 
2771.000000	96.172473 
2770.000000	96.173871 
2769.000000	96.175243 
2768.000000	96.176637 
2767.000000	96.178071 
2766.000000	96.179502 
2765.000000	96.180873 
2764.000000	96.182175 
2763.000000	96.183437 
2762.000000	96.184660 
2761.000000	96.185818 
2760.000000	96.186925 
2759.000000	96.188062 
2758.000000	96.189302 
2757.000000	96.190593 
2756.000000	96.191776 
2755.000000	96.192764 
2754.000000	96.193652 
2753.000000	96.194654 
2752.000000	96.195868 
2751.000000	96.197213 
2750.000000	96.198520 
2749.000000	96.199721 
2748.000000	96.200831 
2747.000000	96.201793 
2746.000000	96.202514 
2745.000000	96.203048 
2744.000000	96.203614 
2743.000000	96.204367 
2742.000000	96.205289 
2741.000000	96.206257 
2740.000000	96.207191 
2739.000000	96.208090 
2738.000000	96.208969 
2737.000000	96.209834 
2736.000000	96.210700 
2735.000000	96.211586 
2734.000000	96.212498 
2733.000000	96.213424 
2732.000000	96.214350 
2731.000000	96.215270 
2730.000000	96.216186 
2729.000000	96.217098 
2728.000000	96.217997 
2727.000000	96.218862 
2726.000000	96.219677 
2725.000000	96.220453 
2724.000000	96.221221 
2723.000000	96.221999 
2722.000000	96.222785 
2721.000000	96.223573 
2720.000000	96.224367 
2719.000000	96.225173 
2718.000000	96.225992 
2717.000000	96.226821 
2716.000000	96.227653 
2715.000000	96.228480 
2714.000000	96.229304 
2713.000000	96.230129 
2712.000000	96.230962 
2711.000000	96.231794 
2710.000000	96.232610 
2709.000000	96.233406 
2708.000000	96.234195 
2707.000000	96.234991 
2706.000000	96.235803 
2705.000000	96.236632 
2704.000000	96.237471 
2703.000000	96.238290 
2702.000000	96.239046 
2701.000000	96.239734 
2700.000000	96.240443 
2699.000000	96.241284 
2698.000000	96.242276 
2697.000000	96.243241 
2696.000000	96.243962 
2695.000000	96.244372 
2694.000000	96.244632 
2693.000000	96.244970 
2692.000000	96.245457 
2691.000000	96.245997 
2690.000000	96.246450 
2689.000000	96.246764 
2688.000000	96.246968 
2687.000000	96.247085 
2686.000000	96.247142 
2685.000000	96.247282 
2684.000000	96.247725 
2683.000000	96.248522 
2682.000000	96.249416 
2681.000000	96.250067 
2680.000000	96.250418 
2679.000000	96.250718 
2678.000000	96.251233 
2677.000000	96.252005 
2676.000000	96.252816 
2675.000000	96.253248 
2674.000000	96.252945 
2673.000000	96.252025 
2672.000000	96.251153 
2671.000000	96.250863 
2670.000000	96.250919 
2669.000000	96.250716 
2668.000000	96.250178 
2667.000000	96.249798 
2666.000000	96.249785 
2665.000000	96.249671 
2664.000000	96.249033 
2663.000000	96.248186 
2662.000000	96.247771 
2661.000000	96.247836 
2660.000000	96.247754 
2659.000000	96.246999 
2658.000000	96.245703 
2657.000000	96.244462 
2656.000000	96.243783 
2655.000000	96.243668 
2654.000000	96.243604 
2653.000000	96.243002 
2652.000000	96.241805 
2651.000000	96.240608 
2650.000000	96.240060 
2649.000000	96.240201 
2648.000000	96.240507 
2647.000000	96.240473 
2646.000000	96.239957 
2645.000000	96.239029 
2644.000000	96.237810 
2643.000000	96.236579 
2642.000000	96.235756 
2641.000000	96.235551 
2640.000000	96.235753 
2639.000000	96.235990 
2638.000000	96.236098 
2637.000000	96.236101 
2636.000000	96.236002 
2635.000000	96.235817 
2634.000000	96.235714 
2633.000000	96.235875 
2632.000000	96.236201 
2631.000000	96.236335 
2630.000000	96.236065 
2629.000000	96.235554 
2628.000000	96.235144 
2627.000000	96.235004 
2626.000000	96.235083 
2625.000000	96.235321 
2624.000000	96.235731 
2623.000000	96.236280 
2622.000000	96.236775 
2621.000000	96.236921 
2620.000000	96.236511 
2619.000000	96.235588 
2618.000000	96.234544 
2617.000000	96.233950 
2616.000000	96.234120 
2615.000000	96.234898 
2614.000000	96.235796 
2613.000000	96.236446 
2612.000000	96.236823 
2611.000000	96.237101 
2610.000000	96.237470 
2609.000000	96.238044 
2608.000000	96.238778 
2607.000000	96.239475 
2606.000000	96.239995 
2605.000000	96.240408 
2604.000000	96.240791 
2603.000000	96.240968 
2602.000000	96.240737 
2601.000000	96.240287 
2600.000000	96.240080 
2599.000000	96.240278 
2598.000000	96.240589 
2597.000000	96.240731 
2596.000000	96.240777 
2595.000000	96.240889 
2594.000000	96.240968 
2593.000000	96.240891 
2592.000000	96.240967 
2591.000000	96.241631 
2590.000000	96.242726 
2589.000000	96.243518 
2588.000000	96.243589 
2587.000000	96.243334 
2586.000000	96.243437 
2585.000000	96.244137 
2584.000000	96.245229 
2583.000000	96.246437 
2582.000000	96.247512 
2581.000000	96.248183 
2580.000000	96.248362 
2579.000000	96.248358 
2578.000000	96.248611 
2577.000000	96.249205 
2576.000000	96.249801 
2575.000000	96.250055 
2574.000000	96.249964 
2573.000000	96.249815 
2572.000000	96.249830 
2571.000000	96.249866 
2570.000000	96.249546 
2569.000000	96.248788 
2568.000000	96.248164 
2567.000000	96.248407 
2566.000000	96.249549 
2565.000000	96.250826 
2564.000000	96.251521 
2563.000000	96.251685 
2562.000000	96.251808 
2561.000000	96.252197 
2560.000000	96.252967 
2559.000000	96.254279 
2558.000000	96.256110 
2557.000000	96.257910 
2556.000000	96.259030 
2555.000000	96.259473 
2554.000000	96.259751 
2553.000000	96.259979 
2552.000000	96.259665 
2551.000000	96.258718 
2550.000000	96.258020 
2549.000000	96.258427 
2548.000000	96.259528 
2547.000000	96.260056 
2546.000000	96.259487 
2545.000000	96.258610 
2544.000000	96.258371 
2543.000000	96.258673 
2542.000000	96.258800 
2541.000000	96.258592 
2540.000000	96.258629 
2539.000000	96.259261 
2538.000000	96.260039 
2537.000000	96.260354 
2536.000000	96.260298 
2535.000000	96.260507 
2534.000000	96.261234 
2533.000000	96.261965 
2532.000000	96.262059 
2531.000000	96.261560 
2530.000000	96.261160 
2529.000000	96.261387 
2528.000000	96.262060 
2527.000000	96.262658 
2526.000000	96.263030 
2525.000000	96.263507 
2524.000000	96.264363 
2523.000000	96.265438 
2522.000000	96.266375 
2521.000000	96.267044 
2520.000000	96.267582 
2519.000000	96.268132 
2518.000000	96.268654 
2517.000000	96.268946 
2516.000000	96.268757 
2515.000000	96.267996 
2514.000000	96.266992 
2513.000000	96.266475 
2512.000000	96.267038 
2511.000000	96.268702 
2510.000000	96.271019 
2509.000000	96.273421 
2508.000000	96.275397 
2507.000000	96.276561 
2506.000000	96.276943 
2505.000000	96.277236 
2504.000000	96.278298 
2503.000000	96.280225 
2502.000000	96.282145 
2501.000000	96.283146 
2500.000000	96.283186 
2499.000000	96.282926 
2498.000000	96.282937 
2497.000000	96.283333 
2496.000000	96.284082 
2495.000000	96.285198 
2494.000000	96.286497 
2493.000000	96.287493 
2492.000000	96.287841 
2491.000000	96.287784 
2490.000000	96.287965 
2489.000000	96.288671 
2488.000000	96.289447 
2487.000000	96.289623 
2486.000000	96.289127 
2485.000000	96.288615 
2484.000000	96.288779 
2483.000000	96.289717 
2482.000000	96.291003 
2481.000000	96.292183 
2480.000000	96.293090 
2479.000000	96.293751 
2478.000000	96.294247 
2477.000000	96.294657 
2476.000000	96.294933 
2475.000000	96.294812 
2474.000000	96.294073 
2473.000000	96.292930 
2472.000000	96.291964 
2471.000000	96.291569 
2470.000000	96.291691 
2469.000000	96.292133 
2468.000000	96.292824 
2467.000000	96.293670 
2466.000000	96.294312 
2465.000000	96.294322 
2464.000000	96.293701 
2463.000000	96.293086 
2462.000000	96.293334 
2461.000000	96.294849 
2460.000000	96.297169 
2459.000000	96.299234 
2458.000000	96.300184 
2457.000000	96.299846 
2456.000000	96.298527 
2455.000000	96.296676 
2454.000000	96.294883 
2453.000000	96.293719 
2452.000000	96.293166 
2451.000000	96.292538 
2450.000000	96.291546 
2449.000000	96.291130 
2448.000000	96.292417 
2447.000000	96.295099 
2446.000000	96.297541 
2445.000000	96.298620 
2444.000000	96.298675 
2443.000000	96.298533 
2442.000000	96.298474 
2441.000000	96.298465 
2440.000000	96.298759 
2439.000000	96.299793 
2438.000000	96.301807 
2437.000000	96.304744 
2436.000000	96.308152 
2435.000000	96.311091 
2434.000000	96.312660 
2433.000000	96.312837 
2432.000000	96.312539 
2431.000000	96.312708 
2430.000000	96.313640 
2429.000000	96.315206 
2428.000000	96.317076 
2427.000000	96.318584 
2426.000000	96.319003 
2425.000000	96.318264 
2424.000000	96.317023 
2423.000000	96.315970 
2422.000000	96.315526 
2421.000000	96.316190 
2420.000000	96.318397 
2419.000000	96.321771 
2418.000000	96.325019 
2417.000000	96.327209 
2416.000000	96.328542 
2415.000000	96.329522 
2414.000000	96.330208 
2413.000000	96.330852 
2412.000000	96.332389 
2411.000000	96.335203 
2410.000000	96.338143 
2409.000000	96.339846 
2408.000000	96.340582 
2407.000000	96.341579 
2406.000000	96.343040 
2405.000000	96.343957 
2404.000000	96.343703 
2403.000000	96.342768 
2402.000000	96.342075 
2401.000000	96.342406 
2400.000000	96.344314 
2399.000000	96.347768 
2398.000000	96.351931 
2397.000000	96.355929 
2396.000000	96.359532 
2395.000000	96.362546 
2394.000000	96.364113 
2393.000000	96.363764 
2392.000000	96.362915 
2391.000000	96.363882 
2390.000000	96.367278 
2389.000000	96.371518 
2388.000000	96.374949 
2387.000000	96.377391 
2386.000000	96.379377 
2385.000000	96.381190 
2384.000000	96.383108 
2383.000000	96.385553 
2382.000000	96.388501 
2381.000000	96.391647 
2380.000000	96.395526 
2379.000000	96.401281 
2378.000000	96.408338 
2377.000000	96.413450 
2376.000000	96.413677 
2375.000000	96.409718 
2374.000000	96.404983 
2373.000000	96.401468 
2372.000000	96.398617 
2371.000000	96.396573 
2370.000000	96.397671 
2369.000000	96.402878 
2368.000000	96.408547 
2367.000000	96.409528 
2366.000000	96.405097 
2365.000000	96.399840 
2364.000000	96.398256 
2363.000000	96.399705 
2362.000000	96.400512 
2361.000000	96.399254 
2360.000000	96.398126 
2359.000000	96.399609 
2358.000000	96.403761 
2357.000000	96.409601 
2356.000000	96.416256 
2355.000000	96.420749 
2354.000000	96.418315 
2353.000000	96.408323 
2352.000000	96.396195 
2351.000000	96.386651 
2350.000000	96.380345 
2349.000000	96.377171 
2348.000000	96.375457 
2347.000000	96.370235 
2346.000000	96.359734 
2345.000000	96.350085 
2344.000000	96.346089 
2343.000000	96.345712 
2342.000000	96.347373 
2341.000000	96.352486 
2340.000000	96.360597 
2339.000000	96.367128 
2338.000000	96.367804 
2337.000000	96.363785 
2336.000000	96.360391 
2335.000000	96.359976 
2334.000000	96.357971 
2333.000000	96.348644 
2332.000000	96.333161 
2331.000000	96.317946 
2330.000000	96.305655 
2329.000000	96.293126 
2328.000000	96.277531 
2327.000000	96.260078 
2326.000000	96.242624 
2325.000000	96.226570 
2324.000000	96.214984 
2323.000000	96.210822 
2322.000000	96.211773 
2321.000000	96.211500 
2320.000000	96.208887 
2319.000000	96.210161 
2318.000000	96.219531 
2317.000000	96.232214 
2316.000000	96.239648 
2315.000000	96.238178 
2314.000000	96.230353 
2313.000000	96.220546 
2312.000000	96.212138 
2311.000000	96.206848 
2310.000000	96.203878 
2309.000000	96.200629 
2308.000000	96.196269 
2307.000000	96.193469 
2306.000000	96.194622 
2305.000000	96.198160 
2304.000000	96.200663 
2303.000000	96.201533 
2302.000000	96.202977 
2301.000000	96.206091 
2300.000000	96.209104 
2299.000000	96.209658 
2298.000000	96.206925 
2297.000000	96.201542 
2296.000000	96.195193 
2295.000000	96.190500 
2294.000000	96.189799 
2293.000000	96.193260 
2292.000000	96.198832 
2291.000000	96.203975 
2290.000000	96.207268 
2289.000000	96.208579 
2288.000000	96.208439 
2287.000000	96.207372 
2286.000000	96.205733 
2285.000000	96.204223 
2284.000000	96.204184 
2283.000000	96.206609 
2282.000000	96.210663 
2281.000000	96.213927 
2280.000000	96.214536 
2279.000000	96.212686 
2278.000000	96.210020 
2277.000000	96.208155 
2276.000000	96.207999 
2275.000000	96.209804 
2274.000000	96.213175 
2273.000000	96.217235 
2272.000000	96.221106 
2271.000000	96.224122 
2270.000000	96.225689 
2269.000000	96.225712 
2268.000000	96.225282 
2267.000000	96.225908 
2266.000000	96.227654 
2265.000000	96.228972 
2264.000000	96.228592 
2263.000000	96.226553 
2262.000000	96.223307 
2261.000000	96.219078 
2260.000000	96.214641 
2259.000000	96.211413 
2258.000000	96.210089 
2257.000000	96.210223 
2256.000000	96.211654 
2255.000000	96.215040 
2254.000000	96.220046 
2253.000000	96.224141 
2252.000000	96.224809 
2251.000000	96.221935 
2250.000000	96.217140 
2249.000000	96.211777 
2248.000000	96.206721 
2247.000000	96.203246 
2246.000000	96.202176 
2245.000000	96.202465 
2244.000000	96.201858 
2243.000000	96.199298 
2242.000000	96.195763 
2241.000000	96.192914 
2240.000000	96.191653 
2239.000000	96.191996 
2238.000000	96.193275 
2237.000000	96.194271 
2236.000000	96.194005 
2235.000000	96.192561 
2234.000000	96.190775 
2233.000000	96.189273 
2232.000000	96.188136 
2231.000000	96.187282 
2230.000000	96.186572 
2229.000000	96.185618 
2228.000000	96.184111 
2227.000000	96.182331 
2226.000000	96.180837 
2225.000000	96.179698 
2224.000000	96.178440 
2223.000000	96.176790 
2222.000000	96.175038 
2221.000000	96.173588 
2220.000000	96.172402 
2219.000000	96.171242 
2218.000000	96.170006 
2217.000000	96.168738 
2216.000000	96.167478 
2215.000000	96.166220 
2214.000000	96.164951 
2213.000000	96.163682 
2212.000000	96.162424 
2211.000000	96.161198 
2210.000000	96.160012 
2209.000000	96.158854 
2208.000000	96.157700 
2207.000000	96.156522 
2206.000000	96.155304 
2205.000000	96.154041 
2204.000000	96.152746 
2203.000000	96.151580 
2202.000000	96.150842 
2201.000000	96.150554 
2200.000000	96.150089 
2199.000000	96.148542 
2198.000000	96.145612 
2197.000000	96.142142 
2196.000000	96.139587 
2195.000000	96.138528 
2194.000000	96.137991 
2193.000000	96.136710 
2192.000000	96.134895 
2191.000000	96.133812 
2190.000000	96.133805 
2189.000000	96.133920 
2188.000000	96.133511 
2187.000000	96.132659 
2186.000000	96.130642 
2185.000000	96.126165 
2184.000000	96.120547 
2183.000000	96.118639 
2182.000000	96.123943 
2181.000000	96.133439 
2180.000000	96.139240 
2179.000000	96.136688 
2178.000000	96.128558 
2177.000000	96.121814 
2176.000000	96.120903 
2175.000000	96.124862 
2174.000000	96.129721 
2173.000000	96.132704 
2172.000000	96.134241 
2171.000000	96.136141 
2170.000000	96.138249 
2169.000000	96.137853 
2168.000000	96.133046 
2167.000000	96.125700 
2166.000000	96.119580 
2165.000000	96.115770 
2164.000000	96.111693 
2163.000000	96.105535 
2162.000000	96.100839 
2161.000000	96.105240 
2160.000000	96.123848 
2159.000000	96.153422 
2158.000000	96.182926 
2157.000000	96.202629 
2156.000000	96.211828 
2155.000000	96.216068 
2154.000000	96.219761 
2153.000000	96.223534 
2152.000000	96.226716 
2151.000000	96.228544 
2150.000000	96.227164 
2149.000000	96.221419 
2148.000000	96.214670 
2147.000000	96.213261 
2146.000000	96.219576 
2145.000000	96.229644 
2144.000000	96.239134 
2143.000000	96.248297 
2142.000000	96.258286 
2141.000000	96.266347 
2140.000000	96.269164 
2139.000000	96.269173 
2138.000000	96.272994 
2137.000000	96.283494 
2136.000000	96.296343 
2135.000000	96.304471 
2134.000000	96.303829 
2133.000000	96.295636 
2132.000000	96.285573 
2131.000000	96.280008 
2130.000000	96.281237 
2129.000000	96.286205 
2128.000000	96.290251 
2127.000000	96.291615 
2126.000000	96.291708 
2125.000000	96.292302 
2124.000000	96.293757 
2123.000000	96.295091 
2122.000000	96.294459 
2121.000000	96.290192 
2120.000000	96.282529 
2119.000000	96.274001 
2118.000000	96.267437 
2117.000000	96.263920 
2116.000000	96.262698 
2115.000000	96.262120 
2114.000000	96.260124 
2113.000000	96.255369 
2112.000000	96.249230 
2111.000000	96.245439 
2110.000000	96.246418 
2109.000000	96.250828 
2108.000000	96.255381 
2107.000000	96.258128 
2106.000000	96.259104 
2105.000000	96.259103 
2104.000000	96.259100 
2103.000000	96.259680 
2102.000000	96.259774 
2101.000000	96.257097 
2100.000000	96.251155 
2099.000000	96.244903 
2098.000000	96.242120 
2097.000000	96.243596 
2096.000000	96.247096 
2095.000000	96.249890 
2094.000000	96.250708 
2093.000000	96.249533 
2092.000000	96.246828 
2091.000000	96.243449 
2090.000000	96.240477 
2089.000000	96.238509 
2088.000000	96.237275 
2087.000000	96.236005 
2086.000000	96.234054 
2085.000000	96.231276 
2084.000000	96.228072 
2083.000000	96.225115 
2082.000000	96.222823 
2081.000000	96.221103 
2080.000000	96.219672 
2079.000000	96.218470 
2078.000000	96.217471 
2077.000000	96.216307 
2076.000000	96.214609 
2075.000000	96.212663 
2074.000000	96.211067 
2073.000000	96.209665 
2072.000000	96.207547 
2071.000000	96.204327 
2070.000000	96.200819 
2069.000000	96.198137 
2068.000000	96.196681 
2067.000000	96.196242 
2066.000000	96.196403 
2065.000000	96.196364 
2064.000000	96.195041 
2063.000000	96.192129 
2062.000000	96.188769 
2061.000000	96.186628 
2060.000000	96.186220 
2059.000000	96.186760 
2058.000000	96.187238 
2057.000000	96.187125 
2056.000000	96.186135 
2055.000000	96.183863 
2054.000000	96.180191 
2053.000000	96.175733 
2052.000000	96.171719 
2051.000000	96.169188 
2050.000000	96.168149 
2049.000000	96.167575 
2048.000000	96.166417 
2047.000000	96.164727 
2046.000000	96.163416 
2045.000000	96.163006 
2044.000000	96.163123 
2043.000000	96.163150 
2042.000000	96.162972 
2041.000000	96.163000 
2040.000000	96.163788 
2039.000000	96.165654 
2038.000000	96.168251 
2037.000000	96.170449 
2036.000000	96.171194 
2035.000000	96.170533 
2034.000000	96.169577 
2033.000000	96.169490 
2032.000000	96.170603 
2031.000000	96.172282 
2030.000000	96.173232 
2029.000000	96.172300 
2028.000000	96.169589 
2027.000000	96.166633 
2026.000000	96.164969 
2025.000000	96.164772 
2024.000000	96.165391 
2023.000000	96.166802 
2022.000000	96.169764 
2021.000000	96.174183 
2020.000000	96.177954 
2019.000000	96.178472 
2018.000000	96.174928 
2017.000000	96.169012 
2016.000000	96.163731 
2015.000000	96.161141 
2014.000000	96.161006 
2013.000000	96.160899 
2012.000000	96.158549 
2011.000000	96.154919 
2010.000000	96.153753 
2009.000000	96.157218 
2008.000000	96.163134 
2007.000000	96.167481 
2006.000000	96.168932 
2005.000000	96.169040 
2004.000000	96.169224 
2003.000000	96.169696 
2002.000000	96.170876 
2001.000000	96.173170 
2000.000000	96.175038 
1999.000000	96.173265 
1998.000000	96.166001 
1997.000000	96.155131 
1996.000000	96.145347 
1995.000000	96.140536 
1994.000000	96.141236 
1993.000000	96.144698 
1992.000000	96.147132 
1991.000000	96.147141 
1990.000000	96.146816 
1989.000000	96.148730 
1988.000000	96.152042 
1987.000000	96.152305 
1986.000000	96.145769 
1985.000000	96.133547 
1984.000000	96.120906 
1983.000000	96.112220 
1982.000000	96.107821 
1981.000000	96.106133 
1980.000000	96.107618 
1979.000000	96.114296 
1978.000000	96.125092 
1977.000000	96.134717 
1976.000000	96.139015 
1975.000000	96.139505 
1974.000000	96.140872 
1973.000000	96.145724 
1972.000000	96.153068 
1971.000000	96.160474 
1970.000000	96.165999 
1969.000000	96.168363 
1968.000000	96.166898 
1967.000000	96.162258 
1966.000000	96.157104 
1965.000000	96.155004 
1964.000000	96.158225 
1963.000000	96.166579 
1962.000000	96.177684 
1961.000000	96.187979 
1960.000000	96.194181 
1959.000000	96.194812 
1958.000000	96.191349 
1957.000000	96.187866 
1956.000000	96.187823 
1955.000000	96.190878 
1954.000000	96.193798 
1953.000000	96.194508 
1952.000000	96.193936 
1951.000000	96.193906 
1950.000000	96.195149 
1949.000000	96.197851 
1948.000000	96.202457 
1947.000000	96.208639 
1946.000000	96.214311 
1945.000000	96.217175 
1944.000000	96.216769 
1943.000000	96.214363 
1942.000000	96.211629 
1941.000000	96.209804 
1940.000000	96.209556 
1939.000000	96.210759 
1938.000000	96.212589 
1937.000000	96.214437 
1936.000000	96.216443 
1935.000000	96.218693 
1934.000000	96.220396 
1933.000000	96.220861 
1932.000000	96.220899 
1931.000000	96.222128 
1930.000000	96.224939 
1929.000000	96.227774 
1928.000000	96.229097 
1927.000000	96.229092 
1926.000000	96.228845 
1925.000000	96.228770 
1924.000000	96.228502 
1923.000000	96.228066 
1922.000000	96.227833 
1921.000000	96.227611 
1920.000000	96.227024 
1919.000000	96.226293 
1918.000000	96.225748 
1917.000000	96.225038 
1916.000000	96.223822 
1915.000000	96.222891 
1914.000000	96.223145 
1913.000000	96.224086 
1912.000000	96.224351 
1911.000000	96.223615 
1910.000000	96.222859 
1909.000000	96.222709 
1908.000000	96.222869 
1907.000000	96.222950 
1906.000000	96.222751 
1905.000000	96.221751 
1904.000000	96.219452 
1903.000000	96.216742 
1902.000000	96.215324 
1901.000000	96.215446 
1900.000000	96.215786 
1899.000000	96.215476 
1898.000000	96.215022 
1897.000000	96.214947 
1896.000000	96.214483 
1895.000000	96.212716 
1894.000000	96.209905 
1893.000000	96.206814 
1892.000000	96.203973 
1891.000000	96.201991 
1890.000000	96.201398 
1889.000000	96.201788 
1888.000000	96.202305 
1887.000000	96.203228 
1886.000000	96.205309 
1885.000000	96.207505 
1884.000000	96.207446 
1883.000000	96.204665 
1882.000000	96.201598 
1881.000000	96.200607 
1880.000000	96.201547 
1879.000000	96.202496 
1878.000000	96.201859 
1877.000000	96.199943 
1876.000000	96.198560 
1875.000000	96.199334 
1874.000000	96.202357 
1873.000000	96.205925 
1872.000000	96.208196 
1871.000000	96.208953 
1870.000000	96.208999 
1869.000000	96.208622 
1868.000000	96.207868 
1867.000000	96.208059 
1866.000000	96.210257 
1865.000000	96.212713 
1864.000000	96.213021 
1863.000000	96.212059 
1862.000000	96.212953 
1861.000000	96.216474 
1860.000000	96.220249 
1859.000000	96.222853 
1858.000000	96.225604 
1857.000000	96.229396 
1856.000000	96.233402 
1855.000000	96.237289 
1854.000000	96.241515 
1853.000000	96.244999 
1852.000000	96.246560 
1851.000000	96.247644 
1850.000000	96.250298 
1849.000000	96.254077 
1848.000000	96.256696 
1847.000000	96.257642 
1846.000000	96.258510 
1845.000000	96.260299 
1844.000000	96.262447 
1843.000000	96.264586 
1842.000000	96.267011 
1841.000000	96.269575 
1840.000000	96.272450 
1839.000000	96.276305 
1838.000000	96.280871 
1837.000000	96.284064 
1836.000000	96.284260 
1835.000000	96.283048 
1834.000000	96.283244 
1833.000000	96.285292 
1832.000000	96.287945 
1831.000000	96.289993 
1830.000000	96.290629 
1829.000000	96.290061 
1828.000000	96.289440 
1827.000000	96.289969 
1826.000000	96.291957 
1825.000000	96.294320 
1824.000000	96.295520 
1823.000000	96.295400 
1822.000000	96.295457 
1821.000000	96.296587 
1820.000000	96.298083 
1819.000000	96.299282 
1818.000000	96.301325 
1817.000000	96.304979 
1816.000000	96.307852 
1815.000000	96.308058 
1814.000000	96.307490 
1813.000000	96.309171 
1812.000000	96.312152 
1811.000000	96.311893 
1810.000000	96.307617 
1809.000000	96.303287 
1808.000000	96.301194 
1807.000000	96.300677 
1806.000000	96.301592 
1805.000000	96.304073 
1804.000000	96.306022 
1803.000000	96.304926 
1802.000000	96.301052 
1801.000000	96.297502 
1800.000000	96.295948 
1799.000000	96.295251 
1798.000000	96.295546 
1797.000000	96.296874 
1796.000000	96.296814 
1795.000000	96.294282 
1794.000000	96.292015 
1793.000000	96.293360 
1792.000000	96.296696 
1791.000000	96.297884 
1790.000000	96.298148 
1789.000000	96.300819 
1788.000000	96.305485 
1787.000000	96.309562 
1786.000000	96.312482 
1785.000000	96.315180 
1784.000000	96.317126 
1783.000000	96.318237 
1782.000000	96.319462 
1781.000000	96.321431 
1780.000000	96.324031 
1779.000000	96.326740 
1778.000000	96.330466 
1777.000000	96.335245 
1776.000000	96.339313 
1775.000000	96.341494 
1774.000000	96.342039 
1773.000000	96.342872 
1772.000000	96.345140 
1771.000000	96.346462 
1770.000000	96.345360 
1769.000000	96.344318 
1768.000000	96.345820 
1767.000000	96.349110 
1766.000000	96.351818 
1765.000000	96.353735 
1764.000000	96.356408 
1763.000000	96.359726 
1762.000000	96.361599 
1761.000000	96.361506 
1760.000000	96.360889 
1759.000000	96.360500 
1758.000000	96.360124 
1757.000000	96.359426 
1756.000000	96.359634 
1755.000000	96.360540 
1754.000000	96.359624 
1753.000000	96.355662 
1752.000000	96.351298 
1751.000000	96.351019 
1750.000000	96.355440 
1749.000000	96.360725 
1748.000000	96.363977 
1747.000000	96.365663 
1746.000000	96.366005 
1745.000000	96.365474 
1744.000000	96.365683 
1743.000000	96.366396 
1742.000000	96.365818 
1741.000000	96.364680 
1740.000000	96.365699 
1739.000000	96.368665 
1738.000000	96.369387 
1737.000000	96.366383 
1736.000000	96.361891 
1735.000000	96.358985 
1734.000000	96.358754 
1733.000000	96.358060 
1732.000000	96.355912 
1731.000000	96.356288 
1730.000000	96.361233 
1729.000000	96.366255 
1728.000000	96.367966 
1727.000000	96.367377 
1726.000000	96.366718 
1725.000000	96.366650 
1724.000000	96.366732 
1723.000000	96.366213 
1722.000000	96.365495 
1721.000000	96.364582 
1720.000000	96.363298 
1719.000000	96.360896 
1718.000000	96.357105 
1717.000000	96.352893 
1716.000000	96.345855 
1715.000000	96.335925 
1714.000000	96.329540 
1713.000000	96.328157 
1712.000000	96.326395 
1711.000000	96.322208 
1710.000000	96.318432 
1709.000000	96.315796 
1708.000000	96.312272 
1707.000000	96.307754 
1706.000000	96.304601 
1705.000000	96.302059 
1704.000000	96.293792 
1703.000000	96.278594 
1702.000000	96.261464 
1701.000000	96.251133 
1700.000000	96.248404 
1699.000000	96.242450 
1698.000000	96.233693 
1697.000000	96.229262 
1696.000000	96.227586 
1695.000000	96.222972 
1694.000000	96.214490 
1693.000000	96.205276 
1692.000000	96.197152 
1691.000000	96.189099 
1690.000000	96.180173 
1689.000000	96.170457 
1688.000000	96.160963 
1687.000000	96.152562 
1686.000000	96.145348 
1685.000000	96.139640 
1684.000000	96.132166 
1683.000000	96.121066 
1682.000000	96.109235 
1681.000000	96.097999 
1680.000000	96.089109 
1679.000000	96.081873 
1678.000000	96.074171 
1677.000000	96.064299 
1676.000000	96.054645 
1675.000000	96.047689 
1674.000000	96.039399 
1673.000000	96.026327 
1672.000000	96.012499 
1671.000000	96.002783 
1670.000000	95.996306 
1669.000000	95.987511 
1668.000000	95.977494 
1667.000000	95.970810 
1666.000000	95.965511 
1665.000000	95.958537 
1664.000000	95.950800 
1663.000000	95.945063 
1662.000000	95.938775 
1661.000000	95.925713 
1660.000000	95.909610 
1659.000000	95.898110 
1658.000000	95.892862 
1657.000000	95.887006 
1656.000000	95.879594 
1655.000000	95.871662 
1654.000000	95.862236 
1653.000000	95.848109 
1652.000000	95.828568 
1651.000000	95.807548 
1650.000000	95.787016 
1649.000000	95.774844 
1648.000000	95.768411 
1647.000000	95.765067 
1646.000000	95.761552 
1645.000000	95.758027 
1644.000000	95.750737 
1643.000000	95.742923 
1642.000000	95.738908 
1641.000000	95.738661 
1640.000000	95.739155 
1639.000000	95.738078 
1638.000000	95.736300 
1637.000000	95.734115 
1636.000000	95.729946 
1635.000000	95.726966 
1634.000000	95.727552 
1633.000000	95.728239 
1632.000000	95.726813 
1631.000000	95.725914 
1630.000000	95.729434 
1629.000000	95.736334 
1628.000000	95.742858 
1627.000000	95.749141 
1626.000000	95.756580 
1625.000000	95.763784 
1624.000000	95.770004 
1623.000000	95.777599 
1622.000000	95.787321 
1621.000000	95.795083 
1620.000000	95.801401 
1619.000000	95.811612 
1618.000000	95.826904 
1617.000000	95.838652 
1616.000000	95.839836 
1615.000000	95.838499 
1614.000000	95.842465 
1613.000000	95.849441 
1612.000000	95.854793 
1611.000000	95.859289 
1610.000000	95.865579 
1609.000000	95.873306 
1608.000000	95.882940 
1607.000000	95.896992 
1606.000000	95.912963 
1605.000000	95.924959 
1604.000000	95.933421 
1603.000000	95.942433 
1602.000000	95.952307 
1601.000000	95.960515 
1600.000000	95.967765 
1599.000000	95.977077 
1598.000000	95.987633 
1597.000000	95.996019 
1596.000000	96.001745 
1595.000000	96.007834 
1594.000000	96.016029 
1593.000000	96.024553 
1592.000000	96.032154 
1591.000000	96.040303 
1590.000000	96.049738 
1589.000000	96.058704 
1588.000000	96.066909 
1587.000000	96.076578 
1586.000000	96.087358 
1585.000000	96.094661 
1584.000000	96.098178 
1583.000000	96.103862 
1582.000000	96.113565 
1581.000000	96.122881 
1580.000000	96.130046 
1579.000000	96.139686 
1578.000000	96.155113 
1577.000000	96.172817 
1576.000000	96.185626 
1575.000000	96.191837 
1574.000000	96.193414 
1573.000000	96.193302 
1572.000000	96.197166 
1571.000000	96.208255 
1570.000000	96.221379 
1569.000000	96.224314 
1568.000000	96.218775 
1567.000000	96.215664 
1566.000000	96.218597 
1565.000000	96.223317 
1564.000000	96.228987 
1563.000000	96.234405 
1562.000000	96.237940 
1561.000000	96.234778 
1560.000000	96.234863 
1559.000000	96.243410 
1558.000000	96.245682 
1557.000000	96.241133 
1556.000000	96.234061 
1555.000000	96.235079 
1554.000000	96.236987 
1553.000000	96.236500 
1552.000000	96.232813 
1551.000000	96.228276 
1550.000000	96.221497 
1549.000000	96.213278 
1548.000000	96.206554 
1547.000000	96.203639 
1546.000000	96.202085 
1545.000000	96.198031 
1544.000000	96.191258 
1543.000000	96.184940 
1542.000000	96.183475 
1541.000000	96.187792 
1540.000000	96.185858 
1539.000000	96.172974 
1538.000000	96.155606 
1537.000000	96.135291 
1536.000000	96.116014 
1535.000000	96.102287 
1534.000000	96.095623 
1533.000000	96.091343 
1532.000000	96.084156 
1531.000000	96.071953 
1530.000000	96.058055 
1529.000000	96.045417 
1528.000000	96.032756 
1527.000000	96.018784 
1526.000000	96.005204 
1525.000000	95.995065 
1524.000000	95.989519 
1523.000000	95.986251 
1522.000000	95.979668 
1521.000000	95.964650 
1520.000000	95.942492 
1519.000000	95.918771 
1518.000000	95.897171 
1517.000000	95.878190 
1516.000000	95.861151 
1515.000000	95.847309 
1514.000000	95.837270 
1513.000000	95.830168 
1512.000000	95.822455 
1511.000000	95.809221 
1510.000000	95.790488 
1509.000000	95.771233 
1508.000000	95.755659 
1507.000000	95.739651 
1506.000000	95.723010 
1505.000000	95.708792 
1504.000000	95.693100 
1503.000000	95.675983 
1502.000000	95.658322 
1501.000000	95.641857 
1500.000000	95.627489 
1499.000000	95.613784 
1498.000000	95.597085 
1497.000000	95.578003 
1496.000000	95.560498 
1495.000000	95.545958 
1494.000000	95.533521 
1493.000000	95.522661 
1492.000000	95.512834 
1491.000000	95.502195 
1490.000000	95.488640 
1489.000000	95.472898 
1488.000000	95.455857 
1487.000000	95.436974 
1486.000000	95.418342 
1485.000000	95.400273 
1484.000000	95.382044 
1483.000000	95.364535 
1482.000000	95.348252 
1481.000000	95.333071 
1480.000000	95.317775 
1479.000000	95.301673 
1478.000000	95.285002 
1477.000000	95.268466 
1476.000000	95.250983 
1475.000000	95.231031 
1474.000000	95.209094 
1473.000000	95.187998 
1472.000000	95.171304 
1471.000000	95.158324 
1470.000000	95.146430 
1469.000000	95.134763 
1468.000000	95.122433 
1467.000000	95.107373 
1466.000000	95.088957 
1465.000000	95.069442 
1464.000000	95.053061 
1463.000000	95.039323 
1462.000000	95.025365 
1461.000000	95.012381 
1460.000000	95.003151 
1459.000000	94.995190 
1458.000000	94.974780 
1457.000000	94.938152 
1456.000000	94.907116 
1455.000000	94.891491 
1454.000000	94.879683 
1453.000000	94.868292 
1452.000000	94.859675 
1451.000000	94.855512 
1450.000000	94.853570 
1449.000000	94.852659 
1448.000000	94.850955 
1447.000000	94.845497 
1446.000000	94.834778 
1445.000000	94.821817 
1444.000000	94.812230 
1443.000000	94.805403 
1442.000000	94.797889 
1441.000000	94.789704 
1440.000000	94.783528 
1439.000000	94.777185 
1438.000000	94.763295 
1437.000000	94.741729 
1436.000000	94.724374 
1435.000000	94.716684 
1434.000000	94.712240 
1433.000000	94.708808 
1432.000000	94.707686 
1431.000000	94.707944 
1430.000000	94.706042 
1429.000000	94.702981 
1428.000000	94.702798 
1427.000000	94.706279 
1426.000000	94.710222 
1425.000000	94.712614 
1424.000000	94.718217 
1423.000000	94.728090 
1422.000000	94.736604 
1421.000000	94.741215 
1420.000000	94.745733 
1419.000000	94.748390 
1418.000000	94.742421 
1417.000000	94.735824 
1416.000000	94.742159 
1415.000000	94.761483 
1414.000000	94.781217 
1413.000000	94.793261 
1412.000000	94.802360 
1411.000000	94.814580 
1410.000000	94.827750 
1409.000000	94.839984 
1408.000000	94.853847 
1407.000000	94.870975 
1406.000000	94.888981 
1405.000000	94.906968 
1404.000000	94.930211 
1403.000000	94.957904 
1402.000000	94.982079 
1401.000000	95.001630 
1400.000000	95.024413 
1399.000000	95.054771 
1398.000000	95.085698 
1397.000000	95.110278 
1396.000000	95.130805 
1395.000000	95.153561 
1394.000000	95.179174 
1393.000000	95.206183 
1392.000000	95.237928 
1391.000000	95.275094 
1390.000000	95.312123 
1389.000000	95.342772 
1388.000000	95.365295 
1387.000000	95.382495 
1386.000000	95.398739 
1385.000000	95.418067 
1384.000000	95.443588 
1383.000000	95.474061 
1382.000000	95.504147 
1381.000000	95.530285 
1380.000000	95.552903 
1379.000000	95.575184 
1378.000000	95.599974 
1377.000000	95.627778 
1376.000000	95.656339 
1375.000000	95.681926 
1374.000000	95.702277 
1373.000000	95.720478 
1372.000000	95.741715 
1371.000000	95.767482 
1370.000000	95.794895 
1369.000000	95.819061 
1368.000000	95.839651 
1367.000000	95.859601 
1366.000000	95.880391 
1365.000000	95.901340 
1364.000000	95.920053 
1363.000000	95.933766 
1362.000000	95.943901 
1361.000000	95.956258 
1360.000000	95.974740 
1359.000000	95.998553 
1358.000000	96.024027 
1357.000000	96.047380 
1356.000000	96.066894 
1355.000000	96.082664 
1354.000000	96.095954 
1353.000000	96.109443 
1352.000000	96.124356 
1351.000000	96.140556 
1350.000000	96.157862 
1349.000000	96.173771 
1348.000000	96.186136 
1347.000000	96.195236 
1346.000000	96.204093 
1345.000000	96.215263 
1344.000000	96.228700 
1343.000000	96.242527 
1342.000000	96.255264 
1341.000000	96.265633 
1340.000000	96.272101 
1339.000000	96.274905 
1338.000000	96.276943 
1337.000000	96.281177 
1336.000000	96.287917 
1335.000000	96.295119 
1334.000000	96.301394 
1333.000000	96.307527 
1332.000000	96.314398 
1331.000000	96.321418 
1330.000000	96.327479 
1329.000000	96.332263 
1328.000000	96.336044 
1327.000000	96.339416 
1326.000000	96.342830 
1325.000000	96.345484 
1324.000000	96.346632 
1323.000000	96.345710 
1322.000000	96.342644 
1321.000000	96.338831 
1320.000000	96.337114 
1319.000000	96.339193 
1318.000000	96.343776 
1317.000000	96.348255 
1316.000000	96.350936 
1315.000000	96.351132 
1314.000000	96.348989 
1313.000000	96.346779 
1312.000000	96.347955 
1311.000000	96.353250 
1310.000000	96.359205 
1309.000000	96.362320 
1308.000000	96.362828 
1307.000000	96.363520 
1306.000000	96.366035 
1305.000000	96.369463 
1304.000000	96.372816 
1303.000000	96.375186 
1302.000000	96.375074 
1301.000000	96.371777 
1300.000000	96.367546 
1299.000000	96.365833 
1298.000000	96.367343 
1297.000000	96.369341 
1296.000000	96.369012 
1295.000000	96.366444 
1294.000000	96.363794 
1293.000000	96.363076 
1292.000000	96.364837 
1291.000000	96.367899 
1290.000000	96.370269 
1289.000000	96.370839 
1288.000000	96.370019 
1287.000000	96.368538 
1286.000000	96.366392 
1285.000000	96.363905 
1284.000000	96.362725 
1283.000000	96.363862 
1282.000000	96.365492 
1281.000000	96.364434 
1280.000000	96.360092 
1279.000000	96.355721 
1278.000000	96.355137 
1277.000000	96.359113 
1276.000000	96.365001 
1275.000000	96.369463 
1274.000000	96.371048 
1273.000000	96.370803 
1272.000000	96.370626 
1271.000000	96.370866 
1270.000000	96.369902 
1269.000000	96.366560 
1268.000000	96.362359 
1267.000000	96.359919 
1266.000000	96.359527 
1265.000000	96.359417 
1264.000000	96.358913 
1263.000000	96.359093 
1262.000000	96.360401 
1261.000000	96.361699 
1260.000000	96.362680 
1259.000000	96.365272 
1258.000000	96.370562 
1257.000000	96.375980 
1256.000000	96.377341 
1255.000000	96.373893 
1254.000000	96.369898 
1253.000000	96.370064 
1252.000000	96.373748 
1251.000000	96.375559 
1250.000000	96.372076 
1249.000000	96.366284 
1248.000000	96.363891 
1247.000000	96.366185 
1246.000000	96.368829 
1245.000000	96.368067 
1244.000000	96.365106 
1243.000000	96.363437 
1242.000000	96.364510 
1241.000000	96.367691 
1240.000000	96.371951 
1239.000000	96.375371 
1238.000000	96.374983 
1237.000000	96.369656 
1236.000000	96.361898 
1235.000000	96.354789 
1234.000000	96.348299 
1233.000000	96.340591 
1232.000000	96.331377 
1231.000000	96.321377 
1230.000000	96.309828 
1229.000000	96.295484 
1228.000000	96.279076 
1227.000000	96.261787 
1226.000000	96.241856 
1225.000000	96.215608 
1224.000000	96.181905 
1223.000000	96.143088 
1222.000000	96.101341 
1221.000000	96.056359 
1220.000000	96.006979 
1219.000000	95.952925 
1218.000000	95.894251 
1217.000000	95.831004 
1216.000000	95.763863 
1215.000000	95.693609 
1214.000000	95.620099 
1213.000000	95.543600 
1212.000000	95.466440 
1211.000000	95.390344 
1210.000000	95.312703 
1209.000000	95.229042 
1208.000000	95.139574 
1207.000000	95.049826 
1206.000000	94.963730 
1205.000000	94.879037 
1204.000000	94.790799 
1203.000000	94.696873 
1202.000000	94.598959 
1201.000000	94.500239 
1200.000000	94.403085 
1199.000000	94.307611 
1198.000000	94.211767 
1197.000000	94.114242 
1196.000000	94.016590 
1195.000000	93.920510 
1194.000000	93.824104 
1193.000000	93.723625 
1192.000000	93.618354 
1191.000000	93.510697 
1190.000000	93.401965 
1189.000000	93.291276 
1188.000000	93.178156 
1187.000000	93.062820 
1186.000000	92.944343 
1185.000000	92.821978 
1184.000000	92.697636 
1183.000000	92.573547 
1182.000000	92.448439 
1181.000000	92.319673 
1180.000000	92.187725 
1179.000000	92.053975 
1178.000000	91.915517 
1177.000000	91.767911 
1176.000000	91.612377 
1175.000000	91.454438 
1174.000000	91.295778 
1173.000000	91.133579 
1172.000000	90.967853 
1171.000000	90.802342 
1170.000000	90.637586 
1169.000000	90.470658 
1168.000000	90.303713 
1167.000000	90.146386 
1166.000000	90.008651 
1165.000000	89.898398 
1164.000000	89.826569 
1163.000000	89.804948 
1162.000000	89.834169 
1161.000000	89.898720 
1160.000000	89.975214 
1159.000000	90.040861 
1158.000000	90.075699 
1157.000000	90.066752 
1156.000000	90.013993 
1155.000000	89.927606 
1154.000000	89.817941 
1153.000000	89.692172 
1152.000000	89.559425 
1151.000000	89.430318 
1150.000000	89.308648 
1149.000000	89.190268 
1148.000000	89.072113 
1147.000000	88.955429 
1146.000000	88.838980 
1145.000000	88.717520 
1144.000000	88.589959 
1143.000000	88.461784 
1142.000000	88.336523 
1141.000000	88.211585 
1140.000000	88.084759 
1139.000000	87.957569 
1138.000000	87.829976 
1137.000000	87.699080 
1136.000000	87.565224 
1135.000000	87.432215 
1134.000000	87.299788 
1133.000000	87.163405 
1132.000000	87.022875 
1131.000000	86.882961 
1130.000000	86.744164 
1129.000000	86.601786 
1128.000000	86.455658 
1127.000000	86.311242 
1126.000000	86.168940 
1125.000000	86.022046 
1124.000000	85.868040 
1123.000000	85.712520 
1122.000000	85.559147 
1121.000000	85.405403 
1120.000000	85.251313 
1119.000000	85.102177 
1118.000000	84.959251 
1117.000000	84.818010 
1116.000000	84.678477 
1115.000000	84.546576 
1114.000000	84.422500 
1113.000000	84.299250 
1112.000000	84.175600 
1111.000000	84.058096 
1110.000000	83.947265 
1109.000000	83.834711 
1108.000000	83.716713 
1107.000000	83.597755 
1106.000000	83.478587 
1105.000000	83.353935 
1104.000000	83.224503 
1103.000000	83.097924 
1102.000000	82.974463 
1101.000000	82.846260 
1100.000000	82.713306 
1099.000000	82.585178 
1098.000000	82.466119 
1097.000000	82.349702 
1096.000000	82.232421 
1095.000000	82.117583 
1094.000000	82.003548 
1093.000000	81.883221 
1092.000000	81.758772 
1091.000000	81.642006 
1090.000000	81.536577 
1089.000000	81.434029 
1088.000000	81.329804 
1087.000000	81.227907 
1086.000000	81.127762 
1085.000000	81.023039 
1084.000000	80.916263 
1083.000000	80.817708 
1082.000000	80.726446 
1081.000000	80.629321 
1080.000000	80.522225 
1079.000000	80.415178 
1078.000000	80.312405 
1077.000000	80.204322 
1076.000000	80.083592 
1075.000000	79.952239 
1074.000000	79.808969 
1073.000000	79.646185 
1072.000000	79.463067 
1071.000000	79.264765 
1070.000000	79.045713 
1069.000000	78.791976 
1068.000000	78.504450 
1067.000000	78.202653 
1066.000000	77.901368 
1065.000000	77.600550 
1064.000000	77.301490 
1063.000000	77.011908 
1062.000000	76.728985 
1061.000000	76.437750 
1060.000000	76.133798 
1059.000000	75.829615 
1058.000000	75.532789 
1057.000000	75.236446 
1056.000000	74.936161 
1055.000000	74.636131 
1054.000000	74.332757 
1053.000000	74.012778 
1052.000000	73.675539 
1051.000000	73.336799 
1050.000000	73.002552 
1049.000000	72.661571 
1048.000000	72.310922 
1047.000000	71.963544 
1046.000000	71.624431 
1045.000000	71.284115 
1044.000000	70.940134 
1043.000000	70.601178 
1042.000000	70.266006 
1041.000000	69.922012 
1040.000000	69.569884 
1039.000000	69.226549 
1038.000000	68.898922 
1037.000000	68.578617 
1036.000000	68.266611 
1035.000000	67.977152 
1034.000000	67.711979 
1033.000000	67.456873 
1032.000000	67.209245 
1031.000000	66.982736 
1030.000000	66.779366 
1029.000000	66.584935 
1028.000000	66.397874 
1027.000000	66.234205 
1026.000000	66.096818 
1025.000000	65.967656 
1024.000000	65.837275 
1023.000000	65.714486 
1022.000000	65.600000 
1021.000000	65.479253 
1020.000000	65.348942 
1019.000000	65.223024 
1018.000000	65.105295 
1017.000000	64.983540 
1016.000000	64.857109 
1015.000000	64.741716 
1014.000000	64.639882 
1013.000000	64.535159 
1012.000000	64.422929 
1011.000000	64.318623 
1010.000000	64.228189 
1009.000000	64.139089 
1008.000000	64.048208 
1007.000000	63.970394 
1006.000000	63.911558 
1005.000000	63.860938 
1004.000000	63.816655 
1003.000000	63.790495 
1002.000000	63.780559 
1001.000000	63.768349 
1000.000000	63.750825 
999.000000	 63.746664 
998.000000	 63.762945 
997.000000	 63.784273 
996.000000	 63.802721 
995.000000	 63.830107 
994.000000	 63.872023 
993.000000	 63.917595 
992.000000	 63.963343 
991.000000	 64.020014 
990.000000	 64.087977 
989.000000	 64.153118 
988.000000	 64.214709 
987.000000	 64.290257 
986.000000	 64.385768 
985.000000	 64.488814 
984.000000	 64.597445 
983.000000	 64.727292 
982.000000	 64.882219 
981.000000	 65.046275 
980.000000	 65.212924 
979.000000	 65.394710 
978.000000	 65.595792 
977.000000	 65.802955 
976.000000	 66.012586 
975.000000	 66.239280 
974.000000	 66.488220 
973.000000	 66.745066 
972.000000	 67.002338 
971.000000	 67.270911 
970.000000	 67.556242 
969.000000	 67.847215 
968.000000	 68.136658 
967.000000	 68.429979 
966.000000	 68.726616 
965.000000	 69.016419 
964.000000	 69.301037 
963.000000	 69.595618 
962.000000	 69.902753 
961.000000	 70.207178 
960.000000	 70.501592 
959.000000	 70.794375 
958.000000	 71.086541 
957.000000	 71.365310 
956.000000	 71.627427 
955.000000	 71.886026 
954.000000	 72.147577 
953.000000	 72.403286 
952.000000	 72.648710 
951.000000	 72.889643 
950.000000	 73.123497 
949.000000	 73.337592 
948.000000	 73.531639 
947.000000	 73.719841 
946.000000	 73.905232 
945.000000	 74.074094 
944.000000	 74.221712 
943.000000	 74.361421 
942.000000	 74.501748 
941.000000	 74.636241 
940.000000	 74.762851 
939.000000	 74.891616 
938.000000	 75.025621 
937.000000	 75.155141 
936.000000	 75.278132 
935.000000	 75.406467 
934.000000	 75.545089 
933.000000	 75.685130 
932.000000	 75.824051 
931.000000	 75.971789 
930.000000	 76.129808 
929.000000	 76.284246 
928.000000	 76.427582 
927.000000	 76.568373 
926.000000	 76.712613 
925.000000	 76.853401 
924.000000	 76.985025 
923.000000	 77.109625 
922.000000	 77.225194 
921.000000	 77.325277 
920.000000	 77.414897 
919.000000	 77.508050 
918.000000	 77.605231 
917.000000	 77.692670 
916.000000	 77.768229 
915.000000	 77.848666 
914.000000	 77.946881 
913.000000	 78.061782 
912.000000	 78.194829 
911.000000	 78.355839 
910.000000	 78.547022 
909.000000	 78.761133 
908.000000	 78.999922 
907.000000	 79.274334 
906.000000	 79.582647 
905.000000	 79.908701 
904.000000	 80.244960 
903.000000	 80.596852 
902.000000	 80.962051 
901.000000	 81.327467 
900.000000	 81.689880 
899.000000	 82.058341 
898.000000	 82.433111 
897.000000	 82.802064 
896.000000	 83.159664 
895.000000	 83.509050 
894.000000	 83.844800 
893.000000	 84.155740 
892.000000	 84.446783 
891.000000	 84.736148 
890.000000	 85.027466 
889.000000	 85.304861 
888.000000	 85.558385 
887.000000	 85.793756 
886.000000	 86.014672 
885.000000	 86.216565 
884.000000	 86.400951 
883.000000	 86.574658 
882.000000	 86.732036 
881.000000	 86.861095 
880.000000	 86.971627 
879.000000	 87.092868 
878.000000	 87.236288 
877.000000	 87.384996 
876.000000	 87.527619 
875.000000	 87.677378 
874.000000	 87.848889 
873.000000	 88.041528 
872.000000	 88.255923 
871.000000	 88.502104 
870.000000	 88.779035 
869.000000	 89.066865 
868.000000	 89.350522 
867.000000	 89.633662 
866.000000	 89.921936 
865.000000	 90.210908 
864.000000	 90.498645 
863.000000	 90.792791 
862.000000	 91.095715 
861.000000	 91.396772 
860.000000	 91.686672 
859.000000	 91.966093 
858.000000	 92.234599 
857.000000	 92.485092 
856.000000	 92.714993 
855.000000	 92.929521 
854.000000	 93.128624 
853.000000	 93.304086 
852.000000	 93.455190 
851.000000	 93.594540 
850.000000	 93.732953 
849.000000	 93.870148 
848.000000	 94.003576 
847.000000	 94.132423 
846.000000	 94.249050 
845.000000	 94.341499 
844.000000	 94.409803 
843.000000	 94.466294 
842.000000	 94.515201 
841.000000	 94.545769 
840.000000	 94.549974 
839.000000	 94.532304 
838.000000	 94.497571 
837.000000	 94.445098 
836.000000	 94.382123 
835.000000	 94.327677 
834.000000	 94.293408 
833.000000	 94.272751 
832.000000	 94.257229 
831.000000	 94.250834 
830.000000	 94.260258 
829.000000	 94.284311 
828.000000	 94.323036 
827.000000	 94.384677 
826.000000	 94.472164 
825.000000	 94.573347 
824.000000	 94.674196 
823.000000	 94.770688 
822.000000	 94.861096 
821.000000	 94.940515 
820.000000	 95.009186 
819.000000	 95.072220 
818.000000	 95.125287 
817.000000	 95.152045 
816.000000	 95.139932 
815.000000	 95.088595 
814.000000	 94.999881 
813.000000	 94.869515 
812.000000	 94.690901 
811.000000	 94.455251 
810.000000	 94.144405 
809.000000	 93.736499 
808.000000	 93.226057 
807.000000	 92.630627 
806.000000	 91.974892 
805.000000	 91.279508 
804.000000	 90.569048 
803.000000	 89.875227 
802.000000	 89.224192 
801.000000	 88.634738 
800.000000	 88.134254 
799.000000	 87.756860 
798.000000	 87.515913 
797.000000	 87.394467 
796.000000	 87.368252 
795.000000	 87.419098 
794.000000	 87.522612 
793.000000	 87.647359 
792.000000	 87.775057 
791.000000	 87.902344 
790.000000	 88.017796 
789.000000	 88.097837 
788.000000	 88.129550 
787.000000	 88.115474 
786.000000	 88.050660 
785.000000	 87.917798 
784.000000	 87.713755 
783.000000	 87.461389 
782.000000	 87.188107 
781.000000	 86.913637 
780.000000	 86.665758 
779.000000	 86.483083 
778.000000	 86.388722 
777.000000	 86.379571 
776.000000	 86.448964 
775.000000	 86.596675 
774.000000	 86.807229 
773.000000	 87.043145 
772.000000	 87.273840 
771.000000	 87.493478 
770.000000	 87.702125 
769.000000	 87.890226 
768.000000	 88.051084 
767.000000	 88.188270 
766.000000	 88.300864 
765.000000	 88.381123 
764.000000	 88.436574 
763.000000	 88.494120 
762.000000	 88.570592 
761.000000	 88.657229 
760.000000	 88.743017 
759.000000	 88.833466 
758.000000	 88.934966 
757.000000	 89.041089 
756.000000	 89.148473 
755.000000	 89.268292 
754.000000	 89.406907 
753.000000	 89.549675 
752.000000	 89.677486 
751.000000	 89.787717 
750.000000	 89.889809 
749.000000	 89.993090 
748.000000	 90.106830 
747.000000	 90.237926 
746.000000	 90.379960 
745.000000	 90.518241 
744.000000	 90.652867 
743.000000	 90.802022 
742.000000	 90.975509 
741.000000	 91.161082 
740.000000	 91.344258 
739.000000	 91.525222 
738.000000	 91.708333 
737.000000	 91.890514 
736.000000	 92.068338 
735.000000	 92.242705 
734.000000	 92.409576 
733.000000	 92.559232 
732.000000	 92.689330 
731.000000	 92.805003 
730.000000	 92.903313 
729.000000	 92.974409 
728.000000	 93.023181 
727.000000	 93.072310 
726.000000	 93.138545 
725.000000	 93.222173 
724.000000	 93.321242 
723.000000	 93.435846 
722.000000	 93.554692 
721.000000	 93.659850 
720.000000	 93.752918 
719.000000	 93.854749 
718.000000	 93.970553 
717.000000	 94.079244 
716.000000	 94.165172 
715.000000	 94.237807 
714.000000	 94.311660 
713.000000	 94.387310 
712.000000	 94.463485 
711.000000	 94.546975 
710.000000	 94.636998 
709.000000	 94.717639 
708.000000	 94.779077 
707.000000	 94.828447 
706.000000	 94.867107 
705.000000	 94.877245 
704.000000	 94.844140 
703.000000	 94.771930 
702.000000	 94.661815 
701.000000	 94.491430 
700.000000	 94.233909 
699.000000	 93.888538 
698.000000	 93.483673 
697.000000	 93.067151 
696.000000	 92.704135 
695.000000	 92.462022 
694.000000	 92.376401 
693.000000	 92.434377 
692.000000	 92.594944 
691.000000	 92.814585 
690.000000	 93.052174 
689.000000	 93.273846 
688.000000	 93.468311 
687.000000	 93.643904 
686.000000	 93.803156 
685.000000	 93.937331 
684.000000	 94.049790 
683.000000	 94.159968 
682.000000	 94.275942 
681.000000	 94.386026 
680.000000	 94.484758 
679.000000	 94.584840 
678.000000	 94.691820 
677.000000	 94.795617 
676.000000	 94.897091 
675.000000	 95.009634 
674.000000	 95.129054 
673.000000	 95.229437 
672.000000	 95.304001 
671.000000	 95.380692 
670.000000	 95.493849 
669.000000	 95.625282 
668.000000	 95.726350 
667.000000	 95.814929 
666.000000	 95.914653 
665.000000	 95.994469 
664.000000	 96.042683 
663.000000	 96.080876 
662.000000	 96.139952 
661.000000	 96.217326 
660.000000	 96.295538 
659.000000	 96.371537 
658.000000	 96.441098 
657.000000	 96.481317 
656.000000	 96.479523 
655.000000	 96.450586 
654.000000	 96.409100 
653.000000	 96.350836 
652.000000	 96.287708 
651.000000	 96.267277 
650.000000	 96.314456 

