4000.000000	98.135911 
3999.000000	98.135085 
3998.000000	98.133120 
3997.000000	98.130984 
3996.000000	98.129568 
3995.000000	98.129132 
3994.000000	98.129455 
3993.000000	98.130070 
3992.000000	98.130451 
3991.000000	98.130286 
3990.000000	98.129705 
3989.000000	98.129160 
3988.000000	98.128942 
3987.000000	98.128992 
3986.000000	98.129167 
3985.000000	98.129444 
3984.000000	98.129705 
3983.000000	98.129602 
3982.000000	98.129040 
3981.000000	98.128543 
3980.000000	98.128654 
3979.000000	98.129164 
3978.000000	98.129388 
3977.000000	98.129119 
3976.000000	98.128866 
3975.000000	98.129008 
3974.000000	98.129181 
3973.000000	98.128725 
3972.000000	98.127333 
3971.000000	98.125225 
3970.000000	98.123011 
3969.000000	98.121575 
3968.000000	98.121623 
3967.000000	98.123003 
3966.000000	98.124665 
3965.000000	98.125458 
3964.000000	98.124879 
3963.000000	98.123180 
3962.000000	98.121071 
3961.000000	98.119262 
3960.000000	98.117972 
3959.000000	98.116956 
3958.000000	98.116022 
3957.000000	98.115488 
3956.000000	98.115690 
3955.000000	98.116125 
3954.000000	98.115825 
3953.000000	98.114292 
3952.000000	98.111854 
3951.000000	98.109118 
3950.000000	98.106451 
3949.000000	98.104147 
3948.000000	98.102512 
3947.000000	98.101793 
3946.000000	98.102084 
3945.000000	98.103160 
3944.000000	98.104277 
3943.000000	98.104632 
3942.000000	98.104405 
3941.000000	98.104578 
3940.000000	98.105612 
3939.000000	98.106843 
3938.000000	98.107163 
3937.000000	98.106243 
3936.000000	98.104580 
3935.000000	98.102340 
3934.000000	98.099339 
3933.000000	98.095910 
3932.000000	98.093258 
3931.000000	98.092065 
3930.000000	98.091820 
3929.000000	98.092200 
3928.000000	98.093619 
3927.000000	98.096021 
3926.000000	98.097799 
3925.000000	98.097264 
3924.000000	98.095016 
3923.000000	98.093025 
3922.000000	98.091790 
3921.000000	98.090458 
3920.000000	98.088899 
3919.000000	98.088204 
3918.000000	98.088684 
3917.000000	98.089189 
3916.000000	98.088918 
3915.000000	98.088523 
3914.000000	98.088774 
3913.000000	98.089577 
3912.000000	98.090510 
3911.000000	98.091658 
3910.000000	98.092814 
3909.000000	98.093306 
3908.000000	98.092772 
3907.000000	98.091354 
3906.000000	98.089293 
3905.000000	98.086241 
3904.000000	98.082230 
3903.000000	98.078581 
3902.000000	98.076739 
3901.000000	98.076841 
3900.000000	98.077834 
3899.000000	98.078683 
3898.000000	98.079281 
3897.000000	98.079722 
3896.000000	98.079770 
3895.000000	98.079449 
3894.000000	98.079062 
3893.000000	98.078780 
3892.000000	98.078266 
3891.000000	98.077239 
3890.000000	98.076009 
3889.000000	98.075069 
3888.000000	98.074544 
3887.000000	98.074181 
3886.000000	98.073759 
3885.000000	98.073295 
3884.000000	98.072819 
3883.000000	98.072265 
3882.000000	98.071632 
3881.000000	98.071005 
3880.000000	98.070441 
3879.000000	98.069922 
3878.000000	98.069418 
3877.000000	98.068919 
3876.000000	98.068421 
3875.000000	98.067917 
3874.000000	98.067404 
3873.000000	98.066884 
3872.000000	98.066360 
3871.000000	98.065832 
3870.000000	98.065312 
3869.000000	98.064825 
3868.000000	98.064396 
3867.000000	98.064028 
3866.000000	98.063710 
3865.000000	98.063438 
3864.000000	98.063216 
3863.000000	98.063041 
3862.000000	98.062890 
3861.000000	98.062743 
3860.000000	98.062589 
3859.000000	98.062418 
3858.000000	98.062215 
3857.000000	98.061979 
3856.000000	98.061720 
3855.000000	98.061454 
3854.000000	98.061190 
3853.000000	98.060946 
3852.000000	98.060754 
3851.000000	98.060635 
3850.000000	98.060593 
3849.000000	98.060618 
3848.000000	98.060696 
3847.000000	98.060800 
3846.000000	98.060894 
3845.000000	98.060952 
3844.000000	98.060966 
3843.000000	98.060951 
3842.000000	98.060930 
3841.000000	98.060927 
3840.000000	98.060954 
3839.000000	98.061008 
3838.000000	98.061078 
3837.000000	98.061152 
3836.000000	98.061226 
3835.000000	98.061298 
3834.000000	98.061376 
3833.000000	98.061477 
3832.000000	98.061614 
3831.000000	98.061795 
3830.000000	98.062018 
3829.000000	98.062278 
3828.000000	98.062571 
3827.000000	98.062875 
3826.000000	98.063137 
3825.000000	98.063330 
3824.000000	98.063488 
3823.000000	98.063641 
3822.000000	98.063759 
3821.000000	98.063813 
3820.000000	98.063878 
3819.000000	98.064011 
3818.000000	98.064173 
3817.000000	98.064312 
3816.000000	98.064529 
3815.000000	98.065039 
3814.000000	98.065837 
3813.000000	98.066537 
3812.000000	98.066821 
3811.000000	98.066901 
3810.000000	98.067362 
3809.000000	98.068366 
3808.000000	98.069233 
3807.000000	98.069211 
3806.000000	98.068384 
3805.000000	98.067523 
3804.000000	98.066959 
3803.000000	98.066553 
3802.000000	98.066061 
3801.000000	98.065849 
3800.000000	98.066469 
3799.000000	98.067117 
3798.000000	98.066726 
3797.000000	98.065968 
3796.000000	98.066743 
3795.000000	98.069660 
3794.000000	98.072966 
3793.000000	98.074560 
3792.000000	98.074567 
3791.000000	98.074984 
3790.000000	98.076595 
3789.000000	98.077789 
3788.000000	98.077162 
3787.000000	98.075510 
3786.000000	98.074495 
3785.000000	98.074430 
3784.000000	98.074670 
3783.000000	98.075339 
3782.000000	98.076402 
3781.000000	98.076584 
3780.000000	98.074913 
3779.000000	98.072957 
3778.000000	98.072977 
3777.000000	98.074924 
3776.000000	98.076445 
3775.000000	98.075844 
3774.000000	98.073872 
3773.000000	98.072131 
3772.000000	98.070122 
3771.000000	98.065498 
3770.000000	98.058545 
3769.000000	98.053691 
3768.000000	98.053715 
3767.000000	98.056106 
3766.000000	98.056722 
3765.000000	98.054614 
3764.000000	98.052809 
3763.000000	98.053653 
3762.000000	98.055252 
3761.000000	98.054784 
3760.000000	98.053102 
3759.000000	98.053592 
3758.000000	98.054409 
3757.000000	98.050342 
3756.000000	98.040923 
3755.000000	98.029680 
3754.000000	98.018833 
3753.000000	98.007945 
3752.000000	97.998726 
3751.000000	97.994542 
3750.000000	97.992485 
3749.000000	97.986798 
3748.000000	97.979709 
3747.000000	97.978252 
3746.000000	97.983838 
3745.000000	97.989292 
3744.000000	97.993988 
3743.000000	98.002358 
3742.000000	98.009149 
3741.000000	98.006389 
3740.000000	97.996149 
3739.000000	97.989970 
3738.000000	97.994340 
3737.000000	98.001329 
3736.000000	98.001044 
3735.000000	97.996251 
3734.000000	97.995505 
3733.000000	97.998557 
3732.000000	98.000430 
3731.000000	98.001189 
3730.000000	98.003181 
3729.000000	98.005509 
3728.000000	98.005536 
3727.000000	98.003056 
3726.000000	98.001574 
3725.000000	98.003164 
3724.000000	98.005359 
3723.000000	98.005544 
3722.000000	98.004843 
3721.000000	98.005683 
3720.000000	98.007223 
3719.000000	98.008076 
3718.000000	98.007935 
3717.000000	98.006645 
3716.000000	98.004290 
3715.000000	97.999751 
3714.000000	97.992190 
3713.000000	97.984063 
3712.000000	97.979493 
3711.000000	97.979358 
3710.000000	97.978987 
3709.000000	97.974338 
3708.000000	97.966064 
3707.000000	97.956787 
3706.000000	97.949264 
3705.000000	97.945180 
3704.000000	97.944321 
3703.000000	97.944297 
3702.000000	97.941502 
3701.000000	97.934012 
3700.000000	97.923353 
3699.000000	97.913029 
3698.000000	97.905269 
3697.000000	97.899288 
3696.000000	97.894093 
3695.000000	97.889468 
3694.000000	97.884013 
3693.000000	97.876371 
3692.000000	97.867286 
3691.000000	97.858791 
3690.000000	97.850679 
3689.000000	97.842377 
3688.000000	97.835812 
3687.000000	97.832364 
3686.000000	97.830249 
3685.000000	97.826155 
3684.000000	97.819405 
3683.000000	97.813311 
3682.000000	97.810732 
3681.000000	97.808428 
3680.000000	97.800828 
3679.000000	97.787468 
3678.000000	97.773947 
3677.000000	97.763255 
3676.000000	97.751840 
3675.000000	97.739288 
3674.000000	97.728549 
3673.000000	97.719707 
3672.000000	97.710886 
3671.000000	97.703003 
3670.000000	97.699532 
3669.000000	97.701450 
3668.000000	97.703469 
3667.000000	97.700232 
3666.000000	97.693087 
3665.000000	97.686648 
3664.000000	97.682923 
3663.000000	97.680553 
3662.000000	97.676625 
3661.000000	97.668962 
3660.000000	97.658239 
3659.000000	97.646821 
3658.000000	97.637247 
3657.000000	97.629582 
3656.000000	97.622857 
3655.000000	97.617256 
3654.000000	97.611976 
3653.000000	97.604784 
3652.000000	97.593594 
3651.000000	97.579362 
3650.000000	97.567180 
3649.000000	97.561224 
3648.000000	97.559869 
3647.000000	97.559942 
3646.000000	97.561613 
3645.000000	97.565813 
3644.000000	97.571312 
3643.000000	97.576064 
3642.000000	97.578721 
3641.000000	97.578873 
3640.000000	97.576414 
3639.000000	97.570968 
3638.000000	97.563925 
3637.000000	97.558373 
3636.000000	97.555976 
3635.000000	97.554157 
3634.000000	97.549029 
3633.000000	97.540554 
3632.000000	97.531683 
3631.000000	97.523403 
3630.000000	97.513185 
3629.000000	97.502146 
3628.000000	97.496517 
3627.000000	97.496752 
3626.000000	97.496924 
3625.000000	97.495438 
3624.000000	97.496763 
3623.000000	97.504912 
3622.000000	97.518104 
3621.000000	97.529011 
3620.000000	97.530848 
3619.000000	97.523629 
3618.000000	97.512892 
3617.000000	97.504452 
3616.000000	97.502458 
3615.000000	97.507776 
3614.000000	97.517237 
3613.000000	97.526590 
3612.000000	97.533674 
3611.000000	97.538242 
3610.000000	97.541395 
3609.000000	97.545369 
3608.000000	97.551756 
3607.000000	97.559746 
3606.000000	97.566718 
3605.000000	97.572058 
3604.000000	97.578399 
3603.000000	97.587862 
3602.000000	97.598981 
3601.000000	97.607333 
3600.000000	97.610169 
3599.000000	97.608648 
3598.000000	97.606232 
3597.000000	97.605963 
3596.000000	97.609746 
3595.000000	97.615985 
3594.000000	97.620493 
3593.000000	97.620625 
3592.000000	97.617007 
3591.000000	97.612293 
3590.000000	97.608937 
3589.000000	97.607754 
3588.000000	97.608732 
3587.000000	97.612248 
3586.000000	97.618227 
3585.000000	97.625617 
3584.000000	97.633974 
3583.000000	97.643176 
3582.000000	97.652646 
3581.000000	97.660447 
3580.000000	97.664659 
3579.000000	97.665070 
3578.000000	97.663418 
3577.000000	97.662171 
3576.000000	97.662654 
3575.000000	97.664506 
3574.000000	97.665918 
3573.000000	97.665408 
3572.000000	97.662443 
3571.000000	97.657404 
3570.000000	97.651128 
3569.000000	97.644787 
3568.000000	97.640345 
3567.000000	97.640297 
3566.000000	97.644795 
3565.000000	97.650797 
3564.000000	97.655397 
3563.000000	97.658533 
3562.000000	97.661762 
3561.000000	97.666048 
3560.000000	97.670658 
3559.000000	97.674077 
3558.000000	97.675465 
3557.000000	97.675276 
3556.000000	97.674598 
3555.000000	97.674278 
3554.000000	97.674412 
3553.000000	97.674453 
3552.000000	97.673874 
3551.000000	97.672421 
3550.000000	97.670270 
3549.000000	97.668244 
3548.000000	97.667479 
3547.000000	97.668217 
3546.000000	97.669180 
3545.000000	97.668814 
3544.000000	97.667287 
3543.000000	97.666331 
3542.000000	97.667193 
3541.000000	97.669635 
3540.000000	97.672622 
3539.000000	97.675185 
3538.000000	97.676718 
3537.000000	97.676983 
3536.000000	97.676262 
3535.000000	97.675038 
3534.000000	97.673671 
3533.000000	97.672423 
3532.000000	97.671682 
3531.000000	97.671770 
3530.000000	97.672420 
3529.000000	97.672759 
3528.000000	97.672094 
3527.000000	97.670538 
3526.000000	97.668847 
3525.000000	97.667787 
3524.000000	97.667626 
3523.000000	97.668142 
3522.000000	97.668845 
3521.000000	97.669306 
3520.000000	97.669425 
3519.000000	97.669322 
3518.000000	97.669085 
3517.000000	97.668658 
3516.000000	97.667990 
3515.000000	97.667195 
3514.000000	97.666497 
3513.000000	97.666016 
3512.000000	97.665657 
3511.000000	97.665226 
3510.000000	97.664637 
3509.000000	97.663969 
3508.000000	97.663368 
3507.000000	97.662892 
3506.000000	97.662488 
3505.000000	97.662064 
3504.000000	97.661565 
3503.000000	97.661004 
3502.000000	97.660417 
3501.000000	97.659828 
3500.000000	97.659236 
3499.000000	97.658633 
3498.000000	97.658009 
3497.000000	97.657359 
3496.000000	97.656682 
3495.000000	97.655988 
3494.000000	97.655291 
3493.000000	97.654606 
3492.000000	97.653953 
3491.000000	97.653342 
3490.000000	97.652758 
3489.000000	97.652157 
3488.000000	97.651516 
3487.000000	97.650835 
3486.000000	97.650088 
3485.000000	97.649258 
3484.000000	97.648424 
3483.000000	97.647684 
3482.000000	97.647007 
3481.000000	97.646277 
3480.000000	97.645491 
3479.000000	97.644783 
3478.000000	97.644186 
3477.000000	97.643519 
3476.000000	97.642607 
3475.000000	97.641510 
3474.000000	97.640467 
3473.000000	97.639711 
3472.000000	97.639353 
3471.000000	97.639298 
3470.000000	97.639208 
3469.000000	97.638751 
3468.000000	97.637893 
3467.000000	97.636912 
3466.000000	97.636167 
3465.000000	97.635833 
3464.000000	97.635779 
3463.000000	97.635553 
3462.000000	97.634571 
3461.000000	97.632541 
3460.000000	97.629757 
3459.000000	97.626874 
3458.000000	97.624389 
3457.000000	97.622390 
3456.000000	97.620869 
3455.000000	97.620016 
3454.000000	97.620148 
3453.000000	97.621282 
3452.000000	97.622952 
3451.000000	97.624485 
3450.000000	97.625272 
3449.000000	97.624835 
3448.000000	97.622935 
3447.000000	97.619846 
3446.000000	97.616416 
3445.000000	97.613679 
3444.000000	97.612251 
3443.000000	97.612070 
3442.000000	97.612456 
3441.000000	97.612524 
3440.000000	97.611872 
3439.000000	97.610831 
3438.000000	97.610007 
3437.000000	97.609601 
3436.000000	97.609408 
3435.000000	97.609364 
3434.000000	97.609719 
3433.000000	97.610461 
3432.000000	97.611022 
3431.000000	97.610880 
3430.000000	97.610152 
3429.000000	97.609381 
3428.000000	97.608795 
3427.000000	97.608116 
3426.000000	97.607144 
3425.000000	97.606179 
3424.000000	97.605635 
3423.000000	97.605426 
3422.000000	97.605034 
3421.000000	97.604197 
3420.000000	97.603222 
3419.000000	97.602528 
3418.000000	97.602152 
3417.000000	97.601872 
3416.000000	97.601615 
3415.000000	97.601466 
3414.000000	97.601388 
3413.000000	97.601216 
3412.000000	97.600885 
3411.000000	97.600511 
3410.000000	97.600244 
3409.000000	97.600113 
3408.000000	97.600033 
3407.000000	97.599885 
3406.000000	97.599608 
3405.000000	97.599229 
3404.000000	97.598842 
3403.000000	97.598527 
3402.000000	97.598286 
3401.000000	97.598070 
3400.000000	97.597829 
3399.000000	97.597543 
3398.000000	97.597197 
3397.000000	97.596797 
3396.000000	97.596393 
3395.000000	97.596063 
3394.000000	97.595854 
3393.000000	97.595733 
3392.000000	97.595593 
3391.000000	97.595331 
3390.000000	97.594917 
3389.000000	97.594431 
3388.000000	97.594057 
3387.000000	97.593978 
3386.000000	97.594240 
3385.000000	97.594637 
3384.000000	97.594831 
3383.000000	97.594652 
3382.000000	97.594262 
3381.000000	97.593973 
3380.000000	97.593830 
3379.000000	97.593502 
3378.000000	97.592739 
3377.000000	97.591933 
3376.000000	97.591872 
3375.000000	97.592751 
3374.000000	97.593678 
3373.000000	97.593560 
3372.000000	97.592425 
3371.000000	97.591436 
3370.000000	97.591586 
3369.000000	97.592761 
3368.000000	97.594139 
3367.000000	97.595146 
3366.000000	97.595717 
3365.000000	97.595900 
3364.000000	97.595672 
3363.000000	97.595119 
3362.000000	97.594498 
3361.000000	97.594068 
3360.000000	97.594045 
3359.000000	97.594649 
3358.000000	97.595978 
3357.000000	97.597805 
3356.000000	97.599617 
3355.000000	97.601033 
3354.000000	97.602172 
3353.000000	97.603580 
3352.000000	97.605685 
3351.000000	97.608344 
3350.000000	97.610921 
3349.000000	97.612777 
3348.000000	97.613797 
3347.000000	97.614451 
3346.000000	97.615324 
3345.000000	97.616513 
3344.000000	97.617478 
3343.000000	97.617526 
3342.000000	97.616474 
3341.000000	97.614891 
3340.000000	97.613578 
3339.000000	97.612864 
3338.000000	97.612585 
3337.000000	97.612581 
3336.000000	97.612904 
3335.000000	97.613548 
3334.000000	97.614234 
3333.000000	97.614596 
3332.000000	97.614498 
3331.000000	97.614099 
3330.000000	97.613668 
3329.000000	97.613428 
3328.000000	97.613578 
3327.000000	97.614300 
3326.000000	97.615613 
3325.000000	97.617189 
3324.000000	97.618433 
3323.000000	97.618922 
3322.000000	97.618758 
3321.000000	97.618470 
3320.000000	97.618558 
3319.000000	97.619091 
3318.000000	97.619794 
3317.000000	97.620376 
3316.000000	97.620754 
3315.000000	97.620997 
3314.000000	97.621190 
3313.000000	97.621376 
3312.000000	97.621581 
3311.000000	97.621854 
3310.000000	97.622263 
3309.000000	97.622826 
3308.000000	97.623428 
3307.000000	97.623832 
3306.000000	97.623904 
3305.000000	97.623731 
3304.000000	97.623539 
3303.000000	97.623513 
3302.000000	97.623685 
3301.000000	97.623992 
3300.000000	97.624342 
3299.000000	97.624657 
3298.000000	97.624899 
3297.000000	97.625094 
3296.000000	97.625313 
3295.000000	97.625630 
3294.000000	97.626060 
3293.000000	97.626566 
3292.000000	97.627078 
3291.000000	97.627528 
3290.000000	97.627893 
3289.000000	97.628196 
3288.000000	97.628496 
3287.000000	97.628831 
3286.000000	97.629187 
3285.000000	97.629518 
3284.000000	97.629795 
3283.000000	97.630027 
3282.000000	97.630258 
3281.000000	97.630542 
3280.000000	97.630890 
3279.000000	97.631265 
3278.000000	97.631640 
3277.000000	97.632042 
3276.000000	97.632495 
3275.000000	97.632975 
3274.000000	97.633453 
3273.000000	97.633929 
3272.000000	97.634417 
3271.000000	97.634911 
3270.000000	97.635409 
3269.000000	97.635907 
3268.000000	97.636397 
3267.000000	97.636879 
3266.000000	97.637365 
3265.000000	97.637872 
3264.000000	97.638412 
3263.000000	97.638984 
3262.000000	97.639580 
3261.000000	97.640186 
3260.000000	97.640795 
3259.000000	97.641403 
3258.000000	97.642014 
3257.000000	97.642630 
3256.000000	97.643254 
3255.000000	97.643887 
3254.000000	97.644522 
3253.000000	97.645151 
3252.000000	97.645771 
3251.000000	97.646387 
3250.000000	97.647006 
3249.000000	97.647635 
3248.000000	97.648276 
3247.000000	97.648927 
3246.000000	97.649585 
3245.000000	97.650248 
3244.000000	97.650915 
3243.000000	97.651589 
3242.000000	97.652277 
3241.000000	97.652982 
3240.000000	97.653704 
3239.000000	97.654438 
3238.000000	97.655182 
3237.000000	97.655930 
3236.000000	97.656679 
3235.000000	97.657424 
3234.000000	97.658160 
3233.000000	97.658888 
3232.000000	97.659618 
3231.000000	97.660362 
3230.000000	97.661127 
3229.000000	97.661908 
3228.000000	97.662696 
3227.000000	97.663483 
3226.000000	97.664271 
3225.000000	97.665070 
3224.000000	97.665885 
3223.000000	97.666713 
3222.000000	97.667545 
3221.000000	97.668374 
3220.000000	97.669196 
3219.000000	97.670014 
3218.000000	97.670829 
3217.000000	97.671648 
3216.000000	97.672479 
3215.000000	97.673330 
3214.000000	97.674204 
3213.000000	97.675102 
3212.000000	97.676019 
3211.000000	97.676952 
3210.000000	97.677901 
3209.000000	97.678871 
3208.000000	97.679865 
3207.000000	97.680881 
3206.000000	97.681918 
3205.000000	97.682972 
3204.000000	97.684044 
3203.000000	97.685139 
3202.000000	97.686256 
3201.000000	97.687389 
3200.000000	97.688532 
3199.000000	97.689677 
3198.000000	97.690821 
3197.000000	97.691969 
3196.000000	97.693123 
3195.000000	97.694288 
3194.000000	97.695469 
3193.000000	97.696673 
3192.000000	97.697903 
3191.000000	97.699158 
3190.000000	97.700427 
3189.000000	97.701694 
3188.000000	97.702946 
3187.000000	97.704181 
3186.000000	97.705416 
3185.000000	97.706676 
3184.000000	97.707975 
3183.000000	97.709308 
3182.000000	97.710656 
3181.000000	97.712006 
3180.000000	97.713350 
3179.000000	97.714685 
3178.000000	97.716017 
3177.000000	97.717368 
3176.000000	97.718762 
3175.000000	97.720207 
3174.000000	97.721688 
3173.000000	97.723176 
3172.000000	97.724650 
3171.000000	97.726090 
3170.000000	97.727485 
3169.000000	97.728847 
3168.000000	97.730207 
3167.000000	97.731580 
3166.000000	97.732954 
3165.000000	97.734315 
3164.000000	97.735662 
3163.000000	97.737000 
3162.000000	97.738336 
3161.000000	97.739674 
3160.000000	97.741015 
3159.000000	97.742361 
3158.000000	97.743715 
3157.000000	97.745080 
3156.000000	97.746456 
3155.000000	97.747844 
3154.000000	97.749243 
3153.000000	97.750654 
3152.000000	97.752079 
3151.000000	97.753510 
3150.000000	97.754939 
3149.000000	97.756357 
3148.000000	97.757766 
3147.000000	97.759177 
3146.000000	97.760602 
3145.000000	97.762046 
3144.000000	97.763503 
3143.000000	97.764960 
3142.000000	97.766402 
3141.000000	97.767824 
3140.000000	97.769230 
3139.000000	97.770627 
3138.000000	97.772022 
3137.000000	97.773415 
3136.000000	97.774807 
3135.000000	97.776196 
3134.000000	97.777582 
3133.000000	97.778969 
3132.000000	97.780361 
3131.000000	97.781761 
3130.000000	97.783166 
3129.000000	97.784576 
3128.000000	97.785989 
3127.000000	97.787409 
3126.000000	97.788836 
3125.000000	97.790267 
3124.000000	97.791701 
3123.000000	97.793135 
3122.000000	97.794567 
3121.000000	97.796001 
3120.000000	97.797436 
3119.000000	97.798879 
3118.000000	97.800332 
3117.000000	97.801780 
3116.000000	97.803205 
3115.000000	97.804617 
3114.000000	97.806045 
3113.000000	97.807509 
3112.000000	97.808995 
3111.000000	97.810464 
3110.000000	97.811875 
3109.000000	97.813187 
3108.000000	97.814385 
3107.000000	97.815533 
3106.000000	97.816790 
3105.000000	97.818276 
3104.000000	97.819884 
3103.000000	97.821288 
3102.000000	97.822226 
3101.000000	97.822725 
3100.000000	97.823043 
3099.000000	97.823450 
3098.000000	97.824172 
3097.000000	97.825470 
3096.000000	97.827481 
3095.000000	97.829927 
3094.000000	97.832239 
3093.000000	97.834040 
3092.000000	97.835361 
3091.000000	97.836358 
3090.000000	97.837035 
3089.000000	97.837439 
3088.000000	97.837886 
3087.000000	97.838762 
3086.000000	97.840165 
3085.000000	97.841828 
3084.000000	97.843289 
3083.000000	97.844124 
3082.000000	97.844284 
3081.000000	97.844420 
3080.000000	97.845457 
3079.000000	97.847408 
3078.000000	97.849107 
3077.000000	97.849716 
3076.000000	97.849840 
3075.000000	97.850307 
3074.000000	97.850733 
3073.000000	97.850576 
3072.000000	97.850831 
3071.000000	97.853042 
3070.000000	97.856810 
3069.000000	97.859906 
3068.000000	97.860931 
3067.000000	97.860414 
3066.000000	97.859212 
3065.000000	97.857417 
3064.000000	97.855177 
3063.000000	97.853119 
3062.000000	97.851334 
3061.000000	97.849164 
3060.000000	97.846604 
3059.000000	97.845072 
3058.000000	97.846331 
3057.000000	97.851020 
3056.000000	97.857968 
3055.000000	97.864127 
3054.000000	97.865869 
3053.000000	97.861922 
3052.000000	97.855316 
3051.000000	97.851135 
3050.000000	97.851575 
3049.000000	97.854268 
3048.000000	97.855587 
3047.000000	97.854191 
3046.000000	97.850883 
3045.000000	97.846805 
3044.000000	97.843213 
3043.000000	97.842058 
3042.000000	97.844855 
3041.000000	97.850466 
3040.000000	97.854866 
3039.000000	97.854045 
3038.000000	97.847202 
3037.000000	97.837080 
3036.000000	97.827257 
3035.000000	97.819226 
3034.000000	97.812418 
3033.000000	97.806356 
3032.000000	97.801489 
3031.000000	97.797949 
3030.000000	97.794807 
3029.000000	97.790981 
3028.000000	97.785755 
3027.000000	97.778059 
3026.000000	97.766758 
3025.000000	97.752716 
3024.000000	97.739396 
3023.000000	97.729875 
3022.000000	97.723950 
3021.000000	97.719452 
3020.000000	97.715408 
3019.000000	97.712129 
3018.000000	97.708723 
3017.000000	97.702804 
3016.000000	97.693055 
3015.000000	97.680467 
3014.000000	97.666780 
3013.000000	97.653065 
3012.000000	97.640050 
3011.000000	97.628353 
3010.000000	97.617695 
3009.000000	97.606787 
3008.000000	97.594371 
3007.000000	97.579859 
3006.000000	97.563147 
3005.000000	97.544920 
3004.000000	97.527209 
3003.000000	97.512499 
3002.000000	97.501902 
3001.000000	97.494721 
3000.000000	97.489400 
2999.000000	97.483887 
2998.000000	97.475695 
2997.000000	97.463575 
2996.000000	97.449395 
2995.000000	97.436609 
2994.000000	97.426010 
2993.000000	97.414242 
2992.000000	97.397545 
2991.000000	97.376399 
2990.000000	97.355856 
2989.000000	97.341813 
2988.000000	97.337345 
2987.000000	97.341591 
2986.000000	97.350936 
2985.000000	97.361368 
2984.000000	97.370262 
2983.000000	97.376384 
2982.000000	97.379040 
2981.000000	97.378078 
2980.000000	97.374517 
2979.000000	97.370130 
2978.000000	97.366192 
2977.000000	97.363182 
2976.000000	97.361565 
2975.000000	97.361866 
2974.000000	97.363854 
2973.000000	97.366609 
2972.000000	97.369764 
2971.000000	97.373962 
2970.000000	97.379819 
2969.000000	97.387228 
2968.000000	97.395873 
2967.000000	97.405499 
2966.000000	97.415359 
2965.000000	97.424310 
2964.000000	97.431938 
2963.000000	97.438871 
2962.000000	97.445631 
2961.000000	97.451985 
2960.000000	97.457971 
2959.000000	97.464730 
2958.000000	97.473469 
2957.000000	97.483937 
2956.000000	97.494451 
2955.000000	97.503233 
2954.000000	97.509669 
2953.000000	97.514930 
2952.000000	97.521593 
2951.000000	97.531597 
2950.000000	97.543698 
2949.000000	97.553683 
2948.000000	97.558184 
2947.000000	97.557824 
2946.000000	97.555968 
2945.000000	97.554940 
2944.000000	97.554636 
2943.000000	97.554614 
2942.000000	97.555638 
2941.000000	97.558290 
2940.000000	97.561470 
2939.000000	97.563708 
2938.000000	97.565374 
2937.000000	97.568130 
2936.000000	97.572044 
2935.000000	97.574483 
2934.000000	97.572681 
2933.000000	97.566827 
2932.000000	97.560067 
2931.000000	97.555663 
2930.000000	97.554607 
2929.000000	97.555776 
2928.000000	97.557510 
2927.000000	97.558662 
2926.000000	97.558752 
2925.000000	97.558094 
2924.000000	97.557874 
2923.000000	97.559343 
2922.000000	97.562428 
2921.000000	97.565451 
2920.000000	97.566817 
2919.000000	97.566742 
2918.000000	97.566510 
2917.000000	97.565911 
2916.000000	97.562531 
2915.000000	97.554630 
2914.000000	97.544262 
2913.000000	97.536203 
2912.000000	97.533365 
2911.000000	97.534216 
2910.000000	97.535124 
2909.000000	97.534322 
2908.000000	97.532755 
2907.000000	97.531554 
2906.000000	97.530048 
2905.000000	97.526276 
2904.000000	97.519050 
2903.000000	97.509463 
2902.000000	97.501827 
2901.000000	97.501198 
2900.000000	97.509786 
2899.000000	97.525031 
2898.000000	97.541174 
2897.000000	97.553608 
2896.000000	97.560923 
2895.000000	97.563648 
2894.000000	97.563166 
2893.000000	97.562228 
2892.000000	97.564218 
2891.000000	97.570167 
2890.000000	97.577535 
2889.000000	97.583357 
2888.000000	97.587638 
2887.000000	97.592041 
2886.000000	97.596366 
2885.000000	97.598949 
2884.000000	97.600512 
2883.000000	97.604767 
2882.000000	97.613947 
2881.000000	97.625725 
2880.000000	97.636197 
2879.000000	97.644752 
2878.000000	97.653769 
2877.000000	97.664157 
2876.000000	97.673564 
2875.000000	97.679579 
2874.000000	97.682894 
2873.000000	97.686255 
2872.000000	97.691254 
2871.000000	97.697210 
2870.000000	97.702683 
2869.000000	97.706949 
2868.000000	97.710106 
2867.000000	97.712665 
2866.000000	97.715306 
2865.000000	97.718622 
2864.000000	97.723108 
2863.000000	97.729699 
2862.000000	97.739844 
2861.000000	97.754061 
2860.000000	97.770314 
2859.000000	97.784880 
2858.000000	97.795560 
2857.000000	97.803500 
2856.000000	97.811406 
2855.000000	97.820301 
2854.000000	97.828648 
2853.000000	97.834412 
2852.000000	97.837174 
2851.000000	97.838429 
2850.000000	97.840464 
2849.000000	97.844890 
2848.000000	97.851706 
2847.000000	97.859541 
2846.000000	97.866911 
2845.000000	97.873238 
2844.000000	97.878698 
2843.000000	97.883602 
2842.000000	97.888284 
2841.000000	97.893058 
2840.000000	97.897625 
2839.000000	97.900956 
2838.000000	97.902517 
2837.000000	97.903367 
2836.000000	97.905321 
2835.000000	97.909077 
2834.000000	97.913945 
2833.000000	97.919242 
2832.000000	97.924892 
2831.000000	97.930448 
2830.000000	97.934575 
2829.000000	97.936205 
2828.000000	97.935778 
2827.000000	97.934948 
2826.000000	97.935381 
2825.000000	97.937889 
2824.000000	97.942107 
2823.000000	97.946608 
2822.000000	97.949773 
2821.000000	97.951042 
2820.000000	97.951186 
2819.000000	97.951330 
2818.000000	97.952113 
2817.000000	97.953834 
2816.000000	97.956670 
2815.000000	97.960191 
2814.000000	97.963099 
2813.000000	97.964045 
2812.000000	97.962727 
2811.000000	97.960095 
2810.000000	97.957765 
2809.000000	97.957224 
2808.000000	97.959153 
2807.000000	97.963077 
2806.000000	97.967636 
2805.000000	97.971514 
2804.000000	97.974168 
2803.000000	97.975697 
2802.000000	97.976428 
2801.000000	97.976799 
2800.000000	97.977265 
2799.000000	97.977961 
2798.000000	97.978586 
2797.000000	97.978864 
2796.000000	97.978995 
2795.000000	97.979495 
2794.000000	97.980642 
2793.000000	97.982226 
2792.000000	97.983775 
2791.000000	97.984914 
2790.000000	97.985543 
2789.000000	97.985784 
2788.000000	97.985859 
2787.000000	97.985997 
2786.000000	97.986401 
2785.000000	97.987218 
2784.000000	97.988407 
2783.000000	97.989709 
2782.000000	97.990833 
2781.000000	97.991741 
2780.000000	97.992672 
2779.000000	97.993859 
2778.000000	97.995269 
2777.000000	97.996621 
2776.000000	97.997635 
2775.000000	97.998264 
2774.000000	97.998737 
2773.000000	97.999331 
2772.000000	98.000078 
2771.000000	98.000789 
2770.000000	98.001414 
2769.000000	98.002279 
2768.000000	98.003758 
2767.000000	98.005788 
2766.000000	98.007808 
2765.000000	98.009280 
2764.000000	98.010147 
2763.000000	98.010664 
2762.000000	98.011001 
2761.000000	98.011172 
2760.000000	98.011298 
2759.000000	98.011691 
2758.000000	98.012589 
2757.000000	98.013875 
2756.000000	98.015148 
2755.000000	98.016136 
2754.000000	98.016985 
2753.000000	98.017997 
2752.000000	98.019113 
2751.000000	98.019930 
2750.000000	98.020324 
2749.000000	98.020750 
2748.000000	98.021630 
2747.000000	98.022636 
2746.000000	98.023022 
2745.000000	98.022586 
2744.000000	98.021972 
2743.000000	98.021956 
2742.000000	98.022646 
2741.000000	98.023624 
2740.000000	98.024590 
2739.000000	98.025597 
2738.000000	98.026677 
2737.000000	98.027654 
2736.000000	98.028370 
2735.000000	98.028867 
2734.000000	98.029307 
2733.000000	98.029830 
2732.000000	98.030506 
2731.000000	98.031339 
2730.000000	98.032302 
2729.000000	98.033378 
2728.000000	98.034527 
2727.000000	98.035569 
2726.000000	98.036246 
2725.000000	98.036490 
2724.000000	98.036547 
2723.000000	98.036694 
2722.000000	98.036936 
2721.000000	98.037134 
2720.000000	98.037320 
2719.000000	98.037683 
2718.000000	98.038304 
2717.000000	98.039024 
2716.000000	98.039616 
2715.000000	98.040044 
2714.000000	98.040451 
2713.000000	98.040931 
2712.000000	98.041423 
2711.000000	98.041839 
2710.000000	98.042210 
2709.000000	98.042646 
2708.000000	98.043196 
2707.000000	98.043797 
2706.000000	98.044363 
2705.000000	98.044863 
2704.000000	98.045302 
2703.000000	98.045662 
2702.000000	98.045934 
2701.000000	98.046175 
2700.000000	98.046474 
2699.000000	98.046868 
2698.000000	98.047319 
2697.000000	98.047741 
2696.000000	98.048053 
2695.000000	98.048243 
2694.000000	98.048367 
2693.000000	98.048509 
2692.000000	98.048703 
2691.000000	98.048918 
2690.000000	98.049118 
2689.000000	98.049305 
2688.000000	98.049504 
2687.000000	98.049713 
2686.000000	98.049906 
2685.000000	98.050077 
2684.000000	98.050237 
2683.000000	98.050390 
2682.000000	98.050522 
2681.000000	98.050629 
2680.000000	98.050738 
2679.000000	98.050882 
2678.000000	98.051049 
2677.000000	98.051183 
2676.000000	98.051233 
2675.000000	98.051193 
2674.000000	98.051080 
2673.000000	98.050937 
2672.000000	98.050827 
2671.000000	98.050791 
2670.000000	98.050822 
2669.000000	98.050876 
2668.000000	98.050918 
2667.000000	98.050944 
2666.000000	98.050942 
2665.000000	98.050893 
2664.000000	98.050811 
2663.000000	98.050762 
2662.000000	98.050821 
2661.000000	98.050981 
2660.000000	98.051124 
2659.000000	98.051127 
2658.000000	98.050991 
2657.000000	98.050825 
2656.000000	98.050735 
2655.000000	98.050750 
2654.000000	98.050806 
2653.000000	98.050766 
2652.000000	98.050530 
2651.000000	98.050137 
2650.000000	98.049757 
2649.000000	98.049549 
2648.000000	98.049543 
2647.000000	98.049644 
2646.000000	98.049676 
2645.000000	98.049439 
2644.000000	98.048849 
2643.000000	98.048119 
2642.000000	98.047685 
2641.000000	98.047826 
2640.000000	98.048383 
2639.000000	98.048904 
2638.000000	98.049087 
2637.000000	98.048971 
2636.000000	98.048761 
2635.000000	98.048659 
2634.000000	98.048844 
2633.000000	98.049435 
2632.000000	98.050291 
2631.000000	98.050947 
2630.000000	98.050961 
2629.000000	98.050300 
2628.000000	98.049344 
2627.000000	98.048568 
2626.000000	98.048293 
2625.000000	98.048638 
2624.000000	98.049454 
2623.000000	98.050325 
2622.000000	98.050834 
2621.000000	98.050792 
2620.000000	98.050098 
2619.000000	98.048619 
2618.000000	98.046540 
2617.000000	98.044646 
2616.000000	98.043757 
2615.000000	98.043854 
2614.000000	98.044076 
2613.000000	98.043696 
2612.000000	98.042893 
2611.000000	98.042340 
2610.000000	98.042385 
2609.000000	98.042842 
2608.000000	98.043312 
2607.000000	98.043448 
2606.000000	98.043164 
2605.000000	98.042754 
2604.000000	98.042604 
2603.000000	98.042689 
2602.000000	98.042569 
2601.000000	98.042016 
2600.000000	98.041257 
2599.000000	98.040430 
2598.000000	98.039300 
2597.000000	98.037855 
2596.000000	98.036687 
2595.000000	98.036263 
2594.000000	98.036156 
2593.000000	98.035600 
2592.000000	98.034615 
2591.000000	98.033957 
2590.000000	98.034021 
2589.000000	98.034366 
2588.000000	98.034387 
2587.000000	98.033999 
2586.000000	98.033577 
2585.000000	98.033600 
2584.000000	98.034409 
2583.000000	98.035946 
2582.000000	98.037611 
2581.000000	98.038616 
2580.000000	98.038579 
2579.000000	98.037664 
2578.000000	98.036340 
2577.000000	98.035192 
2576.000000	98.034729 
2575.000000	98.034996 
2574.000000	98.035386 
2573.000000	98.035085 
2572.000000	98.033723 
2571.000000	98.031462 
2570.000000	98.028802 
2569.000000	98.026581 
2568.000000	98.025761 
2567.000000	98.026641 
2566.000000	98.028258 
2565.000000	98.029046 
2564.000000	98.028244 
2563.000000	98.026326 
2562.000000	98.024277 
2561.000000	98.022972 
2560.000000	98.023167 
2559.000000	98.025287 
2558.000000	98.028790 
2557.000000	98.032116 
2556.000000	98.033938 
2555.000000	98.034279 
2554.000000	98.034083 
2553.000000	98.033963 
2552.000000	98.033733 
2551.000000	98.033263 
2550.000000	98.033066 
2549.000000	98.033523 
2548.000000	98.034009 
2547.000000	98.033538 
2546.000000	98.032222 
2545.000000	98.031258 
2544.000000	98.031414 
2543.000000	98.032032 
2542.000000	98.031949 
2541.000000	98.030985 
2540.000000	98.030027 
2539.000000	98.029709 
2538.000000	98.029695 
2537.000000	98.029429 
2536.000000	98.028989 
2535.000000	98.028862 
2534.000000	98.029138 
2533.000000	98.029373 
2532.000000	98.029223 
2531.000000	98.028869 
2530.000000	98.028683 
2529.000000	98.028680 
2528.000000	98.028559 
2527.000000	98.028209 
2526.000000	98.027936 
2525.000000	98.028098 
2524.000000	98.028670 
2523.000000	98.029268 
2522.000000	98.029538 
2521.000000	98.029401 
2520.000000	98.028982 
2519.000000	98.028455 
2518.000000	98.027991 
2517.000000	98.027688 
2516.000000	98.027465 
2515.000000	98.027133 
2514.000000	98.026714 
2513.000000	98.026575 
2512.000000	98.027012 
2511.000000	98.027898 
2510.000000	98.028799 
2509.000000	98.029357 
2508.000000	98.029499 
2507.000000	98.029377 
2506.000000	98.029315 
2505.000000	98.029657 
2504.000000	98.030504 
2503.000000	98.031466 
2502.000000	98.031883 
2501.000000	98.031513 
2500.000000	98.030676 
2499.000000	98.030000 
2498.000000	98.029784 
2497.000000	98.029917 
2496.000000	98.030145 
2495.000000	98.030291 
2494.000000	98.030302 
2493.000000	98.030199 
2492.000000	98.030046 
2491.000000	98.029922 
2490.000000	98.029881 
2489.000000	98.029918 
2488.000000	98.029977 
2487.000000	98.029990 
2486.000000	98.029954 
2485.000000	98.029974 
2484.000000	98.030162 
2483.000000	98.030452 
2482.000000	98.030605 
2481.000000	98.030471 
2480.000000	98.030158 
2479.000000	98.029874 
2478.000000	98.029726 
2477.000000	98.029725 
2476.000000	98.029837 
2475.000000	98.029914 
2474.000000	98.029734 
2473.000000	98.029261 
2472.000000	98.028717 
2471.000000	98.028226 
2470.000000	98.027588 
2469.000000	98.026697 
2468.000000	98.026018 
2467.000000	98.026164 
2466.000000	98.027063 
2465.000000	98.027916 
2464.000000	98.028169 
2463.000000	98.028154 
2462.000000	98.028604 
2461.000000	98.029803 
2460.000000	98.031384 
2459.000000	98.032662 
2458.000000	98.033069 
2457.000000	98.032472 
2456.000000	98.031113 
2455.000000	98.029569 
2454.000000	98.028425 
2453.000000	98.027835 
2452.000000	98.027583 
2451.000000	98.027440 
2450.000000	98.027443 
2449.000000	98.027719 
2448.000000	98.028158 
2447.000000	98.028431 
2446.000000	98.028373 
2445.000000	98.028170 
2444.000000	98.028124 
2443.000000	98.028333 
2442.000000	98.028673 
2441.000000	98.028980 
2440.000000	98.029190 
2439.000000	98.029336 
2438.000000	98.029500 
2437.000000	98.029742 
2436.000000	98.030050 
2435.000000	98.030372 
2434.000000	98.030673 
2433.000000	98.030955 
2432.000000	98.031237 
2431.000000	98.031531 
2430.000000	98.031842 
2429.000000	98.032175 
2428.000000	98.032520 
2427.000000	98.032861 
2426.000000	98.033176 
2425.000000	98.033449 
2424.000000	98.033683 
2423.000000	98.033894 
2422.000000	98.034104 
2421.000000	98.034329 
2420.000000	98.034579 
2419.000000	98.034848 
2418.000000	98.035131 
2417.000000	98.035423 
2416.000000	98.035727 
2415.000000	98.036051 
2414.000000	98.036394 
2413.000000	98.036753 
2412.000000	98.037120 
2411.000000	98.037494 
2410.000000	98.037876 
2409.000000	98.038264 
2408.000000	98.038652 
2407.000000	98.039026 
2406.000000	98.039374 
2405.000000	98.039692 
2404.000000	98.039984 
2403.000000	98.040262 
2402.000000	98.040535 
2401.000000	98.040807 
2400.000000	98.041079 
2399.000000	98.041349 
2398.000000	98.041611 
2397.000000	98.041856 
2396.000000	98.042074 
2395.000000	98.042252 
2394.000000	98.042378 
2393.000000	98.042455 
2392.000000	98.042500 
2391.000000	98.042529 
2390.000000	98.042535 
2389.000000	98.042492 
2388.000000	98.042376 
2387.000000	98.042183 
2386.000000	98.041931 
2385.000000	98.041644 
2384.000000	98.041347 
2383.000000	98.041058 
2382.000000	98.040788 
2381.000000	98.040540 
2380.000000	98.040307 
2379.000000	98.040078 
2378.000000	98.039830 
2377.000000	98.039543 
2376.000000	98.039202 
2375.000000	98.038809 
2374.000000	98.038370 
2373.000000	98.037892 
2372.000000	98.037386 
2371.000000	98.036860 
2370.000000	98.036318 
2369.000000	98.035749 
2368.000000	98.035131 
2367.000000	98.034441 
2366.000000	98.033681 
2365.000000	98.032878 
2364.000000	98.032071 
2363.000000	98.031285 
2362.000000	98.030517 
2361.000000	98.029756 
2360.000000	98.028991 
2359.000000	98.028218 
2358.000000	98.027435 
2357.000000	98.026635 
2356.000000	98.025813 
2355.000000	98.024971 
2354.000000	98.024122 
2353.000000	98.023282 
2352.000000	98.022473 
2351.000000	98.021701 
2350.000000	98.020952 
2349.000000	98.020202 
2348.000000	98.019455 
2347.000000	98.018746 
2346.000000	98.018124 
2345.000000	98.017607 
2344.000000	98.017177 
2343.000000	98.016799 
2342.000000	98.016444 
2341.000000	98.016094 
2340.000000	98.015735 
2339.000000	98.015349 
2338.000000	98.014917 
2337.000000	98.014434 
2336.000000	98.013891 
2335.000000	98.013306 
2334.000000	98.012704 
2333.000000	98.012123 
2332.000000	98.011616 
2331.000000	98.011256 
2330.000000	98.011017 
2329.000000	98.010740 
2328.000000	98.010301 
2327.000000	98.009681 
2326.000000	98.009011 
2325.000000	98.008376 
2324.000000	98.007955 
2323.000000	98.007926 
2322.000000	98.008163 
2321.000000	98.008256 
2320.000000	98.007929 
2319.000000	98.007558 
2318.000000	98.007473 
2317.000000	98.007488 
2316.000000	98.006994 
2315.000000	98.005870 
2314.000000	98.004575 
2313.000000	98.003681 
2312.000000	98.003429 
2311.000000	98.003723 
2310.000000	98.004130 
2309.000000	98.003934 
2308.000000	98.003116 
2307.000000	98.002650 
2306.000000	98.003347 
2305.000000	98.004310 
2304.000000	98.003989 
2303.000000	98.002223 
2302.000000	98.000580 
2301.000000	98.000298 
2300.000000	98.000616 
2299.000000	97.999661 
2298.000000	97.996284 
2297.000000	97.990779 
2296.000000	97.984796 
2295.000000	97.980109 
2294.000000	97.977665 
2293.000000	97.976891 
2292.000000	97.976698 
2291.000000	97.976362 
2290.000000	97.975800 
2289.000000	97.974956 
2288.000000	97.973651 
2287.000000	97.971583 
2286.000000	97.968518 
2285.000000	97.964750 
2284.000000	97.961294 
2283.000000	97.959154 
2282.000000	97.958199 
2281.000000	97.957170 
2280.000000	97.954879 
2279.000000	97.951160 
2278.000000	97.946557 
2277.000000	97.941882 
2276.000000	97.938034 
2275.000000	97.935629 
2274.000000	97.934404 
2273.000000	97.933536 
2272.000000	97.932742 
2271.000000	97.932381 
2270.000000	97.932336 
2269.000000	97.931682 
2268.000000	97.929860 
2267.000000	97.927475 
2266.000000	97.925496 
2265.000000	97.924171 
2264.000000	97.923028 
2263.000000	97.921415 
2262.000000	97.918852 
2261.000000	97.915277 
2260.000000	97.911321 
2259.000000	97.907884 
2258.000000	97.905276 
2257.000000	97.903192 
2256.000000	97.901597 
2255.000000	97.901035 
2254.000000	97.901602 
2253.000000	97.902048 
2252.000000	97.900697 
2251.000000	97.897093 
2250.000000	97.892070 
2249.000000	97.886855 
2248.000000	97.882343 
2247.000000	97.879008 
2246.000000	97.876786 
2245.000000	97.874974 
2244.000000	97.872713 
2243.000000	97.869760 
2242.000000	97.866520 
2241.000000	97.863523 
2240.000000	97.861031 
2239.000000	97.859041 
2238.000000	97.857343 
2237.000000	97.855561 
2236.000000	97.853435 
2235.000000	97.851014 
2234.000000	97.848434 
2233.000000	97.845669 
2232.000000	97.842754 
2231.000000	97.839953 
2230.000000	97.837309 
2229.000000	97.834289 
2228.000000	97.830464 
2227.000000	97.826412 
2226.000000	97.823174 
2225.000000	97.820817 
2224.000000	97.818302 
2223.000000	97.814880 
2222.000000	97.811049 
2221.000000	97.807726 
2220.000000	97.804909 
2219.000000	97.801795 
2218.000000	97.797990 
2217.000000	97.794084 
2216.000000	97.790964 
2215.000000	97.788824 
2214.000000	97.786972 
2213.000000	97.784515 
2212.000000	97.781318 
2211.000000	97.778138 
2210.000000	97.775710 
2209.000000	97.773868 
2208.000000	97.771766 
2207.000000	97.768972 
2206.000000	97.766002 
2205.000000	97.763698 
2204.000000	97.762341 
2203.000000	97.761568 
2202.000000	97.760811 
2201.000000	97.759502 
2200.000000	97.757043 
2199.000000	97.753094 
2198.000000	97.747966 
2197.000000	97.742572 
2196.000000	97.737707 
2195.000000	97.733537 
2194.000000	97.729938 
2193.000000	97.727075 
2192.000000	97.725148 
2191.000000	97.723515 
2190.000000	97.720855 
2189.000000	97.716981 
2188.000000	97.713922 
2187.000000	97.713484 
2186.000000	97.713509 
2185.000000	97.708797 
2184.000000	97.697509 
2183.000000	97.685390 
2182.000000	97.680605 
2181.000000	97.684724 
2180.000000	97.691127 
2179.000000	97.692393 
2178.000000	97.687775 
2177.000000	97.681882 
2176.000000	97.678768 
2175.000000	97.678933 
2174.000000	97.681050 
2173.000000	97.684672 
2172.000000	97.690759 
2171.000000	97.699639 
2170.000000	97.708449 
2169.000000	97.711902 
2168.000000	97.707294 
2167.000000	97.698047 
2166.000000	97.690267 
2165.000000	97.685281 
2164.000000	97.678279 
2163.000000	97.665681 
2162.000000	97.651645 
2161.000000	97.644658 
2160.000000	97.648475 
2159.000000	97.658665 
2158.000000	97.668014 
2157.000000	97.674121 
2156.000000	97.679833 
2155.000000	97.687645 
2154.000000	97.696692 
2153.000000	97.705412 
2152.000000	97.714570 
2151.000000	97.725270 
2150.000000	97.735165 
2149.000000	97.740250 
2148.000000	97.740938 
2147.000000	97.742760 
2146.000000	97.749533 
2145.000000	97.759211 
2144.000000	97.768520 
2143.000000	97.777982 
2142.000000	97.788878 
2141.000000	97.798540 
2140.000000	97.803566 
2139.000000	97.806240 
2138.000000	97.813012 
2137.000000	97.826107 
2136.000000	97.840007 
2135.000000	97.847166 
2134.000000	97.844995 
2133.000000	97.837470 
2132.000000	97.832510 
2131.000000	97.836896 
2130.000000	97.851277 
2129.000000	97.868920 
2128.000000	97.880751 
2127.000000	97.882782 
2126.000000	97.878029 
2125.000000	97.872543 
2124.000000	97.870341 
2123.000000	97.871583 
2122.000000	97.873901 
2121.000000	97.874656 
2120.000000	97.872975 
2119.000000	97.870178 
2118.000000	97.868052 
2117.000000	97.867013 
2116.000000	97.866129 
2115.000000	97.864256 
2114.000000	97.860689 
2113.000000	97.855605 
2112.000000	97.850735 
2111.000000	97.848766 
2110.000000	97.850856 
2109.000000	97.855207 
2108.000000	97.858980 
2107.000000	97.860973 
2106.000000	97.861532 
2105.000000	97.860974 
2104.000000	97.859568 
2103.000000	97.858080 
2102.000000	97.856583 
2101.000000	97.853442 
2100.000000	97.847532 
2099.000000	97.841176 
2098.000000	97.838864 
2097.000000	97.842582 
2096.000000	97.849806 
2095.000000	97.855936 
2094.000000	97.858061 
2093.000000	97.856214 
2092.000000	97.852312 
2091.000000	97.848845 
2090.000000	97.847546 
2089.000000	97.848476 
2088.000000	97.850171 
2087.000000	97.850758 
2086.000000	97.849024 
2085.000000	97.844873 
2084.000000	97.839473 
2083.000000	97.834520 
2082.000000	97.830725 
2081.000000	97.827488 
2080.000000	97.824456 
2079.000000	97.822592 
2078.000000	97.822609 
2077.000000	97.822970 
2076.000000	97.821156 
2075.000000	97.816821 
2074.000000	97.811838 
2073.000000	97.807178 
2072.000000	97.801687 
2071.000000	97.794491 
2070.000000	97.786906 
2069.000000	97.781107 
2068.000000	97.778095 
2067.000000	97.777440 
2066.000000	97.777588 
2065.000000	97.775938 
2064.000000	97.770295 
2063.000000	97.761307 
2062.000000	97.752768 
2061.000000	97.748141 
2060.000000	97.747561 
2059.000000	97.749007 
2058.000000	97.750610 
2057.000000	97.750869 
2056.000000	97.748021 
2055.000000	97.741083 
2054.000000	97.731615 
2053.000000	97.722924 
2052.000000	97.716879 
2051.000000	97.712390 
2050.000000	97.706978 
2049.000000	97.699471 
2048.000000	97.691085 
2047.000000	97.684132 
2046.000000	97.679933 
2045.000000	97.678051 
2044.000000	97.677131 
2043.000000	97.676200 
2042.000000	97.675133 
2041.000000	97.674189 
2040.000000	97.673726 
2039.000000	97.674199 
2038.000000	97.675409 
2037.000000	97.675860 
2036.000000	97.674048 
2035.000000	97.670382 
2034.000000	97.666934 
2033.000000	97.665165 
2032.000000	97.664625 
2031.000000	97.663945 
2030.000000	97.662085 
2029.000000	97.658479 
2028.000000	97.653121 
2027.000000	97.647103 
2026.000000	97.642450 
2025.000000	97.640763 
2024.000000	97.642353 
2023.000000	97.646642 
2022.000000	97.652587 
2021.000000	97.658302 
2020.000000	97.661342 
2019.000000	97.660186 
2018.000000	97.655234 
2017.000000	97.648720 
2016.000000	97.643443 
2015.000000	97.641077 
2014.000000	97.641255 
2013.000000	97.641666 
2012.000000	97.640042 
2011.000000	97.636779 
2010.000000	97.634674 
2009.000000	97.635621 
2008.000000	97.638658 
2007.000000	97.641629 
2006.000000	97.643607 
2005.000000	97.644695 
2004.000000	97.644938 
2003.000000	97.644968 
2002.000000	97.646642 
2001.000000	97.650934 
2000.000000	97.655410 
1999.000000	97.655798 
1998.000000	97.650228 
1997.000000	97.640958 
1996.000000	97.632622 
1995.000000	97.628544 
1994.000000	97.629153 
1993.000000	97.632531 
1992.000000	97.635739 
1991.000000	97.637108 
1990.000000	97.637523 
1989.000000	97.638864 
1988.000000	97.641247 
1987.000000	97.642422 
1986.000000	97.640153 
1985.000000	97.634574 
1984.000000	97.627896 
1983.000000	97.622227 
1982.000000	97.618260 
1981.000000	97.615734 
1980.000000	97.614536 
1979.000000	97.614973 
1978.000000	97.616831 
1977.000000	97.618967 
1976.000000	97.620292 
1975.000000	97.620957 
1974.000000	97.622290 
1973.000000	97.625671 
1972.000000	97.631405 
1971.000000	97.638254 
1970.000000	97.643837 
1969.000000	97.645925 
1968.000000	97.643986 
1967.000000	97.639966 
1966.000000	97.637545 
1965.000000	97.639596 
1964.000000	97.646282 
1963.000000	97.655331 
1962.000000	97.663685 
1961.000000	97.669377 
1960.000000	97.672110 
1959.000000	97.672732 
1958.000000	97.672830 
1957.000000	97.674269 
1956.000000	97.678122 
1955.000000	97.683806 
1954.000000	97.689559 
1953.000000	97.694063 
1952.000000	97.697184 
1951.000000	97.699446 
1950.000000	97.701577 
1949.000000	97.704495 
1948.000000	97.708882 
1947.000000	97.714390 
1946.000000	97.719608 
1945.000000	97.723354 
1944.000000	97.725703 
1943.000000	97.727588 
1942.000000	97.729839 
1941.000000	97.732686 
1940.000000	97.736061 
1939.000000	97.739830 
1938.000000	97.743782 
1937.000000	97.747697 
1936.000000	97.751441 
1935.000000	97.754960 
1934.000000	97.758271 
1933.000000	97.761491 
1932.000000	97.764755 
1931.000000	97.768097 
1930.000000	97.771471 
1929.000000	97.774755 
1928.000000	97.777844 
1927.000000	97.780732 
1926.000000	97.783507 
1925.000000	97.786239 
1924.000000	97.788901 
1923.000000	97.791471 
1922.000000	97.793961 
1921.000000	97.796379 
1920.000000	97.798723 
1919.000000	97.800995 
1918.000000	97.803188 
1917.000000	97.805258 
1916.000000	97.807206 
1915.000000	97.809165 
1914.000000	97.811274 
1913.000000	97.813498 
1912.000000	97.815637 
1911.000000	97.817581 
1910.000000	97.819448 
1909.000000	97.821389 
1908.000000	97.823395 
1907.000000	97.825331 
1906.000000	97.827071 
1905.000000	97.828551 
1904.000000	97.829816 
1903.000000	97.831065 
1902.000000	97.832486 
1901.000000	97.834044 
1900.000000	97.835553 
1899.000000	97.836961 
1898.000000	97.838427 
1897.000000	97.840076 
1896.000000	97.841801 
1895.000000	97.843370 
1894.000000	97.844670 
1893.000000	97.845714 
1892.000000	97.846604 
1891.000000	97.847546 
1890.000000	97.848745 
1889.000000	97.850207 
1888.000000	97.851738 
1887.000000	97.853250 
1886.000000	97.854792 
1885.000000	97.856257 
1884.000000	97.857473 
1883.000000	97.858490 
1882.000000	97.859607 
1881.000000	97.861020 
1880.000000	97.862643 
1879.000000	97.864257 
1878.000000	97.865757 
1877.000000	97.867224 
1876.000000	97.868781 
1875.000000	97.870467 
1874.000000	97.872221 
1873.000000	97.873896 
1872.000000	97.875361 
1871.000000	97.876618 
1870.000000	97.877774 
1869.000000	97.878921 
1868.000000	97.880115 
1867.000000	97.881433 
1866.000000	97.882884 
1865.000000	97.884375 
1864.000000	97.885837 
1863.000000	97.887310 
1862.000000	97.888859 
1861.000000	97.890478 
1860.000000	97.892121 
1859.000000	97.893759 
1858.000000	97.895398 
1857.000000	97.897043 
1856.000000	97.898689 
1855.000000	97.900330 
1854.000000	97.901967 
1853.000000	97.903607 
1852.000000	97.905255 
1851.000000	97.906916 
1850.000000	97.908593 
1849.000000	97.910278 
1848.000000	97.911951 
1847.000000	97.913606 
1846.000000	97.915250 
1845.000000	97.916894 
1844.000000	97.918544 
1843.000000	97.920201 
1842.000000	97.921871 
1841.000000	97.923554 
1840.000000	97.925242 
1839.000000	97.926919 
1838.000000	97.928567 
1837.000000	97.930171 
1836.000000	97.931727 
1835.000000	97.933244 
1834.000000	97.934742 
1833.000000	97.936224 
1832.000000	97.937683 
1831.000000	97.939115 
1830.000000	97.940523 
1829.000000	97.941922 
1828.000000	97.943325 
1827.000000	97.944730 
1826.000000	97.946125 
1825.000000	97.947489 
1824.000000	97.948804 
1823.000000	97.950063 
1822.000000	97.951277 
1821.000000	97.952458 
1820.000000	97.953615 
1819.000000	97.954750 
1818.000000	97.955868 
1817.000000	97.956970 
1816.000000	97.958045 
1815.000000	97.959080 
1814.000000	97.960073 
1813.000000	97.961030 
1812.000000	97.961954 
1811.000000	97.962836 
1810.000000	97.963678 
1809.000000	97.964491 
1808.000000	97.965278 
1807.000000	97.966038 
1806.000000	97.966771 
1805.000000	97.967483 
1804.000000	97.968172 
1803.000000	97.968832 
1802.000000	97.969461 
1801.000000	97.970061 
1800.000000	97.970638 
1799.000000	97.971184 
1798.000000	97.971699 
1797.000000	97.972200 
1796.000000	97.972683 
1795.000000	97.973132 
1794.000000	97.973555 
1793.000000	97.973988 
1792.000000	97.974408 
1791.000000	97.974753 
1790.000000	97.975089 
1789.000000	97.975520 
1788.000000	97.976038 
1787.000000	97.976560 
1786.000000	97.977040 
1785.000000	97.977493 
1784.000000	97.977917 
1783.000000	97.978330 
1782.000000	97.978760 
1781.000000	97.979233 
1780.000000	97.979753 
1779.000000	97.980302 
1778.000000	97.980859 
1777.000000	97.981400 
1776.000000	97.981904 
1775.000000	97.982364 
1774.000000	97.982789 
1773.000000	97.983199 
1772.000000	97.983620 
1771.000000	97.984063 
1770.000000	97.984530 
1769.000000	97.985022 
1768.000000	97.985543 
1767.000000	97.986089 
1766.000000	97.986655 
1765.000000	97.987240 
1764.000000	97.987847 
1763.000000	97.988475 
1762.000000	97.989113 
1761.000000	97.989756 
1760.000000	97.990399 
1759.000000	97.991034 
1758.000000	97.991650 
1757.000000	97.992239 
1756.000000	97.992815 
1755.000000	97.993395 
1754.000000	97.993954 
1753.000000	97.994450 
1752.000000	97.994910 
1751.000000	97.995452 
1750.000000	97.996156 
1749.000000	97.996938 
1748.000000	97.997643 
1747.000000	97.998269 
1746.000000	97.998879 
1745.000000	97.999562 
1744.000000	98.000452 
1743.000000	98.001449 
1742.000000	98.002189 
1741.000000	98.002563 
1740.000000	98.002933 
1739.000000	98.003667 
1738.000000	98.004516 
1737.000000	98.005035 
1736.000000	98.004986 
1735.000000	98.004349 
1734.000000	98.003502 
1733.000000	98.002978 
1732.000000	98.003264 
1731.000000	98.004616 
1730.000000	98.006694 
1729.000000	98.008332 
1728.000000	98.008912 
1727.000000	98.008836 
1726.000000	98.008768 
1725.000000	98.009010 
1724.000000	98.009547 
1723.000000	98.010095 
1722.000000	98.010563 
1721.000000	98.010664 
1720.000000	98.009896 
1719.000000	98.007798 
1718.000000	98.005003 
1717.000000	98.003268 
1716.000000	98.002358 
1715.000000	98.001177 
1714.000000	98.000507 
1713.000000	98.000804 
1712.000000	98.000997 
1711.000000	98.000504 
1710.000000	97.999879 
1709.000000	97.999369 
1708.000000	97.998590 
1707.000000	97.997458 
1706.000000	97.996558 
1705.000000	97.995928 
1704.000000	97.994080 
1703.000000	97.990625 
1702.000000	97.986612 
1701.000000	97.983867 
1700.000000	97.982418 
1699.000000	97.980242 
1698.000000	97.977804 
1697.000000	97.976537 
1696.000000	97.976053 
1695.000000	97.975108 
1694.000000	97.973514 
1693.000000	97.971795 
1692.000000	97.970029 
1691.000000	97.968101 
1690.000000	97.966080 
1689.000000	97.964009 
1688.000000	97.961816 
1687.000000	97.959492 
1686.000000	97.957178 
1685.000000	97.955206 
1684.000000	97.953402 
1683.000000	97.951289 
1682.000000	97.948946 
1681.000000	97.946540 
1680.000000	97.944329 
1679.000000	97.942347 
1678.000000	97.940384 
1677.000000	97.938148 
1676.000000	97.935821 
1675.000000	97.933724 
1674.000000	97.931282 
1673.000000	97.928095 
1672.000000	97.925086 
1671.000000	97.923328 
1670.000000	97.922696 
1669.000000	97.921315 
1668.000000	97.918860 
1667.000000	97.917100 
1666.000000	97.916284 
1665.000000	97.915620 
1664.000000	97.914903 
1663.000000	97.914403 
1662.000000	97.913097 
1661.000000	97.908970 
1660.000000	97.903990 
1659.000000	97.901733 
1658.000000	97.903089 
1657.000000	97.903942 
1656.000000	97.902554 
1655.000000	97.899114 
1654.000000	97.895912 
1653.000000	97.892014 
1652.000000	97.883016 
1651.000000	97.874356 
1650.000000	97.868482 
1649.000000	97.865325 
1648.000000	97.863489 
1647.000000	97.863608 
1646.000000	97.863731 
1645.000000	97.863627 
1644.000000	97.862870 
1643.000000	97.862816 
1642.000000	97.864377 
1641.000000	97.867045 
1640.000000	97.868940 
1639.000000	97.868097 
1638.000000	97.865085 
1637.000000	97.862149 
1636.000000	97.860703 
1635.000000	97.860933 
1634.000000	97.861814 
1633.000000	97.862602 
1632.000000	97.862360 
1631.000000	97.862013 
1630.000000	97.864003 
1629.000000	97.867863 
1628.000000	97.871452 
1627.000000	97.875082 
1626.000000	97.879835 
1625.000000	97.884565 
1624.000000	97.888003 
1623.000000	97.890824 
1622.000000	97.893343 
1621.000000	97.893502 
1620.000000	97.891566 
1619.000000	97.890455 
1618.000000	97.892245 
1617.000000	97.894596 
1616.000000	97.894360 
1615.000000	97.894474 
1614.000000	97.897009 
1613.000000	97.899053 
1612.000000	97.898358 
1611.000000	97.897131 
1610.000000	97.898426 
1609.000000	97.902134 
1608.000000	97.906903 
1607.000000	97.912267 
1606.000000	97.916778 
1605.000000	97.918912 
1604.000000	97.919967 
1603.000000	97.922116 
1602.000000	97.925350 
1601.000000	97.928155 
1600.000000	97.930154 
1599.000000	97.932166 
1598.000000	97.934342 
1597.000000	97.936182 
1596.000000	97.937687 
1595.000000	97.939435 
1594.000000	97.941633 
1593.000000	97.943844 
1592.000000	97.945802 
1591.000000	97.947743 
1590.000000	97.949806 
1589.000000	97.951762 
1588.000000	97.953575 
1587.000000	97.955574 
1586.000000	97.957801 
1585.000000	97.959684 
1584.000000	97.961040 
1583.000000	97.962503 
1582.000000	97.964401 
1581.000000	97.966272 
1580.000000	97.967762 
1579.000000	97.969153 
1578.000000	97.970702 
1577.000000	97.972271 
1576.000000	97.973698 
1575.000000	97.975308 
1574.000000	97.977055 
1573.000000	97.978432 
1572.000000	97.979509 
1571.000000	97.980657 
1570.000000	97.981732 
1569.000000	97.982029 
1568.000000	97.981938 
1567.000000	97.982316 
1566.000000	97.983181 
1565.000000	97.984041 
1564.000000	97.984794 
1563.000000	97.985418 
1562.000000	97.985846 
1561.000000	97.985850 
1560.000000	97.985701 
1559.000000	97.985961 
1558.000000	97.986380 
1557.000000	97.986621 
1556.000000	97.986745 
1555.000000	97.987090 
1554.000000	97.987409 
1553.000000	97.987597 
1552.000000	97.987634 
1551.000000	97.987594 
1550.000000	97.987433 
1549.000000	97.987175 
1548.000000	97.986885 
1547.000000	97.986629 
1546.000000	97.986371 
1545.000000	97.986042 
1544.000000	97.985622 
1543.000000	97.985129 
1542.000000	97.984599 
1541.000000	97.984053 
1540.000000	97.983369 
1539.000000	97.982528 
1538.000000	97.981673 
1537.000000	97.980831 
1536.000000	97.979973 
1535.000000	97.979130 
1534.000000	97.978376 
1533.000000	97.977675 
1532.000000	97.976899 
1531.000000	97.975957 
1530.000000	97.974989 
1529.000000	97.974234 
1528.000000	97.973637 
1527.000000	97.972934 
1526.000000	97.972046 
1525.000000	97.971145 
1524.000000	97.970375 
1523.000000	97.969764 
1522.000000	97.969526 
1521.000000	97.969359 
1520.000000	97.968119 
1519.000000	97.965543 
1518.000000	97.962555 
1517.000000	97.960236 
1516.000000	97.958699 
1515.000000	97.957646 
1514.000000	97.957287 
1513.000000	97.958131 
1512.000000	97.959395 
1511.000000	97.958706 
1510.000000	97.955127 
1509.000000	97.950477 
1508.000000	97.947901 
1507.000000	97.947322 
1506.000000	97.946709 
1505.000000	97.945879 
1504.000000	97.944882 
1503.000000	97.943852 
1502.000000	97.942423 
1501.000000	97.941569 
1500.000000	97.941560 
1499.000000	97.940732 
1498.000000	97.936722 
1497.000000	97.932165 
1496.000000	97.931355 
1495.000000	97.933852 
1494.000000	97.937259 
1493.000000	97.940938 
1492.000000	97.945015 
1491.000000	97.948733 
1490.000000	97.950976 
1489.000000	97.952161 
1488.000000	97.951759 
1487.000000	97.948531 
1486.000000	97.944692 
1485.000000	97.940907 
1484.000000	97.936638 
1483.000000	97.933243 
1482.000000	97.931808 
1481.000000	97.931664 
1480.000000	97.930414 
1479.000000	97.927363 
1478.000000	97.924255 
1477.000000	97.922642 
1476.000000	97.920751 
1475.000000	97.916440 
1474.000000	97.911723 
1473.000000	97.910921 
1472.000000	97.914375 
1471.000000	97.916952 
1470.000000	97.916299 
1469.000000	97.914092 
1468.000000	97.911388 
1467.000000	97.908137 
1466.000000	97.905458 
1465.000000	97.905044 
1464.000000	97.906471 
1463.000000	97.906378 
1462.000000	97.903516 
1461.000000	97.900231 
1460.000000	97.898762 
1459.000000	97.898592 
1458.000000	97.895242 
1457.000000	97.887332 
1456.000000	97.880058 
1455.000000	97.875285 
1454.000000	97.870101 
1453.000000	97.865834 
1452.000000	97.865363 
1451.000000	97.869269 
1450.000000	97.875398 
1449.000000	97.882992 
1448.000000	97.890685 
1447.000000	97.894995 
1446.000000	97.893760 
1445.000000	97.889694 
1444.000000	97.888031 
1443.000000	97.889086 
1442.000000	97.889581 
1441.000000	97.887719 
1440.000000	97.884488 
1439.000000	97.880344 
1438.000000	97.874510 
1437.000000	97.869389 
1436.000000	97.868390 
1435.000000	97.868483 
1434.000000	97.865656 
1433.000000	97.862906 
1432.000000	97.864284 
1431.000000	97.869293 
1430.000000	97.872836 
1429.000000	97.872347 
1428.000000	97.869058 
1427.000000	97.864961 
1426.000000	97.861297 
1425.000000	97.859082 
1424.000000	97.860713 
1423.000000	97.863304 
1422.000000	97.860924 
1421.000000	97.853835 
1420.000000	97.848455 
1419.000000	97.845049 
1418.000000	97.835465 
1417.000000	97.821575 
1416.000000	97.813185 
1415.000000	97.812005 
1414.000000	97.810455 
1413.000000	97.803397 
1412.000000	97.794618 
1411.000000	97.789017 
1410.000000	97.785055 
1409.000000	97.780971 
1408.000000	97.778436 
1407.000000	97.778733 
1406.000000	97.780308 
1405.000000	97.782354 
1404.000000	97.788309 
1403.000000	97.797495 
1402.000000	97.804380 
1401.000000	97.808192 
1400.000000	97.814004 
1399.000000	97.823638 
1398.000000	97.830085 
1397.000000	97.827107 
1396.000000	97.817349 
1395.000000	97.809354 
1394.000000	97.808275 
1393.000000	97.814218 
1392.000000	97.827148 
1391.000000	97.844180 
1390.000000	97.858776 
1389.000000	97.865940 
1388.000000	97.865983 
1387.000000	97.862941 
1386.000000	97.860197 
1385.000000	97.859441 
1384.000000	97.862400 
1383.000000	97.868793 
1382.000000	97.875380 
1381.000000	97.879861 
1380.000000	97.883120 
1379.000000	97.888020 
1378.000000	97.896041 
1377.000000	97.906389 
1376.000000	97.917654 
1375.000000	97.928742 
1374.000000	97.937888 
1373.000000	97.944188 
1372.000000	97.949407 
1371.000000	97.956483 
1370.000000	97.966247 
1369.000000	97.976038 
1368.000000	97.984716 
1367.000000	97.993385 
1366.000000	98.002587 
1365.000000	98.011911 
1364.000000	98.020487 
1363.000000	98.027021 
1362.000000	98.030950 
1361.000000	98.033474 
1360.000000	98.037006 
1359.000000	98.043675 
1358.000000	98.053262 
1357.000000	98.063226 
1356.000000	98.071525 
1355.000000	98.077812 
1354.000000	98.082492 
1353.000000	98.086873 
1352.000000	98.091502 
1351.000000	98.096670 
1350.000000	98.102972 
1349.000000	98.108291 
1348.000000	98.111117 
1347.000000	98.112572 
1346.000000	98.115047 
1345.000000	98.118998 
1344.000000	98.123310 
1343.000000	98.127593 
1342.000000	98.132557 
1341.000000	98.137758 
1340.000000	98.141186 
1339.000000	98.141631 
1338.000000	98.139628 
1337.000000	98.136487 
1336.000000	98.133261 
1335.000000	98.130133 
1334.000000	98.127148 
1333.000000	98.125295 
1332.000000	98.125855 
1331.000000	98.129018 
1330.000000	98.133258 
1329.000000	98.136473 
1328.000000	98.137701 
1327.000000	98.137683 
1326.000000	98.137277 
1325.000000	98.135915 
1324.000000	98.133881 
1323.000000	98.132365 
1322.000000	98.131598 
1321.000000	98.130935 
1320.000000	98.130761 
1319.000000	98.132006 
1318.000000	98.134085 
1317.000000	98.135360 
1316.000000	98.135062 
1315.000000	98.133261 
1314.000000	98.129960 
1313.000000	98.126326 
1312.000000	98.125135 
1311.000000	98.127765 
1310.000000	98.131699 
1309.000000	98.133339 
1308.000000	98.132423 
1307.000000	98.131892 
1306.000000	98.133796 
1305.000000	98.136939 
1304.000000	98.139391 
1303.000000	98.140054 
1302.000000	98.138294 
1301.000000	98.134329 
1300.000000	98.130541 
1299.000000	98.129956 
1298.000000	98.132722 
1297.000000	98.135649 
1296.000000	98.135816 
1295.000000	98.133612 
1294.000000	98.131479 
1293.000000	98.131210 
1292.000000	98.132958 
1291.000000	98.135580 
1290.000000	98.137482 
1289.000000	98.137967 
1288.000000	98.137760 
1287.000000	98.137596 
1286.000000	98.136815 
1285.000000	98.134700 
1284.000000	98.132444 
1283.000000	98.131750 
1282.000000	98.132028 
1281.000000	98.130939 
1280.000000	98.127735 
1279.000000	98.124374 
1278.000000	98.122951 
1277.000000	98.123703 
1276.000000	98.125392 
1275.000000	98.126451 
1274.000000	98.125491 
1273.000000	98.122203 
1272.000000	98.117989 
1271.000000	98.114537 
1270.000000	98.111674 
1269.000000	98.107798 
1268.000000	98.102317 
1267.000000	98.096015 
1266.000000	98.089327 
1265.000000	98.082438 
1264.000000	98.076699 
1263.000000	98.073548 
1262.000000	98.071999 
1261.000000	98.069301 
1260.000000	98.064795 
1259.000000	98.061120 
1258.000000	98.060270 
1257.000000	98.060628 
1256.000000	98.059052 
1255.000000	98.055039 
1254.000000	98.051456 
1253.000000	98.051168 
1252.000000	98.053865 
1251.000000	98.056513 
1250.000000	98.056748 
1249.000000	98.055509 
1248.000000	98.055730 
1247.000000	98.058552 
1246.000000	98.061610 
1245.000000	98.061615 
1244.000000	98.057881 
1243.000000	98.052792 
1242.000000	98.049660 
1241.000000	98.050496 
1240.000000	98.054908 
1239.000000	98.059952 
1238.000000	98.061972 
1237.000000	98.059782 
1236.000000	98.055578 
1235.000000	98.052109 
1234.000000	98.049603 
1233.000000	98.046521 
1232.000000	98.042258 
1231.000000	98.037531 
1230.000000	98.033065 
1229.000000	98.029697 
1228.000000	98.028966 
1227.000000	98.031502 
1226.000000	98.035049 
1225.000000	98.036017 
1224.000000	98.033164 
1223.000000	98.028371 
1222.000000	98.024053 
1221.000000	98.021214 
1220.000000	98.019909 
1219.000000	98.019976 
1218.000000	98.020843 
1217.000000	98.021574 
1216.000000	98.021047 
1215.000000	98.017817 
1214.000000	98.011113 
1213.000000	98.003111 
1212.000000	97.998461 
1211.000000	97.999199 
1210.000000	98.001289 
1209.000000	97.998716 
1208.000000	97.990296 
1207.000000	97.980483 
1206.000000	97.974021 
1205.000000	97.971231 
1204.000000	97.968436 
1203.000000	97.961704 
1202.000000	97.950439 
1201.000000	97.938315 
1200.000000	97.929923 
1199.000000	97.925730 
1198.000000	97.921551 
1197.000000	97.913879 
1196.000000	97.903750 
1195.000000	97.894267 
1194.000000	97.886590 
1193.000000	97.879979 
1192.000000	97.873743 
1191.000000	97.866901 
1190.000000	97.857708 
1189.000000	97.845825 
1188.000000	97.833471 
1187.000000	97.822384 
1186.000000	97.811337 
1185.000000	97.798723 
1184.000000	97.785504 
1183.000000	97.773369 
1182.000000	97.762323 
1181.000000	97.752351 
1180.000000	97.744655 
1179.000000	97.738212 
1178.000000	97.727987 
1177.000000	97.710456 
1176.000000	97.688582 
1175.000000	97.667721 
1174.000000	97.648838 
1173.000000	97.630032 
1172.000000	97.612416 
1171.000000	97.598709 
1170.000000	97.587171 
1169.000000	97.572715 
1168.000000	97.553984 
1167.000000	97.534333 
1166.000000	97.516056 
1165.000000	97.499017 
1164.000000	97.485305 
1163.000000	97.479422 
1162.000000	97.482045 
1161.000000	97.487757 
1160.000000	97.490756 
1159.000000	97.489596 
1158.000000	97.485084 
1157.000000	97.476950 
1156.000000	97.464151 
1155.000000	97.446043 
1154.000000	97.422575 
1153.000000	97.395698 
1152.000000	97.370527 
1151.000000	97.351990 
1150.000000	97.339743 
1149.000000	97.329040 
1148.000000	97.316520 
1147.000000	97.301986 
1146.000000	97.284888 
1145.000000	97.263172 
1144.000000	97.236658 
1143.000000	97.208270 
1142.000000	97.180367 
1141.000000	97.152200 
1140.000000	97.122133 
1139.000000	97.090416 
1138.000000	97.059107 
1137.000000	97.030751 
1136.000000	97.006746 
1135.000000	96.984972 
1134.000000	96.959779 
1133.000000	96.927083 
1132.000000	96.889039 
1131.000000	96.851407 
1130.000000	96.817003 
1129.000000	96.784408 
1128.000000	96.751927 
1127.000000	96.718773 
1126.000000	96.682721 
1125.000000	96.640795 
1124.000000	96.593315 
1123.000000	96.544642 
1122.000000	96.499084 
1121.000000	96.457729 
1120.000000	96.418996 
1119.000000	96.380053 
1118.000000	96.338351 
1117.000000	96.294234 
1116.000000	96.251400 
1115.000000	96.212706 
1114.000000	96.176834 
1113.000000	96.141309 
1112.000000	96.106555 
1111.000000	96.073780 
1110.000000	96.040868 
1109.000000	96.004588 
1108.000000	95.965641 
1107.000000	95.927055 
1106.000000	95.889312 
1105.000000	95.850991 
1104.000000	95.812349 
1103.000000	95.774378 
1102.000000	95.735376 
1101.000000	95.693753 
1100.000000	95.652755 
1099.000000	95.616846 
1098.000000	95.586480 
1097.000000	95.557816 
1096.000000	95.527611 
1095.000000	95.493212 
1094.000000	95.450180 
1093.000000	95.395892 
1092.000000	95.335319 
1091.000000	95.277793 
1090.000000	95.227477 
1089.000000	95.181305 
1088.000000	95.135332 
1087.000000	95.087705 
1086.000000	95.036349 
1085.000000	94.980127 
1084.000000	94.922569 
1083.000000	94.868836 
1082.000000	94.818666 
1081.000000	94.767777 
1080.000000	94.716119 
1079.000000	94.668588 
1078.000000	94.627104 
1077.000000	94.588165 
1076.000000	94.549238 
1075.000000	94.511727 
1074.000000	94.476766 
1073.000000	94.443591 
1072.000000	94.411923 
1071.000000	94.379221 
1070.000000	94.335644 
1069.000000	94.270544 
1068.000000	94.187105 
1067.000000	94.104499 
1066.000000	94.041929 
1065.000000	94.004303 
1064.000000	93.983985 
1063.000000	93.968270 
1062.000000	93.941899 
1061.000000	93.890762 
1060.000000	93.810994 
1059.000000	93.713338 
1058.000000	93.614912 
1057.000000	93.526798 
1056.000000	93.449924 
1055.000000	93.378749 
1054.000000	93.306020 
1053.000000	93.226833 
1052.000000	93.140897 
1051.000000	93.050140 
1050.000000	92.954579 
1049.000000	92.853027 
1048.000000	92.746419 
1047.000000	92.636614 
1046.000000	92.523623 
1045.000000	92.408186 
1044.000000	92.294935 
1043.000000	92.188188 
1042.000000	92.086079 
1041.000000	91.983417 
1040.000000	91.878818 
1039.000000	91.774872 
1038.000000	91.674191 
1037.000000	91.580520 
1036.000000	91.500276 
1035.000000	91.436368 
1034.000000	91.383086 
1033.000000	91.333039 
1032.000000	91.285077 
1031.000000	91.238845 
1030.000000	91.188147 
1029.000000	91.130361 
1028.000000	91.077797 
1027.000000	91.047217 
1026.000000	91.039640 
1025.000000	91.040909 
1024.000000	91.040419 
1023.000000	91.038162 
1022.000000	91.034570 
1021.000000	91.026040 
1020.000000	91.011970 
1019.000000	90.996422 
1018.000000	90.981836 
1017.000000	90.969114 
1016.000000	90.962966 
1015.000000	90.968080 
1014.000000	90.980691 
1013.000000	90.992905 
1012.000000	91.004289 
1011.000000	91.020300 
1010.000000	91.041505 
1009.000000	91.064555 
1008.000000	91.092014 
1007.000000	91.130493 
1006.000000	91.179923 
1005.000000	91.234623 
1004.000000	91.293496 
1003.000000	91.358709 
1002.000000	91.426020 
1001.000000	91.488136 
1000.000000	91.547420 
999.000000	 91.613870 
998.000000	 91.689999 
997.000000	 91.768160 
996.000000	 91.843425 
995.000000	 91.919263 
994.000000	 91.999646 
993.000000	 92.084738 
992.000000	 92.174693 
991.000000	 92.268730 
990.000000	 92.360671 
989.000000	 92.444620 
988.000000	 92.524844 
987.000000	 92.610979 
986.000000	 92.704324 
985.000000	 92.798580 
984.000000	 92.893083 
983.000000	 92.994159 
982.000000	 93.102636 
981.000000	 93.210678 
980.000000	 93.312789 
979.000000	 93.410715 
978.000000	 93.506312 
977.000000	 93.599083 
976.000000	 93.692436 
975.000000	 93.792897 
974.000000	 93.900148 
973.000000	 94.005669 
972.000000	 94.103779 
971.000000	 94.196984 
970.000000	 94.288693 
969.000000	 94.377785 
968.000000	 94.462576 
967.000000	 94.543922 
966.000000	 94.622411 
965.000000	 94.697836 
964.000000	 94.772424 
963.000000	 94.849073 
962.000000	 94.925839 
961.000000	 94.997877 
960.000000	 95.064827 
959.000000	 95.130240 
958.000000	 95.193778 
957.000000	 95.250626 
956.000000	 95.299393 
955.000000	 95.344604 
954.000000	 95.390416 
953.000000	 95.437033 
952.000000	 95.483658 
951.000000	 95.529374 
950.000000	 95.570930 
949.000000	 95.605456 
948.000000	 95.635557 
947.000000	 95.666320 
946.000000	 95.697370 
945.000000	 95.723362 
944.000000	 95.742033 
943.000000	 95.756394 
942.000000	 95.769656 
941.000000	 95.783757 
940.000000	 95.801980 
939.000000	 95.826161 
938.000000	 95.851412 
937.000000	 95.870390 
936.000000	 95.883016 
935.000000	 95.895796 
934.000000	 95.911581 
933.000000	 95.926901 
932.000000	 95.939937 
931.000000	 95.953999 
930.000000	 95.971476 
929.000000	 95.990285 
928.000000	 96.008090 
927.000000	 96.025016 
926.000000	 96.040802 
925.000000	 96.053416 
924.000000	 96.061258 
923.000000	 96.063519 
922.000000	 96.059434 
921.000000	 96.051423 
920.000000	 96.047249 
919.000000	 96.053559 
918.000000	 96.067673 
917.000000	 96.080440 
916.000000	 96.086775 
915.000000	 96.089403 
914.000000	 96.094139 
913.000000	 96.106197 
912.000000	 96.128774 
911.000000	 96.159597 
910.000000	 96.190826 
909.000000	 96.218141 
908.000000	 96.247543 
907.000000	 96.287469 
906.000000	 96.337752 
905.000000	 96.392470 
904.000000	 96.449502 
903.000000	 96.509159 
902.000000	 96.566750 
901.000000	 96.615966 
900.000000	 96.658425 
899.000000	 96.701986 
898.000000	 96.750856 
897.000000	 96.803611 
896.000000	 96.858295 
895.000000	 96.911618 
894.000000	 96.956146 
893.000000	 96.987445 
892.000000	 97.012650 
891.000000	 97.043703 
890.000000	 97.082748 
889.000000	 97.121860 
888.000000	 97.155525 
887.000000	 97.184883 
886.000000	 97.211265 
885.000000	 97.234442 
884.000000	 97.256211 
883.000000	 97.277158 
882.000000	 97.291834 
881.000000	 97.297275 
880.000000	 97.304964 
879.000000	 97.332223 
878.000000	 97.380183 
877.000000	 97.431034 
876.000000	 97.469023 
875.000000	 97.493893 
874.000000	 97.512401 
873.000000	 97.528819 
872.000000	 97.547425 
871.000000	 97.573526 
870.000000	 97.606424 
869.000000	 97.638751 
868.000000	 97.666179 
867.000000	 97.690953 
866.000000	 97.714305 
865.000000	 97.733707 
864.000000	 97.750512 
863.000000	 97.772297 
862.000000	 97.803355 
861.000000	 97.839071 
860.000000	 97.873287 
859.000000	 97.905178 
858.000000	 97.935847 
857.000000	 97.964197 
856.000000	 97.989385 
855.000000	 98.011837 
854.000000	 98.028902 
853.000000	 98.035238 
852.000000	 98.030957 
851.000000	 98.024944 
850.000000	 98.027047 
849.000000	 98.040068 
848.000000	 98.060334 
847.000000	 98.081079 
846.000000	 98.094949 
845.000000	 98.099536 
844.000000	 98.101581 
843.000000	 98.109875 
842.000000	 98.123288 
841.000000	 98.132202 
840.000000	 98.131553 
839.000000	 98.124450 
838.000000	 98.112942 
837.000000	 98.095033 
836.000000	 98.073589 
835.000000	 98.058605 
834.000000	 98.055237 
833.000000	 98.056922 
832.000000	 98.055070 
831.000000	 98.049034 
830.000000	 98.042454 
829.000000	 98.036893 
828.000000	 98.034831 
827.000000	 98.042667 
826.000000	 98.063588 
825.000000	 98.091085 
824.000000	 98.114570 
823.000000	 98.128036 
822.000000	 98.131072 
821.000000	 98.127491 
820.000000	 98.125325 
819.000000	 98.131630 
818.000000	 98.144173 
817.000000	 98.152955 
816.000000	 98.151382 
815.000000	 98.141338 
814.000000	 98.127214 
813.000000	 98.110970 
812.000000	 98.094296 
811.000000	 98.078884 
810.000000	 98.061451 
809.000000	 98.033691 
808.000000	 97.990167 
807.000000	 97.933215 
806.000000	 97.870068 
805.000000	 97.809180 
804.000000	 97.758599 
803.000000	 97.721299 
802.000000	 97.691150 
801.000000	 97.659931 
800.000000	 97.629132 
799.000000	 97.608381 
798.000000	 97.602298 
797.000000	 97.606022 
796.000000	 97.613524 
795.000000	 97.622686 
794.000000	 97.631800 
793.000000	 97.639925 
792.000000	 97.651872 
791.000000	 97.673949 
790.000000	 97.702985 
789.000000	 97.727334 
788.000000	 97.740173 
787.000000	 97.744245 
786.000000	 97.743069 
785.000000	 97.735580 
784.000000	 97.720794 
783.000000	 97.700213 
782.000000	 97.674530 
781.000000	 97.645585 
780.000000	 97.621587 
779.000000	 97.611429 
778.000000	 97.613271 
777.000000	 97.617800 
776.000000	 97.623550 
775.000000	 97.638640 
774.000000	 97.665452 
773.000000	 97.694543 
772.000000	 97.717334 
771.000000	 97.735204 
770.000000	 97.752017 
769.000000	 97.766975 
768.000000	 97.779135 
767.000000	 97.790357 
766.000000	 97.799131 
765.000000	 97.799511 
764.000000	 97.791287 
763.000000	 97.784249 
762.000000	 97.787009 
761.000000	 97.797147 
760.000000	 97.806627 
759.000000	 97.811336 
758.000000	 97.811618 
757.000000	 97.809503 
756.000000	 97.810234 
755.000000	 97.821387 
754.000000	 97.845021 
753.000000	 97.872925 
752.000000	 97.893175 
751.000000	 97.900727 
750.000000	 97.899297 
749.000000	 97.896279 
748.000000	 97.897928 
747.000000	 97.906669 
746.000000	 97.919796 
745.000000	 97.931702 
744.000000	 97.939668 
743.000000	 97.946183 
742.000000	 97.954524 
741.000000	 97.964821 
740.000000	 97.976077 
739.000000	 97.989018 
738.000000	 98.004542 
737.000000	 98.021240 
736.000000	 98.036276 
735.000000	 98.047441 
734.000000	 98.054019 
733.000000	 98.057892 
732.000000	 98.063609 
731.000000	 98.073691 
730.000000	 98.083810 
729.000000	 98.087127 
728.000000	 98.083376 
727.000000	 98.079259 
726.000000	 98.080463 
725.000000	 98.088105 
724.000000	 98.102039 
723.000000	 98.120961 
722.000000	 98.139042 
721.000000	 98.149313 
720.000000	 98.151316 
719.000000	 98.149334 
718.000000	 98.143883 
717.000000	 98.133403 
716.000000	 98.123222 
715.000000	 98.121827 
714.000000	 98.126848 
713.000000	 98.126931 
712.000000	 98.120069 
711.000000	 98.118080 
710.000000	 98.128476 
709.000000	 98.143403 
708.000000	 98.151809 
707.000000	 98.151853 
706.000000	 98.146258 
705.000000	 98.135817 
704.000000	 98.123797 
703.000000	 98.117667 
702.000000	 98.119117 
701.000000	 98.119071 
700.000000	 98.108726 
699.000000	 98.089942 
698.000000	 98.070759 
697.000000	 98.055512 
696.000000	 98.044096 
695.000000	 98.037148 
694.000000	 98.035674 
693.000000	 98.037907 
692.000000	 98.041346 
691.000000	 98.045808 
690.000000	 98.052192 
689.000000	 98.060288 
688.000000	 98.069439 
687.000000	 98.078933 
686.000000	 98.086215 
685.000000	 98.088619 
684.000000	 98.087746 
683.000000	 98.087664 
682.000000	 98.088802 
681.000000	 98.088369 
680.000000	 98.086455 
679.000000	 98.086525 
678.000000	 98.089606 
677.000000	 98.093749 
676.000000	 98.099231 
675.000000	 98.106856 
674.000000	 98.112045 
673.000000	 98.107740 
672.000000	 98.093014 
671.000000	 98.073773 
670.000000	 98.057292 
669.000000	 98.049441 
668.000000	 98.054736 
667.000000	 98.073243 
666.000000	 98.093148 
665.000000	 98.101565 
664.000000	 98.101101 
663.000000	 98.100739 
662.000000	 98.107839 
661.000000	 98.120705 
660.000000	 98.133096 
659.000000	 98.141970 
658.000000	 98.147243 
657.000000	 98.148962 
656.000000	 98.149417 
655.000000	 98.151744 
654.000000	 98.152711 
653.000000	 98.144854 
652.000000	 98.128391 
651.000000	 98.114814 
650.000000	 98.112276 

