4000.000000	98.391086 
3999.000000	98.390347 
3998.000000	98.388321 
3997.000000	98.386012 
3996.000000	98.384414 
3995.000000	98.383831 
3994.000000	98.383950 
3993.000000	98.384306 
3992.000000	98.384683 
3991.000000	98.384970 
3990.000000	98.384908 
3989.000000	98.384264 
3988.000000	98.383235 
3987.000000	98.382626 
3986.000000	98.383391 
3985.000000	98.385747 
3984.000000	98.388661 
3983.000000	98.390626 
3982.000000	98.391220 
3981.000000	98.391413 
3980.000000	98.392042 
3979.000000	98.392500 
3978.000000	98.391650 
3977.000000	98.389573 
3976.000000	98.387698 
3975.000000	98.387090 
3974.000000	98.387284 
3973.000000	98.387047 
3972.000000	98.385729 
3971.000000	98.383684 
3970.000000	98.381729 
3969.000000	98.380572 
3968.000000	98.380578 
3967.000000	98.381598 
3966.000000	98.382937 
3965.000000	98.383620 
3964.000000	98.382817 
3963.000000	98.380364 
3962.000000	98.377127 
3961.000000	98.374585 
3960.000000	98.373694 
3959.000000	98.374264 
3958.000000	98.375288 
3957.000000	98.375796 
3956.000000	98.375282 
3955.000000	98.373555 
3954.000000	98.370847 
3953.000000	98.367902 
3952.000000	98.365606 
3951.000000	98.364324 
3950.000000	98.363718 
3949.000000	98.363375 
3948.000000	98.363161 
3947.000000	98.363099 
3946.000000	98.363340 
3945.000000	98.364265 
3944.000000	98.366183 
3943.000000	98.368630 
3942.000000	98.370676 
3941.000000	98.371852 
3940.000000	98.372309 
3939.000000	98.372359 
3938.000000	98.372074 
3937.000000	98.371335 
3936.000000	98.370072 
3935.000000	98.368309 
3934.000000	98.366387 
3933.000000	98.364856 
3932.000000	98.364059 
3931.000000	98.363684 
3930.000000	98.363246 
3929.000000	98.363017 
3928.000000	98.363695 
3927.000000	98.365397 
3926.000000	98.367267 
3925.000000	98.368059 
3924.000000	98.367401 
3923.000000	98.365928 
3922.000000	98.364471 
3921.000000	98.363544 
3920.000000	98.363332 
3919.000000	98.363771 
3918.000000	98.364491 
3917.000000	98.365008 
3916.000000	98.365152 
3915.000000	98.365068 
3914.000000	98.364900 
3913.000000	98.364615 
3912.000000	98.364162 
3911.000000	98.363695 
3910.000000	98.363352 
3909.000000	98.363102 
3908.000000	98.362862 
3907.000000	98.362488 
3906.000000	98.361873 
3905.000000	98.360897 
3904.000000	98.359526 
3903.000000	98.358003 
3902.000000	98.356776 
3901.000000	98.356183 
3900.000000	98.356232 
3899.000000	98.356620 
3898.000000	98.356990 
3897.000000	98.357134 
3896.000000	98.356994 
3895.000000	98.356656 
3894.000000	98.356297 
3893.000000	98.356077 
3892.000000	98.355988 
3891.000000	98.355854 
3890.000000	98.355551 
3889.000000	98.355081 
3888.000000	98.354551 
3887.000000	98.354112 
3886.000000	98.353867 
3885.000000	98.353770 
3884.000000	98.353642 
3883.000000	98.353325 
3882.000000	98.352837 
3881.000000	98.352398 
3880.000000	98.352223 
3879.000000	98.352287 
3878.000000	98.352392 
3877.000000	98.352411 
3876.000000	98.352408 
3875.000000	98.352475 
3874.000000	98.352584 
3873.000000	98.352638 
3872.000000	98.352621 
3871.000000	98.352623 
3870.000000	98.352743 
3869.000000	98.353012 
3868.000000	98.353351 
3867.000000	98.353625 
3866.000000	98.353784 
3865.000000	98.353911 
3864.000000	98.354138 
3863.000000	98.354488 
3862.000000	98.354848 
3861.000000	98.355178 
3860.000000	98.355568 
3859.000000	98.356066 
3858.000000	98.356553 
3857.000000	98.356843 
3856.000000	98.356875 
3855.000000	98.356755 
3854.000000	98.356613 
3853.000000	98.356528 
3852.000000	98.356583 
3851.000000	98.356800 
3850.000000	98.357099 
3849.000000	98.357419 
3848.000000	98.357745 
3847.000000	98.358076 
3846.000000	98.358380 
3845.000000	98.358633 
3844.000000	98.358861 
3843.000000	98.359097 
3842.000000	98.359351 
3841.000000	98.359626 
3840.000000	98.359913 
3839.000000	98.360189 
3838.000000	98.360438 
3837.000000	98.360652 
3836.000000	98.360834 
3835.000000	98.360991 
3834.000000	98.361127 
3833.000000	98.361248 
3832.000000	98.361360 
3831.000000	98.361465 
3830.000000	98.361564 
3829.000000	98.361653 
3828.000000	98.361733 
3827.000000	98.361808 
3826.000000	98.361876 
3825.000000	98.361934 
3824.000000	98.361975 
3823.000000	98.361999 
3822.000000	98.362017 
3821.000000	98.362043 
3820.000000	98.362086 
3819.000000	98.362151 
3818.000000	98.362237 
3817.000000	98.362351 
3816.000000	98.362498 
3815.000000	98.362678 
3814.000000	98.362880 
3813.000000	98.363090 
3812.000000	98.363301 
3811.000000	98.363510 
3810.000000	98.363716 
3809.000000	98.363908 
3808.000000	98.364079 
3807.000000	98.364230 
3806.000000	98.364363 
3805.000000	98.364469 
3804.000000	98.364501 
3803.000000	98.364446 
3802.000000	98.364421 
3801.000000	98.364546 
3800.000000	98.364748 
3799.000000	98.364781 
3798.000000	98.364530 
3797.000000	98.364255 
3796.000000	98.364346 
3795.000000	98.364857 
3794.000000	98.365424 
3793.000000	98.365736 
3792.000000	98.365865 
3791.000000	98.366087 
3790.000000	98.366393 
3789.000000	98.366436 
3788.000000	98.366087 
3787.000000	98.365747 
3786.000000	98.365967 
3785.000000	98.366834 
3784.000000	98.367793 
3783.000000	98.368144 
3782.000000	98.367549 
3781.000000	98.366349 
3780.000000	98.365602 
3779.000000	98.366288 
3778.000000	98.368314 
3777.000000	98.370574 
3776.000000	98.372014 
3775.000000	98.372311 
3774.000000	98.371606 
3773.000000	98.370001 
3772.000000	98.367816 
3771.000000	98.365796 
3770.000000	98.364529 
3769.000000	98.363800 
3768.000000	98.362704 
3767.000000	98.360677 
3766.000000	98.358482 
3765.000000	98.357456 
3764.000000	98.358040 
3763.000000	98.359181 
3762.000000	98.359360 
3761.000000	98.358163 
3760.000000	98.356398 
3759.000000	98.355266 
3758.000000	98.354697 
3757.000000	98.353452 
3756.000000	98.351048 
3755.000000	98.347917 
3754.000000	98.344896 
3753.000000	98.342780 
3752.000000	98.341896 
3751.000000	98.341514 
3750.000000	98.340322 
3749.000000	98.338651 
3748.000000	98.337322 
3747.000000	98.335962 
3746.000000	98.335184 
3745.000000	98.336575 
3744.000000	98.341283 
3743.000000	98.346481 
3742.000000	98.346150 
3741.000000	98.337953 
3740.000000	98.326514 
3739.000000	98.319970 
3738.000000	98.322279 
3737.000000	98.329097 
3736.000000	98.334061 
3735.000000	98.335340 
3734.000000	98.335317 
3733.000000	98.336104 
3732.000000	98.338562 
3731.000000	98.343239 
3730.000000	98.348193 
3729.000000	98.349851 
3728.000000	98.347502 
3727.000000	98.344076 
3726.000000	98.342368 
3725.000000	98.341952 
3724.000000	98.341541 
3723.000000	98.341697 
3722.000000	98.343441 
3721.000000	98.345782 
3720.000000	98.345222 
3719.000000	98.340755 
3718.000000	98.335239 
3717.000000	98.330816 
3716.000000	98.326498 
3715.000000	98.319684 
3714.000000	98.310814 
3713.000000	98.304903 
3712.000000	98.305084 
3711.000000	98.306974 
3710.000000	98.303049 
3709.000000	98.290940 
3708.000000	98.273864 
3707.000000	98.255199 
3706.000000	98.236514 
3705.000000	98.218384 
3704.000000	98.201734 
3703.000000	98.187406 
3702.000000	98.174288 
3701.000000	98.159779 
3700.000000	98.142390 
3699.000000	98.123429 
3698.000000	98.106611 
3697.000000	98.095286 
3696.000000	98.090237 
3695.000000	98.089613 
3694.000000	98.090051 
3693.000000	98.088836 
3692.000000	98.084459 
3691.000000	98.076098 
3690.000000	98.063478 
3689.000000	98.049561 
3688.000000	98.040148 
3687.000000	98.037041 
3686.000000	98.036256 
3685.000000	98.033536 
3684.000000	98.028327 
3683.000000	98.022707 
3682.000000	98.017761 
3681.000000	98.011271 
3680.000000	97.999918 
3679.000000	97.981590 
3678.000000	97.957400 
3677.000000	97.932209 
3676.000000	97.911740 
3675.000000	97.898712 
3674.000000	97.890126 
3673.000000	97.879724 
3672.000000	97.864163 
3671.000000	97.847517 
3670.000000	97.835377 
3669.000000	97.826960 
3668.000000	97.817304 
3667.000000	97.803774 
3666.000000	97.788321 
3665.000000	97.774194 
3664.000000	97.761706 
3663.000000	97.749067 
3662.000000	97.734889 
3661.000000	97.718827 
3660.000000	97.701208 
3659.000000	97.682301 
3658.000000	97.663525 
3657.000000	97.646722 
3656.000000	97.631875 
3655.000000	97.617075 
3654.000000	97.599597 
3653.000000	97.578582 
3652.000000	97.556806 
3651.000000	97.538931 
3650.000000	97.525871 
3649.000000	97.513330 
3648.000000	97.499593 
3647.000000	97.487942 
3646.000000	97.481015 
3645.000000	97.478280 
3644.000000	97.477926 
3643.000000	97.478732 
3642.000000	97.479090 
3641.000000	97.476448 
3640.000000	97.469504 
3639.000000	97.458975 
3638.000000	97.446152 
3637.000000	97.430914 
3636.000000	97.412731 
3635.000000	97.392557 
3634.000000	97.372344 
3633.000000	97.353130 
3632.000000	97.334320 
3631.000000	97.316019 
3630.000000	97.300301 
3629.000000	97.287400 
3628.000000	97.274702 
3627.000000	97.262605 
3626.000000	97.252925 
3625.000000	97.246284 
3624.000000	97.241957 
3623.000000	97.237709 
3622.000000	97.231909 
3621.000000	97.226053 
3620.000000	97.223125 
3619.000000	97.223922 
3618.000000	97.227105 
3617.000000	97.232521 
3616.000000	97.242819 
3615.000000	97.261068 
3614.000000	97.286580 
3613.000000	97.313734 
3612.000000	97.335700 
3611.000000	97.349244 
3610.000000	97.356615 
3609.000000	97.362801 
3608.000000	97.370480 
3607.000000	97.378991 
3606.000000	97.387268 
3605.000000	97.396403 
3604.000000	97.408882 
3603.000000	97.425444 
3602.000000	97.443541 
3601.000000	97.458548 
3600.000000	97.466679 
3599.000000	97.467977 
3598.000000	97.466646 
3597.000000	97.467885 
3596.000000	97.474655 
3595.000000	97.485229 
3594.000000	97.494353 
3593.000000	97.498503 
3592.000000	97.497879 
3591.000000	97.494697 
3590.000000	97.491818 
3589.000000	97.491770 
3588.000000	97.494849 
3587.000000	97.498859 
3586.000000	97.502460 
3585.000000	97.506859 
3584.000000	97.514017 
3583.000000	97.524296 
3582.000000	97.536219 
3581.000000	97.546832 
3580.000000	97.552871 
3579.000000	97.552468 
3578.000000	97.546574 
3577.000000	97.538969 
3576.000000	97.533567 
3575.000000	97.531670 
3574.000000	97.531209 
3573.000000	97.529388 
3572.000000	97.524832 
3571.000000	97.517400 
3570.000000	97.507502 
3569.000000	97.496949 
3568.000000	97.489226 
3567.000000	97.486851 
3566.000000	97.488681 
3565.000000	97.491317 
3564.000000	97.492619 
3563.000000	97.493281 
3562.000000	97.494951 
3561.000000	97.497691 
3560.000000	97.499551 
3559.000000	97.498640 
3558.000000	97.495195 
3557.000000	97.491419 
3556.000000	97.489374 
3555.000000	97.489377 
3554.000000	97.490211 
3553.000000	97.490271 
3552.000000	97.488702 
3551.000000	97.485626 
3550.000000	97.481824 
3549.000000	97.478522 
3548.000000	97.476887 
3547.000000	97.476835 
3546.000000	97.476747 
3545.000000	97.475189 
3544.000000	97.472922 
3543.000000	97.472241 
3542.000000	97.474436 
3541.000000	97.478654 
3540.000000	97.482900 
3539.000000	97.485636 
3538.000000	97.486571 
3537.000000	97.486245 
3536.000000	97.485318 
3535.000000	97.483985 
3534.000000	97.482109 
3533.000000	97.479925 
3532.000000	97.478396 
3531.000000	97.478543 
3530.000000	97.480341 
3529.000000	97.482476 
3528.000000	97.483408 
3527.000000	97.482779 
3526.000000	97.481523 
3525.000000	97.480917 
3524.000000	97.481641 
3523.000000	97.483609 
3522.000000	97.486284 
3521.000000	97.489004 
3520.000000	97.491247 
3519.000000	97.492687 
3518.000000	97.493132 
3517.000000	97.492492 
3516.000000	97.490950 
3515.000000	97.489178 
3514.000000	97.488170 
3513.000000	97.488655 
3512.000000	97.490471 
3511.000000	97.492467 
3510.000000	97.493296 
3509.000000	97.492593 
3508.000000	97.491269 
3507.000000	97.490555 
3506.000000	97.490826 
3505.000000	97.491522 
3504.000000	97.492067 
3503.000000	97.492555 
3502.000000	97.493398 
3501.000000	97.494586 
3500.000000	97.495645 
3499.000000	97.496289 
3498.000000	97.496689 
3497.000000	97.496996 
3496.000000	97.496871 
3495.000000	97.495902 
3494.000000	97.494351 
3493.000000	97.493086 
3492.000000	97.492589 
3491.000000	97.492276 
3490.000000	97.491122 
3489.000000	97.488870 
3488.000000	97.486241 
3487.000000	97.483974 
3486.000000	97.482050 
3485.000000	97.480183 
3484.000000	97.478597 
3483.000000	97.477786 
3482.000000	97.477648 
3481.000000	97.477369 
3480.000000	97.476278 
3479.000000	97.474443 
3478.000000	97.472369 
3477.000000	97.470446 
3476.000000	97.468772 
3475.000000	97.467328 
3474.000000	97.466127 
3473.000000	97.465113 
3472.000000	97.464018 
3471.000000	97.462392 
3470.000000	97.459916 
3469.000000	97.456787 
3468.000000	97.453715 
3467.000000	97.451429 
3466.000000	97.450103 
3465.000000	97.449226 
3464.000000	97.448028 
3463.000000	97.446056 
3462.000000	97.443417 
3461.000000	97.440548 
3460.000000	97.437819 
3459.000000	97.435343 
3458.000000	97.433052 
3457.000000	97.430838 
3456.000000	97.428659 
3455.000000	97.426567 
3454.000000	97.424689 
3453.000000	97.423107 
3452.000000	97.421736 
3451.000000	97.420339 
3450.000000	97.418667 
3449.000000	97.416610 
3448.000000	97.414194 
3447.000000	97.411475 
3446.000000	97.408528 
3445.000000	97.405544 
3444.000000	97.402844 
3443.000000	97.400701 
3442.000000	97.399123 
3441.000000	97.397715 
3440.000000	97.395890 
3439.000000	97.393290 
3438.000000	97.389965 
3437.000000	97.386274 
3436.000000	97.382657 
3435.000000	97.379494 
3434.000000	97.377034 
3433.000000	97.375249 
3432.000000	97.373784 
3431.000000	97.372220 
3430.000000	97.370382 
3429.000000	97.368344 
3428.000000	97.366080 
3427.000000	97.363280 
3426.000000	97.359741 
3425.000000	97.355949 
3424.000000	97.352989 
3423.000000	97.351514 
3422.000000	97.350911 
3421.000000	97.349823 
3420.000000	97.347612 
3419.000000	97.344958 
3418.000000	97.342935 
3417.000000	97.341886 
3416.000000	97.341360 
3415.000000	97.340654 
3414.000000	97.339072 
3413.000000	97.336064 
3412.000000	97.331662 
3411.000000	97.326788 
3410.000000	97.322794 
3409.000000	97.320614 
3408.000000	97.320317 
3407.000000	97.321067 
3406.000000	97.321372 
3405.000000	97.319877 
3404.000000	97.316461 
3403.000000	97.312419 
3402.000000	97.309272 
3401.000000	97.307565 
3400.000000	97.307001 
3399.000000	97.307276 
3398.000000	97.308184 
3397.000000	97.309214 
3396.000000	97.309824 
3395.000000	97.310253 
3394.000000	97.311357 
3393.000000	97.313410 
3392.000000	97.315571 
3391.000000	97.316843 
3390.000000	97.317325 
3389.000000	97.318109 
3388.000000	97.320088 
3387.000000	97.323045 
3386.000000	97.325764 
3385.000000	97.326860 
3384.000000	97.325782 
3383.000000	97.323414 
3382.000000	97.321703 
3381.000000	97.322113 
3380.000000	97.324139 
3379.000000	97.325672 
3378.000000	97.325373 
3377.000000	97.324517 
3376.000000	97.325757 
3375.000000	97.330060 
3374.000000	97.335540 
3373.000000	97.339379 
3372.000000	97.340746 
3371.000000	97.341162 
3370.000000	97.342475 
3369.000000	97.345088 
3368.000000	97.348211 
3367.000000	97.351092 
3366.000000	97.353630 
3365.000000	97.356069 
3364.000000	97.358536 
3363.000000	97.360835 
3362.000000	97.362536 
3361.000000	97.363392 
3360.000000	97.363820 
3359.000000	97.364818 
3358.000000	97.367093 
3357.000000	97.370312 
3356.000000	97.373350 
3355.000000	97.375388 
3354.000000	97.376679 
3353.000000	97.378192 
3352.000000	97.380653 
3351.000000	97.383987 
3350.000000	97.387542 
3349.000000	97.390682 
3348.000000	97.393164 
3347.000000	97.395110 
3346.000000	97.396781 
3345.000000	97.398342 
3344.000000	97.399698 
3343.000000	97.400458 
3342.000000	97.400200 
3341.000000	97.399031 
3340.000000	97.397891 
3339.000000	97.397997 
3338.000000	97.399839 
3337.000000	97.402770 
3336.000000	97.405622 
3335.000000	97.407806 
3334.000000	97.409597 
3333.000000	97.411447 
3332.000000	97.413405 
3331.000000	97.415286 
3330.000000	97.417078 
3329.000000	97.418914 
3328.000000	97.420835 
3327.000000	97.422831 
3326.000000	97.425016 
3325.000000	97.427448 
3324.000000	97.429773 
3323.000000	97.431349 
3322.000000	97.431854 
3321.000000	97.431651 
3320.000000	97.431532 
3319.000000	97.432129 
3318.000000	97.433646 
3317.000000	97.435938 
3316.000000	97.438613 
3315.000000	97.441107 
3314.000000	97.442923 
3313.000000	97.443917 
3312.000000	97.444357 
3311.000000	97.444732 
3310.000000	97.445457 
3309.000000	97.446690 
3308.000000	97.448293 
3307.000000	97.449909 
3306.000000	97.451189 
3305.000000	97.452082 
3304.000000	97.452920 
3303.000000	97.454168 
3302.000000	97.456055 
3301.000000	97.458395 
3300.000000	97.460698 
3299.000000	97.462491 
3298.000000	97.463616 
3297.000000	97.464352 
3296.000000	97.465289 
3295.000000	97.466950 
3294.000000	97.469439 
3293.000000	97.472452 
3292.000000	97.475541 
3291.000000	97.478399 
3290.000000	97.480866 
3289.000000	97.482801 
3288.000000	97.484143 
3287.000000	97.485114 
3286.000000	97.486147 
3285.000000	97.487491 
3284.000000	97.489030 
3283.000000	97.490580 
3282.000000	97.492175 
3281.000000	97.493937 
3280.000000	97.495766 
3279.000000	97.497396 
3278.000000	97.498751 
3277.000000	97.500102 
3276.000000	97.501765 
3275.000000	97.503729 
3274.000000	97.505712 
3273.000000	97.507527 
3272.000000	97.509270 
3271.000000	97.511101 
3270.000000	97.513010 
3269.000000	97.514829 
3268.000000	97.516450 
3267.000000	97.517947 
3266.000000	97.519508 
3265.000000	97.521256 
3264.000000	97.523168 
3263.000000	97.525118 
3262.000000	97.526982 
3261.000000	97.528737 
3260.000000	97.530422 
3259.000000	97.532060 
3258.000000	97.533647 
3257.000000	97.535209 
3256.000000	97.536818 
3255.000000	97.538516 
3254.000000	97.540262 
3253.000000	97.541999 
3252.000000	97.543730 
3251.000000	97.545499 
3250.000000	97.547310 
3249.000000	97.549110 
3248.000000	97.550851 
3247.000000	97.552541 
3246.000000	97.554244 
3245.000000	97.556021 
3244.000000	97.557888 
3243.000000	97.559783 
3242.000000	97.561585 
3241.000000	97.563199 
3240.000000	97.564625 
3239.000000	97.565946 
3238.000000	97.567275 
3237.000000	97.568760 
3236.000000	97.570576 
3235.000000	97.572784 
3234.000000	97.575169 
3233.000000	97.577330 
3232.000000	97.579026 
3231.000000	97.580434 
3230.000000	97.581963 
3229.000000	97.583808 
3228.000000	97.585847 
3227.000000	97.587997 
3226.000000	97.590460 
3225.000000	97.593400 
3224.000000	97.596509 
3223.000000	97.599176 
3222.000000	97.601132 
3221.000000	97.602791 
3220.000000	97.604866 
3219.000000	97.607639 
3218.000000	97.610649 
3217.000000	97.613075 
3216.000000	97.614474 
3215.000000	97.615253 
3214.000000	97.616464 
3213.000000	97.618866 
3212.000000	97.622149 
3211.000000	97.625110 
3210.000000	97.626745 
3209.000000	97.627134 
3208.000000	97.627344 
3207.000000	97.628427 
3206.000000	97.630445 
3205.000000	97.632508 
3204.000000	97.633808 
3203.000000	97.634636 
3202.000000	97.636117 
3201.000000	97.638849 
3200.000000	97.642238 
3199.000000	97.645310 
3198.000000	97.647917 
3197.000000	97.650638 
3196.000000	97.653747 
3195.000000	97.656954 
3194.000000	97.660168 
3193.000000	97.663842 
3192.000000	97.668241 
3191.000000	97.672726 
3190.000000	97.676160 
3189.000000	97.678000 
3188.000000	97.678721 
3187.000000	97.679417 
3186.000000	97.681005 
3185.000000	97.683708 
3184.000000	97.687018 
3183.000000	97.690085 
3182.000000	97.692378 
3181.000000	97.693986 
3180.000000	97.695328 
3179.000000	97.696733 
3178.000000	97.698375 
3177.000000	97.700456 
3176.000000	97.703153 
3175.000000	97.706372 
3174.000000	97.709664 
3173.000000	97.712451 
3172.000000	97.714388 
3171.000000	97.715561 
3170.000000	97.716512 
3169.000000	97.717917 
3168.000000	97.720029 
3167.000000	97.722479 
3166.000000	97.724643 
3165.000000	97.726254 
3164.000000	97.727560 
3163.000000	97.728969 
3162.000000	97.730652 
3161.000000	97.732494 
3160.000000	97.734300 
3159.000000	97.736010 
3158.000000	97.737775 
3157.000000	97.739838 
3156.000000	97.742282 
3155.000000	97.744852 
3154.000000	97.747116 
3153.000000	97.748883 
3152.000000	97.750323 
3151.000000	97.751656 
3150.000000	97.752820 
3149.000000	97.753655 
3148.000000	97.754292 
3147.000000	97.755158 
3146.000000	97.756617 
3145.000000	97.758649 
3144.000000	97.760874 
3143.000000	97.762790 
3142.000000	97.764111 
3141.000000	97.764968 
3140.000000	97.765851 
3139.000000	97.767270 
3138.000000	97.769365 
3137.000000	97.771805 
3136.000000	97.774067 
3135.000000	97.775866 
3134.000000	97.777320 
3133.000000	97.778788 
3132.000000	97.780513 
3131.000000	97.782419 
3130.000000	97.784308 
3129.000000	97.786205 
3128.000000	97.788365 
3127.000000	97.790937 
3126.000000	97.793700 
3125.000000	97.796204 
3124.000000	97.798125 
3123.000000	97.799429 
3122.000000	97.800335 
3121.000000	97.801212 
3120.000000	97.802380 
3119.000000	97.803908 
3118.000000	97.805625 
3117.000000	97.807388 
3116.000000	97.809251 
3115.000000	97.811352 
3114.000000	97.813770 
3113.000000	97.816551 
3112.000000	97.819674 
3111.000000	97.822847 
3110.000000	97.825505 
3109.000000	97.827338 
3108.000000	97.828781 
3107.000000	97.830731 
3106.000000	97.833520 
3105.000000	97.836361 
3104.000000	97.838094 
3103.000000	97.838427 
3102.000000	97.838296 
3101.000000	97.838944 
3100.000000	97.840721 
3099.000000	97.842921 
3098.000000	97.844697 
3097.000000	97.846059 
3096.000000	97.847882 
3095.000000	97.850967 
3094.000000	97.855120 
3093.000000	97.859095 
3092.000000	97.861538 
3091.000000	97.861944 
3090.000000	97.860789 
3089.000000	97.859036 
3088.000000	97.857492 
3087.000000	97.856674 
3086.000000	97.857002 
3085.000000	97.858653 
3084.000000	97.861033 
3083.000000	97.862853 
3082.000000	97.863287 
3081.000000	97.862905 
3080.000000	97.863007 
3079.000000	97.864097 
3078.000000	97.865764 
3077.000000	97.868044 
3076.000000	97.871695 
3075.000000	97.876477 
3074.000000	97.880408 
3073.000000	97.881959 
3072.000000	97.882136 
3071.000000	97.882958 
3070.000000	97.884346 
3069.000000	97.884263 
3068.000000	97.881871 
3067.000000	97.878804 
3066.000000	97.876863 
3065.000000	97.876031 
3064.000000	97.875569 
3063.000000	97.875609 
3062.000000	97.876394 
3061.000000	97.876884 
3060.000000	97.875564 
3059.000000	97.872524 
3058.000000	97.869900 
3057.000000	97.870087 
3056.000000	97.873667 
3055.000000	97.878743 
3054.000000	97.882208 
3053.000000	97.882428 
3052.000000	97.881127 
3051.000000	97.881855 
3050.000000	97.885793 
3049.000000	97.889776 
3048.000000	97.889646 
3047.000000	97.884891 
3046.000000	97.878670 
3045.000000	97.873734 
3044.000000	97.870189 
3043.000000	97.867748 
3042.000000	97.867875 
3041.000000	97.871622 
3040.000000	97.876330 
3039.000000	97.877100 
3038.000000	97.871972 
3037.000000	97.863729 
3036.000000	97.855875 
3035.000000	97.848480 
3034.000000	97.839617 
3033.000000	97.829499 
3032.000000	97.820711 
3031.000000	97.814570 
3030.000000	97.809454 
3029.000000	97.803183 
3028.000000	97.795078 
3027.000000	97.785110 
3026.000000	97.772958 
3025.000000	97.759222 
3024.000000	97.746181 
3023.000000	97.735697 
3022.000000	97.727107 
3021.000000	97.718695 
3020.000000	97.710501 
3019.000000	97.703947 
3018.000000	97.698807 
3017.000000	97.692200 
3016.000000	97.681086 
3015.000000	97.664883 
3014.000000	97.645750 
3013.000000	97.627279 
3012.000000	97.612523 
3011.000000	97.601792 
3010.000000	97.591968 
3009.000000	97.579075 
3008.000000	97.561905 
3007.000000	97.542574 
3006.000000	97.523678 
3005.000000	97.506114 
3004.000000	97.489795 
3003.000000	97.475005 
3002.000000	97.462126 
3001.000000	97.450849 
3000.000000	97.440367 
2999.000000	97.429857 
2998.000000	97.418440 
2997.000000	97.405567 
2996.000000	97.391924 
2995.000000	97.378879 
2994.000000	97.366016 
2993.000000	97.350057 
2992.000000	97.327819 
2991.000000	97.300582 
2990.000000	97.274548 
2989.000000	97.256398 
2988.000000	97.248646 
2987.000000	97.249210 
2986.000000	97.254631 
2985.000000	97.263086 
2984.000000	97.274223 
2983.000000	97.286833 
2982.000000	97.297783 
2981.000000	97.303631 
2980.000000	97.303005 
2979.000000	97.297214 
2978.000000	97.289128 
2977.000000	97.281760 
2976.000000	97.277167 
2975.000000	97.275762 
2974.000000	97.276854 
2973.000000	97.280341 
2972.000000	97.287205 
2971.000000	97.297468 
2970.000000	97.308498 
2969.000000	97.317076 
2968.000000	97.323061 
2967.000000	97.329455 
2966.000000	97.338646 
2965.000000	97.350203 
2964.000000	97.362520 
2963.000000	97.374645 
2962.000000	97.385615 
2961.000000	97.393947 
2960.000000	97.399609 
2959.000000	97.405584 
2958.000000	97.415632 
2957.000000	97.430432 
2956.000000	97.446687 
2955.000000	97.459902 
2954.000000	97.467851 
2953.000000	97.472178 
2952.000000	97.477293 
2951.000000	97.486712 
2950.000000	97.499354 
2949.000000	97.510056 
2948.000000	97.514558 
2947.000000	97.513272 
2946.000000	97.509850 
2945.000000	97.507293 
2944.000000	97.506514 
2943.000000	97.507447 
2942.000000	97.509396 
2941.000000	97.510719 
2940.000000	97.510370 
2939.000000	97.510003 
2938.000000	97.512599 
2937.000000	97.518380 
2936.000000	97.523708 
2935.000000	97.524917 
2934.000000	97.522027 
2933.000000	97.517877 
2932.000000	97.514674 
2931.000000	97.512472 
2930.000000	97.510561 
2929.000000	97.509069 
2928.000000	97.508723 
2927.000000	97.509358 
2926.000000	97.509194 
2925.000000	97.506322 
2924.000000	97.501167 
2923.000000	97.496725 
2922.000000	97.495473 
2921.000000	97.496653 
2920.000000	97.497849 
2919.000000	97.498680 
2918.000000	97.500848 
2917.000000	97.504073 
2916.000000	97.504305 
2915.000000	97.497932 
2914.000000	97.486868 
2913.000000	97.477432 
2912.000000	97.473892 
2911.000000	97.474583 
2910.000000	97.474768 
2909.000000	97.472199 
2908.000000	97.468932 
2907.000000	97.467979 
2906.000000	97.469195 
2905.000000	97.468799 
2904.000000	97.463126 
2903.000000	97.452936 
2902.000000	97.444370 
2901.000000	97.444123 
2900.000000	97.454188 
2899.000000	97.470957 
2898.000000	97.488723 
2897.000000	97.503954 
2896.000000	97.515689 
2895.000000	97.523455 
2894.000000	97.526986 
2893.000000	97.527997 
2892.000000	97.529994 
2891.000000	97.535006 
2890.000000	97.541680 
2889.000000	97.547854 
2888.000000	97.553781 
2887.000000	97.560829 
2886.000000	97.567859 
2885.000000	97.571876 
2884.000000	97.572996 
2883.000000	97.575943 
2882.000000	97.584737 
2881.000000	97.597845 
2880.000000	97.610726 
2879.000000	97.621857 
2878.000000	97.633213 
2877.000000	97.645291 
2876.000000	97.655143 
2875.000000	97.660480 
2874.000000	97.663120 
2873.000000	97.666561 
2872.000000	97.671764 
2871.000000	97.677251 
2870.000000	97.682387 
2869.000000	97.688399 
2868.000000	97.696284 
2867.000000	97.705405 
2866.000000	97.714391 
2865.000000	97.722387 
2864.000000	97.729426 
2863.000000	97.736596 
2862.000000	97.745802 
2861.000000	97.758231 
2860.000000	97.772720 
2859.000000	97.786581 
2858.000000	97.798385 
2857.000000	97.809179 
2856.000000	97.820640 
2855.000000	97.832771 
2854.000000	97.844050 
2853.000000	97.853253 
2852.000000	97.860439 
2851.000000	97.866510 
2850.000000	97.872344 
2849.000000	97.878213 
2848.000000	97.883808 
2847.000000	97.888856 
2846.000000	97.893651 
2845.000000	97.898695 
2844.000000	97.903769 
2843.000000	97.907870 
2842.000000	97.910357 
2841.000000	97.911836 
2840.000000	97.913618 
2839.000000	97.916505 
2838.000000	97.920247 
2837.000000	97.923998 
2836.000000	97.927221 
2835.000000	97.930347 
2834.000000	97.934646 
2833.000000	97.941113 
2832.000000	97.949135 
2831.000000	97.956499 
2830.000000	97.961105 
2829.000000	97.962694 
2828.000000	97.962826 
2827.000000	97.963441 
2826.000000	97.965680 
2825.000000	97.969797 
2824.000000	97.975371 
2823.000000	97.981249 
2822.000000	97.985763 
2821.000000	97.987704 
2820.000000	97.987241 
2819.000000	97.985803 
2818.000000	97.985077 
2817.000000	97.986127 
2816.000000	97.989179 
2815.000000	97.993711 
2814.000000	97.998490 
2813.000000	98.001972 
2812.000000	98.003248 
2811.000000	98.002700 
2810.000000	98.001739 
2809.000000	98.001795 
2808.000000	98.003429 
2807.000000	98.006294 
2806.000000	98.009584 
2805.000000	98.012486 
2804.000000	98.014543 
2803.000000	98.015833 
2802.000000	98.016861 
2801.000000	98.018193 
2800.000000	98.020025 
2799.000000	98.022108 
2798.000000	98.024012 
2797.000000	98.025511 
2796.000000	98.026717 
2795.000000	98.027918 
2794.000000	98.029303 
2793.000000	98.030841 
2792.000000	98.032392 
2791.000000	98.033860 
2790.000000	98.035249 
2789.000000	98.036611 
2788.000000	98.037977 
2787.000000	98.039349 
2786.000000	98.040723 
2785.000000	98.042096 
2784.000000	98.043463 
2783.000000	98.044818 
2782.000000	98.046154 
2781.000000	98.047473 
2780.000000	98.048783 
2779.000000	98.050091 
2778.000000	98.051398 
2777.000000	98.052697 
2776.000000	98.053978 
2775.000000	98.055238 
2774.000000	98.056484 
2773.000000	98.057723 
2772.000000	98.058952 
2771.000000	98.060162 
2770.000000	98.061360 
2769.000000	98.062589 
2768.000000	98.063896 
2767.000000	98.065295 
2766.000000	98.066712 
2765.000000	98.068032 
2764.000000	98.069213 
2763.000000	98.070330 
2762.000000	98.071483 
2761.000000	98.072679 
2760.000000	98.073862 
2759.000000	98.075008 
2758.000000	98.076138 
2757.000000	98.077243 
2756.000000	98.078255 
2755.000000	98.079131 
2754.000000	98.079929 
2753.000000	98.080784 
2752.000000	98.081771 
2751.000000	98.082862 
2750.000000	98.083966 
2749.000000	98.085029 
2748.000000	98.086052 
2747.000000	98.087023 
2746.000000	98.087901 
2745.000000	98.088681 
2744.000000	98.089436 
2743.000000	98.090266 
2742.000000	98.091206 
2741.000000	98.092220 
2740.000000	98.093258 
2739.000000	98.094293 
2738.000000	98.095285 
2737.000000	98.096173 
2736.000000	98.096942 
2735.000000	98.097652 
2734.000000	98.098397 
2733.000000	98.099213 
2732.000000	98.100075 
2731.000000	98.100945 
2730.000000	98.101801 
2729.000000	98.102621 
2728.000000	98.103374 
2727.000000	98.104034 
2726.000000	98.104609 
2725.000000	98.105143 
2724.000000	98.105700 
2723.000000	98.106314 
2722.000000	98.106954 
2721.000000	98.107543 
2720.000000	98.108076 
2719.000000	98.108673 
2718.000000	98.109459 
2717.000000	98.110387 
2716.000000	98.111232 
2715.000000	98.111844 
2714.000000	98.112320 
2713.000000	98.112849 
2712.000000	98.113421 
2711.000000	98.113883 
2710.000000	98.114267 
2709.000000	98.114862 
2708.000000	98.115892 
2707.000000	98.117263 
2706.000000	98.118629 
2705.000000	98.119663 
2704.000000	98.120252 
2703.000000	98.120510 
2702.000000	98.120686 
2701.000000	98.121028 
2700.000000	98.121724 
2699.000000	98.122890 
2698.000000	98.124451 
2697.000000	98.125965 
2696.000000	98.126784 
2695.000000	98.126612 
2694.000000	98.125795 
2693.000000	98.125056 
2692.000000	98.124826 
2691.000000	98.124998 
2690.000000	98.125301 
2689.000000	98.125637 
2688.000000	98.126036 
2687.000000	98.126489 
2686.000000	98.127006 
2685.000000	98.127715 
2684.000000	98.128725 
2683.000000	98.129936 
2682.000000	98.131067 
2681.000000	98.131889 
2680.000000	98.132387 
2679.000000	98.132708 
2678.000000	98.133032 
2677.000000	98.133442 
2676.000000	98.133848 
2675.000000	98.134029 
2674.000000	98.133856 
2673.000000	98.133495 
2672.000000	98.133291 
2671.000000	98.133413 
2670.000000	98.133705 
2669.000000	98.133898 
2668.000000	98.133911 
2667.000000	98.133852 
2666.000000	98.133829 
2665.000000	98.133856 
2664.000000	98.133911 
2663.000000	98.133998 
2662.000000	98.134107 
2661.000000	98.134198 
2660.000000	98.134242 
2659.000000	98.134250 
2658.000000	98.134236 
2657.000000	98.134209 
2656.000000	98.134174 
2655.000000	98.134133 
2654.000000	98.134083 
2653.000000	98.134021 
2652.000000	98.133953 
2651.000000	98.133892 
2650.000000	98.133856 
2649.000000	98.133860 
2648.000000	98.133895 
2647.000000	98.133922 
2646.000000	98.133887 
2645.000000	98.133760 
2644.000000	98.133566 
2643.000000	98.133383 
2642.000000	98.133291 
2641.000000	98.133307 
2640.000000	98.133345 
2639.000000	98.133293 
2638.000000	98.133158 
2637.000000	98.133088 
2636.000000	98.133253 
2635.000000	98.133729 
2634.000000	98.134498 
2633.000000	98.135400 
2632.000000	98.136044 
2631.000000	98.135970 
2630.000000	98.135087 
2629.000000	98.133989 
2628.000000	98.133530 
2627.000000	98.134006 
2626.000000	98.134954 
2625.000000	98.135722 
2624.000000	98.136121 
2623.000000	98.136375 
2622.000000	98.136592 
2621.000000	98.136413 
2620.000000	98.135225 
2619.000000	98.132769 
2618.000000	98.129733 
2617.000000	98.127531 
2616.000000	98.127163 
2615.000000	98.128381 
2614.000000	98.130123 
2613.000000	98.131646 
2612.000000	98.132972 
2611.000000	98.134365 
2610.000000	98.135998 
2609.000000	98.138051 
2608.000000	98.140481 
2607.000000	98.142584 
2606.000000	98.143539 
2605.000000	98.143539 
2604.000000	98.143747 
2603.000000	98.144865 
2602.000000	98.146278 
2601.000000	98.146930 
2600.000000	98.146420 
2599.000000	98.144853 
2598.000000	98.142483 
2597.000000	98.140002 
2596.000000	98.138299 
2595.000000	98.137554 
2594.000000	98.137040 
2593.000000	98.136283 
2592.000000	98.135889 
2591.000000	98.136629 
2590.000000	98.138209 
2589.000000	98.139580 
2588.000000	98.140288 
2587.000000	98.140764 
2586.000000	98.141437 
2585.000000	98.142179 
2584.000000	98.142660 
2583.000000	98.142831 
2582.000000	98.142883 
2581.000000	98.142958 
2580.000000	98.143044 
2579.000000	98.143079 
2578.000000	98.143081 
2577.000000	98.143142 
2576.000000	98.143308 
2575.000000	98.143544 
2574.000000	98.143808 
2573.000000	98.144108 
2572.000000	98.144442 
2571.000000	98.144782 
2570.000000	98.145106 
2569.000000	98.145418 
2568.000000	98.145726 
2567.000000	98.146035 
2566.000000	98.146347 
2565.000000	98.146660 
2564.000000	98.146975 
2563.000000	98.147300 
2562.000000	98.147643 
2561.000000	98.148009 
2560.000000	98.148402 
2559.000000	98.148821 
2558.000000	98.149254 
2557.000000	98.149679 
2556.000000	98.150071 
2555.000000	98.150411 
2554.000000	98.150707 
2553.000000	98.150979 
2552.000000	98.151250 
2551.000000	98.151535 
2550.000000	98.151834 
2549.000000	98.152135 
2548.000000	98.152424 
2547.000000	98.152696 
2546.000000	98.152966 
2545.000000	98.153238 
2544.000000	98.153537 
2543.000000	98.153930 
2542.000000	98.154359 
2541.000000	98.154644 
2540.000000	98.154789 
2539.000000	98.155032 
2538.000000	98.155486 
2537.000000	98.155929 
2536.000000	98.156124 
2535.000000	98.156245 
2534.000000	98.156785 
2533.000000	98.158044 
2532.000000	98.159812 
2531.000000	98.161492 
2530.000000	98.162385 
2529.000000	98.162001 
2528.000000	98.160486 
2527.000000	98.158796 
2526.000000	98.158091 
2525.000000	98.158681 
2524.000000	98.159799 
2523.000000	98.160569 
2522.000000	98.160874 
2521.000000	98.160960 
2520.000000	98.160592 
2519.000000	98.159284 
2518.000000	98.157172 
2517.000000	98.154928 
2516.000000	98.152725 
2515.000000	98.150111 
2514.000000	98.147403 
2513.000000	98.146427 
2512.000000	98.148937 
2511.000000	98.154679 
2510.000000	98.161509 
2509.000000	98.167147 
2508.000000	98.170574 
2507.000000	98.172021 
2506.000000	98.172616 
2505.000000	98.174014 
2504.000000	98.177207 
2503.000000	98.181009 
2502.000000	98.182463 
2501.000000	98.179640 
2500.000000	98.173654 
2499.000000	98.167619 
2498.000000	98.163698 
2497.000000	98.161790 
2496.000000	98.160914 
2495.000000	98.160636 
2494.000000	98.160836 
2493.000000	98.161007 
2492.000000	98.160798 
2491.000000	98.161039 
2490.000000	98.163146 
2489.000000	98.167218 
2488.000000	98.171309 
2487.000000	98.173115 
2486.000000	98.172249 
2485.000000	98.170552 
2484.000000	98.170256 
2483.000000	98.171919 
2482.000000	98.174172 
2481.000000	98.175162 
2480.000000	98.174225 
2479.000000	98.172305 
2478.000000	98.171050 
2477.000000	98.171379 
2476.000000	98.172823 
2475.000000	98.174127 
2474.000000	98.174478 
2473.000000	98.174098 
2472.000000	98.173757 
2471.000000	98.173906 
2470.000000	98.174476 
2469.000000	98.175354 
2468.000000	98.176699 
2467.000000	98.178556 
2466.000000	98.180388 
2465.000000	98.181392 
2464.000000	98.181459 
2463.000000	98.181506 
2462.000000	98.182580 
2461.000000	98.184756 
2460.000000	98.187090 
2459.000000	98.188603 
2458.000000	98.188957 
2457.000000	98.188237 
2456.000000	98.186596 
2455.000000	98.184603 
2454.000000	98.183380 
2453.000000	98.183661 
2452.000000	98.184886 
2451.000000	98.185632 
2450.000000	98.185137 
2449.000000	98.184013 
2448.000000	98.183385 
2447.000000	98.183668 
2446.000000	98.184415 
2445.000000	98.185008 
2444.000000	98.185058 
2443.000000	98.184395 
2442.000000	98.183162 
2441.000000	98.181964 
2440.000000	98.181527 
2439.000000	98.182144 
2438.000000	98.183644 
2437.000000	98.185642 
2436.000000	98.187607 
2435.000000	98.188941 
2434.000000	98.189384 
2433.000000	98.189298 
2432.000000	98.189322 
2431.000000	98.189758 
2430.000000	98.190548 
2429.000000	98.191657 
2428.000000	98.193052 
2427.000000	98.194355 
2426.000000	98.194950 
2425.000000	98.194545 
2424.000000	98.193454 
2423.000000	98.192397 
2422.000000	98.191998 
2421.000000	98.192563 
2420.000000	98.194092 
2419.000000	98.196187 
2418.000000	98.198123 
2417.000000	98.199321 
2416.000000	98.199716 
2415.000000	98.199633 
2414.000000	98.199563 
2413.000000	98.200103 
2412.000000	98.201680 
2411.000000	98.203932 
2410.000000	98.205862 
2409.000000	98.207117 
2408.000000	98.208630 
2407.000000	98.211223 
2406.000000	98.214025 
2405.000000	98.215155 
2404.000000	98.213782 
2403.000000	98.210841 
2402.000000	98.208080 
2401.000000	98.206981 
2400.000000	98.208309 
2399.000000	98.211785 
2398.000000	98.216186 
2397.000000	98.220332 
2396.000000	98.223858 
2395.000000	98.226588 
2394.000000	98.227772 
2393.000000	98.226968 
2392.000000	98.225376 
2391.000000	98.225041 
2390.000000	98.226621 
2389.000000	98.229045 
2388.000000	98.231496 
2387.000000	98.234449 
2386.000000	98.238316 
2385.000000	98.242386 
2384.000000	98.245806 
2383.000000	98.248300 
2382.000000	98.249120 
2381.000000	98.246735 
2380.000000	98.240921 
2379.000000	98.234254 
2378.000000	98.229749 
2377.000000	98.227462 
2376.000000	98.225477 
2375.000000	98.223698 
2374.000000	98.224005 
2373.000000	98.226559 
2372.000000	98.228777 
2371.000000	98.229390 
2370.000000	98.230811 
2369.000000	98.234921 
2368.000000	98.238570 
2367.000000	98.236777 
2366.000000	98.229072 
2365.000000	98.219755 
2364.000000	98.212462 
2363.000000	98.208126 
2362.000000	98.207093 
2361.000000	98.209410 
2360.000000	98.214732 
2359.000000	98.220527 
2358.000000	98.223380 
2357.000000	98.222362 
2356.000000	98.218734 
2355.000000	98.214894 
2354.000000	98.209734 
2353.000000	98.202069 
2352.000000	98.194442 
2351.000000	98.189452 
2350.000000	98.188171 
2349.000000	98.189023 
2348.000000	98.192249 
2347.000000	98.198376 
2346.000000	98.206200 
2345.000000	98.214219 
2344.000000	98.219248 
2343.000000	98.221048 
2342.000000	98.219490 
2341.000000	98.216396 
2340.000000	98.215276 
2339.000000	98.216091 
2338.000000	98.215537 
2337.000000	98.211049 
2336.000000	98.205968 
2335.000000	98.205017 
2334.000000	98.207899 
2333.000000	98.210956 
2332.000000	98.214167 
2331.000000	98.218761 
2330.000000	98.225184 
2329.000000	98.229620 
2328.000000	98.232318 
2327.000000	98.235315 
2326.000000	98.238022 
2325.000000	98.240200 
2324.000000	98.242493 
2323.000000	98.249096 
2322.000000	98.257803 
2321.000000	98.262324 
2320.000000	98.259462 
2319.000000	98.252914 
2318.000000	98.248795 
2317.000000	98.247915 
2316.000000	98.249310 
2315.000000	98.252604 
2314.000000	98.259112 
2313.000000	98.267466 
2312.000000	98.275476 
2311.000000	98.281972 
2310.000000	98.287052 
2309.000000	98.290330 
2308.000000	98.291474 
2307.000000	98.291925 
2306.000000	98.292787 
2305.000000	98.293278 
2304.000000	98.291813 
2303.000000	98.289783 
2302.000000	98.290317 
2301.000000	98.293308 
2300.000000	98.294169 
2299.000000	98.288585 
2298.000000	98.277692 
2297.000000	98.266820 
2296.000000	98.260623 
2295.000000	98.259582 
2294.000000	98.260705 
2293.000000	98.260368 
2292.000000	98.256621 
2291.000000	98.250843 
2290.000000	98.246482 
2289.000000	98.246616 
2288.000000	98.250852 
2287.000000	98.255690 
2286.000000	98.257171 
2285.000000	98.254241 
2284.000000	98.249032 
2283.000000	98.244550 
2282.000000	98.242010 
2281.000000	98.240575 
2280.000000	98.238881 
2279.000000	98.236160 
2278.000000	98.232357 
2277.000000	98.228227 
2276.000000	98.225533 
2275.000000	98.225769 
2274.000000	98.228599 
2273.000000	98.232143 
2272.000000	98.235120 
2271.000000	98.237659 
2270.000000	98.239915 
2269.000000	98.241194 
2268.000000	98.240930 
2267.000000	98.239687 
2266.000000	98.238508 
2265.000000	98.237804 
2264.000000	98.237351 
2263.000000	98.236845 
2262.000000	98.236063 
2261.000000	98.234928 
2260.000000	98.233667 
2259.000000	98.232752 
2258.000000	98.232380 
2257.000000	98.232380 
2256.000000	98.232779 
2255.000000	98.234027 
2254.000000	98.236306 
2253.000000	98.238761 
2252.000000	98.240007 
2251.000000	98.239273 
2250.000000	98.236745 
2249.000000	98.233270 
2248.000000	98.230116 
2247.000000	98.228486 
2246.000000	98.228675 
2245.000000	98.229717 
2244.000000	98.230059 
2243.000000	98.229026 
2242.000000	98.227325 
2241.000000	98.226310 
2240.000000	98.226748 
2239.000000	98.228400 
2238.000000	98.230334 
2237.000000	98.231637 
2236.000000	98.232010 
2235.000000	98.231830 
2234.000000	98.231725 
2233.000000	98.232061 
2232.000000	98.232826 
2231.000000	98.233796 
2230.000000	98.234551 
2229.000000	98.234535 
2228.000000	98.233502 
2227.000000	98.232005 
2226.000000	98.230989 
2225.000000	98.230702 
2224.000000	98.230475 
2223.000000	98.229676 
2222.000000	98.228562 
2221.000000	98.227784 
2220.000000	98.227360 
2219.000000	98.226788 
2218.000000	98.225958 
2217.000000	98.225461 
2216.000000	98.225845 
2215.000000	98.226877 
2214.000000	98.227721 
2213.000000	98.227824 
2212.000000	98.227542 
2211.000000	98.227787 
2210.000000	98.229029 
2209.000000	98.230775 
2208.000000	98.232035 
2207.000000	98.232378 
2206.000000	98.232264 
2205.000000	98.232410 
2204.000000	98.233126 
2203.000000	98.234290 
2202.000000	98.235564 
2201.000000	98.236353 
2200.000000	98.236070 
2199.000000	98.234765 
2198.000000	98.233292 
2197.000000	98.232646 
2196.000000	98.233001 
2195.000000	98.233608 
2194.000000	98.233578 
2193.000000	98.232782 
2192.000000	98.231850 
2191.000000	98.231357 
2190.000000	98.231320 
2189.000000	98.231594 
2188.000000	98.232307 
2187.000000	98.233521 
2186.000000	98.234701 
2185.000000	98.235150 
2184.000000	98.235021 
2183.000000	98.235436 
2182.000000	98.237134 
2181.000000	98.239641 
2180.000000	98.241735 
2179.000000	98.242819 
2178.000000	98.243298 
2177.000000	98.244004 
2176.000000	98.245386 
2175.000000	98.247253 
2174.000000	98.249132 
2173.000000	98.250817 
2172.000000	98.252598 
2171.000000	98.254868 
2170.000000	98.257432 
2169.000000	98.259395 
2168.000000	98.260113 
2167.000000	98.259976 
2166.000000	98.260166 
2165.000000	98.261325 
2164.000000	98.262996 
2163.000000	98.264318 
2162.000000	98.265001 
2161.000000	98.265463 
2160.000000	98.266230 
2159.000000	98.267437 
2158.000000	98.268916 
2157.000000	98.270458 
2156.000000	98.271873 
2155.000000	98.273040 
2154.000000	98.274116 
2153.000000	98.275581 
2152.000000	98.277778 
2151.000000	98.280410 
2150.000000	98.282661 
2149.000000	98.284085 
2148.000000	98.285137 
2147.000000	98.286624 
2146.000000	98.288725 
2145.000000	98.290900 
2144.000000	98.292746 
2143.000000	98.294542 
2142.000000	98.296622 
2141.000000	98.298641 
2140.000000	98.300001 
2139.000000	98.300799 
2138.000000	98.301867 
2137.000000	98.303665 
2136.000000	98.305574 
2135.000000	98.306601 
2134.000000	98.306418 
2133.000000	98.305510 
2132.000000	98.304809 
2131.000000	98.304961 
2130.000000	98.305951 
2129.000000	98.307193 
2128.000000	98.307963 
2127.000000	98.308060 
2126.000000	98.307796 
2125.000000	98.307578 
2124.000000	98.307575 
2123.000000	98.307744 
2122.000000	98.307992 
2121.000000	98.308203 
2120.000000	98.308259 
2119.000000	98.308153 
2118.000000	98.308021 
2117.000000	98.307995 
2116.000000	98.308084 
2115.000000	98.308178 
2114.000000	98.308150 
2113.000000	98.307956 
2112.000000	98.307659 
2111.000000	98.307366 
2110.000000	98.307143 
2109.000000	98.306988 
2108.000000	98.306817 
2107.000000	98.306504 
2106.000000	98.305948 
2105.000000	98.305170 
2104.000000	98.304376 
2103.000000	98.303865 
2102.000000	98.303660 
2101.000000	98.303244 
2100.000000	98.302013 
2099.000000	98.300191 
2098.000000	98.298982 
2097.000000	98.299295 
2096.000000	98.300783 
2095.000000	98.302160 
2094.000000	98.302553 
2093.000000	98.302129 
2092.000000	98.301551 
2091.000000	98.301390 
2090.000000	98.301955 
2089.000000	98.303294 
2088.000000	98.305032 
2087.000000	98.306428 
2086.000000	98.306844 
2085.000000	98.306300 
2084.000000	98.305633 
2083.000000	98.305870 
2082.000000	98.307223 
2081.000000	98.308940 
2080.000000	98.310403 
2079.000000	98.312006 
2078.000000	98.314313 
2077.000000	98.316747 
2076.000000	98.318016 
2075.000000	98.317818 
2074.000000	98.317248 
2073.000000	98.317092 
2072.000000	98.316974 
2071.000000	98.316404 
2070.000000	98.315621 
2069.000000	98.315284 
2068.000000	98.315886 
2067.000000	98.317603 
2066.000000	98.320268 
2065.000000	98.323231 
2064.000000	98.325681 
2063.000000	98.327447 
2062.000000	98.329018 
2061.000000	98.330843 
2060.000000	98.332946 
2059.000000	98.335136 
2058.000000	98.337249 
2057.000000	98.339183 
2056.000000	98.340924 
2055.000000	98.342543 
2054.000000	98.344132 
2053.000000	98.345724 
2052.000000	98.347306 
2051.000000	98.348875 
2050.000000	98.350426 
2049.000000	98.351953 
2048.000000	98.353467 
2047.000000	98.354984 
2046.000000	98.356514 
2045.000000	98.358049 
2044.000000	98.359583 
2043.000000	98.361120 
2042.000000	98.362684 
2041.000000	98.364291 
2040.000000	98.365939 
2039.000000	98.367597 
2038.000000	98.369220 
2037.000000	98.370764 
2036.000000	98.372206 
2035.000000	98.373561 
2034.000000	98.374874 
2033.000000	98.376186 
2032.000000	98.377497 
2031.000000	98.378762 
2030.000000	98.379927 
2029.000000	98.380967 
2028.000000	98.381898 
2027.000000	98.382756 
2026.000000	98.383575 
2025.000000	98.384370 
2024.000000	98.385149 
2023.000000	98.385912 
2022.000000	98.386653 
2021.000000	98.387339 
2020.000000	98.387916 
2019.000000	98.388338 
2018.000000	98.388598 
2017.000000	98.388739 
2016.000000	98.388823 
2015.000000	98.388903 
2014.000000	98.389002 
2013.000000	98.389121 
2012.000000	98.389260 
2011.000000	98.389420 
2010.000000	98.389600 
2009.000000	98.389789 
2008.000000	98.389962 
2007.000000	98.390090 
2006.000000	98.390162 
2005.000000	98.390184 
2004.000000	98.390182 
2003.000000	98.390186 
2002.000000	98.390220 
2001.000000	98.390277 
2000.000000	98.390311 
1999.000000	98.390266 
1998.000000	98.390119 
1997.000000	98.389898 
1996.000000	98.389667 
1995.000000	98.389478 
1994.000000	98.389349 
1993.000000	98.389255 
1992.000000	98.389151 
1991.000000	98.389002 
1990.000000	98.388817 
1989.000000	98.388638 
1988.000000	98.388509 
1987.000000	98.388436 
1986.000000	98.388384 
1985.000000	98.388311 
1984.000000	98.388188 
1983.000000	98.388006 
1982.000000	98.387761 
1981.000000	98.387447 
1980.000000	98.387059 
1979.000000	98.386603 
1978.000000	98.386089 
1977.000000	98.385531 
1976.000000	98.384932 
1975.000000	98.384285 
1974.000000	98.383578 
1973.000000	98.382802 
1972.000000	98.381955 
1971.000000	98.381034 
1970.000000	98.380049 
1969.000000	98.378984 
1968.000000	98.377806 
1967.000000	98.376496 
1966.000000	98.375065 
1965.000000	98.373594 
1964.000000	98.372245 
1963.000000	98.371202 
1962.000000	98.370540 
1961.000000	98.370008 
1960.000000	98.369090 
1959.000000	98.367384 
1958.000000	98.364986 
1957.000000	98.362570 
1956.000000	98.360735 
1955.000000	98.359433 
1954.000000	98.358034 
1953.000000	98.356052 
1952.000000	98.353602 
1951.000000	98.351056 
1950.000000	98.348646 
1949.000000	98.346752 
1948.000000	98.345962 
1947.000000	98.346246 
1946.000000	98.346283 
1945.000000	98.344458 
1944.000000	98.340557 
1943.000000	98.336101 
1942.000000	98.332843 
1941.000000	98.331178 
1940.000000	98.330252 
1939.000000	98.328762 
1938.000000	98.325661 
1937.000000	98.321078 
1936.000000	98.316607 
1935.000000	98.313668 
1934.000000	98.312043 
1933.000000	98.311102 
1932.000000	98.311507 
1931.000000	98.314002 
1930.000000	98.317176 
1929.000000	98.318433 
1928.000000	98.317429 
1927.000000	98.316230 
1926.000000	98.315745 
1925.000000	98.314423 
1924.000000	98.311507 
1923.000000	98.309388 
1922.000000	98.310348 
1921.000000	98.312914 
1920.000000	98.314420 
1919.000000	98.315266 
1918.000000	98.317291 
1917.000000	98.319143 
1916.000000	98.317811 
1915.000000	98.314089 
1914.000000	98.311732 
1913.000000	98.312131 
1912.000000	98.312909 
1911.000000	98.312253 
1910.000000	98.311955 
1909.000000	98.314269 
1908.000000	98.318046 
1907.000000	98.319774 
1906.000000	98.316964 
1905.000000	98.309547 
1904.000000	98.299739 
1903.000000	98.291627 
1902.000000	98.288670 
1901.000000	98.290321 
1900.000000	98.292991 
1899.000000	98.294362 
1898.000000	98.294898 
1897.000000	98.295066 
1896.000000	98.292915 
1895.000000	98.285969 
1894.000000	98.274362 
1893.000000	98.261104 
1892.000000	98.250261 
1891.000000	98.245113 
1890.000000	98.246418 
1889.000000	98.251039 
1888.000000	98.254565 
1887.000000	98.256328 
1886.000000	98.258595 
1885.000000	98.261676 
1884.000000	98.262973 
1883.000000	98.261057 
1882.000000	98.258009 
1881.000000	98.256525 
1880.000000	98.257120 
1879.000000	98.258922 
1878.000000	98.261414 
1877.000000	98.264495 
1876.000000	98.267569 
1875.000000	98.269917 
1874.000000	98.271600 
1873.000000	98.272808 
1872.000000	98.273059 
1871.000000	98.271907 
1870.000000	98.270026 
1869.000000	98.268608 
1868.000000	98.267678 
1867.000000	98.266750 
1866.000000	98.266151 
1865.000000	98.266253 
1864.000000	98.266900 
1863.000000	98.267588 
1862.000000	98.267286 
1861.000000	98.264828 
1860.000000	98.260706 
1859.000000	98.258142 
1858.000000	98.260544 
1857.000000	98.267700 
1856.000000	98.275691 
1855.000000	98.280709 
1854.000000	98.281534 
1853.000000	98.278953 
1852.000000	98.275689 
1851.000000	98.275453 
1850.000000	98.279812 
1849.000000	98.286801 
1848.000000	98.293030 
1847.000000	98.297391 
1846.000000	98.301453 
1845.000000	98.306793 
1844.000000	98.312937 
1843.000000	98.318408 
1842.000000	98.322421 
1841.000000	98.324726 
1840.000000	98.326577 
1839.000000	98.330486 
1838.000000	98.336549 
1837.000000	98.340697 
1836.000000	98.339420 
1835.000000	98.334760 
1834.000000	98.331340 
1833.000000	98.330208 
1832.000000	98.329183 
1831.000000	98.327026 
1830.000000	98.324968 
1829.000000	98.324722 
1828.000000	98.326377 
1827.000000	98.328773 
1826.000000	98.330899 
1825.000000	98.332409 
1824.000000	98.333265 
1823.000000	98.333879 
1822.000000	98.335014 
1821.000000	98.336543 
1820.000000	98.337497 
1819.000000	98.337606 
1818.000000	98.338023 
1817.000000	98.338909 
1816.000000	98.337816 
1815.000000	98.333839 
1814.000000	98.330480 
1813.000000	98.331921 
1812.000000	98.337480 
1811.000000	98.341730 
1810.000000	98.342144 
1809.000000	98.341509 
1808.000000	98.341610 
1807.000000	98.340765 
1806.000000	98.337900 
1805.000000	98.334474 
1804.000000	98.332083 
1803.000000	98.330825 
1802.000000	98.330060 
1801.000000	98.329366 
1800.000000	98.327431 
1799.000000	98.322967 
1798.000000	98.317960 
1797.000000	98.315156 
1796.000000	98.314210 
1795.000000	98.313461 
1794.000000	98.313047 
1793.000000	98.314459 
1792.000000	98.316852 
1791.000000	98.318090 
1790.000000	98.319326 
1789.000000	98.322647 
1788.000000	98.327663 
1787.000000	98.332752 
1786.000000	98.337214 
1785.000000	98.340868 
1784.000000	98.343037 
1783.000000	98.344101 
1782.000000	98.345331 
1781.000000	98.347548 
1780.000000	98.350423 
1779.000000	98.353118 
1778.000000	98.356108 
1777.000000	98.359725 
1776.000000	98.362866 
1775.000000	98.364462 
1774.000000	98.364715 
1773.000000	98.365340 
1772.000000	98.367112 
1771.000000	98.368605 
1770.000000	98.369254 
1769.000000	98.370200 
1768.000000	98.372304 
1767.000000	98.374749 
1766.000000	98.376106 
1765.000000	98.376324 
1764.000000	98.376302 
1763.000000	98.376439 
1762.000000	98.376348 
1761.000000	98.376188 
1760.000000	98.376780 
1759.000000	98.378120 
1758.000000	98.379349 
1757.000000	98.379927 
1756.000000	98.380400 
1755.000000	98.381105 
1754.000000	98.381267 
1753.000000	98.380260 
1752.000000	98.379105 
1751.000000	98.379797 
1750.000000	98.382769 
1749.000000	98.386175 
1748.000000	98.388045 
1747.000000	98.388206 
1746.000000	98.387596 
1745.000000	98.387505 
1744.000000	98.388747 
1743.000000	98.390662 
1742.000000	98.391672 
1741.000000	98.391381 
1740.000000	98.391056 
1739.000000	98.391717 
1738.000000	98.392392 
1737.000000	98.391554 
1736.000000	98.388818 
1735.000000	98.385804 
1734.000000	98.384271 
1733.000000	98.383984 
1732.000000	98.385120 
1731.000000	98.388006 
1730.000000	98.391370 
1729.000000	98.393012 
1728.000000	98.392343 
1727.000000	98.390971 
1726.000000	98.390402 
1725.000000	98.390509 
1724.000000	98.390314 
1723.000000	98.389515 
1722.000000	98.388718 
1721.000000	98.387814 
1720.000000	98.386143 
1719.000000	98.383992 
1718.000000	98.382609 
1717.000000	98.381748 
1716.000000	98.379111 
1715.000000	98.374466 
1714.000000	98.370321 
1713.000000	98.367767 
1712.000000	98.365481 
1711.000000	98.362636 
1710.000000	98.359748 
1709.000000	98.357001 
1708.000000	98.354009 
1707.000000	98.351110 
1706.000000	98.349493 
1705.000000	98.348767 
1704.000000	98.346151 
1703.000000	98.340281 
1702.000000	98.332202 
1701.000000	98.325285 
1700.000000	98.321170 
1699.000000	98.317952 
1698.000000	98.315207 
1697.000000	98.313253 
1696.000000	98.311013 
1695.000000	98.307279 
1694.000000	98.302579 
1693.000000	98.297977 
1692.000000	98.293451 
1691.000000	98.288954 
1690.000000	98.284609 
1689.000000	98.280162 
1688.000000	98.275192 
1687.000000	98.269765 
1686.000000	98.264676 
1685.000000	98.261121 
1684.000000	98.258123 
1683.000000	98.253679 
1682.000000	98.248460 
1681.000000	98.243249 
1680.000000	98.238309 
1679.000000	98.233870 
1678.000000	98.229676 
1677.000000	98.225181 
1676.000000	98.220286 
1675.000000	98.215121 
1674.000000	98.209457 
1673.000000	98.203876 
1672.000000	98.199446 
1671.000000	98.196660 
1670.000000	98.194572 
1669.000000	98.190811 
1668.000000	98.186133 
1667.000000	98.183478 
1666.000000	98.182406 
1665.000000	98.180679 
1664.000000	98.177816 
1663.000000	98.174563 
1662.000000	98.169705 
1661.000000	98.161297 
1660.000000	98.151200 
1659.000000	98.142562 
1658.000000	98.136562 
1657.000000	98.129885 
1656.000000	98.119897 
1655.000000	98.106946 
1654.000000	98.099938 
1653.000000	98.098213 
1652.000000	98.091449 
1651.000000	98.087940 
1650.000000	98.087577 
1649.000000	98.084079 
1648.000000	98.079427 
1647.000000	98.077853 
1646.000000	98.077444 
1645.000000	98.075883 
1644.000000	98.073894 
1643.000000	98.072210 
1642.000000	98.071239 
1641.000000	98.071772 
1640.000000	98.073465 
1639.000000	98.074311 
1638.000000	98.072835 
1637.000000	98.070096 
1636.000000	98.066764 
1635.000000	98.061943 
1634.000000	98.058269 
1633.000000	98.057479 
1632.000000	98.056049 
1631.000000	98.052720 
1630.000000	98.049989 
1629.000000	98.049182 
1628.000000	98.049740 
1627.000000	98.051352 
1626.000000	98.053409 
1625.000000	98.054356 
1624.000000	98.054696 
1623.000000	98.057425 
1622.000000	98.063697 
1621.000000	98.070677 
1620.000000	98.075626 
1619.000000	98.078651 
1618.000000	98.082260 
1617.000000	98.086352 
1616.000000	98.088559 
1615.000000	98.091960 
1614.000000	98.098743 
1613.000000	98.104754 
1612.000000	98.106995 
1611.000000	98.107774 
1610.000000	98.111088 
1609.000000	98.118752 
1608.000000	98.130367 
1607.000000	98.143288 
1606.000000	98.152427 
1605.000000	98.155568 
1604.000000	98.157070 
1603.000000	98.161883 
1602.000000	98.169174 
1601.000000	98.175083 
1600.000000	98.179317 
1599.000000	98.184618 
1598.000000	98.191337 
1597.000000	98.197356 
1596.000000	98.201924 
1595.000000	98.206316 
1594.000000	98.210944 
1593.000000	98.214604 
1592.000000	98.217327 
1591.000000	98.221111 
1590.000000	98.226899 
1589.000000	98.233471 
1588.000000	98.240298 
1587.000000	98.248447 
1586.000000	98.257180 
1585.000000	98.263483 
1584.000000	98.267285 
1583.000000	98.271725 
1582.000000	98.277415 
1581.000000	98.281925 
1580.000000	98.284468 
1579.000000	98.287255 
1578.000000	98.292668 
1577.000000	98.301111 
1576.000000	98.309009 
1575.000000	98.314125 
1574.000000	98.318271 
1573.000000	98.321665 
1572.000000	98.324786 
1571.000000	98.330656 
1570.000000	98.338116 
1569.000000	98.339396 
1568.000000	98.334403 
1567.000000	98.329700 
1566.000000	98.326926 
1565.000000	98.324183 
1564.000000	98.323039 
1563.000000	98.322715 
1562.000000	98.320532 
1561.000000	98.313574 
1560.000000	98.313135 
1559.000000	98.324765 
1558.000000	98.327323 
1557.000000	98.321094 
1556.000000	98.316570 
1555.000000	98.314628 
1554.000000	98.311969 
1553.000000	98.308507 
1552.000000	98.304815 
1551.000000	98.300806 
1550.000000	98.295609 
1549.000000	98.290224 
1548.000000	98.286513 
1547.000000	98.285189 
1546.000000	98.283942 
1545.000000	98.280780 
1544.000000	98.276393 
1543.000000	98.272417 
1542.000000	98.269661 
1541.000000	98.266707 
1540.000000	98.254638 
1539.000000	98.232039 
1538.000000	98.212152 
1537.000000	98.199004 
1536.000000	98.187445 
1535.000000	98.176777 
1534.000000	98.169958 
1533.000000	98.164980 
1532.000000	98.156776 
1531.000000	98.144683 
1530.000000	98.132003 
1529.000000	98.121014 
1528.000000	98.111258 
1527.000000	98.101556 
1526.000000	98.091195 
1525.000000	98.080155 
1524.000000	98.069391 
1523.000000	98.060590 
1522.000000	98.054478 
1521.000000	98.046627 
1520.000000	98.033008 
1519.000000	98.016370 
1518.000000	98.000057 
1517.000000	97.984775 
1516.000000	97.969853 
1515.000000	97.955999 
1514.000000	97.944749 
1513.000000	97.935640 
1512.000000	97.925919 
1511.000000	97.912163 
1510.000000	97.894237 
1509.000000	97.875619 
1508.000000	97.862026 
1507.000000	97.853206 
1506.000000	97.840744 
1505.000000	97.823762 
1504.000000	97.807167 
1503.000000	97.791511 
1502.000000	97.775842 
1501.000000	97.761102 
1500.000000	97.748061 
1499.000000	97.735763 
1498.000000	97.721747 
1497.000000	97.705746 
1496.000000	97.689775 
1495.000000	97.675901 
1494.000000	97.665041 
1493.000000	97.656740 
1492.000000	97.650068 
1491.000000	97.644230 
1490.000000	97.637680 
1489.000000	97.628450 
1488.000000	97.614733 
1487.000000	97.596513 
1486.000000	97.576954 
1485.000000	97.557786 
1484.000000	97.539540 
1483.000000	97.523991 
1482.000000	97.512325 
1481.000000	97.503043 
1480.000000	97.492406 
1479.000000	97.478959 
1478.000000	97.464979 
1477.000000	97.453017 
1476.000000	97.441621 
1475.000000	97.427695 
1474.000000	97.412744 
1473.000000	97.402053 
1472.000000	97.395738 
1471.000000	97.387698 
1470.000000	97.375820 
1469.000000	97.362260 
1468.000000	97.348424 
1467.000000	97.334534 
1466.000000	97.321874 
1465.000000	97.312876 
1464.000000	97.307246 
1463.000000	97.300447 
1462.000000	97.289341 
1461.000000	97.275255 
1460.000000	97.261542 
1459.000000	97.249870 
1458.000000	97.236790 
1457.000000	97.217735 
1456.000000	97.197002 
1455.000000	97.181835 
1454.000000	97.170356 
1453.000000	97.160333 
1452.000000	97.153582 
1451.000000	97.151960 
1450.000000	97.155503 
1449.000000	97.164631 
1448.000000	97.176729 
1447.000000	97.184584 
1446.000000	97.183768 
1445.000000	97.178572 
1444.000000	97.175742 
1443.000000	97.175635 
1442.000000	97.174915 
1441.000000	97.172519 
1440.000000	97.169729 
1439.000000	97.166079 
1438.000000	97.159976 
1437.000000	97.153532 
1436.000000	97.150664 
1435.000000	97.150586 
1434.000000	97.150382 
1433.000000	97.150818 
1432.000000	97.154476 
1431.000000	97.161728 
1430.000000	97.169076 
1429.000000	97.173704 
1428.000000	97.175766 
1427.000000	97.176784 
1426.000000	97.178179 
1425.000000	97.181694 
1424.000000	97.188891 
1423.000000	97.196189 
1422.000000	97.198727 
1421.000000	97.198318 
1420.000000	97.201670 
1419.000000	97.207582 
1418.000000	97.206313 
1417.000000	97.198969 
1416.000000	97.195496 
1415.000000	97.199016 
1414.000000	97.204479 
1413.000000	97.207284 
1412.000000	97.208812 
1411.000000	97.212100 
1410.000000	97.216854 
1409.000000	97.222803 
1408.000000	97.231812 
1407.000000	97.245032 
1406.000000	97.261065 
1405.000000	97.278836 
1404.000000	97.299385 
1403.000000	97.320734 
1402.000000	97.339087 
1401.000000	97.356357 
1400.000000	97.379354 
1399.000000	97.408805 
1398.000000	97.433793 
1397.000000	97.444198 
1396.000000	97.442383 
1395.000000	97.441324 
1394.000000	97.452733 
1393.000000	97.478462 
1392.000000	97.513395 
1391.000000	97.549694 
1390.000000	97.580609 
1389.000000	97.603615 
1388.000000	97.619931 
1387.000000	97.631619 
1386.000000	97.640335 
1385.000000	97.649025 
1384.000000	97.661597 
1383.000000	97.679243 
1382.000000	97.699209 
1381.000000	97.718251 
1380.000000	97.735977 
1379.000000	97.754901 
1378.000000	97.777285 
1377.000000	97.802524 
1376.000000	97.827669 
1375.000000	97.849957 
1374.000000	97.868874 
1373.000000	97.886704 
1372.000000	97.906063 
1371.000000	97.927638 
1370.000000	97.950528 
1369.000000	97.972926 
1368.000000	97.993860 
1367.000000	98.012935 
1366.000000	98.030283 
1365.000000	98.047436 
1364.000000	98.065688 
1363.000000	98.083556 
1362.000000	98.098382 
1361.000000	98.110671 
1360.000000	98.124091 
1359.000000	98.141179 
1358.000000	98.160697 
1357.000000	98.179172 
1356.000000	98.194319 
1355.000000	98.206234 
1354.000000	98.216466 
1353.000000	98.227272 
1352.000000	98.239660 
1351.000000	98.253537 
1350.000000	98.268626 
1349.000000	98.282656 
1348.000000	98.293030 
1347.000000	98.299508 
1346.000000	98.304963 
1345.000000	98.312464 
1344.000000	98.322548 
1343.000000	98.333655 
1342.000000	98.344066 
1341.000000	98.352195 
1340.000000	98.356575 
1339.000000	98.357483 
1338.000000	98.357494 
1337.000000	98.359179 
1336.000000	98.362685 
1335.000000	98.366250 
1334.000000	98.368831 
1333.000000	98.371105 
1332.000000	98.373763 
1331.000000	98.376547 
1330.000000	98.379002 
1329.000000	98.381106 
1328.000000	98.383053 
1327.000000	98.385318 
1326.000000	98.388237 
1325.000000	98.390621 
1324.000000	98.390838 
1323.000000	98.388490 
1322.000000	98.384935 
1321.000000	98.382201 
1320.000000	98.381574 
1319.000000	98.382937 
1318.000000	98.385137 
1317.000000	98.386826 
1316.000000	98.386780 
1315.000000	98.384237 
1314.000000	98.379930 
1313.000000	98.376738 
1312.000000	98.377552 
1311.000000	98.382048 
1310.000000	98.386746 
1309.000000	98.388964 
1308.000000	98.389439 
1307.000000	98.390616 
1306.000000	98.393326 
1305.000000	98.396075 
1304.000000	98.397717 
1303.000000	98.398213 
1302.000000	98.397308 
1301.000000	98.394559 
1300.000000	98.391378 
1299.000000	98.390827 
1298.000000	98.393901 
1297.000000	98.397232 
1296.000000	98.396356 
1295.000000	98.391093 
1294.000000	98.385959 
1293.000000	98.385233 
1292.000000	98.388814 
1291.000000	98.393278 
1290.000000	98.395790 
1289.000000	98.396025 
1288.000000	98.394988 
1287.000000	98.393405 
1286.000000	98.391466 
1285.000000	98.389604 
1284.000000	98.388931 
1283.000000	98.390292 
1282.000000	98.392837 
1281.000000	98.394008 
1280.000000	98.391891 
1279.000000	98.387808 
1278.000000	98.385725 
1277.000000	98.388519 
1276.000000	98.394829 
1275.000000	98.400194 
1274.000000	98.401056 
1273.000000	98.397465 
1272.000000	98.392343 
1271.000000	98.388629 
1270.000000	98.386918 
1269.000000	98.385474 
1268.000000	98.382521 
1267.000000	98.378312 
1266.000000	98.374757 
1265.000000	98.373635 
1264.000000	98.375381 
1263.000000	98.378942 
1262.000000	98.382292 
1261.000000	98.383734 
1260.000000	98.383983 
1259.000000	98.386432 
1258.000000	98.393213 
1257.000000	98.401212 
1256.000000	98.404167 
1255.000000	98.399773 
1254.000000	98.392722 
1253.000000	98.388775 
1252.000000	98.387573 
1251.000000	98.384612 
1250.000000	98.379412 
1249.000000	98.377652 
1248.000000	98.383959 
1247.000000	98.395325 
1246.000000	98.403495 
1245.000000	98.402593 
1244.000000	98.393141 
1243.000000	98.380891 
1242.000000	98.373857 
1241.000000	98.378046 
1240.000000	98.392139 
1239.000000	98.406267 
1238.000000	98.409401 
1237.000000	98.399069 
1236.000000	98.382157 
1235.000000	98.366396 
1234.000000	98.353438 
1233.000000	98.340649 
1232.000000	98.326425 
1231.000000	98.311488 
1230.000000	98.296974 
1229.000000	98.283581 
1228.000000	98.271308 
1227.000000	98.257903 
1226.000000	98.238671 
1225.000000	98.210227 
1224.000000	98.174269 
1223.000000	98.135732 
1222.000000	98.096966 
1221.000000	98.055370 
1220.000000	98.007340 
1219.000000	97.953105 
1218.000000	97.896557 
1217.000000	97.840786 
1216.000000	97.784450 
1215.000000	97.722814 
1214.000000	97.652793 
1213.000000	97.577304 
1212.000000	97.503519 
1211.000000	97.435260 
1210.000000	97.368051 
1209.000000	97.293954 
1208.000000	97.210869 
1207.000000	97.124731 
1206.000000	97.042380 
1205.000000	96.964485 
1204.000000	96.886471 
1203.000000	96.804449 
1202.000000	96.718830 
1201.000000	96.632923 
1200.000000	96.549138 
1199.000000	96.466806 
1198.000000	96.383709 
1197.000000	96.299524 
1196.000000	96.216221 
1195.000000	96.134218 
1194.000000	96.050131 
1193.000000	95.960219 
1192.000000	95.864678 
1191.000000	95.766345 
1190.000000	95.666494 
1189.000000	95.564404 
1188.000000	95.459887 
1187.000000	95.353321 
1186.000000	95.244118 
1185.000000	95.131924 
1184.000000	95.018192 
1183.000000	94.903753 
1182.000000	94.786483 
1181.000000	94.664735 
1180.000000	94.541180 
1179.000000	94.418945 
1178.000000	94.295440 
1177.000000	94.164993 
1176.000000	94.026534 
1175.000000	93.883594 
1174.000000	93.737884 
1173.000000	93.588719 
1172.000000	93.438265 
1171.000000	93.290654 
1170.000000	93.145611 
1169.000000	92.999729 
1168.000000	92.855086 
1167.000000	92.720383 
1166.000000	92.603285 
1165.000000	92.509032 
1164.000000	92.446995 
1163.000000	92.428936 
1162.000000	92.456355 
1161.000000	92.514752 
1160.000000	92.582109 
1159.000000	92.637899 
1158.000000	92.664464 
1157.000000	92.649236 
1156.000000	92.590605 
1155.000000	92.497824 
1154.000000	92.382910 
1153.000000	92.255487 
1152.000000	92.124507 
1151.000000	91.997327 
1150.000000	91.874430 
1149.000000	91.751350 
1148.000000	91.627986 
1147.000000	91.509704 
1146.000000	91.397729 
1145.000000	91.286161 
1144.000000	91.171247 
1143.000000	91.056084 
1142.000000	90.942975 
1141.000000	90.828626 
1140.000000	90.710758 
1139.000000	90.592461 
1138.000000	90.476052 
1137.000000	90.359102 
1136.000000	90.240195 
1135.000000	90.122197 
1134.000000	90.006239 
1133.000000	89.888700 
1132.000000	89.767278 
1131.000000	89.643558 
1130.000000	89.517066 
1129.000000	89.384266 
1128.000000	89.246702 
1127.000000	89.112345 
1126.000000	88.984733 
1125.000000	88.857812 
1124.000000	88.725356 
1123.000000	88.588348 
1122.000000	88.449469 
1121.000000	88.308188 
1120.000000	88.165923 
1119.000000	88.028397 
1118.000000	87.897671 
1117.000000	87.768894 
1116.000000	87.639373 
1115.000000	87.513958 
1114.000000	87.397244 
1113.000000	87.287426 
1112.000000	87.181483 
1111.000000	87.078710 
1110.000000	86.976183 
1109.000000	86.869106 
1108.000000	86.758174 
1107.000000	86.648200 
1106.000000	86.538170 
1105.000000	86.422198 
1104.000000	86.301712 
1103.000000	86.185905 
1102.000000	86.077377 
1101.000000	85.968903 
1100.000000	85.856951 
1099.000000	85.746541 
1098.000000	85.641136 
1097.000000	85.537311 
1096.000000	85.433439 
1095.000000	85.331900 
1094.000000	85.229813 
1093.000000	85.119390 
1092.000000	85.001578 
1091.000000	84.888351 
1090.000000	84.787597 
1089.000000	84.695616 
1088.000000	84.606415 
1087.000000	84.516908 
1086.000000	84.421706 
1085.000000	84.316226 
1084.000000	84.207669 
1083.000000	84.109817 
1082.000000	84.023906 
1081.000000	83.937737 
1080.000000	83.846123 
1079.000000	83.757441 
1078.000000	83.676215 
1077.000000	83.593865 
1076.000000	83.501817 
1075.000000	83.400361 
1074.000000	83.290014 
1073.000000	83.166796 
1072.000000	83.029100 
1071.000000	82.875568 
1070.000000	82.693710 
1069.000000	82.466932 
1068.000000	82.198738 
1067.000000	81.916945 
1066.000000	81.648016 
1065.000000	81.398413 
1064.000000	81.163881 
1063.000000	80.939062 
1062.000000	80.711055 
1061.000000	80.461399 
1060.000000	80.185823 
1059.000000	79.901339 
1058.000000	79.626806 
1057.000000	79.366598 
1056.000000	79.116830 
1055.000000	78.872951 
1054.000000	78.625600 
1053.000000	78.363652 
1052.000000	78.088507 
1051.000000	77.812704 
1050.000000	77.539745 
1049.000000	77.260942 
1048.000000	76.975227 
1047.000000	76.692575 
1046.000000	76.414786 
1045.000000	76.132535 
1044.000000	75.844001 
1043.000000	75.557608 
1042.000000	75.273755 
1041.000000	74.982914 
1040.000000	74.686168 
1039.000000	74.399506 
1038.000000	74.133214 
1037.000000	73.884464 
1036.000000	73.652980 
1035.000000	73.444722 
1034.000000	73.256625 
1033.000000	73.077055 
1032.000000	72.904468 
1031.000000	72.746798 
1030.000000	72.601876 
1029.000000	72.460351 
1028.000000	72.329108 
1027.000000	72.227526 
1026.000000	72.156976 
1025.000000	72.096788 
1024.000000	72.033528 
1023.000000	71.970935 
1022.000000	71.908315 
1021.000000	71.834951 
1020.000000	71.750997 
1019.000000	71.669682 
1018.000000	71.593537 
1017.000000	71.511680 
1016.000000	71.424960 
1015.000000	71.349440 
1014.000000	71.289424 
1013.000000	71.230839 
1012.000000	71.166932 
1011.000000	71.107422 
1010.000000	71.056889 
1009.000000	71.007573 
1008.000000	70.959246 
1007.000000	70.923768 
1006.000000	70.905058 
1005.000000	70.896512 
1004.000000	70.900799 
1003.000000	70.927753 
1002.000000	70.969433 
1001.000000	71.003329 
1000.000000	71.025923 
999.000000	 71.057842 
998.000000	 71.110150 
997.000000	 71.171064 
996.000000	 71.231848 
995.000000	 71.300091 
994.000000	 71.379208 
993.000000	 71.459227 
992.000000	 71.536713 
991.000000	 71.621589 
990.000000	 71.716635 
989.000000	 71.811967 
988.000000	 71.906611 
987.000000	 72.013832 
986.000000	 72.138776 
985.000000	 72.272607 
984.000000	 72.414222 
983.000000	 72.575054 
982.000000	 72.756262 
981.000000	 72.943949 
980.000000	 73.133414 
979.000000	 73.335772 
978.000000	 73.553955 
977.000000	 73.775413 
976.000000	 73.996428 
975.000000	 74.231180 
974.000000	 74.487517 
973.000000	 74.754416 
972.000000	 75.022362 
971.000000	 75.297016 
970.000000	 75.583635 
969.000000	 75.875653 
968.000000	 76.167048 
967.000000	 76.460151 
966.000000	 76.754610 
965.000000	 77.044158 
964.000000	 77.329674 
963.000000	 77.619795 
962.000000	 77.914013 
961.000000	 78.200932 
960.000000	 78.477193 
959.000000	 78.751704 
958.000000	 79.026861 
957.000000	 79.292143 
956.000000	 79.541650 
955.000000	 79.782832 
954.000000	 80.022920 
953.000000	 80.260258 
952.000000	 80.492630 
951.000000	 80.720120 
950.000000	 80.936845 
949.000000	 81.134057 
948.000000	 81.314039 
947.000000	 81.487497 
946.000000	 81.655919 
945.000000	 81.811130 
944.000000	 81.953241 
943.000000	 82.092931 
942.000000	 82.233700 
941.000000	 82.368039 
940.000000	 82.494408 
939.000000	 82.622122 
938.000000	 82.755841 
937.000000	 82.890332 
936.000000	 83.024098 
935.000000	 83.163118 
934.000000	 83.307667 
933.000000	 83.450316 
932.000000	 83.590242 
931.000000	 83.734621 
930.000000	 83.882777 
929.000000	 84.024049 
928.000000	 84.155164 
927.000000	 84.285172 
926.000000	 84.419091 
925.000000	 84.550026 
924.000000	 84.671046 
923.000000	 84.782088 
922.000000	 84.882823 
921.000000	 84.972077 
920.000000	 85.056514 
919.000000	 85.146277 
918.000000	 85.239580 
917.000000	 85.324891 
916.000000	 85.400477 
915.000000	 85.478446 
914.000000	 85.568080 
913.000000	 85.669635 
912.000000	 85.786237 
911.000000	 85.926331 
910.000000	 86.090797 
909.000000	 86.271672 
908.000000	 86.466497 
907.000000	 86.680670 
906.000000	 86.914402 
905.000000	 87.161428 
904.000000	 87.421101 
903.000000	 87.696803 
902.000000	 87.981957 
901.000000	 88.263108 
900.000000	 88.538083 
899.000000	 88.816418 
898.000000	 89.101059 
897.000000	 89.383586 
896.000000	 89.657210 
895.000000	 89.919770 
894.000000	 90.164698 
893.000000	 90.385107 
892.000000	 90.587963 
891.000000	 90.789305 
890.000000	 90.993140 
889.000000	 91.187787 
888.000000	 91.363240 
887.000000	 91.518525 
886.000000	 91.652964 
885.000000	 91.765532 
884.000000	 91.863377 
883.000000	 91.955965 
882.000000	 92.040859 
881.000000	 92.111924 
880.000000	 92.181406 
879.000000	 92.273870 
878.000000	 92.395285 
877.000000	 92.528419 
876.000000	 92.662975 
875.000000	 92.809199 
874.000000	 92.976104 
873.000000	 93.158394 
872.000000	 93.353250 
871.000000	 93.569368 
870.000000	 93.808538 
869.000000	 94.054804 
868.000000	 94.292080 
867.000000	 94.519610 
866.000000	 94.742589 
865.000000	 94.960234 
864.000000	 95.170861 
863.000000	 95.377827 
862.000000	 95.582874 
861.000000	 95.782154 
860.000000	 95.974297 
859.000000	 96.163553 
858.000000	 96.350044 
857.000000	 96.525470 
856.000000	 96.683134 
855.000000	 96.824484 
854.000000	 96.952461 
853.000000	 97.066701 
852.000000	 97.169100 
851.000000	 97.266247 
850.000000	 97.362437 
849.000000	 97.456752 
848.000000	 97.548563 
847.000000	 97.638116 
846.000000	 97.720749 
845.000000	 97.789563 
844.000000	 97.844839 
843.000000	 97.891439 
842.000000	 97.926567 
841.000000	 97.941357 
840.000000	 97.936139 
839.000000	 97.922279 
838.000000	 97.906085 
837.000000	 97.882958 
836.000000	 97.851862 
835.000000	 97.823455 
834.000000	 97.807039 
833.000000	 97.799569 
832.000000	 97.794764 
831.000000	 97.794294 
830.000000	 97.802873 
829.000000	 97.820226 
828.000000	 97.845292 
827.000000	 97.881558 
826.000000	 97.931392 
825.000000	 97.991197 
824.000000	 98.056773 
823.000000	 98.125797 
822.000000	 98.192051 
821.000000	 98.247116 
820.000000	 98.290232 
819.000000	 98.326194 
818.000000	 98.351302 
817.000000	 98.351113 
816.000000	 98.315178 
815.000000	 98.245701 
814.000000	 98.147774 
813.000000	 98.017569 
812.000000	 97.843305 
811.000000	 97.610772 
810.000000	 97.304229 
809.000000	 96.909634 
808.000000	 96.424090 
807.000000	 95.860316 
806.000000	 95.240406 
805.000000	 94.589942 
804.000000	 93.938417 
803.000000	 93.315012 
802.000000	 92.738998 
801.000000	 92.223356 
800.000000	 91.789875 
799.000000	 91.466538 
798.000000	 91.264562 
797.000000	 91.170294 
796.000000	 91.161905 
795.000000	 91.219080 
794.000000	 91.315900 
793.000000	 91.424627 
792.000000	 91.532638 
791.000000	 91.640126 
790.000000	 91.737646 
789.000000	 91.801621 
788.000000	 91.815162 
787.000000	 91.777497 
786.000000	 91.689707 
785.000000	 91.547439 
784.000000	 91.353187 
783.000000	 91.122204 
782.000000	 90.872687 
781.000000	 90.624706 
780.000000	 90.410805 
779.000000	 90.268053 
778.000000	 90.211400 
777.000000	 90.229066 
776.000000	 90.307459 
775.000000	 90.442769 
774.000000	 90.624504 
773.000000	 90.828819 
772.000000	 91.036714 
771.000000	 91.242785 
770.000000	 91.440629 
769.000000	 91.616534 
768.000000	 91.763402 
767.000000	 91.885250 
766.000000	 91.983622 
765.000000	 92.056217 
764.000000	 92.113636 
763.000000	 92.179459 
762.000000	 92.266002 
761.000000	 92.364724 
760.000000	 92.465529 
759.000000	 92.568913 
758.000000	 92.674296 
757.000000	 92.775674 
756.000000	 92.876999 
755.000000	 92.993857 
754.000000	 93.129444 
753.000000	 93.263755 
752.000000	 93.376074 
751.000000	 93.465663 
750.000000	 93.544466 
749.000000	 93.623871 
748.000000	 93.715168 
747.000000	 93.827135 
746.000000	 93.953611 
745.000000	 94.076640 
744.000000	 94.190353 
743.000000	 94.309328 
742.000000	 94.446619 
741.000000	 94.597497 
740.000000	 94.751928 
739.000000	 94.908446 
738.000000	 95.066896 
737.000000	 95.219967 
736.000000	 95.360925 
735.000000	 95.489979 
734.000000	 95.607308 
733.000000	 95.710290 
732.000000	 95.801163 
731.000000	 95.885158 
730.000000	 95.957783 
729.000000	 96.007924 
728.000000	 96.036823 
727.000000	 96.061915 
726.000000	 96.099824 
725.000000	 96.156328 
724.000000	 96.233596 
723.000000	 96.332164 
722.000000	 96.441828 
721.000000	 96.545049 
720.000000	 96.635594 
719.000000	 96.721767 
718.000000	 96.806704 
717.000000	 96.881219 
716.000000	 96.942079 
715.000000	 97.000577 
714.000000	 97.065400 
713.000000	 97.131698 
712.000000	 97.194923 
711.000000	 97.261365 
710.000000	 97.336000 
709.000000	 97.413200 
708.000000	 97.483740 
707.000000	 97.540786 
706.000000	 97.575235 
705.000000	 97.575841 
704.000000	 97.540355 
703.000000	 97.476733 
702.000000	 97.383969 
701.000000	 97.241659 
700.000000	 97.027337 
699.000000	 96.736022 
698.000000	 96.385133 
697.000000	 96.014982 
696.000000	 95.687667 
695.000000	 95.468454 
694.000000	 95.390810 
693.000000	 95.442610 
692.000000	 95.585427 
691.000000	 95.775033 
690.000000	 95.970670 
689.000000	 96.145450 
688.000000	 96.297183 
687.000000	 96.438732 
686.000000	 96.571860 
685.000000	 96.686491 
684.000000	 96.784400 
683.000000	 96.878754 
682.000000	 96.969903 
681.000000	 97.044508 
680.000000	 97.102512 
679.000000	 97.161333 
678.000000	 97.229402 
677.000000	 97.302307 
676.000000	 97.379808 
675.000000	 97.469398 
674.000000	 97.560983 
673.000000	 97.621032 
672.000000	 97.623994 
671.000000	 97.569386 
670.000000	 97.470395 
669.000000	 97.360431 
668.000000	 97.349651 
667.000000	 97.536271 
666.000000	 97.802763 
665.000000	 98.003810 
664.000000	 98.123483 
663.000000	 98.194361 
662.000000	 98.249923 
661.000000	 98.302482 
660.000000	 98.348237 
659.000000	 98.387276 
658.000000	 98.424834 
657.000000	 98.461388 
656.000000	 98.486885 
655.000000	 98.491284 
654.000000	 98.469296 
653.000000	 98.420042 
652.000000	 98.356637 
651.000000	 98.312946 
650.000000	 98.317280 

