4000.000000	96.968977 
3999.000000	96.968502 
3998.000000	96.966871 
3997.000000	96.964750 
3996.000000	96.963183 
3995.000000	96.962736 
3994.000000	96.963352 
3993.000000	96.964450 
3992.000000	96.965248 
3991.000000	96.965273 
3990.000000	96.964647 
3989.000000	96.963933 
3988.000000	96.963591 
3987.000000	96.963691 
3986.000000	96.964151 
3985.000000	96.964915 
3984.000000	96.965745 
3983.000000	96.966179 
3982.000000	96.966088 
3981.000000	96.965989 
3980.000000	96.966304 
3979.000000	96.966614 
3978.000000	96.966169 
3977.000000	96.964973 
3976.000000	96.963830 
3975.000000	96.963254 
3974.000000	96.962874 
3973.000000	96.962057 
3972.000000	96.960622 
3971.000000	96.958884 
3970.000000	96.957351 
3969.000000	96.956621 
3968.000000	96.957152 
3967.000000	96.958764 
3966.000000	96.960591 
3965.000000	96.961673 
3964.000000	96.961483 
3963.000000	96.960089 
3962.000000	96.958088 
3961.000000	96.956302 
3960.000000	96.955153 
3959.000000	96.954464 
3958.000000	96.953905 
3957.000000	96.953549 
3956.000000	96.953551 
3955.000000	96.953445 
3954.000000	96.952506 
3953.000000	96.950525 
3952.000000	96.948051 
3951.000000	96.945801 
3950.000000	96.944068 
3949.000000	96.942803 
3948.000000	96.941820 
3947.000000	96.941078 
3946.000000	96.940778 
3945.000000	96.941047 
3944.000000	96.941477 
3943.000000	96.941313 
3942.000000	96.940485 
3941.000000	96.939770 
3940.000000	96.939824 
3939.000000	96.940462 
3938.000000	96.940883 
3937.000000	96.940582 
3936.000000	96.939636 
3935.000000	96.938145 
3934.000000	96.936227 
3933.000000	96.934350 
3932.000000	96.933248 
3931.000000	96.932975 
3930.000000	96.932819 
3929.000000	96.932531 
3928.000000	96.932676 
3927.000000	96.933630 
3926.000000	96.934565 
3925.000000	96.934177 
3924.000000	96.932429 
3923.000000	96.930379 
3922.000000	96.928626 
3921.000000	96.927121 
3920.000000	96.926039 
3919.000000	96.925889 
3918.000000	96.926424 
3917.000000	96.926599 
3916.000000	96.925974 
3915.000000	96.925241 
3914.000000	96.925044 
3913.000000	96.925196 
3912.000000	96.925200 
3911.000000	96.925056 
3910.000000	96.924817 
3909.000000	96.924344 
3908.000000	96.923610 
3907.000000	96.922660 
3906.000000	96.921363 
3905.000000	96.919062 
3904.000000	96.915483 
3903.000000	96.911618 
3902.000000	96.908991 
3901.000000	96.908234 
3900.000000	96.908802 
3899.000000	96.909708 
3898.000000	96.910475 
3897.000000	96.910901 
3896.000000	96.910718 
3895.000000	96.910055 
3894.000000	96.909391 
3893.000000	96.909069 
3892.000000	96.908648 
3891.000000	96.907413 
3890.000000	96.905472 
3889.000000	96.903634 
3888.000000	96.902491 
3887.000000	96.901863 
3886.000000	96.901306 
3885.000000	96.900755 
3884.000000	96.900278 
3883.000000	96.899580 
3882.000000	96.898403 
3881.000000	96.897056 
3880.000000	96.896128 
3879.000000	96.895668 
3878.000000	96.895300 
3877.000000	96.894893 
3876.000000	96.894626 
3875.000000	96.894415 
3874.000000	96.893910 
3873.000000	96.893084 
3872.000000	96.892195 
3871.000000	96.891175 
3870.000000	96.889851 
3869.000000	96.888758 
3868.000000	96.888454 
3867.000000	96.888583 
3866.000000	96.888248 
3865.000000	96.887341 
3864.000000	96.886868 
3863.000000	96.887309 
3862.000000	96.887685 
3861.000000	96.887437 
3860.000000	96.887248 
3859.000000	96.887626 
3858.000000	96.887917 
3857.000000	96.887228 
3856.000000	96.885635 
3855.000000	96.883453 
3854.000000	96.880233 
3853.000000	96.876852 
3852.000000	96.875341 
3851.000000	96.876088 
3850.000000	96.877640 
3849.000000	96.879092 
3848.000000	96.880885 
3847.000000	96.883502 
3846.000000	96.885870 
3845.000000	96.886584 
3844.000000	96.885534 
3843.000000	96.883519 
3842.000000	96.881342 
3841.000000	96.879727 
3840.000000	96.878766 
3839.000000	96.878492 
3838.000000	96.879096 
3837.000000	96.880045 
3836.000000	96.880611 
3835.000000	96.880682 
3834.000000	96.880815 
3833.000000	96.881521 
3832.000000	96.882611 
3831.000000	96.883721 
3830.000000	96.884723 
3829.000000	96.885747 
3828.000000	96.887208 
3827.000000	96.889022 
3826.000000	96.890058 
3825.000000	96.889666 
3824.000000	96.888135 
3823.000000	96.886134 
3822.000000	96.883963 
3821.000000	96.881631 
3820.000000	96.879881 
3819.000000	96.879181 
3818.000000	96.879251 
3817.000000	96.879728 
3816.000000	96.881345 
3815.000000	96.885259 
3814.000000	96.890351 
3813.000000	96.893425 
3812.000000	96.893009 
3811.000000	96.891341 
3810.000000	96.891495 
3809.000000	96.893519 
3808.000000	96.894274 
3807.000000	96.891568 
3806.000000	96.887003 
3805.000000	96.883423 
3804.000000	96.881344 
3803.000000	96.880396 
3802.000000	96.880364 
3801.000000	96.881732 
3800.000000	96.884662 
3799.000000	96.886967 
3798.000000	96.887142 
3797.000000	96.887277 
3796.000000	96.890672 
3795.000000	96.897208 
3794.000000	96.902883 
3793.000000	96.904516 
3792.000000	96.903433 
3791.000000	96.903689 
3790.000000	96.906512 
3789.000000	96.909116 
3788.000000	96.909314 
3787.000000	96.908212 
3786.000000	96.907780 
3785.000000	96.907703 
3784.000000	96.906269 
3783.000000	96.903340 
3782.000000	96.899937 
3781.000000	96.896993 
3780.000000	96.895600 
3779.000000	96.897215 
3778.000000	96.901412 
3777.000000	96.905334 
3776.000000	96.905793 
3775.000000	96.902092 
3774.000000	96.896854 
3773.000000	96.893637 
3772.000000	96.893259 
3771.000000	96.892917 
3770.000000	96.890322 
3769.000000	96.886953 
3768.000000	96.884739 
3767.000000	96.883025 
3766.000000	96.880533 
3765.000000	96.877826 
3764.000000	96.877438 
3763.000000	96.880073 
3762.000000	96.882249 
3761.000000	96.880412 
3760.000000	96.875842 
3759.000000	96.873252 
3758.000000	96.871730 
3757.000000	96.866366 
3756.000000	96.856911 
3755.000000	96.846352 
3754.000000	96.835512 
3753.000000	96.823059 
3752.000000	96.811941 
3751.000000	96.807527 
3750.000000	96.806379 
3749.000000	96.801134 
3748.000000	96.794116 
3747.000000	96.793327 
3746.000000	96.800349 
3745.000000	96.807182 
3744.000000	96.813011 
3743.000000	96.823132 
3742.000000	96.832537 
3741.000000	96.832282 
3740.000000	96.823784 
3739.000000	96.819294 
3738.000000	96.825714 
3737.000000	96.834025 
3736.000000	96.834190 
3735.000000	96.830198 
3734.000000	96.831196 
3733.000000	96.835758 
3732.000000	96.837941 
3731.000000	96.838228 
3730.000000	96.839379 
3729.000000	96.840614 
3728.000000	96.839797 
3727.000000	96.837417 
3726.000000	96.836870 
3725.000000	96.839143 
3724.000000	96.841266 
3723.000000	96.841461 
3722.000000	96.841777 
3721.000000	96.843932 
3720.000000	96.845169 
3719.000000	96.843581 
3718.000000	96.840063 
3717.000000	96.836140 
3716.000000	96.833101 
3715.000000	96.829410 
3714.000000	96.822195 
3713.000000	96.811563 
3712.000000	96.801457 
3711.000000	96.795535 
3710.000000	96.792870 
3709.000000	96.791155 
3708.000000	96.789291 
3707.000000	96.786181 
3706.000000	96.781662 
3705.000000	96.776946 
3704.000000	96.773349 
3703.000000	96.770541 
3702.000000	96.765676 
3701.000000	96.756042 
3700.000000	96.742430 
3699.000000	96.729163 
3698.000000	96.719996 
3697.000000	96.714627 
3696.000000	96.711255 
3695.000000	96.708283 
3694.000000	96.703282 
3693.000000	96.695273 
3692.000000	96.687068 
3691.000000	96.682378 
3690.000000	96.679451 
3689.000000	96.673880 
3688.000000	96.666388 
3687.000000	96.661066 
3686.000000	96.658783 
3685.000000	96.656023 
3684.000000	96.650386 
3683.000000	96.644740 
3682.000000	96.642554 
3681.000000	96.639743 
3680.000000	96.628518 
3679.000000	96.607530 
3678.000000	96.584722 
3677.000000	96.566251 
3676.000000	96.549479 
3675.000000	96.533323 
3674.000000	96.519454 
3673.000000	96.506777 
3672.000000	96.492804 
3671.000000	96.479423 
3670.000000	96.471974 
3669.000000	96.471530 
3668.000000	96.471063 
3667.000000	96.464431 
3666.000000	96.454204 
3665.000000	96.446127 
3664.000000	96.441488 
3663.000000	96.437372 
3662.000000	96.429503 
3661.000000	96.414885 
3660.000000	96.394552 
3659.000000	96.372206 
3658.000000	96.352057 
3657.000000	96.334366 
3656.000000	96.316727 
3655.000000	96.298584 
3654.000000	96.279999 
3653.000000	96.260002 
3652.000000	96.236840 
3651.000000	96.210541 
3650.000000	96.184530 
3649.000000	96.162464 
3648.000000	96.145811 
3647.000000	96.135940 
3646.000000	96.134233 
3645.000000	96.139100 
3644.000000	96.145930 
3643.000000	96.150610 
3642.000000	96.150979 
3641.000000	96.146571 
3640.000000	96.137669 
3639.000000	96.124286 
3638.000000	96.108023 
3637.000000	96.091935 
3636.000000	96.077715 
3635.000000	96.062924 
3634.000000	96.044030 
3633.000000	96.021778 
3632.000000	95.999821 
3631.000000	95.979494 
3630.000000	95.958451 
3629.000000	95.937735 
3628.000000	95.923493 
3627.000000	95.918049 
3626.000000	95.917391 
3625.000000	95.919226 
3624.000000	95.925126 
3623.000000	95.935891 
3622.000000	95.947727 
3621.000000	95.953075 
3620.000000	95.946555 
3619.000000	95.930454 
3618.000000	95.912310 
3617.000000	95.899380 
3616.000000	95.896960 
3615.000000	95.906080 
3614.000000	95.922178 
3613.000000	95.938571 
3612.000000	95.950868 
3611.000000	95.957790 
3610.000000	95.961173 
3609.000000	95.965209 
3608.000000	95.972921 
3607.000000	95.983323 
3606.000000	95.992788 
3605.000000	96.000606 
3604.000000	96.010063 
3603.000000	96.023348 
3602.000000	96.038066 
3601.000000	96.048787 
3600.000000	96.052889 
3599.000000	96.052451 
3598.000000	96.051146 
3597.000000	96.051224 
3596.000000	96.054296 
3595.000000	96.059235 
3594.000000	96.062634 
3593.000000	96.062397 
3592.000000	96.059156 
3591.000000	96.055274 
3590.000000	96.053106 
3589.000000	96.053280 
3588.000000	96.054851 
3587.000000	96.056675 
3586.000000	96.058278 
3585.000000	96.060269 
3584.000000	96.064542 
3583.000000	96.072355 
3582.000000	96.082934 
3581.000000	96.092905 
3580.000000	96.098674 
3579.000000	96.099087 
3578.000000	96.096017 
3577.000000	96.092762 
3576.000000	96.091499 
3575.000000	96.092131 
3574.000000	96.092465 
3573.000000	96.090557 
3572.000000	96.085895 
3571.000000	96.079374 
3570.000000	96.072368 
3569.000000	96.065926 
3568.000000	96.060948 
3567.000000	96.058587 
3566.000000	96.058687 
3565.000000	96.059445 
3564.000000	96.059654 
3563.000000	96.060158 
3562.000000	96.062384 
3561.000000	96.066447 
3560.000000	96.070603 
3559.000000	96.072859 
3558.000000	96.072701 
3557.000000	96.071260 
3556.000000	96.069982 
3555.000000	96.069558 
3554.000000	96.069705 
3553.000000	96.069584 
3552.000000	96.068559 
3551.000000	96.066406 
3550.000000	96.063430 
3549.000000	96.060589 
3548.000000	96.059085 
3547.000000	96.059151 
3546.000000	96.059525 
3545.000000	96.058854 
3544.000000	96.057572 
3543.000000	96.057299 
3542.000000	96.058673 
3541.000000	96.060783 
3540.000000	96.062364 
3539.000000	96.062815 
3538.000000	96.062172 
3537.000000	96.060714 
3536.000000	96.058946 
3535.000000	96.057295 
3534.000000	96.055932 
3533.000000	96.054874 
3532.000000	96.054211 
3531.000000	96.054022 
3530.000000	96.054085 
3529.000000	96.053884 
3528.000000	96.053035 
3527.000000	96.051648 
3526.000000	96.050271 
3525.000000	96.049440 
3524.000000	96.049298 
3523.000000	96.049623 
3522.000000	96.050014 
3521.000000	96.050184 
3520.000000	96.050142 
3519.000000	96.050035 
3518.000000	96.049906 
3517.000000	96.049590 
3516.000000	96.048918 
3515.000000	96.047964 
3514.000000	96.047048 
3513.000000	96.046458 
3512.000000	96.046186 
3511.000000	96.045946 
3510.000000	96.045471 
3509.000000	96.044765 
3508.000000	96.044079 
3507.000000	96.043633 
3506.000000	96.043412 
3505.000000	96.043169 
3504.000000	96.042643 
3503.000000	96.041769 
3502.000000	96.040746 
3501.000000	96.039919 
3500.000000	96.039538 
3499.000000	96.039591 
3498.000000	96.039782 
3497.000000	96.039741 
3496.000000	96.039255 
3495.000000	96.038334 
3494.000000	96.037184 
3493.000000	96.036139 
3492.000000	96.035470 
3491.000000	96.035128 
3490.000000	96.034783 
3489.000000	96.034175 
3488.000000	96.033269 
3487.000000	96.032054 
3486.000000	96.030441 
3485.000000	96.028589 
3484.000000	96.027034 
3483.000000	96.026170 
3482.000000	96.025770 
3481.000000	96.025256 
3480.000000	96.024366 
3479.000000	96.023226 
3478.000000	96.021869 
3477.000000	96.020067 
3476.000000	96.017670 
3475.000000	96.014966 
3474.000000	96.012563 
3473.000000	96.010934 
3472.000000	96.010059 
3471.000000	96.009450 
3470.000000	96.008525 
3469.000000	96.007071 
3468.000000	96.005293 
3467.000000	96.003507 
3466.000000	96.001909 
3465.000000	96.000549 
3464.000000	95.999349 
3463.000000	95.998027 
3462.000000	95.996185 
3461.000000	95.993642 
3460.000000	95.990646 
3459.000000	95.987675 
3458.000000	95.985029 
3457.000000	95.982643 
3456.000000	95.980304 
3455.000000	95.977973 
3454.000000	95.975915 
3453.000000	95.974428 
3452.000000	95.973557 
3451.000000	95.973051 
3450.000000	95.972475 
3449.000000	95.971387 
3448.000000	95.969521 
3447.000000	95.966933 
3446.000000	95.964007 
3445.000000	95.961290 
3444.000000	95.959202 
3443.000000	95.957842 
3442.000000	95.956939 
3441.000000	95.955978 
3440.000000	95.954546 
3439.000000	95.952562 
3438.000000	95.950234 
3437.000000	95.947878 
3436.000000	95.945834 
3435.000000	95.944420 
3434.000000	95.943772 
3433.000000	95.943592 
3432.000000	95.943274 
3431.000000	95.942420 
3430.000000	95.941102 
3429.000000	95.939632 
3428.000000	95.938184 
3427.000000	95.936745 
3426.000000	95.935376 
3425.000000	95.934310 
3424.000000	95.933683 
3423.000000	95.933263 
3422.000000	95.932600 
3421.000000	95.931508 
3420.000000	95.930249 
3419.000000	95.929213 
3418.000000	95.928523 
3417.000000	95.928047 
3416.000000	95.927680 
3415.000000	95.927419 
3414.000000	95.927194 
3413.000000	95.926844 
3412.000000	95.926308 
3411.000000	95.925713 
3410.000000	95.925244 
3409.000000	95.924970 
3408.000000	95.924828 
3407.000000	95.924706 
3406.000000	95.924524 
3405.000000	95.924264 
3404.000000	95.923972 
3403.000000	95.923710 
3402.000000	95.923506 
3401.000000	95.923356 
3400.000000	95.923265 
3399.000000	95.923249 
3398.000000	95.923292 
3397.000000	95.923366 
3396.000000	95.923482 
3395.000000	95.923683 
3394.000000	95.923976 
3393.000000	95.924283 
3392.000000	95.924497 
3391.000000	95.924565 
3390.000000	95.924535 
3389.000000	95.924559 
3388.000000	95.924813 
3387.000000	95.925363 
3386.000000	95.926123 
3385.000000	95.926883 
3384.000000	95.927450 
3383.000000	95.927764 
3382.000000	95.927991 
3381.000000	95.928436 
3380.000000	95.929258 
3379.000000	95.930291 
3378.000000	95.931210 
3377.000000	95.931952 
3376.000000	95.932794 
3375.000000	95.933960 
3374.000000	95.935290 
3373.000000	95.936413 
3372.000000	95.937200 
3371.000000	95.937908 
3370.000000	95.938835 
3369.000000	95.939964 
3368.000000	95.941046 
3367.000000	95.941922 
3366.000000	95.942635 
3365.000000	95.943282 
3364.000000	95.943883 
3363.000000	95.944448 
3362.000000	95.945096 
3361.000000	95.946051 
3360.000000	95.947505 
3359.000000	95.949459 
3358.000000	95.951661 
3357.000000	95.953723 
3356.000000	95.955349 
3355.000000	95.956518 
3354.000000	95.957505 
3353.000000	95.958755 
3352.000000	95.960610 
3351.000000	95.963083 
3350.000000	95.965781 
3349.000000	95.968113 
3348.000000	95.969723 
3347.000000	95.970831 
3346.000000	95.972091 
3345.000000	95.973980 
3344.000000	95.976253 
3343.000000	95.978152 
3342.000000	95.979221 
3341.000000	95.979789 
3340.000000	95.980573 
3339.000000	95.981810 
3338.000000	95.983207 
3337.000000	95.984542 
3336.000000	95.985934 
3335.000000	95.987550 
3334.000000	95.989311 
3333.000000	95.991007 
3332.000000	95.992546 
3331.000000	95.993974 
3330.000000	95.995345 
3329.000000	95.996685 
3328.000000	95.998044 
3327.000000	95.999490 
3326.000000	96.001040 
3325.000000	96.002635 
3324.000000	96.004202 
3323.000000	96.005719 
3322.000000	96.007212 
3321.000000	96.008707 
3320.000000	96.010208 
3319.000000	96.011704 
3318.000000	96.013190 
3317.000000	96.014667 
3316.000000	96.016138 
3315.000000	96.017603 
3314.000000	96.019064 
3313.000000	96.020521 
3312.000000	96.021975 
3311.000000	96.023430 
3310.000000	96.024889 
3309.000000	96.026352 
3308.000000	96.027816 
3307.000000	96.029279 
3306.000000	96.030740 
3305.000000	96.032202 
3304.000000	96.033672 
3303.000000	96.035159 
3302.000000	96.036669 
3301.000000	96.038207 
3300.000000	96.039764 
3299.000000	96.041315 
3298.000000	96.042826 
3297.000000	96.044287 
3296.000000	96.045756 
3295.000000	96.047319 
3294.000000	96.049010 
3293.000000	96.050784 
3292.000000	96.052560 
3291.000000	96.054299 
3290.000000	96.056007 
3289.000000	96.057696 
3288.000000	96.059369 
3287.000000	96.061023 
3286.000000	96.062646 
3285.000000	96.064187 
3284.000000	96.065583 
3283.000000	96.066853 
3282.000000	96.068151 
3281.000000	96.069667 
3280.000000	96.071429 
3279.000000	96.073239 
3278.000000	96.074910 
3277.000000	96.076535 
3276.000000	96.078348 
3275.000000	96.080377 
3274.000000	96.082406 
3273.000000	96.084280 
3272.000000	96.086088 
3271.000000	96.087994 
3270.000000	96.090017 
3269.000000	96.092042 
3268.000000	96.093957 
3267.000000	96.095751 
3266.000000	96.097511 
3265.000000	96.099379 
3264.000000	96.101439 
3263.000000	96.103601 
3262.000000	96.105647 
3261.000000	96.107460 
3260.000000	96.109105 
3259.000000	96.110711 
3258.000000	96.112345 
3257.000000	96.114062 
3256.000000	96.115964 
3255.000000	96.118077 
3254.000000	96.120241 
3253.000000	96.122238 
3252.000000	96.124031 
3251.000000	96.125778 
3250.000000	96.127634 
3249.000000	96.129588 
3248.000000	96.131532 
3247.000000	96.133422 
3246.000000	96.135327 
3245.000000	96.137327 
3244.000000	96.139411 
3243.000000	96.141481 
3242.000000	96.143445 
3241.000000	96.145298 
3240.000000	96.147117 
3239.000000	96.148998 
3238.000000	96.151004 
3237.000000	96.153164 
3236.000000	96.155469 
3235.000000	96.157845 
3234.000000	96.160135 
3233.000000	96.162200 
3232.000000	96.164006 
3231.000000	96.165670 
3230.000000	96.167386 
3229.000000	96.169247 
3228.000000	96.171216 
3227.000000	96.173224 
3226.000000	96.175304 
3225.000000	96.177562 
3224.000000	96.180014 
3223.000000	96.182527 
3222.000000	96.184931 
3221.000000	96.187177 
3220.000000	96.189323 
3219.000000	96.191411 
3218.000000	96.193430 
3217.000000	96.195390 
3216.000000	96.197363 
3215.000000	96.199432 
3214.000000	96.201631 
3213.000000	96.203929 
3212.000000	96.206250 
3211.000000	96.208501 
3210.000000	96.210630 
3209.000000	96.212673 
3208.000000	96.214733 
3207.000000	96.216896 
3206.000000	96.219161 
3205.000000	96.221471 
3204.000000	96.223787 
3203.000000	96.226112 
3202.000000	96.228453 
3201.000000	96.230785 
3200.000000	96.233077 
3199.000000	96.235344 
3198.000000	96.237641 
3197.000000	96.239997 
3196.000000	96.242374 
3195.000000	96.244721 
3194.000000	96.247052 
3193.000000	96.249460 
3192.000000	96.252010 
3191.000000	96.254661 
3190.000000	96.257270 
3189.000000	96.259730 
3188.000000	96.262041 
3187.000000	96.264295 
3186.000000	96.266615 
3185.000000	96.269065 
3184.000000	96.271622 
3183.000000	96.274205 
3182.000000	96.276754 
3181.000000	96.279272 
3180.000000	96.281747 
3179.000000	96.284097 
3178.000000	96.286278 
3177.000000	96.288423 
3176.000000	96.290768 
3175.000000	96.293420 
3174.000000	96.296292 
3173.000000	96.299236 
3172.000000	96.302166 
3171.000000	96.305001 
3170.000000	96.307650 
3169.000000	96.310147 
3168.000000	96.312648 
3167.000000	96.315216 
3166.000000	96.317715 
3165.000000	96.319980 
3164.000000	96.322000 
3163.000000	96.323912 
3162.000000	96.325903 
3161.000000	96.328142 
3160.000000	96.330660 
3159.000000	96.333292 
3158.000000	96.335875 
3157.000000	96.338522 
3156.000000	96.341497 
3155.000000	96.344801 
3154.000000	96.348048 
3153.000000	96.350874 
3152.000000	96.353248 
3151.000000	96.355275 
3150.000000	96.356957 
3149.000000	96.358320 
3148.000000	96.359618 
3147.000000	96.361224 
3146.000000	96.363414 
3145.000000	96.366222 
3144.000000	96.369397 
3143.000000	96.372419 
3142.000000	96.374816 
3141.000000	96.376605 
3140.000000	96.378315 
3139.000000	96.380477 
3138.000000	96.383125 
3137.000000	96.385875 
3136.000000	96.388304 
3135.000000	96.390228 
3134.000000	96.391786 
3133.000000	96.393385 
3132.000000	96.395396 
3131.000000	96.397770 
3130.000000	96.400166 
3129.000000	96.402483 
3128.000000	96.404992 
3127.000000	96.407865 
3126.000000	96.410888 
3125.000000	96.413787 
3124.000000	96.416573 
3123.000000	96.419331 
3122.000000	96.421895 
3121.000000	96.424035 
3120.000000	96.425851 
3119.000000	96.427694 
3118.000000	96.429798 
3117.000000	96.432181 
3116.000000	96.434769 
3115.000000	96.437364 
3114.000000	96.439635 
3113.000000	96.441454 
3112.000000	96.443272 
3111.000000	96.445814 
3110.000000	96.449262 
3109.000000	96.452891 
3108.000000	96.455786 
3107.000000	96.457839 
3106.000000	96.459732 
3105.000000	96.461904 
3104.000000	96.463889 
3103.000000	96.464966 
3102.000000	96.465093 
3101.000000	96.464951 
3100.000000	96.465224 
3099.000000	96.466148 
3098.000000	96.467817 
3097.000000	96.470457 
3096.000000	96.474086 
3095.000000	96.478153 
3094.000000	96.481920 
3093.000000	96.485038 
3092.000000	96.487546 
3091.000000	96.489459 
3090.000000	96.490685 
3089.000000	96.491326 
3088.000000	96.491762 
3087.000000	96.492453 
3086.000000	96.493782 
3085.000000	96.495896 
3084.000000	96.498459 
3083.000000	96.500748 
3082.000000	96.502326 
3081.000000	96.503536 
3080.000000	96.505074 
3079.000000	96.507086 
3078.000000	96.509048 
3077.000000	96.510576 
3076.000000	96.511925 
3075.000000	96.513440 
3074.000000	96.514968 
3073.000000	96.516185 
3072.000000	96.517206 
3071.000000	96.518398 
3070.000000	96.519804 
3069.000000	96.521202 
3068.000000	96.522597 
3067.000000	96.524168 
3066.000000	96.525787 
3065.000000	96.527045 
3064.000000	96.527797 
3063.000000	96.528275 
3062.000000	96.528681 
3061.000000	96.529036 
3060.000000	96.529459 
3059.000000	96.530265 
3058.000000	96.531710 
3057.000000	96.533824 
3056.000000	96.536385 
3055.000000	96.538776 
3054.000000	96.540101 
3053.000000	96.539950 
3052.000000	96.539121 
3051.000000	96.539159 
3050.000000	96.540825 
3049.000000	96.543391 
3048.000000	96.545483 
3047.000000	96.546319 
3046.000000	96.545940 
3045.000000	96.544847 
3044.000000	96.543883 
3043.000000	96.544102 
3042.000000	96.546070 
3041.000000	96.549099 
3040.000000	96.551463 
3039.000000	96.551807 
3038.000000	96.550274 
3037.000000	96.548183 
3036.000000	96.546659 
3035.000000	96.545626 
3034.000000	96.544334 
3033.000000	96.542595 
3032.000000	96.541056 
3031.000000	96.540340 
3030.000000	96.540415 
3029.000000	96.540882 
3028.000000	96.541283 
3027.000000	96.540831 
3026.000000	96.538551 
3025.000000	96.534427 
3024.000000	96.530101 
3023.000000	96.527536 
3022.000000	96.527059 
3021.000000	96.527506 
3020.000000	96.528066 
3019.000000	96.528963 
3018.000000	96.530161 
3017.000000	96.530531 
3016.000000	96.528990 
3015.000000	96.525788 
3014.000000	96.522296 
3013.000000	96.519866 
3012.000000	96.518916 
3011.000000	96.518512 
3010.000000	96.516826 
3009.000000	96.512752 
3008.000000	96.507252 
3007.000000	96.502500 
3006.000000	96.499452 
3005.000000	96.497007 
3004.000000	96.493782 
3003.000000	96.489985 
3002.000000	96.487170 
3001.000000	96.486666 
3000.000000	96.488423 
2999.000000	96.490725 
2998.000000	96.490957 
2997.000000	96.487467 
2996.000000	96.481094 
2995.000000	96.474475 
2994.000000	96.469607 
2993.000000	96.466517 
2992.000000	96.464089 
2991.000000	96.461287 
2990.000000	96.457515 
2989.000000	96.452922 
2988.000000	96.448913 
2987.000000	96.447475 
2986.000000	96.449432 
2985.000000	96.453781 
2984.000000	96.458940 
2983.000000	96.464034 
2982.000000	96.468663 
2981.000000	96.472166 
2980.000000	96.473737 
2979.000000	96.472949 
2978.000000	96.469933 
2977.000000	96.465634 
2976.000000	96.462115 
2975.000000	96.461751 
2974.000000	96.465401 
2973.000000	96.471674 
2972.000000	96.478266 
2971.000000	96.483725 
2970.000000	96.487624 
2969.000000	96.489867 
2968.000000	96.490648 
2967.000000	96.490739 
2966.000000	96.491088 
2965.000000	96.492268 
2964.000000	96.494665 
2963.000000	96.498731 
2962.000000	96.504370 
2961.000000	96.510309 
2960.000000	96.514933 
2959.000000	96.517973 
2958.000000	96.520869 
2957.000000	96.525151 
2956.000000	96.530597 
2955.000000	96.535160 
2954.000000	96.536867 
2953.000000	96.535871 
2952.000000	96.534617 
2951.000000	96.535768 
2950.000000	96.539732 
2949.000000	96.544436 
2948.000000	96.547531 
2947.000000	96.548477 
2946.000000	96.548368 
2945.000000	96.548322 
2944.000000	96.548556 
2943.000000	96.548838 
2942.000000	96.549106 
2941.000000	96.549437 
2940.000000	96.549865 
2939.000000	96.550532 
2938.000000	96.551817 
2937.000000	96.553965 
2936.000000	96.556563 
2935.000000	96.558578 
2934.000000	96.559144 
2933.000000	96.558305 
2932.000000	96.556957 
2931.000000	96.556093 
2930.000000	96.556120 
2929.000000	96.556933 
2928.000000	96.558377 
2927.000000	96.560316 
2926.000000	96.562372 
2925.000000	96.564084 
2924.000000	96.565495 
2923.000000	96.567219 
2922.000000	96.569537 
2921.000000	96.571750 
2920.000000	96.572921 
2919.000000	96.573202 
2918.000000	96.573808 
2917.000000	96.575441 
2916.000000	96.577179 
2915.000000	96.577501 
2914.000000	96.576210 
2913.000000	96.574789 
2912.000000	96.574733 
2911.000000	96.575903 
2910.000000	96.576975 
2909.000000	96.577208 
2908.000000	96.577266 
2907.000000	96.578124 
2906.000000	96.579713 
2905.000000	96.580997 
2904.000000	96.581201 
2903.000000	96.580529 
2902.000000	96.580075 
2901.000000	96.580783 
2900.000000	96.582954 
2899.000000	96.586376 
2898.000000	96.590478 
2897.000000	96.594492 
2896.000000	96.597497 
2895.000000	96.598796 
2894.000000	96.598613 
2893.000000	96.598435 
2892.000000	96.599998 
2891.000000	96.603606 
2890.000000	96.607791 
2889.000000	96.610925 
2888.000000	96.612942 
2887.000000	96.614806 
2886.000000	96.616748 
2885.000000	96.618045 
2884.000000	96.618683 
2883.000000	96.620089 
2882.000000	96.623433 
2881.000000	96.627960 
2880.000000	96.631866 
2879.000000	96.634687 
2878.000000	96.637689 
2877.000000	96.641848 
2876.000000	96.646447 
2875.000000	96.650136 
2874.000000	96.652631 
2873.000000	96.654646 
2872.000000	96.656612 
2871.000000	96.658293 
2870.000000	96.659563 
2869.000000	96.660815 
2868.000000	96.662433 
2867.000000	96.664344 
2866.000000	96.666362 
2865.000000	96.668552 
2864.000000	96.671049 
2863.000000	96.673888 
2862.000000	96.677233 
2861.000000	96.681388 
2860.000000	96.686222 
2859.000000	96.690934 
2858.000000	96.694843 
2857.000000	96.698277 
2856.000000	96.702200 
2855.000000	96.706876 
2854.000000	96.711276 
2853.000000	96.714127 
2852.000000	96.715269 
2851.000000	96.715761 
2850.000000	96.716816 
2849.000000	96.718835 
2848.000000	96.721452 
2847.000000	96.724137 
2846.000000	96.726614 
2845.000000	96.728906 
2844.000000	96.731220 
2843.000000	96.733842 
2842.000000	96.736971 
2841.000000	96.740434 
2840.000000	96.743570 
2839.000000	96.745657 
2838.000000	96.746635 
2837.000000	96.747252 
2836.000000	96.748377 
2835.000000	96.750193 
2834.000000	96.752302 
2833.000000	96.754483 
2832.000000	96.756969 
2831.000000	96.759866 
2830.000000	96.762630 
2829.000000	96.764503 
2828.000000	96.765397 
2827.000000	96.766109 
2826.000000	96.767595 
2825.000000	96.770070 
2824.000000	96.772919 
2823.000000	96.775319 
2822.000000	96.776905 
2821.000000	96.777849 
2820.000000	96.778520 
2819.000000	96.779208 
2818.000000	96.780092 
2817.000000	96.781277 
2816.000000	96.782741 
2815.000000	96.784301 
2814.000000	96.785729 
2813.000000	96.786899 
2812.000000	96.787784 
2811.000000	96.788397 
2810.000000	96.788847 
2809.000000	96.789402 
2808.000000	96.790363 
2807.000000	96.791827 
2806.000000	96.793609 
2805.000000	96.795402 
2804.000000	96.796968 
2803.000000	96.798210 
2802.000000	96.799173 
2801.000000	96.800073 
2800.000000	96.801185 
2799.000000	96.802600 
2798.000000	96.804099 
2797.000000	96.805342 
2796.000000	96.806169 
2795.000000	96.806715 
2794.000000	96.807288 
2793.000000	96.808145 
2792.000000	96.809331 
2791.000000	96.810645 
2790.000000	96.811765 
2789.000000	96.812516 
2788.000000	96.813053 
2787.000000	96.813726 
2786.000000	96.814760 
2785.000000	96.816090 
2784.000000	96.817493 
2783.000000	96.818833 
2782.000000	96.820091 
2781.000000	96.821306 
2780.000000	96.822549 
2779.000000	96.823884 
2778.000000	96.825306 
2777.000000	96.826703 
2776.000000	96.827922 
2775.000000	96.828903 
2774.000000	96.829747 
2773.000000	96.830609 
2772.000000	96.831524 
2771.000000	96.832399 
2770.000000	96.833199 
2769.000000	96.834085 
2768.000000	96.835275 
2767.000000	96.836760 
2766.000000	96.838226 
2765.000000	96.839331 
2764.000000	96.840032 
2763.000000	96.840563 
2762.000000	96.841151 
2761.000000	96.841836 
2760.000000	96.842573 
2759.000000	96.843384 
2758.000000	96.844306 
2757.000000	96.845229 
2756.000000	96.845914 
2755.000000	96.846263 
2754.000000	96.846504 
2753.000000	96.847018 
2752.000000	96.847933 
2751.000000	96.849032 
2750.000000	96.850045 
2749.000000	96.850952 
2748.000000	96.851841 
2747.000000	96.852582 
2746.000000	96.852928 
2745.000000	96.852897 
2744.000000	96.852851 
2743.000000	96.853134 
2742.000000	96.853749 
2741.000000	96.854461 
2740.000000	96.855064 
2739.000000	96.855550 
2738.000000	96.855994 
2737.000000	96.856421 
2736.000000	96.856831 
2735.000000	96.857264 
2734.000000	96.857772 
2733.000000	96.858374 
2732.000000	96.859042 
2731.000000	96.859729 
2730.000000	96.860404 
2729.000000	96.861064 
2728.000000	96.861706 
2727.000000	96.862297 
2726.000000	96.862795 
2725.000000	96.863207 
2724.000000	96.863601 
2723.000000	96.864038 
2722.000000	96.864518 
2721.000000	96.865010 
2720.000000	96.865501 
2719.000000	96.866001 
2718.000000	96.866520 
2717.000000	96.867052 
2716.000000	96.867574 
2715.000000	96.868067 
2714.000000	96.868541 
2713.000000	96.869047 
2712.000000	96.869613 
2711.000000	96.870193 
2710.000000	96.870696 
2709.000000	96.871088 
2708.000000	96.871449 
2707.000000	96.871909 
2706.000000	96.872532 
2705.000000	96.873281 
2704.000000	96.874051 
2703.000000	96.874702 
2702.000000	96.875113 
2701.000000	96.875309 
2700.000000	96.875538 
2699.000000	96.876122 
2698.000000	96.877139 
2697.000000	96.878227 
2696.000000	96.878824 
2695.000000	96.878702 
2694.000000	96.878268 
2693.000000	96.878242 
2692.000000	96.878882 
2691.000000	96.879653 
2690.000000	96.879798 
2689.000000	96.879170 
2688.000000	96.878295 
2687.000000	96.877623 
2686.000000	96.877143 
2685.000000	96.876848 
2684.000000	96.877089 
2683.000000	96.878075 
2682.000000	96.879292 
2681.000000	96.879873 
2680.000000	96.879571 
2679.000000	96.879009 
2678.000000	96.878974 
2677.000000	96.879655 
2676.000000	96.880559 
2675.000000	96.880891 
2674.000000	96.880103 
2673.000000	96.878401 
2672.000000	96.876707 
2671.000000	96.875754 
2670.000000	96.875342 
2669.000000	96.874841 
2668.000000	96.874151 
2667.000000	96.873587 
2666.000000	96.872922 
2665.000000	96.871343 
2664.000000	96.868652 
2663.000000	96.865908 
2662.000000	96.864340 
2661.000000	96.863936 
2660.000000	96.863583 
2659.000000	96.862384 
2658.000000	96.860451 
2657.000000	96.858473 
2656.000000	96.856959 
2655.000000	96.855922 
2654.000000	96.854980 
2653.000000	96.853658 
2652.000000	96.851874 
2651.000000	96.850273 
2650.000000	96.849772 
2649.000000	96.850596 
2648.000000	96.851886 
2647.000000	96.852360 
2646.000000	96.851348 
2645.000000	96.849114 
2644.000000	96.846502 
2643.000000	96.844391 
2642.000000	96.843263 
2641.000000	96.843051 
2640.000000	96.843297 
2639.000000	96.843568 
2638.000000	96.843727 
2637.000000	96.843773 
2636.000000	96.843663 
2635.000000	96.843481 
2634.000000	96.843538 
2633.000000	96.843982 
2632.000000	96.844359 
2631.000000	96.843948 
2630.000000	96.842601 
2629.000000	96.840982 
2628.000000	96.839899 
2627.000000	96.839528 
2626.000000	96.839570 
2625.000000	96.839838 
2624.000000	96.840360 
2623.000000	96.841001 
2622.000000	96.841359 
2621.000000	96.841120 
2620.000000	96.840262 
2619.000000	96.838933 
2618.000000	96.837408 
2617.000000	96.836183 
2616.000000	96.835741 
2615.000000	96.836079 
2614.000000	96.836712 
2613.000000	96.837233 
2612.000000	96.837654 
2611.000000	96.838139 
2610.000000	96.838710 
2609.000000	96.839328 
2608.000000	96.839963 
2607.000000	96.840452 
2606.000000	96.840571 
2605.000000	96.840370 
2604.000000	96.840180 
2603.000000	96.840172 
2602.000000	96.840212 
2601.000000	96.840279 
2600.000000	96.840609 
2599.000000	96.841162 
2598.000000	96.841401 
2597.000000	96.840986 
2596.000000	96.840295 
2595.000000	96.839814 
2594.000000	96.839378 
2593.000000	96.838642 
2592.000000	96.838100 
2591.000000	96.838653 
2590.000000	96.840221 
2589.000000	96.841671 
2588.000000	96.842281 
2587.000000	96.842564 
2586.000000	96.843272 
2585.000000	96.844400 
2584.000000	96.845584 
2583.000000	96.846754 
2582.000000	96.847826 
2581.000000	96.848321 
2580.000000	96.847932 
2579.000000	96.847225 
2578.000000	96.847261 
2577.000000	96.848495 
2576.000000	96.850268 
2575.000000	96.851349 
2574.000000	96.850963 
2573.000000	96.849433 
2572.000000	96.847923 
2571.000000	96.847273 
2570.000000	96.847189 
2569.000000	96.846889 
2568.000000	96.846362 
2567.000000	96.846324 
2566.000000	96.846922 
2565.000000	96.847368 
2564.000000	96.847103 
2563.000000	96.846569 
2562.000000	96.846320 
2561.000000	96.846200 
2560.000000	96.846159 
2559.000000	96.847173 
2558.000000	96.850218 
2557.000000	96.854651 
2556.000000	96.858585 
2555.000000	96.861015 
2554.000000	96.862497 
2553.000000	96.863586 
2552.000000	96.863752 
2551.000000	96.862663 
2550.000000	96.861580 
2549.000000	96.862133 
2548.000000	96.863951 
2547.000000	96.864869 
2546.000000	96.863707 
2545.000000	96.861644 
2544.000000	96.860444 
2543.000000	96.860140 
2542.000000	96.859510 
2541.000000	96.858262 
2540.000000	96.857494 
2539.000000	96.858013 
2538.000000	96.859271 
2537.000000	96.860365 
2536.000000	96.861300 
2535.000000	96.862549 
2534.000000	96.863816 
2533.000000	96.864134 
2532.000000	96.863180 
2531.000000	96.861822 
2530.000000	96.861083 
2529.000000	96.860927 
2528.000000	96.860532 
2527.000000	96.859601 
2526.000000	96.858913 
2525.000000	96.859398 
2524.000000	96.861011 
2523.000000	96.862771 
2522.000000	96.863814 
2521.000000	96.864128 
2520.000000	96.864212 
2519.000000	96.864398 
2518.000000	96.864655 
2517.000000	96.864740 
2516.000000	96.864275 
2515.000000	96.862929 
2514.000000	96.860977 
2513.000000	96.859521 
2512.000000	96.859581 
2511.000000	96.861145 
2510.000000	96.863397 
2509.000000	96.865680 
2508.000000	96.867793 
2507.000000	96.869421 
2506.000000	96.870126 
2505.000000	96.870109 
2504.000000	96.870301 
2503.000000	96.871201 
2502.000000	96.872147 
2501.000000	96.872261 
2500.000000	96.871635 
2499.000000	96.871035 
2498.000000	96.870800 
2497.000000	96.870691 
2496.000000	96.870650 
2495.000000	96.870961 
2494.000000	96.871600 
2493.000000	96.872080 
2492.000000	96.872182 
2491.000000	96.872427 
2490.000000	96.873437 
2489.000000	96.875055 
2488.000000	96.876394 
2487.000000	96.876804 
2486.000000	96.876571 
2485.000000	96.876557 
2484.000000	96.877274 
2483.000000	96.878396 
2482.000000	96.879204 
2481.000000	96.879389 
2480.000000	96.879286 
2479.000000	96.879380 
2478.000000	96.879872 
2477.000000	96.880704 
2476.000000	96.881636 
2475.000000	96.882111 
2474.000000	96.881474 
2473.000000	96.879714 
2472.000000	96.877777 
2471.000000	96.876703 
2470.000000	96.876658 
2469.000000	96.877144 
2468.000000	96.877830 
2467.000000	96.878691 
2466.000000	96.879416 
2465.000000	96.879382 
2464.000000	96.878527 
2463.000000	96.877859 
2462.000000	96.878610 
2461.000000	96.880956 
2460.000000	96.883757 
2459.000000	96.885570 
2458.000000	96.885720 
2457.000000	96.884318 
2456.000000	96.881725 
2455.000000	96.878454 
2454.000000	96.875445 
2453.000000	96.873653 
2452.000000	96.873024 
2451.000000	96.872450 
2450.000000	96.871307 
2449.000000	96.870584 
2448.000000	96.871630 
2447.000000	96.874158 
2446.000000	96.876331 
2445.000000	96.876893 
2444.000000	96.876310 
2443.000000	96.875765 
2442.000000	96.875889 
2441.000000	96.876666 
2440.000000	96.877886 
2439.000000	96.879418 
2438.000000	96.881437 
2437.000000	96.884374 
2436.000000	96.888110 
2435.000000	96.891370 
2434.000000	96.892737 
2433.000000	96.892281 
2432.000000	96.891538 
2431.000000	96.891801 
2430.000000	96.893082 
2429.000000	96.894826 
2428.000000	96.896693 
2427.000000	96.898248 
2426.000000	96.898761 
2425.000000	96.897908 
2424.000000	96.896314 
2423.000000	96.895055 
2422.000000	96.894865 
2421.000000	96.895949 
2420.000000	96.898115 
2419.000000	96.900767 
2418.000000	96.903089 
2417.000000	96.904863 
2416.000000	96.906628 
2415.000000	96.908754 
2414.000000	96.910796 
2413.000000	96.912214 
2412.000000	96.913233 
2411.000000	96.914320 
2410.000000	96.915408 
2409.000000	96.916401 
2408.000000	96.917834 
2407.000000	96.920197 
2406.000000	96.922941 
2405.000000	96.924923 
2404.000000	96.925688 
2403.000000	96.925733 
2402.000000	96.925782 
2401.000000	96.926375 
2400.000000	96.927943 
2399.000000	96.930545 
2398.000000	96.933529 
2397.000000	96.936068 
2396.000000	96.937941 
2395.000000	96.939345 
2394.000000	96.940214 
2393.000000	96.940432 
2392.000000	96.940592 
2391.000000	96.941637 
2390.000000	96.943589 
2389.000000	96.945438 
2388.000000	96.946404 
2387.000000	96.946602 
2386.000000	96.946376 
2385.000000	96.945888 
2384.000000	96.945623 
2383.000000	96.946440 
2382.000000	96.948741 
2381.000000	96.952310 
2380.000000	96.957169 
2379.000000	96.963672 
2378.000000	96.970920 
2377.000000	96.975958 
2376.000000	96.976121 
2375.000000	96.971731 
2374.000000	96.965653 
2373.000000	96.960010 
2372.000000	96.955022 
2371.000000	96.951539 
2370.000000	96.951936 
2369.000000	96.956797 
2368.000000	96.962279 
2367.000000	96.963403 
2366.000000	96.959679 
2365.000000	96.955264 
2364.000000	96.953466 
2363.000000	96.953460 
2362.000000	96.953396 
2361.000000	96.953340 
2360.000000	96.953103 
2359.000000	96.951199 
2358.000000	96.948057 
2357.000000	96.947754 
2356.000000	96.952579 
2355.000000	96.959094 
2354.000000	96.961440 
2353.000000	96.957433 
2352.000000	96.950499 
2351.000000	96.943164 
2350.000000	96.934643 
2349.000000	96.925991 
2348.000000	96.921618 
2347.000000	96.922225 
2346.000000	96.920772 
2345.000000	96.913533 
2344.000000	96.904478 
2343.000000	96.898174 
2342.000000	96.897680 
2341.000000	96.905301 
2340.000000	96.919513 
2339.000000	96.932534 
2338.000000	96.937116 
2337.000000	96.933007 
2336.000000	96.926121 
2335.000000	96.920719 
2334.000000	96.915489 
2333.000000	96.906355 
2332.000000	96.893509 
2331.000000	96.879851 
2330.000000	96.865441 
2329.000000	96.845875 
2328.000000	96.818640 
2327.000000	96.787340 
2326.000000	96.756995 
2325.000000	96.732145 
2324.000000	96.717404 
2323.000000	96.716164 
2322.000000	96.724800 
2321.000000	96.733002 
2320.000000	96.735397 
2319.000000	96.736633 
2318.000000	96.743500 
2317.000000	96.755117 
2316.000000	96.765566 
2315.000000	96.770645 
2314.000000	96.770160 
2313.000000	96.765857 
2312.000000	96.760492 
2311.000000	96.757068 
2310.000000	96.755632 
2309.000000	96.753136 
2308.000000	96.748050 
2307.000000	96.743597 
2306.000000	96.743249 
2305.000000	96.745846 
2304.000000	96.747869 
2303.000000	96.748819 
2302.000000	96.751144 
2301.000000	96.755531 
2300.000000	96.759596 
2299.000000	96.760587 
2298.000000	96.757628 
2297.000000	96.751525 
2296.000000	96.744518 
2295.000000	96.740179 
2294.000000	96.740857 
2293.000000	96.745256 
2292.000000	96.749544 
2291.000000	96.751573 
2290.000000	96.752200 
2289.000000	96.753086 
2288.000000	96.754192 
2287.000000	96.754440 
2286.000000	96.753755 
2285.000000	96.753802 
2284.000000	96.756374 
2283.000000	96.761290 
2282.000000	96.766182 
2281.000000	96.768614 
2280.000000	96.768155 
2279.000000	96.766056 
2278.000000	96.763893 
2277.000000	96.762797 
2276.000000	96.763368 
2275.000000	96.765497 
2274.000000	96.768225 
2273.000000	96.770486 
2272.000000	96.772197 
2271.000000	96.773991 
2270.000000	96.775844 
2269.000000	96.776895 
2268.000000	96.776864 
2267.000000	96.776635 
2266.000000	96.776909 
2265.000000	96.777211 
2264.000000	96.776683 
2263.000000	96.775101 
2262.000000	96.772705 
2261.000000	96.769864 
2260.000000	96.767223 
2259.000000	96.765459 
2258.000000	96.764582 
2257.000000	96.764129 
2256.000000	96.764262 
2255.000000	96.765753 
2254.000000	96.768499 
2253.000000	96.770782 
2252.000000	96.770847 
2251.000000	96.768514 
2250.000000	96.764762 
2249.000000	96.760620 
2248.000000	96.756965 
2247.000000	96.754699 
2246.000000	96.754094 
2245.000000	96.754211 
2244.000000	96.753544 
2243.000000	96.751495 
2242.000000	96.748709 
2241.000000	96.746299 
2240.000000	96.744954 
2239.000000	96.744683 
2238.000000	96.744918 
2237.000000	96.744839 
2236.000000	96.744011 
2235.000000	96.742657 
2234.000000	96.741253 
2233.000000	96.740001 
2232.000000	96.738808 
2231.000000	96.737579 
2230.000000	96.736201 
2229.000000	96.734466 
2228.000000	96.732338 
2227.000000	96.730167 
2226.000000	96.728339 
2225.000000	96.726832 
2224.000000	96.725320 
2223.000000	96.723620 
2222.000000	96.721865 
2221.000000	96.720233 
2220.000000	96.718686 
2219.000000	96.717070 
2218.000000	96.715337 
2217.000000	96.713582 
2216.000000	96.711922 
2215.000000	96.710373 
2214.000000	96.708846 
2213.000000	96.707262 
2212.000000	96.705643 
2211.000000	96.704092 
2210.000000	96.702665 
2209.000000	96.701328 
2208.000000	96.700006 
2207.000000	96.698594 
2206.000000	96.696987 
2205.000000	96.695268 
2204.000000	96.694043 
2203.000000	96.694368 
2202.000000	96.696557 
2201.000000	96.698924 
2200.000000	96.698392 
2199.000000	96.693459 
2198.000000	96.685948 
2197.000000	96.679269 
2196.000000	96.675391 
2195.000000	96.673756 
2194.000000	96.672746 
2193.000000	96.671756 
2192.000000	96.671516 
2191.000000	96.672357 
2190.000000	96.672989 
2189.000000	96.672086 
2188.000000	96.670517 
2187.000000	96.669883 
2186.000000	96.668757 
2185.000000	96.663491 
2184.000000	96.654624 
2183.000000	96.649515 
2182.000000	96.654872 
2181.000000	96.667949 
2180.000000	96.678379 
2179.000000	96.679180 
2178.000000	96.672758 
2177.000000	96.666432 
2176.000000	96.665042 
2175.000000	96.668277 
2174.000000	96.672678 
2173.000000	96.674957 
2172.000000	96.674701 
2171.000000	96.674259 
2170.000000	96.675061 
2169.000000	96.674758 
2168.000000	96.669967 
2167.000000	96.661207 
2166.000000	96.652154 
2165.000000	96.643697 
2164.000000	96.632376 
2163.000000	96.617365 
2162.000000	96.607077 
2161.000000	96.614798 
2160.000000	96.646911 
2159.000000	96.695637 
2158.000000	96.742881 
2157.000000	96.774521 
2156.000000	96.789687 
2155.000000	96.795952 
2154.000000	96.799934 
2153.000000	96.803594 
2152.000000	96.806267 
2151.000000	96.806471 
2150.000000	96.802378 
2149.000000	96.794399 
2148.000000	96.787962 
2147.000000	96.790086 
2146.000000	96.801791 
2145.000000	96.816804 
2144.000000	96.829283 
2143.000000	96.839494 
2142.000000	96.849598 
2141.000000	96.857858 
2140.000000	96.861109 
2139.000000	96.860871 
2138.000000	96.862828 
2137.000000	96.870479 
2136.000000	96.881744 
2135.000000	96.891167 
2134.000000	96.893801 
2133.000000	96.888531 
2132.000000	96.879708 
2131.000000	96.874068 
2130.000000	96.874170 
2129.000000	96.876061 
2128.000000	96.874722 
2127.000000	96.870297 
2126.000000	96.867155 
2125.000000	96.868146 
2124.000000	96.871837 
2123.000000	96.874630 
2122.000000	96.873663 
2121.000000	96.868210 
2120.000000	96.859989 
2119.000000	96.851877 
2118.000000	96.845459 
2117.000000	96.840194 
2116.000000	96.835015 
2115.000000	96.829419 
2114.000000	96.822546 
2113.000000	96.813613 
2112.000000	96.804712 
2111.000000	96.800495 
2110.000000	96.802954 
2109.000000	96.808622 
2108.000000	96.812798 
2107.000000	96.814551 
2106.000000	96.815466 
2105.000000	96.816217 
2104.000000	96.817155 
2103.000000	96.819580 
2102.000000	96.822955 
2101.000000	96.822980 
2100.000000	96.816541 
2099.000000	96.807551 
2098.000000	96.804143 
2097.000000	96.810033 
2096.000000	96.821561 
2095.000000	96.832281 
2094.000000	96.838309 
2093.000000	96.838955 
2092.000000	96.835240 
2091.000000	96.829550 
2090.000000	96.825014 
2089.000000	96.823428 
2088.000000	96.823941 
2087.000000	96.824077 
2086.000000	96.821714 
2085.000000	96.816408 
2084.000000	96.809838 
2083.000000	96.804737 
2082.000000	96.802416 
2081.000000	96.801631 
2080.000000	96.800767 
2079.000000	96.800372 
2078.000000	96.801860 
2077.000000	96.804366 
2076.000000	96.805266 
2075.000000	96.803789 
2074.000000	96.801518 
2073.000000	96.798990 
2072.000000	96.794649 
2071.000000	96.787999 
2070.000000	96.781222 
2069.000000	96.776667 
2068.000000	96.774536 
2067.000000	96.773696 
2066.000000	96.773135 
2065.000000	96.771743 
2064.000000	96.768374 
2063.000000	96.763443 
2062.000000	96.759343 
2061.000000	96.758028 
2060.000000	96.758924 
2059.000000	96.760180 
2058.000000	96.760878 
2057.000000	96.761131 
2056.000000	96.760648 
2055.000000	96.758326 
2054.000000	96.753459 
2053.000000	96.746704 
2052.000000	96.739891 
2051.000000	96.734797 
2050.000000	96.732079 
2049.000000	96.731285 
2048.000000	96.731603 
2047.000000	96.732568 
2046.000000	96.733872 
2045.000000	96.734946 
2044.000000	96.735271 
2043.000000	96.734897 
2042.000000	96.734269 
2041.000000	96.733718 
2040.000000	96.733497 
2039.000000	96.734080 
2038.000000	96.735728 
2037.000000	96.737668 
2036.000000	96.738509 
2035.000000	96.737790 
2034.000000	96.736656 
2033.000000	96.736753 
2032.000000	96.738529 
2031.000000	96.740798 
2030.000000	96.741710 
2029.000000	96.740245 
2028.000000	96.737013 
2027.000000	96.733909 
2026.000000	96.732533 
2025.000000	96.733075 
2024.000000	96.734808 
2023.000000	96.737335 
2022.000000	96.740879 
2021.000000	96.745055 
2020.000000	96.747997 
2019.000000	96.747487 
2018.000000	96.742923 
2017.000000	96.736422 
2016.000000	96.731680 
2015.000000	96.730859 
2014.000000	96.732551 
2013.000000	96.732687 
2012.000000	96.728899 
2011.000000	96.723983 
2010.000000	96.723418 
2009.000000	96.729215 
2008.000000	96.737823 
2007.000000	96.744490 
2006.000000	96.748209 
2005.000000	96.750464 
2004.000000	96.751629 
2003.000000	96.751142 
2002.000000	96.749971 
2001.000000	96.749722 
2000.000000	96.749441 
1999.000000	96.745593 
1998.000000	96.735766 
1997.000000	96.721851 
1996.000000	96.709362 
1995.000000	96.703241 
1994.000000	96.704256 
1993.000000	96.708702 
1992.000000	96.711496 
1991.000000	96.710878 
1990.000000	96.709548 
1989.000000	96.710758 
1988.000000	96.714089 
1987.000000	96.715411 
1986.000000	96.710973 
1985.000000	96.701411 
1984.000000	96.691434 
1983.000000	96.685275 
1982.000000	96.683002 
1981.000000	96.681934 
1980.000000	96.681435 
1979.000000	96.684205 
1978.000000	96.691702 
1977.000000	96.700957 
1976.000000	96.707843 
1975.000000	96.711915 
1974.000000	96.715826 
1973.000000	96.721710 
1972.000000	96.729896 
1971.000000	96.739536 
1970.000000	96.748317 
1969.000000	96.752529 
1968.000000	96.749722 
1967.000000	96.741618 
1966.000000	96.733790 
1965.000000	96.731306 
1964.000000	96.735568 
1963.000000	96.745073 
1962.000000	96.757056 
1961.000000	96.768152 
1960.000000	96.775093 
1959.000000	96.776347 
1958.000000	96.773597 
1957.000000	96.771204 
1956.000000	96.772624 
1955.000000	96.777301 
1954.000000	96.781784 
1953.000000	96.783761 
1952.000000	96.783901 
1951.000000	96.783926 
1950.000000	96.784644 
1949.000000	96.786351 
1948.000000	96.789672 
1947.000000	96.794597 
1946.000000	96.799308 
1945.000000	96.801542 
1944.000000	96.800958 
1943.000000	96.799350 
1942.000000	96.798706 
1941.000000	96.799492 
1940.000000	96.801102 
1939.000000	96.802844 
1938.000000	96.804239 
1937.000000	96.805238 
1936.000000	96.806290 
1935.000000	96.807719 
1934.000000	96.809135 
1933.000000	96.810027 
1932.000000	96.810764 
1931.000000	96.812354 
1930.000000	96.815079 
1929.000000	96.817808 
1928.000000	96.819500 
1927.000000	96.820545 
1926.000000	96.821758 
1925.000000	96.822810 
1924.000000	96.822641 
1923.000000	96.821318 
1922.000000	96.819909 
1921.000000	96.818773 
1920.000000	96.817531 
1919.000000	96.816250 
1918.000000	96.815227 
1917.000000	96.813987 
1916.000000	96.812104 
1915.000000	96.810799 
1914.000000	96.811601 
1913.000000	96.814041 
1912.000000	96.815915 
1911.000000	96.815969 
1910.000000	96.814851 
1909.000000	96.813571 
1908.000000	96.812684 
1907.000000	96.812522 
1906.000000	96.812904 
1905.000000	96.812503 
1904.000000	96.809946 
1903.000000	96.806121 
1902.000000	96.803550 
1901.000000	96.803129 
1900.000000	96.803572 
1899.000000	96.803704 
1898.000000	96.803648 
1897.000000	96.803582 
1896.000000	96.802710 
1895.000000	96.800621 
1894.000000	96.798194 
1893.000000	96.796198 
1892.000000	96.794437 
1891.000000	96.792707 
1890.000000	96.791419 
1889.000000	96.790896 
1888.000000	96.790991 
1887.000000	96.791887 
1886.000000	96.793795 
1885.000000	96.795577 
1884.000000	96.795324 
1883.000000	96.792809 
1882.000000	96.790124 
1881.000000	96.789291 
1880.000000	96.790363 
1879.000000	96.791888 
1878.000000	96.792450 
1877.000000	96.792053 
1876.000000	96.791932 
1875.000000	96.793283 
1874.000000	96.796179 
1873.000000	96.799320 
1872.000000	96.801361 
1871.000000	96.802198 
1870.000000	96.802376 
1869.000000	96.802033 
1868.000000	96.801396 
1867.000000	96.801794 
1866.000000	96.803988 
1865.000000	96.806155 
1864.000000	96.806094 
1863.000000	96.804831 
1862.000000	96.805515 
1861.000000	96.808942 
1860.000000	96.812737 
1859.000000	96.815388 
1858.000000	96.818221 
1857.000000	96.822232 
1856.000000	96.826375 
1855.000000	96.829708 
1854.000000	96.832506 
1853.000000	96.834574 
1852.000000	96.835653 
1851.000000	96.836916 
1850.000000	96.839524 
1849.000000	96.842869 
1848.000000	96.845368 
1847.000000	96.847082 
1846.000000	96.849415 
1845.000000	96.852576 
1844.000000	96.855207 
1843.000000	96.856867 
1842.000000	96.858558 
1841.000000	96.860777 
1840.000000	96.863581 
1839.000000	96.867068 
1838.000000	96.870697 
1837.000000	96.872764 
1836.000000	96.872203 
1835.000000	96.870785 
1834.000000	96.871089 
1833.000000	96.873101 
1832.000000	96.875060 
1831.000000	96.875689 
1830.000000	96.875219 
1829.000000	96.875114 
1828.000000	96.876236 
1827.000000	96.878371 
1826.000000	96.880900 
1825.000000	96.882986 
1824.000000	96.883855 
1823.000000	96.883582 
1822.000000	96.883451 
1821.000000	96.884226 
1820.000000	96.885110 
1819.000000	96.885333 
1818.000000	96.886361 
1817.000000	96.889731 
1816.000000	96.893305 
1815.000000	96.894429 
1814.000000	96.893930 
1813.000000	96.894565 
1812.000000	96.896222 
1811.000000	96.895456 
1810.000000	96.891875 
1809.000000	96.888715 
1808.000000	96.887213 
1807.000000	96.886638 
1806.000000	96.887687 
1805.000000	96.891099 
1804.000000	96.894460 
1803.000000	96.894469 
1802.000000	96.890731 
1801.000000	96.886129 
1800.000000	96.882670 
1799.000000	96.879881 
1798.000000	96.878564 
1797.000000	96.879031 
1796.000000	96.878861 
1795.000000	96.876812 
1794.000000	96.874922 
1793.000000	96.875314 
1792.000000	96.875804 
1791.000000	96.873356 
1790.000000	96.870929 
1789.000000	96.872502 
1788.000000	96.877185 
1787.000000	96.881535 
1786.000000	96.884482 
1785.000000	96.886976 
1784.000000	96.888620 
1783.000000	96.889304 
1782.000000	96.889733 
1781.000000	96.890658 
1780.000000	96.892665 
1779.000000	96.895812 
1778.000000	96.901000 
1777.000000	96.907734 
1776.000000	96.913632 
1775.000000	96.917018 
1774.000000	96.917716 
1773.000000	96.917805 
1772.000000	96.919509 
1771.000000	96.921133 
1770.000000	96.920709 
1769.000000	96.919934 
1768.000000	96.921016 
1767.000000	96.923688 
1766.000000	96.926140 
1765.000000	96.928018 
1764.000000	96.930218 
1763.000000	96.932420 
1762.000000	96.933508 
1761.000000	96.934131 
1760.000000	96.935595 
1759.000000	96.937657 
1758.000000	96.939359 
1757.000000	96.940210 
1756.000000	96.941590 
1755.000000	96.943652 
1754.000000	96.944434 
1753.000000	96.942868 
1752.000000	96.940583 
1751.000000	96.940556 
1750.000000	96.943305 
1749.000000	96.946596 
1748.000000	96.948779 
1747.000000	96.950220 
1746.000000	96.950969 
1745.000000	96.951413 
1744.000000	96.952848 
1743.000000	96.955211 
1742.000000	96.957024 
1741.000000	96.958066 
1740.000000	96.959517 
1739.000000	96.961677 
1738.000000	96.962957 
1737.000000	96.962797 
1736.000000	96.961815 
1735.000000	96.960447 
1734.000000	96.959068 
1733.000000	96.957401 
1732.000000	96.956167 
1731.000000	96.957640 
1730.000000	96.962489 
1729.000000	96.967527 
1728.000000	96.970306 
1727.000000	96.970988 
1726.000000	96.970563 
1725.000000	96.969435 
1724.000000	96.967871 
1723.000000	96.966473 
1722.000000	96.966467 
1721.000000	96.967683 
1720.000000	96.968773 
1719.000000	96.968103 
1718.000000	96.965925 
1717.000000	96.963982 
1716.000000	96.960395 
1715.000000	96.954355 
1714.000000	96.950152 
1713.000000	96.949450 
1712.000000	96.949267 
1711.000000	96.947938 
1710.000000	96.946517 
1709.000000	96.945099 
1708.000000	96.942562 
1707.000000	96.939171 
1706.000000	96.936963 
1705.000000	96.936178 
1704.000000	96.933149 
1703.000000	96.926715 
1702.000000	96.919039 
1701.000000	96.914107 
1700.000000	96.912325 
1699.000000	96.908999 
1698.000000	96.904420 
1697.000000	96.901357 
1696.000000	96.898999 
1695.000000	96.895734 
1694.000000	96.891853 
1693.000000	96.888312 
1692.000000	96.885144 
1691.000000	96.881666 
1690.000000	96.877673 
1689.000000	96.873403 
1688.000000	96.869193 
1687.000000	96.865183 
1686.000000	96.861304 
1685.000000	96.857657 
1684.000000	96.853693 
1683.000000	96.849044 
1682.000000	96.844093 
1681.000000	96.839026 
1680.000000	96.834459 
1679.000000	96.830517 
1678.000000	96.826801 
1677.000000	96.822617 
1676.000000	96.818306 
1675.000000	96.814497 
1674.000000	96.809909 
1673.000000	96.803449 
1672.000000	96.796888 
1671.000000	96.792488 
1670.000000	96.790109 
1669.000000	96.786887 
1668.000000	96.782799 
1667.000000	96.779964 
1666.000000	96.777443 
1665.000000	96.773676 
1664.000000	96.769304 
1663.000000	96.766431 
1662.000000	96.763918 
1661.000000	96.757523 
1660.000000	96.749442 
1659.000000	96.744674 
1658.000000	96.744541 
1657.000000	96.744245 
1656.000000	96.743208 
1655.000000	96.741435 
1654.000000	96.737816 
1653.000000	96.731701 
1652.000000	96.721261 
1651.000000	96.708156 
1650.000000	96.694885 
1649.000000	96.686881 
1648.000000	96.682074 
1647.000000	96.680147 
1646.000000	96.679699 
1645.000000	96.680195 
1644.000000	96.677801 
1643.000000	96.674477 
1642.000000	96.672810 
1641.000000	96.672692 
1640.000000	96.672393 
1639.000000	96.670624 
1638.000000	96.668480 
1637.000000	96.666825 
1636.000000	96.665615 
1635.000000	96.666688 
1634.000000	96.669220 
1633.000000	96.669797 
1632.000000	96.667373 
1631.000000	96.664761 
1630.000000	96.665738 
1629.000000	96.669689 
1628.000000	96.673529 
1627.000000	96.677259 
1626.000000	96.681971 
1625.000000	96.686702 
1624.000000	96.691061 
1623.000000	96.696724 
1622.000000	96.703061 
1621.000000	96.705673 
1620.000000	96.705395 
1619.000000	96.707978 
1618.000000	96.716429 
1617.000000	96.725050 
1616.000000	96.726159 
1615.000000	96.722983 
1614.000000	96.721714 
1613.000000	96.722626 
1612.000000	96.723761 
1611.000000	96.726136 
1610.000000	96.730720 
1609.000000	96.735951 
1608.000000	96.742064 
1607.000000	96.751488 
1606.000000	96.762167 
1605.000000	96.769353 
1604.000000	96.774121 
1603.000000	96.780280 
1602.000000	96.787776 
1601.000000	96.793940 
1600.000000	96.799141 
1599.000000	96.805936 
1598.000000	96.813694 
1597.000000	96.819871 
1596.000000	96.824608 
1595.000000	96.830493 
1594.000000	96.837934 
1593.000000	96.844065 
1592.000000	96.847732 
1591.000000	96.851516 
1590.000000	96.857289 
1589.000000	96.863578 
1588.000000	96.869571 
1587.000000	96.876937 
1586.000000	96.885163 
1585.000000	96.889720 
1584.000000	96.890384 
1583.000000	96.893101 
1582.000000	96.899835 
1581.000000	96.906607 
1580.000000	96.911468 
1579.000000	96.917536 
1578.000000	96.926358 
1577.000000	96.935069 
1576.000000	96.940748 
1575.000000	96.944707 
1574.000000	96.947119 
1573.000000	96.947884 
1572.000000	96.950771 
1571.000000	96.958199 
1570.000000	96.966065 
1569.000000	96.965172 
1568.000000	96.958575 
1567.000000	96.955433 
1566.000000	96.957207 
1565.000000	96.959243 
1564.000000	96.961947 
1563.000000	96.965547 
1562.000000	96.968483 
1561.000000	96.965161 
1560.000000	96.961389 
1559.000000	96.963992 
1558.000000	96.964757 
1557.000000	96.961215 
1556.000000	96.955084 
1555.000000	96.955423 
1554.000000	96.955973 
1553.000000	96.954877 
1552.000000	96.951080 
1551.000000	96.945581 
1550.000000	96.937304 
1549.000000	96.928483 
1548.000000	96.922405 
1547.000000	96.920380 
1546.000000	96.919168 
1545.000000	96.915190 
1544.000000	96.909015 
1543.000000	96.903834 
1542.000000	96.902812 
1541.000000	96.905574 
1540.000000	96.901935 
1539.000000	96.888615 
1538.000000	96.871894 
1537.000000	96.854241 
1536.000000	96.838504 
1535.000000	96.827442 
1534.000000	96.822140 
1533.000000	96.819206 
1532.000000	96.814141 
1531.000000	96.805190 
1530.000000	96.795523 
1529.000000	96.787374 
1528.000000	96.779044 
1527.000000	96.769065 
1526.000000	96.758706 
1525.000000	96.750080 
1524.000000	96.743753 
1523.000000	96.738453 
1522.000000	96.731923 
1521.000000	96.721808 
1520.000000	96.707680 
1519.000000	96.691824 
1518.000000	96.677004 
1517.000000	96.664458 
1516.000000	96.653566 
1515.000000	96.643951 
1514.000000	96.635757 
1513.000000	96.629252 
1512.000000	96.622844 
1511.000000	96.613497 
1510.000000	96.600776 
1509.000000	96.587359 
1508.000000	96.576227 
1507.000000	96.567028 
1506.000000	96.559085 
1505.000000	96.550815 
1504.000000	96.539807 
1503.000000	96.527268 
1502.000000	96.514324 
1501.000000	96.502297 
1500.000000	96.491691 
1499.000000	96.481643 
1498.000000	96.470265 
1497.000000	96.458479 
1496.000000	96.448507 
1495.000000	96.440131 
1494.000000	96.432317 
1493.000000	96.425375 
1492.000000	96.419867 
1491.000000	96.414824 
1490.000000	96.408218 
1489.000000	96.399724 
1488.000000	96.389202 
1487.000000	96.376399 
1486.000000	96.363930 
1485.000000	96.351485 
1484.000000	96.337788 
1483.000000	96.324663 
1482.000000	96.314171 
1481.000000	96.306041 
1480.000000	96.296946 
1479.000000	96.285313 
1478.000000	96.273073 
1477.000000	96.262647 
1476.000000	96.252157 
1475.000000	96.238809 
1474.000000	96.224516 
1473.000000	96.214585 
1472.000000	96.210698 
1471.000000	96.206813 
1470.000000	96.198879 
1469.000000	96.188461 
1468.000000	96.176965 
1467.000000	96.164407 
1466.000000	96.152735 
1465.000000	96.144879 
1464.000000	96.140812 
1463.000000	96.134497 
1462.000000	96.122702 
1461.000000	96.109693 
1460.000000	96.101140 
1459.000000	96.097439 
1458.000000	96.089366 
1457.000000	96.073342 
1456.000000	96.059340 
1455.000000	96.049023 
1454.000000	96.036235 
1453.000000	96.024940 
1452.000000	96.019872 
1451.000000	96.021153 
1450.000000	96.025246 
1449.000000	96.031888 
1448.000000	96.039505 
1447.000000	96.043096 
1446.000000	96.039496 
1445.000000	96.032573 
1444.000000	96.029140 
1443.000000	96.028441 
1442.000000	96.026426 
1441.000000	96.022600 
1440.000000	96.019303 
1439.000000	96.015680 
1438.000000	96.008855 
1437.000000	96.002584 
1436.000000	96.003597 
1435.000000	96.007628 
1434.000000	96.007138 
1433.000000	96.005399 
1432.000000	96.007820 
1431.000000	96.014276 
1430.000000	96.020304 
1429.000000	96.025211 
1428.000000	96.030405 
1427.000000	96.035322 
1426.000000	96.038734 
1425.000000	96.042122 
1424.000000	96.050156 
1423.000000	96.059933 
1422.000000	96.064482 
1421.000000	96.065409 
1420.000000	96.071756 
1419.000000	96.082368 
1418.000000	96.084941 
1417.000000	96.081592 
1416.000000	96.085291 
1415.000000	96.098990 
1414.000000	96.113596 
1413.000000	96.122480 
1412.000000	96.128979 
1411.000000	96.137304 
1410.000000	96.145394 
1409.000000	96.152189 
1408.000000	96.160040 
1407.000000	96.170154 
1406.000000	96.180856 
1405.000000	96.192086 
1404.000000	96.207613 
1403.000000	96.224752 
1402.000000	96.236403 
1401.000000	96.243590 
1400.000000	96.254888 
1399.000000	96.273758 
1398.000000	96.292661 
1397.000000	96.305420 
1396.000000	96.315590 
1395.000000	96.329661 
1394.000000	96.346900 
1393.000000	96.363729 
1392.000000	96.382125 
1391.000000	96.403518 
1390.000000	96.424597 
1389.000000	96.441438 
1388.000000	96.453644 
1387.000000	96.463635 
1386.000000	96.473632 
1385.000000	96.485338 
1384.000000	96.500805 
1383.000000	96.519050 
1382.000000	96.535568 
1381.000000	96.547614 
1380.000000	96.556571 
1379.000000	96.566246 
1378.000000	96.578920 
1377.000000	96.593943 
1376.000000	96.609188 
1375.000000	96.622797 
1374.000000	96.633888 
1373.000000	96.644089 
1372.000000	96.656115 
1371.000000	96.671112 
1370.000000	96.687592 
1369.000000	96.701941 
1368.000000	96.713617 
1367.000000	96.724426 
1366.000000	96.735347 
1365.000000	96.746314 
1364.000000	96.756149 
1363.000000	96.762706 
1362.000000	96.766124 
1361.000000	96.770167 
1360.000000	96.778687 
1359.000000	96.792632 
1358.000000	96.809473 
1357.000000	96.825106 
1356.000000	96.837123 
1355.000000	96.845499 
1354.000000	96.851632 
1353.000000	96.858156 
1352.000000	96.866460 
1351.000000	96.876625 
1350.000000	96.887916 
1349.000000	96.897240 
1348.000000	96.903083 
1347.000000	96.907067 
1346.000000	96.912253 
1345.000000	96.919430 
1344.000000	96.926983 
1343.000000	96.933363 
1342.000000	96.938606 
1341.000000	96.942685 
1340.000000	96.944561 
1339.000000	96.944122 
1338.000000	96.943237 
1337.000000	96.944168 
1336.000000	96.947625 
1335.000000	96.952259 
1334.000000	96.956289 
1333.000000	96.959166 
1332.000000	96.961126 
1331.000000	96.962441 
1330.000000	96.963463 
1329.000000	96.964875 
1328.000000	96.967284 
1327.000000	96.970744 
1326.000000	96.974122 
1325.000000	96.975118 
1324.000000	96.973149 
1323.000000	96.969434 
1322.000000	96.965350 
1321.000000	96.961847 
1320.000000	96.960027 
1319.000000	96.960376 
1318.000000	96.961955 
1317.000000	96.963587 
1316.000000	96.964829 
1315.000000	96.965096 
1314.000000	96.963443 
1313.000000	96.960885 
1312.000000	96.960615 
1311.000000	96.963988 
1310.000000	96.967976 
1309.000000	96.969034 
1308.000000	96.967617 
1307.000000	96.967220 
1306.000000	96.969715 
1305.000000	96.973410 
1304.000000	96.976268 
1303.000000	96.977158 
1302.000000	96.975285 
1301.000000	96.970857 
1300.000000	96.966639 
1299.000000	96.965960 
1298.000000	96.968804 
1297.000000	96.971651 
1296.000000	96.971559 
1295.000000	96.969163 
1294.000000	96.967065 
1293.000000	96.966992 
1292.000000	96.968815 
1291.000000	96.971102 
1290.000000	96.972318 
1289.000000	96.972115 
1288.000000	96.971349 
1287.000000	96.970464 
1286.000000	96.968608 
1285.000000	96.965505 
1284.000000	96.963174 
1283.000000	96.963755 
1282.000000	96.966324 
1281.000000	96.967599 
1280.000000	96.965876 
1279.000000	96.962873 
1278.000000	96.961462 
1277.000000	96.963003 
1276.000000	96.966657 
1275.000000	96.970338 
1274.000000	96.971949 
1273.000000	96.971025 
1272.000000	96.969344 
1271.000000	96.969034 
1270.000000	96.970055 
1269.000000	96.970522 
1268.000000	96.969325 
1267.000000	96.966869 
1266.000000	96.963629 
1265.000000	96.960331 
1264.000000	96.958989 
1263.000000	96.961350 
1262.000000	96.966177 
1261.000000	96.969984 
1260.000000	96.971296 
1259.000000	96.972479 
1258.000000	96.975945 
1257.000000	96.980338 
1256.000000	96.981621 
1255.000000	96.977767 
1254.000000	96.971521 
1253.000000	96.967789 
1252.000000	96.967947 
1251.000000	96.968026 
1250.000000	96.963656 
1249.000000	96.955924 
1248.000000	96.950236 
1247.000000	96.949242 
1246.000000	96.949513 
1245.000000	96.946706 
1244.000000	96.941020 
1243.000000	96.935549 
1242.000000	96.931794 
1241.000000	96.929271 
1240.000000	96.927427 
1239.000000	96.925117 
1238.000000	96.919848 
1237.000000	96.910318 
1236.000000	96.898514 
1235.000000	96.886980 
1234.000000	96.875327 
1233.000000	96.861876 
1232.000000	96.847129 
1231.000000	96.832536 
1230.000000	96.817165 
1229.000000	96.798854 
1228.000000	96.777536 
1227.000000	96.754274 
1226.000000	96.727815 
1225.000000	96.695326 
1224.000000	96.656230 
1223.000000	96.612394 
1222.000000	96.564710 
1221.000000	96.512351 
1220.000000	96.455535 
1219.000000	96.396175 
1218.000000	96.335142 
1217.000000	96.271169 
1216.000000	96.202599 
1215.000000	96.128393 
1214.000000	96.048262 
1213.000000	95.964565 
1212.000000	95.882939 
1211.000000	95.806968 
1210.000000	95.732546 
1209.000000	95.651626 
1208.000000	95.561767 
1207.000000	95.468220 
1206.000000	95.376475 
1205.000000	95.286638 
1204.000000	95.195989 
1203.000000	95.103317 
1202.000000	95.009335 
1201.000000	94.915531 
1200.000000	94.823741 
1199.000000	94.734647 
1198.000000	94.646101 
1197.000000	94.555328 
1196.000000	94.462442 
1195.000000	94.369193 
1194.000000	94.274934 
1193.000000	94.176984 
1192.000000	94.074704 
1191.000000	93.969956 
1190.000000	93.863789 
1189.000000	93.755766 
1188.000000	93.646069 
1187.000000	93.534976 
1186.000000	93.421051 
1185.000000	93.303227 
1184.000000	93.183421 
1183.000000	93.063377 
1182.000000	92.940555 
1181.000000	92.811409 
1180.000000	92.676931 
1179.000000	92.539931 
1178.000000	92.398546 
1177.000000	92.248543 
1176.000000	92.091017 
1175.000000	91.931528 
1174.000000	91.772269 
1173.000000	91.611535 
1172.000000	91.450420 
1171.000000	91.292482 
1170.000000	91.136790 
1169.000000	90.979443 
1168.000000	90.823254 
1167.000000	90.678649 
1166.000000	90.554523 
1165.000000	90.456337 
1164.000000	90.393364 
1163.000000	90.377099 
1162.000000	90.408304 
1161.000000	90.471849 
1160.000000	90.545929 
1159.000000	90.610275 
1158.000000	90.646332 
1157.000000	90.640229 
1156.000000	90.590008 
1155.000000	90.504839 
1154.000000	90.395430 
1153.000000	90.269790 
1152.000000	90.137455 
1151.000000	90.008756 
1150.000000	89.886760 
1149.000000	89.766952 
1148.000000	89.647088 
1147.000000	89.530211 
1146.000000	89.416479 
1145.000000	89.300631 
1144.000000	89.180660 
1143.000000	89.061316 
1142.000000	88.945789 
1141.000000	88.831173 
1140.000000	88.715134 
1139.000000	88.599786 
1138.000000	88.486076 
1137.000000	88.371316 
1136.000000	88.254847 
1135.000000	88.139326 
1134.000000	88.024388 
1133.000000	87.906281 
1132.000000	87.785504 
1131.000000	87.667136 
1130.000000	87.551874 
1129.000000	87.434674 
1128.000000	87.313804 
1127.000000	87.192769 
1126.000000	87.071783 
1125.000000	86.946480 
1124.000000	86.817292 
1123.000000	86.691001 
1122.000000	86.570327 
1121.000000	86.450824 
1120.000000	86.330273 
1119.000000	86.211647 
1118.000000	86.094649 
1117.000000	85.974949 
1116.000000	85.854399 
1115.000000	85.741213 
1114.000000	85.637060 
1113.000000	85.534901 
1112.000000	85.432088 
1111.000000	85.333463 
1110.000000	85.238979 
1109.000000	85.141478 
1108.000000	85.039546 
1107.000000	84.939395 
1106.000000	84.841639 
1105.000000	84.739052 
1104.000000	84.630321 
1103.000000	84.523244 
1102.000000	84.420654 
1101.000000	84.316903 
1100.000000	84.211096 
1099.000000	84.109896 
1098.000000	84.016296 
1097.000000	83.925817 
1096.000000	83.837510 
1095.000000	83.754856 
1094.000000	83.674305 
1093.000000	83.587375 
1092.000000	83.496919 
1091.000000	83.416702 
1090.000000	83.351735 
1089.000000	83.293015 
1088.000000	83.233908 
1087.000000	83.176681 
1086.000000	83.120700 
1085.000000	83.060516 
1084.000000	82.999087 
1083.000000	82.946918 
1082.000000	82.904007 
1081.000000	82.858064 
1080.000000	82.804316 
1079.000000	82.751239 
1078.000000	82.702697 
1077.000000	82.650155 
1076.000000	82.587046 
1075.000000	82.515169 
1074.000000	82.432596 
1073.000000	82.330706 
1072.000000	82.207352 
1071.000000	82.067721 
1070.000000	81.908454 
1069.000000	81.717130 
1068.000000	81.492613 
1067.000000	81.250956 
1066.000000	81.006135 
1065.000000	80.759410 
1064.000000	80.512025 
1063.000000	80.270901 
1062.000000	80.035192 
1061.000000	79.793983 
1060.000000	79.544737 
1059.000000	79.298952 
1058.000000	79.063376 
1057.000000	78.830998 
1056.000000	78.596423 
1055.000000	78.364122 
1054.000000	78.135222 
1053.000000	77.901923 
1052.000000	77.662096 
1051.000000	77.423828 
1050.000000	77.188826 
1049.000000	76.948466 
1048.000000	76.701945 
1047.000000	76.459366 
1046.000000	76.222699 
1045.000000	75.982756 
1044.000000	75.737595 
1043.000000	75.495313 
1042.000000	75.256474 
1041.000000	75.012676 
1040.000000	74.765590 
1039.000000	74.528598 
1038.000000	74.306574 
1037.000000	74.093307 
1036.000000	73.890946 
1035.000000	73.710843 
1034.000000	73.552123 
1033.000000	73.401106 
1032.000000	73.255393 
1031.000000	73.126697 
1030.000000	73.016752 
1029.000000	72.913613 
1028.000000	72.815646 
1027.000000	72.735411 
1026.000000	72.674526 
1025.000000	72.617809 
1024.000000	72.557792 
1023.000000	72.502601 
1022.000000	72.454435 
1021.000000	72.402986 
1020.000000	72.345310 
1019.000000	72.290017 
1018.000000	72.237238 
1017.000000	72.176980 
1016.000000	72.111639 
1015.000000	72.056939 
1014.000000	72.015708 
1013.000000	71.973723 
1012.000000	71.926262 
1011.000000	71.885623 
1010.000000	71.857263 
1009.000000	71.832194 
1008.000000	71.808772 
1007.000000	71.798950 
1006.000000	71.806821 
1005.000000	71.822994 
1004.000000	71.845078 
1003.000000	71.881210 
1002.000000	71.928669 
1001.000000	71.972644 
1000.000000	72.011965 
999.000000	 72.062929 
998.000000	 72.131648 
997.000000	 72.205482 
996.000000	 72.277706 
995.000000	 72.357941 
994.000000	 72.451228 
993.000000	 72.548793 
992.000000	 72.646355 
991.000000	 72.750712 
990.000000	 72.862248 
989.000000	 72.971802 
988.000000	 73.080547 
987.000000	 73.202134 
986.000000	 73.339813 
985.000000	 73.482346 
984.000000	 73.627296 
983.000000	 73.786678 
982.000000	 73.963940 
981.000000	 74.147036 
980.000000	 74.330481 
979.000000	 74.523346 
978.000000	 74.728964 
977.000000	 74.937598 
976.000000	 75.146027 
975.000000	 75.364505 
974.000000	 75.597138 
973.000000	 75.834112 
972.000000	 76.069893 
971.000000	 76.311242 
970.000000	 76.560972 
969.000000	 76.811087 
968.000000	 77.057686 
967.000000	 77.306255 
966.000000	 77.557541 
965.000000	 77.804654 
964.000000	 78.048136 
963.000000	 78.297112 
962.000000	 78.551394 
961.000000	 78.798903 
960.000000	 79.034605 
959.000000	 79.265778 
958.000000	 79.495413 
957.000000	 79.717082 
956.000000	 79.930009 
955.000000	 80.142870 
954.000000	 80.358519 
953.000000	 80.569987 
952.000000	 80.774426 
951.000000	 80.975353 
950.000000	 81.169030 
949.000000	 81.345404 
948.000000	 81.505623 
947.000000	 81.662570 
946.000000	 81.820709 
945.000000	 81.971039 
944.000000	 82.109200 
943.000000	 82.242432 
942.000000	 82.375126 
941.000000	 82.503212 
940.000000	 82.626943 
939.000000	 82.753981 
938.000000	 82.885922 
937.000000	 83.016331 
936.000000	 83.145218 
935.000000	 83.280309 
934.000000	 83.421004 
933.000000	 83.556891 
932.000000	 83.685819 
931.000000	 83.818031 
930.000000	 83.958293 
929.000000	 84.098542 
928.000000	 84.232321 
927.000000	 84.362234 
926.000000	 84.489406 
925.000000	 84.609324 
924.000000	 84.721587 
923.000000	 84.830807 
922.000000	 84.935683 
921.000000	 85.030753 
920.000000	 85.120398 
919.000000	 85.216068 
918.000000	 85.317337 
917.000000	 85.411218 
916.000000	 85.493823 
915.000000	 85.577984 
914.000000	 85.675518 
913.000000	 85.786329 
912.000000	 85.908821 
911.000000	 86.046669 
910.000000	 86.200647 
909.000000	 86.366722 
908.000000	 86.545800 
907.000000	 86.743158 
906.000000	 86.956376 
905.000000	 87.176450 
904.000000	 87.401461 
903.000000	 87.635587 
902.000000	 87.874711 
901.000000	 88.108034 
900.000000	 88.334584 
899.000000	 88.563330 
898.000000	 88.796120 
897.000000	 89.024688 
896.000000	 89.245060 
895.000000	 89.459969 
894.000000	 89.666596 
893.000000	 89.857352 
892.000000	 90.034348 
891.000000	 90.208363 
890.000000	 90.381089 
889.000000	 90.541709 
888.000000	 90.682412 
887.000000	 90.804107 
886.000000	 90.906950 
885.000000	 90.989856 
884.000000	 91.060275 
883.000000	 91.129474 
882.000000	 91.197182 
881.000000	 91.257033 
880.000000	 91.317826 
879.000000	 91.400274 
878.000000	 91.509346 
877.000000	 91.629318 
876.000000	 91.750876 
875.000000	 91.883774 
874.000000	 92.037461 
873.000000	 92.209414 
872.000000	 92.398872 
871.000000	 92.611580 
870.000000	 92.842103 
869.000000	 93.069057 
868.000000	 93.277144 
867.000000	 93.469946 
866.000000	 93.654821 
865.000000	 93.830015 
864.000000	 93.994344 
863.000000	 94.155985 
862.000000	 94.321899 
861.000000	 94.488061 
860.000000	 94.647713 
859.000000	 94.800605 
858.000000	 94.948307 
857.000000	 95.089053 
856.000000	 95.222474 
855.000000	 95.351165 
854.000000	 95.473196 
853.000000	 95.581371 
852.000000	 95.673898 
851.000000	 95.758138 
850.000000	 95.841194 
849.000000	 95.924748 
848.000000	 96.010238 
847.000000	 96.098977 
846.000000	 96.185361 
845.000000	 96.260529 
844.000000	 96.324776 
843.000000	 96.386082 
842.000000	 96.445103 
841.000000	 96.492942 
840.000000	 96.525146 
839.000000	 96.545634 
838.000000	 96.555239 
837.000000	 96.550392 
836.000000	 96.537258 
835.000000	 96.533444 
834.000000	 96.548601 
833.000000	 96.574079 
832.000000	 96.597818 
831.000000	 96.618567 
830.000000	 96.639519 
829.000000	 96.659870 
828.000000	 96.681702 
827.000000	 96.715524 
826.000000	 96.768828 
825.000000	 96.835498 
824.000000	 96.902909 
823.000000	 96.961432 
822.000000	 97.003350 
821.000000	 97.023998 
820.000000	 97.028437 
819.000000	 97.026121 
818.000000	 97.014838 
817.000000	 96.979221 
816.000000	 96.908087 
815.000000	 96.803923 
814.000000	 96.671467 
813.000000	 96.505522 
812.000000	 96.294238 
811.000000	 96.025760 
810.000000	 95.686890 
809.000000	 95.264347 
808.000000	 94.755025 
807.000000	 94.170917 
806.000000	 93.531152 
805.000000	 92.856449 
804.000000	 92.174198 
803.000000	 91.517415 
802.000000	 90.911622 
801.000000	 90.372558 
800.000000	 89.920271 
799.000000	 89.579974 
798.000000	 89.361500 
797.000000	 89.250951 
796.000000	 89.226693 
795.000000	 89.268568 
794.000000	 89.350053 
793.000000	 89.442058 
792.000000	 89.531112 
791.000000	 89.617959 
790.000000	 89.694808 
789.000000	 89.740499 
788.000000	 89.740367 
787.000000	 89.692954 
786.000000	 89.594511 
785.000000	 89.436008 
784.000000	 89.221148 
783.000000	 88.970643 
782.000000	 88.704515 
781.000000	 88.438218 
780.000000	 88.199155 
779.000000	 88.023799 
778.000000	 87.929384 
777.000000	 87.907563 
776.000000	 87.951747 
775.000000	 88.067661 
774.000000	 88.248456 
773.000000	 88.463239 
772.000000	 88.682735 
771.000000	 88.897808 
770.000000	 89.104216 
769.000000	 89.290661 
768.000000	 89.453413 
767.000000	 89.603281 
766.000000	 89.745569 
765.000000	 89.870263 
764.000000	 89.974259 
763.000000	 90.076524 
762.000000	 90.197366 
761.000000	 90.335793 
760.000000	 90.479076 
759.000000	 90.621649 
758.000000	 90.763619 
757.000000	 90.903776 
756.000000	 91.046004 
755.000000	 91.201413 
754.000000	 91.372129 
753.000000	 91.541198 
752.000000	 91.687863 
751.000000	 91.805967 
750.000000	 91.902993 
749.000000	 91.991108 
748.000000	 92.083934 
747.000000	 92.190881 
746.000000	 92.308389 
745.000000	 92.425859 
744.000000	 92.543523 
743.000000	 92.673243 
742.000000	 92.818862 
741.000000	 92.969384 
740.000000	 93.115777 
739.000000	 93.260677 
738.000000	 93.406260 
737.000000	 93.545301 
736.000000	 93.670375 
735.000000	 93.781158 
734.000000	 93.878066 
733.000000	 93.959265 
732.000000	 94.027319 
731.000000	 94.088276 
730.000000	 94.141724 
729.000000	 94.182231 
728.000000	 94.213563 
727.000000	 94.249415 
726.000000	 94.298226 
725.000000	 94.360421 
724.000000	 94.438871 
723.000000	 94.535712 
722.000000	 94.638913 
721.000000	 94.730078 
720.000000	 94.808271 
719.000000	 94.887221 
718.000000	 94.966946 
717.000000	 95.031756 
716.000000	 95.079070 
715.000000	 95.127437 
714.000000	 95.189885 
713.000000	 95.259456 
712.000000	 95.330053 
711.000000	 95.410088 
710.000000	 95.503580 
709.000000	 95.596426 
708.000000	 95.673745 
707.000000	 95.734485 
706.000000	 95.776850 
705.000000	 95.788551 
704.000000	 95.762930 
703.000000	 95.704740 
702.000000	 95.607625 
701.000000	 95.443587 
700.000000	 95.190291 
699.000000	 94.859158 
698.000000	 94.485796 
697.000000	 94.110986 
696.000000	 93.783857 
695.000000	 93.560551 
694.000000	 93.477946 
693.000000	 93.531513 
692.000000	 93.686391 
691.000000	 93.902226 
690.000000	 94.140664 
689.000000	 94.368086 
688.000000	 94.568154 
687.000000	 94.743959 
686.000000	 94.900858 
685.000000	 95.037419 
684.000000	 95.157767 
683.000000	 95.275470 
682.000000	 95.395055 
681.000000	 95.505767 
680.000000	 95.601459 
679.000000	 95.692350 
678.000000	 95.785502 
677.000000	 95.874280 
676.000000	 95.963107 
675.000000	 96.066550 
674.000000	 96.180753 
673.000000	 96.277531 
672.000000	 96.342356 
671.000000	 96.398956 
670.000000	 96.496683 
669.000000	 96.660604 
668.000000	 96.818034 
667.000000	 96.876534 
666.000000	 96.878366 
665.000000	 96.858946 
664.000000	 96.830484 
663.000000	 96.820760 
662.000000	 96.852949 
661.000000	 96.908348 
660.000000	 96.963304 
659.000000	 97.019332 
658.000000	 97.074904 
657.000000	 97.101635 
656.000000	 97.085211 
655.000000	 97.045294 
654.000000	 97.000646 
653.000000	 96.946065 
652.000000	 96.888081 
651.000000	 96.865462 
650.000000	 96.899261 

