4000.000000	96.778460 
3999.000000	96.778182 
3998.000000	96.776756 
3997.000000	96.774504 
3996.000000	96.772197 
3995.000000	96.770637 
3994.000000	96.770209 
3993.000000	96.770610 
3992.000000	96.771062 
3991.000000	96.771016 
3990.000000	96.770629 
3989.000000	96.770398 
3988.000000	96.770438 
3987.000000	96.770484 
3986.000000	96.770495 
3985.000000	96.770799 
3984.000000	96.771492 
3983.000000	96.772148 
3982.000000	96.772533 
3981.000000	96.773057 
3980.000000	96.774049 
3979.000000	96.774953 
3978.000000	96.774871 
3977.000000	96.773717 
3976.000000	96.772370 
3975.000000	96.771523 
3974.000000	96.770922 
3973.000000	96.769934 
3972.000000	96.768289 
3971.000000	96.766228 
3970.000000	96.764293 
3969.000000	96.763170 
3968.000000	96.763271 
3967.000000	96.764336 
3966.000000	96.765567 
3965.000000	96.766117 
3964.000000	96.765530 
3963.000000	96.763883 
3962.000000	96.761753 
3961.000000	96.759940 
3960.000000	96.758825 
3959.000000	96.758196 
3958.000000	96.757666 
3957.000000	96.757156 
3956.000000	96.756719 
3955.000000	96.756199 
3954.000000	96.755381 
3953.000000	96.754251 
3952.000000	96.752996 
3951.000000	96.751754 
3950.000000	96.750555 
3949.000000	96.749450 
3948.000000	96.748562 
3947.000000	96.747989 
3946.000000	96.747663 
3945.000000	96.747289 
3944.000000	96.746541 
3943.000000	96.745460 
3942.000000	96.744527 
3941.000000	96.744141 
3940.000000	96.744165 
3939.000000	96.744095 
3938.000000	96.743620 
3937.000000	96.742967 
3936.000000	96.742444 
3935.000000	96.741844 
3934.000000	96.740678 
3933.000000	96.738894 
3932.000000	96.737161 
3931.000000	96.736077 
3930.000000	96.735614 
3929.000000	96.735620 
3928.000000	96.736112 
3927.000000	96.736825 
3926.000000	96.736873 
3925.000000	96.735727 
3924.000000	96.734064 
3923.000000	96.732832 
3922.000000	96.731978 
3921.000000	96.731008 
3920.000000	96.730008 
3919.000000	96.729478 
3918.000000	96.729315 
3917.000000	96.728996 
3916.000000	96.728488 
3915.000000	96.728224 
3914.000000	96.728239 
3913.000000	96.728158 
3912.000000	96.727746 
3911.000000	96.727164 
3910.000000	96.726530 
3909.000000	96.725822 
3908.000000	96.725017 
3907.000000	96.724123 
3906.000000	96.723067 
3905.000000	96.721841 
3904.000000	96.720643 
3903.000000	96.719686 
3902.000000	96.718965 
3901.000000	96.718346 
3900.000000	96.717727 
3899.000000	96.717081 
3898.000000	96.716420 
3897.000000	96.715764 
3896.000000	96.715100 
3895.000000	96.714420 
3894.000000	96.713726 
3893.000000	96.713022 
3892.000000	96.712305 
3891.000000	96.711569 
3890.000000	96.710820 
3889.000000	96.710069 
3888.000000	96.709326 
3887.000000	96.708585 
3886.000000	96.707841 
3885.000000	96.707098 
3884.000000	96.706356 
3883.000000	96.705606 
3882.000000	96.704837 
3881.000000	96.704055 
3880.000000	96.703283 
3879.000000	96.702540 
3878.000000	96.701820 
3877.000000	96.701102 
3876.000000	96.700367 
3875.000000	96.699612 
3874.000000	96.698848 
3873.000000	96.698092 
3872.000000	96.697352 
3871.000000	96.696630 
3870.000000	96.695942 
3869.000000	96.695317 
3868.000000	96.694763 
3867.000000	96.694260 
3866.000000	96.693779 
3865.000000	96.693315 
3864.000000	96.692879 
3863.000000	96.692466 
3862.000000	96.692049 
3861.000000	96.691609 
3860.000000	96.691146 
3859.000000	96.690662 
3858.000000	96.690160 
3857.000000	96.689654 
3856.000000	96.689165 
3855.000000	96.688702 
3854.000000	96.688271 
3853.000000	96.687885 
3852.000000	96.687550 
3851.000000	96.687261 
3850.000000	96.687008 
3849.000000	96.686785 
3848.000000	96.686584 
3847.000000	96.686390 
3846.000000	96.686183 
3845.000000	96.685947 
3844.000000	96.685682 
3843.000000	96.685399 
3842.000000	96.685128 
3841.000000	96.684898 
3840.000000	96.684728 
3839.000000	96.684621 
3838.000000	96.684567 
3837.000000	96.684551 
3836.000000	96.684569 
3835.000000	96.684625 
3834.000000	96.684728 
3833.000000	96.684886 
3832.000000	96.685099 
3831.000000	96.685361 
3830.000000	96.685657 
3829.000000	96.685978 
3828.000000	96.686314 
3827.000000	96.686649 
3826.000000	96.686967 
3825.000000	96.687278 
3824.000000	96.687604 
3823.000000	96.687942 
3822.000000	96.688264 
3821.000000	96.688600 
3820.000000	96.689033 
3819.000000	96.689590 
3818.000000	96.690229 
3817.000000	96.690878 
3816.000000	96.691551 
3815.000000	96.692329 
3814.000000	96.693204 
3813.000000	96.694006 
3812.000000	96.694607 
3811.000000	96.695068 
3810.000000	96.695630 
3809.000000	96.696353 
3808.000000	96.696970 
3807.000000	96.697232 
3806.000000	96.697290 
3805.000000	96.697509 
3804.000000	96.697979 
3803.000000	96.698407 
3802.000000	96.698579 
3801.000000	96.699055 
3800.000000	96.700206 
3799.000000	96.701413 
3798.000000	96.702004 
3797.000000	96.702156 
3796.000000	96.702770 
3795.000000	96.704331 
3794.000000	96.706208 
3793.000000	96.707350 
3792.000000	96.707702 
3791.000000	96.708220 
3790.000000	96.709304 
3789.000000	96.710125 
3788.000000	96.709965 
3787.000000	96.709232 
3786.000000	96.708557 
3785.000000	96.707769 
3784.000000	96.706572 
3783.000000	96.705381 
3782.000000	96.704281 
3781.000000	96.702740 
3780.000000	96.700976 
3779.000000	96.700826 
3778.000000	96.703175 
3777.000000	96.706103 
3776.000000	96.706471 
3775.000000	96.703369 
3774.000000	96.699039 
3773.000000	96.696340 
3772.000000	96.695012 
3771.000000	96.692625 
3770.000000	96.689127 
3769.000000	96.687235 
3768.000000	96.687741 
3767.000000	96.688269 
3766.000000	96.686541 
3765.000000	96.683448 
3764.000000	96.681993 
3763.000000	96.682880 
3762.000000	96.683024 
3761.000000	96.679941 
3760.000000	96.675506 
3759.000000	96.673023 
3758.000000	96.670912 
3757.000000	96.666075 
3756.000000	96.659431 
3755.000000	96.653579 
3754.000000	96.648403 
3753.000000	96.642320 
3752.000000	96.637650 
3751.000000	96.637531 
3750.000000	96.638068 
3749.000000	96.634328 
3748.000000	96.630284 
3747.000000	96.632181 
3746.000000	96.637450 
3745.000000	96.638808 
3744.000000	96.639651 
3743.000000	96.644537 
3742.000000	96.647594 
3741.000000	96.643492 
3740.000000	96.635329 
3739.000000	96.631721 
3738.000000	96.634856 
3737.000000	96.636661 
3736.000000	96.631718 
3735.000000	96.626520 
3734.000000	96.628580 
3733.000000	96.635055 
3732.000000	96.639929 
3731.000000	96.642732 
3730.000000	96.645644 
3729.000000	96.648030 
3728.000000	96.646842 
3727.000000	96.641707 
3726.000000	96.637237 
3725.000000	96.636435 
3724.000000	96.636776 
3723.000000	96.635701 
3722.000000	96.634767 
3721.000000	96.635956 
3720.000000	96.637736 
3719.000000	96.637775 
3718.000000	96.634798 
3717.000000	96.629803 
3716.000000	96.624948 
3715.000000	96.619817 
3714.000000	96.612029 
3713.000000	96.601971 
3712.000000	96.594717 
3711.000000	96.594061 
3710.000000	96.596805 
3709.000000	96.597651 
3708.000000	96.594165 
3707.000000	96.586833 
3706.000000	96.578330 
3705.000000	96.571470 
3704.000000	96.566918 
3703.000000	96.562870 
3702.000000	96.556732 
3701.000000	96.547323 
3700.000000	96.535781 
3699.000000	96.524324 
3698.000000	96.513337 
3697.000000	96.502149 
3696.000000	96.492733 
3695.000000	96.486504 
3694.000000	96.480234 
3693.000000	96.470921 
3692.000000	96.461219 
3691.000000	96.456190 
3690.000000	96.455383 
3689.000000	96.454928 
3688.000000	96.453652 
3687.000000	96.452489 
3686.000000	96.450580 
3685.000000	96.444542 
3684.000000	96.433994 
3683.000000	96.424462 
3682.000000	96.419326 
3681.000000	96.411687 
3680.000000	96.394283 
3679.000000	96.371589 
3678.000000	96.353690 
3677.000000	96.337212 
3676.000000	96.313385 
3675.000000	96.290076 
3674.000000	96.276970 
3673.000000	96.270723 
3672.000000	96.262053 
3671.000000	96.246609 
3670.000000	96.233488 
3669.000000	96.231593 
3668.000000	96.232530 
3667.000000	96.225436 
3666.000000	96.211986 
3665.000000	96.199689 
3664.000000	96.192047 
3663.000000	96.186254 
3662.000000	96.176518 
3661.000000	96.159609 
3660.000000	96.138239 
3659.000000	96.116773 
3658.000000	96.096206 
3657.000000	96.072921 
3656.000000	96.047038 
3655.000000	96.023725 
3654.000000	96.005690 
3653.000000	95.990054 
3652.000000	95.969740 
3651.000000	95.940889 
3650.000000	95.910234 
3649.000000	95.886910 
3648.000000	95.871458 
3647.000000	95.862339 
3646.000000	95.860625 
3645.000000	95.864806 
3644.000000	95.869077 
3643.000000	95.868847 
3642.000000	95.864249 
3641.000000	95.858112 
3640.000000	95.850274 
3639.000000	95.837384 
3638.000000	95.819701 
3637.000000	95.801648 
3636.000000	95.784909 
3635.000000	95.765013 
3634.000000	95.740487 
3633.000000	95.718680 
3632.000000	95.706337 
3631.000000	95.696288 
3630.000000	95.672583 
3629.000000	95.639944 
3628.000000	95.620753 
3627.000000	95.618002 
3626.000000	95.618994 
3625.000000	95.618693 
3624.000000	95.621672 
3623.000000	95.632494 
3622.000000	95.646512 
3621.000000	95.651286 
3620.000000	95.640016 
3619.000000	95.620324 
3618.000000	95.604422 
3617.000000	95.598249 
3616.000000	95.602431 
3615.000000	95.613370 
3614.000000	95.626395 
3613.000000	95.640707 
3612.000000	95.657260 
3611.000000	95.672671 
3610.000000	95.680843 
3609.000000	95.680848 
3608.000000	95.679683 
3607.000000	95.684229 
3606.000000	95.694024 
3605.000000	95.706024 
3604.000000	95.719794 
3603.000000	95.735399 
3602.000000	95.750210 
3601.000000	95.759959 
3600.000000	95.764247 
3599.000000	95.765710 
3598.000000	95.766341 
3597.000000	95.766780 
3596.000000	95.768197 
3595.000000	95.770331 
3594.000000	95.772195 
3593.000000	95.773471 
3592.000000	95.774946 
3591.000000	95.777272 
3590.000000	95.778248 
3589.000000	95.774036 
3588.000000	95.766062 
3587.000000	95.762049 
3586.000000	95.766138 
3585.000000	95.775435 
3584.000000	95.786324 
3583.000000	95.797450 
3582.000000	95.808367 
3581.000000	95.817339 
3580.000000	95.822140 
3579.000000	95.821804 
3578.000000	95.817612 
3577.000000	95.812649 
3576.000000	95.809899 
3575.000000	95.810441 
3574.000000	95.813014 
3573.000000	95.815732 
3572.000000	95.817271 
3571.000000	95.817070 
3570.000000	95.813856 
3569.000000	95.805392 
3568.000000	95.792368 
3567.000000	95.781159 
3566.000000	95.777434 
3565.000000	95.780350 
3564.000000	95.785911 
3563.000000	95.791441 
3562.000000	95.796118 
3561.000000	95.799684 
3560.000000	95.801738 
3559.000000	95.802308 
3558.000000	95.802072 
3557.000000	95.801955 
3556.000000	95.802342 
3555.000000	95.802823 
3554.000000	95.802534 
3553.000000	95.801120 
3552.000000	95.799252 
3551.000000	95.797681 
3550.000000	95.796275 
3549.000000	95.794403 
3548.000000	95.791897 
3547.000000	95.789135 
3546.000000	95.786339 
3545.000000	95.783596 
3544.000000	95.781724 
3543.000000	95.781975 
3542.000000	95.784477 
3541.000000	95.788008 
3540.000000	95.791138 
3539.000000	95.793039 
3538.000000	95.793366 
3537.000000	95.792191 
3536.000000	95.790294 
3535.000000	95.788589 
3534.000000	95.787431 
3533.000000	95.786604 
3532.000000	95.786057 
3531.000000	95.786013 
3530.000000	95.786292 
3529.000000	95.786123 
3528.000000	95.784944 
3527.000000	95.783075 
3526.000000	95.781311 
3525.000000	95.780182 
3524.000000	95.779915 
3523.000000	95.780662 
3522.000000	95.782149 
3521.000000	95.783706 
3520.000000	95.784800 
3519.000000	95.785316 
3518.000000	95.785354 
3517.000000	95.784822 
3516.000000	95.783595 
3515.000000	95.781984 
3514.000000	95.780800 
3513.000000	95.780571 
3512.000000	95.780901 
3511.000000	95.780806 
3510.000000	95.779746 
3509.000000	95.778084 
3508.000000	95.776676 
3507.000000	95.776018 
3506.000000	95.775922 
3505.000000	95.775817 
3504.000000	95.775337 
3503.000000	95.774586 
3502.000000	95.773876 
3501.000000	95.773400 
3500.000000	95.773210 
3499.000000	95.773287 
3498.000000	95.773516 
3497.000000	95.773665 
3496.000000	95.773410 
3495.000000	95.772518 
3494.000000	95.771095 
3493.000000	95.769635 
3492.000000	95.768591 
3491.000000	95.767916 
3490.000000	95.767196 
3489.000000	95.766186 
3488.000000	95.765016 
3487.000000	95.763824 
3486.000000	95.762509 
3485.000000	95.761020 
3484.000000	95.759611 
3483.000000	95.758518 
3482.000000	95.757604 
3481.000000	95.756587 
3480.000000	95.755491 
3479.000000	95.754566 
3478.000000	95.753781 
3477.000000	95.752688 
3476.000000	95.750848 
3475.000000	95.748267 
3474.000000	95.745424 
3473.000000	95.743048 
3472.000000	95.741705 
3471.000000	95.741347 
3470.000000	95.741248 
3469.000000	95.740605 
3468.000000	95.739221 
3467.000000	95.737558 
3466.000000	95.736133 
3465.000000	95.734871 
3464.000000	95.733208 
3463.000000	95.730744 
3462.000000	95.727649 
3461.000000	95.724489 
3460.000000	95.721722 
3459.000000	95.719308 
3458.000000	95.716831 
3457.000000	95.713930 
3456.000000	95.710739 
3455.000000	95.707886 
3454.000000	95.706012 
3453.000000	95.705231 
3452.000000	95.705145 
3451.000000	95.705186 
3450.000000	95.704815 
3449.000000	95.703547 
3448.000000	95.701154 
3447.000000	95.697957 
3446.000000	95.694667 
3445.000000	95.691850 
3444.000000	95.689670 
3443.000000	95.688072 
3442.000000	95.686920 
3441.000000	95.685935 
3440.000000	95.684742 
3439.000000	95.683116 
3438.000000	95.681111 
3437.000000	95.678902 
3436.000000	95.676711 
3435.000000	95.674878 
3434.000000	95.673743 
3433.000000	95.673243 
3432.000000	95.672858 
3431.000000	95.672084 
3430.000000	95.670854 
3429.000000	95.669421 
3428.000000	95.667927 
3427.000000	95.666281 
3426.000000	95.664496 
3425.000000	95.662917 
3424.000000	95.661891 
3423.000000	95.661255 
3422.000000	95.660378 
3421.000000	95.658863 
3420.000000	95.657060 
3419.000000	95.655710 
3418.000000	95.655176 
3417.000000	95.655242 
3416.000000	95.655483 
3415.000000	95.655570 
3414.000000	95.655240 
3413.000000	95.654312 
3412.000000	95.652913 
3411.000000	95.651549 
3410.000000	95.650735 
3409.000000	95.650606 
3408.000000	95.650908 
3407.000000	95.651215 
3406.000000	95.651197 
3405.000000	95.650818 
3404.000000	95.650353 
3403.000000	95.650093 
3402.000000	95.650060 
3401.000000	95.650082 
3400.000000	95.650069 
3399.000000	95.650029 
3398.000000	95.649902 
3397.000000	95.649656 
3396.000000	95.649495 
3395.000000	95.649719 
3394.000000	95.650307 
3393.000000	95.650821 
3392.000000	95.650828 
3391.000000	95.650312 
3390.000000	95.649675 
3389.000000	95.649478 
3388.000000	95.650183 
3387.000000	95.651917 
3386.000000	95.654286 
3385.000000	95.656453 
3384.000000	95.657670 
3383.000000	95.657839 
3382.000000	95.657628 
3381.000000	95.657946 
3380.000000	95.659095 
3379.000000	95.660568 
3378.000000	95.661755 
3377.000000	95.662787 
3376.000000	95.664288 
3375.000000	95.666393 
3374.000000	95.668428 
3373.000000	95.669723 
3372.000000	95.670416 
3371.000000	95.671262 
3370.000000	95.672803 
3369.000000	95.674962 
3368.000000	95.677301 
3367.000000	95.679360 
3366.000000	95.680820 
3365.000000	95.681629 
3364.000000	95.682102 
3363.000000	95.682772 
3362.000000	95.684002 
3361.000000	95.685793 
3360.000000	95.687965 
3359.000000	95.690358 
3358.000000	95.692800 
3357.000000	95.695052 
3356.000000	95.696928 
3355.000000	95.698522 
3354.000000	95.700211 
3353.000000	95.702404 
3352.000000	95.705187 
3351.000000	95.708223 
3350.000000	95.710992 
3349.000000	95.713181 
3348.000000	95.714876 
3347.000000	95.716425 
3346.000000	95.718126 
3345.000000	95.720048 
3344.000000	95.722035 
3343.000000	95.723837 
3342.000000	95.725380 
3341.000000	95.726931 
3340.000000	95.728808 
3339.000000	95.730941 
3338.000000	95.732945 
3337.000000	95.734599 
3336.000000	95.736071 
3335.000000	95.737651 
3334.000000	95.739432 
3333.000000	95.741303 
3332.000000	95.743143 
3331.000000	95.744933 
3330.000000	95.746720 
3329.000000	95.748539 
3328.000000	95.750397 
3327.000000	95.752284 
3326.000000	95.754177 
3325.000000	95.756051 
3324.000000	95.757890 
3323.000000	95.759702 
3322.000000	95.761507 
3321.000000	95.763329 
3320.000000	95.765179 
3319.000000	95.767047 
3318.000000	95.768918 
3317.000000	95.770781 
3316.000000	95.772633 
3315.000000	95.774472 
3314.000000	95.776301 
3313.000000	95.778125 
3312.000000	95.779953 
3311.000000	95.781792 
3310.000000	95.783645 
3309.000000	95.785508 
3308.000000	95.787370 
3307.000000	95.789219 
3306.000000	95.791051 
3305.000000	95.792872 
3304.000000	95.794702 
3303.000000	95.796555 
3302.000000	95.798436 
3301.000000	95.800344 
3300.000000	95.802263 
3299.000000	95.804173 
3298.000000	95.806054 
3297.000000	95.807902 
3296.000000	95.809748 
3295.000000	95.811647 
3294.000000	95.813644 
3293.000000	95.815741 
3292.000000	95.817892 
3291.000000	95.820037 
3290.000000	95.822122 
3289.000000	95.824113 
3288.000000	95.826026 
3287.000000	95.827916 
3286.000000	95.829827 
3285.000000	95.831730 
3284.000000	95.833568 
3283.000000	95.835342 
3282.000000	95.837163 
3281.000000	95.839149 
3280.000000	95.841282 
3279.000000	95.843420 
3278.000000	95.845475 
3277.000000	95.847526 
3276.000000	95.849697 
3275.000000	95.851983 
3274.000000	95.854271 
3273.000000	95.856510 
3272.000000	95.858771 
3271.000000	95.861132 
3270.000000	95.863553 
3269.000000	95.865907 
3268.000000	95.868102 
3267.000000	95.870156 
3266.000000	95.872190 
3265.000000	95.874342 
3264.000000	95.876662 
3263.000000	95.879054 
3262.000000	95.881362 
3261.000000	95.883528 
3260.000000	95.885632 
3259.000000	95.887785 
3258.000000	95.890013 
3257.000000	95.892295 
3256.000000	95.894630 
3255.000000	95.897016 
3254.000000	95.899417 
3253.000000	95.901815 
3252.000000	95.904234 
3251.000000	95.906693 
3250.000000	95.909156 
3249.000000	95.911580 
3248.000000	95.913964 
3247.000000	95.916342 
3246.000000	95.918742 
3245.000000	95.921176 
3244.000000	95.923640 
3243.000000	95.926123 
3242.000000	95.928604 
3241.000000	95.931078 
3240.000000	95.933547 
3239.000000	95.936016 
3238.000000	95.938488 
3237.000000	95.940970 
3236.000000	95.943470 
3235.000000	95.945986 
3234.000000	95.948490 
3233.000000	95.950944 
3232.000000	95.953329 
3231.000000	95.955660 
3230.000000	95.957969 
3229.000000	95.960285 
3228.000000	95.962632 
3227.000000	95.965029 
3226.000000	95.967514 
3225.000000	95.970113 
3224.000000	95.972792 
3223.000000	95.975447 
3222.000000	95.977989 
3221.000000	95.980448 
3220.000000	95.982943 
3219.000000	95.985533 
3218.000000	95.988145 
3217.000000	95.990675 
3216.000000	95.993114 
3215.000000	95.995551 
3214.000000	95.998086 
3213.000000	96.000731 
3212.000000	96.003392 
3211.000000	96.005936 
3210.000000	96.008311 
3209.000000	96.010608 
3208.000000	96.012964 
3207.000000	96.015386 
3206.000000	96.017743 
3205.000000	96.019982 
3204.000000	96.022282 
3203.000000	96.024877 
3202.000000	96.027776 
3201.000000	96.030708 
3200.000000	96.033417 
3199.000000	96.035936 
3198.000000	96.038499 
3197.000000	96.041252 
3196.000000	96.044099 
3195.000000	96.046858 
3194.000000	96.049534 
3193.000000	96.052324 
3192.000000	96.055347 
3191.000000	96.058454 
3190.000000	96.061357 
3189.000000	96.063926 
3188.000000	96.066305 
3187.000000	96.068816 
3186.000000	96.071674 
3185.000000	96.074853 
3184.000000	96.078093 
3183.000000	96.081121 
3182.000000	96.083907 
3181.000000	96.086636 
3180.000000	96.089430 
3179.000000	96.092170 
3178.000000	96.094703 
3177.000000	96.097132 
3176.000000	96.099738 
3175.000000	96.102664 
3174.000000	96.105835 
3173.000000	96.109131 
3172.000000	96.112479 
3171.000000	96.115768 
3170.000000	96.118872 
3169.000000	96.121793 
3168.000000	96.124641 
3167.000000	96.127475 
3166.000000	96.130274 
3165.000000	96.133037 
3164.000000	96.135710 
3163.000000	96.138108 
3162.000000	96.140116 
3161.000000	96.141972 
3160.000000	96.144140 
3159.000000	96.146854 
3158.000000	96.149983 
3157.000000	96.153298 
3156.000000	96.156658 
3155.000000	96.159892 
3154.000000	96.162781 
3153.000000	96.165309 
3152.000000	96.167750 
3151.000000	96.170285 
3150.000000	96.172693 
3149.000000	96.174630 
3148.000000	96.176097 
3147.000000	96.177564 
3146.000000	96.179652 
3145.000000	96.182686 
3144.000000	96.186480 
3143.000000	96.190303 
3142.000000	96.193395 
3141.000000	96.195618 
3140.000000	96.197490 
3139.000000	96.199591 
3138.000000	96.201991 
3137.000000	96.204357 
3136.000000	96.206360 
3135.000000	96.207869 
3134.000000	96.209014 
3133.000000	96.210237 
3132.000000	96.212015 
3131.000000	96.214395 
3130.000000	96.216998 
3129.000000	96.219584 
3128.000000	96.222348 
3127.000000	96.225522 
3126.000000	96.228985 
3125.000000	96.232444 
3124.000000	96.235759 
3123.000000	96.238844 
3122.000000	96.241438 
3121.000000	96.243340 
3120.000000	96.244755 
3119.000000	96.246156 
3118.000000	96.247842 
3117.000000	96.249856 
3116.000000	96.252164 
3115.000000	96.254680 
3114.000000	96.257188 
3113.000000	96.259517 
3112.000000	96.261848 
3111.000000	96.264619 
3110.000000	96.267994 
3109.000000	96.271501 
3108.000000	96.274413 
3107.000000	96.276486 
3106.000000	96.278129 
3105.000000	96.279814 
3104.000000	96.281496 
3103.000000	96.282838 
3102.000000	96.283851 
3101.000000	96.284972 
3100.000000	96.286464 
3099.000000	96.288107 
3098.000000	96.289719 
3097.000000	96.291649 
3096.000000	96.294351 
3095.000000	96.297645 
3094.000000	96.300820 
3093.000000	96.303418 
3092.000000	96.305584 
3091.000000	96.307564 
3090.000000	96.309254 
3089.000000	96.310462 
3088.000000	96.311319 
3087.000000	96.312256 
3086.000000	96.313678 
3085.000000	96.315661 
3084.000000	96.317882 
3083.000000	96.319851 
3082.000000	96.321332 
3081.000000	96.322557 
3080.000000	96.323980 
3079.000000	96.325742 
3078.000000	96.327526 
3077.000000	96.329073 
3076.000000	96.330586 
3075.000000	96.332301 
3074.000000	96.333980 
3073.000000	96.335300 
3072.000000	96.336502 
3071.000000	96.338081 
3070.000000	96.339995 
3069.000000	96.341768 
3068.000000	96.343315 
3067.000000	96.345019 
3066.000000	96.346948 
3065.000000	96.348621 
3064.000000	96.349666 
3063.000000	96.350149 
3062.000000	96.350194 
3061.000000	96.349872 
3060.000000	96.349566 
3059.000000	96.349960 
3058.000000	96.351457 
3057.000000	96.353923 
3056.000000	96.356907 
3055.000000	96.359685 
3054.000000	96.361289 
3053.000000	96.361201 
3052.000000	96.360271 
3051.000000	96.360272 
3050.000000	96.362043 
3049.000000	96.364617 
3048.000000	96.366410 
3047.000000	96.366799 
3046.000000	96.366193 
3045.000000	96.365286 
3044.000000	96.364841 
3043.000000	96.365755 
3042.000000	96.368454 
3041.000000	96.372021 
3040.000000	96.374502 
3039.000000	96.374534 
3038.000000	96.372448 
3037.000000	96.369716 
3036.000000	96.367481 
3035.000000	96.365709 
3034.000000	96.363821 
3033.000000	96.361784 
3032.000000	96.360215 
3031.000000	96.359557 
3030.000000	96.359584 
3029.000000	96.359764 
3028.000000	96.359628 
3027.000000	96.358612 
3026.000000	96.356108 
3025.000000	96.352236 
3024.000000	96.348301 
3023.000000	96.345830 
3022.000000	96.345216 
3021.000000	96.345832 
3020.000000	96.347188 
3019.000000	96.349138 
3018.000000	96.350932 
3017.000000	96.351090 
3016.000000	96.348767 
3015.000000	96.344737 
3014.000000	96.340806 
3013.000000	96.338423 
3012.000000	96.337796 
3011.000000	96.337732 
3010.000000	96.336289 
3009.000000	96.332314 
3008.000000	96.326638 
3007.000000	96.321421 
3006.000000	96.318034 
3005.000000	96.316043 
3004.000000	96.314246 
3003.000000	96.312088 
3002.000000	96.309953 
3001.000000	96.308725 
3000.000000	96.309148 
2999.000000	96.310835 
2998.000000	96.311722 
2997.000000	96.309471 
2996.000000	96.303917 
2995.000000	96.297624 
2994.000000	96.293458 
2993.000000	96.291981 
2992.000000	96.291503 
2991.000000	96.290024 
2990.000000	96.286776 
2989.000000	96.282461 
2988.000000	96.278674 
2987.000000	96.276922 
2986.000000	96.277776 
2985.000000	96.280891 
2984.000000	96.285645 
2983.000000	96.291355 
2982.000000	96.296909 
2981.000000	96.300851 
2980.000000	96.302160 
2979.000000	96.300666 
2978.000000	96.296857 
2977.000000	96.291939 
2976.000000	96.288010 
2975.000000	96.287088 
2974.000000	96.289482 
2973.000000	96.293665 
2972.000000	96.298074 
2971.000000	96.302420 
2970.000000	96.306853 
2969.000000	96.310849 
2968.000000	96.313683 
2967.000000	96.315438 
2966.000000	96.316894 
2965.000000	96.318811 
2964.000000	96.321787 
2963.000000	96.326182 
2962.000000	96.331536 
2961.000000	96.336509 
2960.000000	96.340173 
2959.000000	96.343144 
2958.000000	96.346863 
2957.000000	96.351911 
2956.000000	96.357386 
2955.000000	96.361722 
2954.000000	96.363839 
2953.000000	96.363994 
2952.000000	96.363889 
2951.000000	96.365450 
2950.000000	96.368849 
2949.000000	96.372129 
2948.000000	96.373354 
2947.000000	96.372649 
2946.000000	96.371677 
2945.000000	96.371635 
2944.000000	96.372571 
2943.000000	96.374228 
2942.000000	96.376338 
2941.000000	96.378087 
2940.000000	96.378461 
2939.000000	96.377587 
2938.000000	96.376993 
2937.000000	96.377952 
2936.000000	96.379941 
2935.000000	96.381212 
2934.000000	96.380629 
2933.000000	96.378605 
2932.000000	96.376572 
2931.000000	96.375835 
2930.000000	96.376791 
2929.000000	96.378957 
2928.000000	96.381541 
2927.000000	96.384000 
2926.000000	96.386112 
2925.000000	96.387804 
2924.000000	96.389202 
2923.000000	96.390677 
2922.000000	96.392421 
2921.000000	96.394053 
2920.000000	96.395119 
2919.000000	96.395993 
2918.000000	96.397664 
2917.000000	96.400313 
2916.000000	96.402639 
2915.000000	96.403198 
2914.000000	96.402118 
2913.000000	96.400962 
2912.000000	96.400900 
2911.000000	96.401475 
2910.000000	96.401483 
2909.000000	96.400685 
2908.000000	96.400223 
2907.000000	96.401328 
2906.000000	96.403972 
2905.000000	96.406890 
2904.000000	96.408605 
2903.000000	96.408802 
2902.000000	96.408530 
2901.000000	96.409150 
2900.000000	96.411314 
2899.000000	96.414576 
2898.000000	96.418113 
2897.000000	96.421446 
2896.000000	96.424395 
2895.000000	96.426626 
2894.000000	96.427891 
2893.000000	96.428724 
2892.000000	96.430307 
2891.000000	96.433249 
2890.000000	96.436866 
2889.000000	96.440054 
2888.000000	96.442570 
2887.000000	96.444878 
2886.000000	96.446975 
2885.000000	96.448232 
2884.000000	96.448593 
2883.000000	96.449175 
2882.000000	96.451063 
2881.000000	96.454044 
2880.000000	96.457181 
2879.000000	96.460345 
2878.000000	96.464259 
2877.000000	96.469002 
2876.000000	96.473405 
2875.000000	96.476379 
2874.000000	96.478177 
2873.000000	96.479886 
2872.000000	96.482040 
2871.000000	96.484240 
2870.000000	96.486038 
2869.000000	96.487580 
2868.000000	96.489312 
2867.000000	96.491469 
2866.000000	96.493991 
2865.000000	96.496695 
2864.000000	96.499414 
2863.000000	96.502206 
2862.000000	96.505444 
2861.000000	96.509410 
2860.000000	96.513709 
2859.000000	96.517469 
2858.000000	96.520304 
2857.000000	96.522803 
2856.000000	96.525893 
2855.000000	96.529729 
2854.000000	96.533458 
2853.000000	96.536143 
2852.000000	96.537659 
2851.000000	96.538696 
2850.000000	96.540112 
2849.000000	96.542253 
2848.000000	96.544899 
2847.000000	96.547645 
2846.000000	96.550291 
2845.000000	96.552886 
2844.000000	96.555487 
2843.000000	96.558037 
2842.000000	96.560520 
2841.000000	96.563014 
2840.000000	96.565449 
2839.000000	96.567494 
2838.000000	96.568936 
2837.000000	96.570073 
2836.000000	96.571536 
2835.000000	96.573690 
2834.000000	96.576411 
2833.000000	96.579410 
2832.000000	96.582506 
2831.000000	96.585458 
2830.000000	96.587816 
2829.000000	96.589241 
2828.000000	96.589935 
2827.000000	96.590607 
2826.000000	96.591918 
2825.000000	96.593996 
2824.000000	96.596476 
2823.000000	96.598833 
2822.000000	96.600760 
2821.000000	96.602309 
2820.000000	96.603732 
2819.000000	96.605171 
2818.000000	96.606528 
2817.000000	96.607670 
2816.000000	96.608664 
2815.000000	96.609712 
2814.000000	96.610878 
2813.000000	96.611993 
2812.000000	96.612856 
2811.000000	96.613474 
2810.000000	96.614096 
2809.000000	96.615062 
2808.000000	96.616565 
2807.000000	96.618536 
2806.000000	96.620641 
2805.000000	96.622475 
2804.000000	96.623849 
2803.000000	96.624872 
2802.000000	96.625828 
2801.000000	96.626950 
2800.000000	96.628285 
2799.000000	96.629718 
2798.000000	96.631066 
2797.000000	96.632163 
2796.000000	96.632966 
2795.000000	96.633609 
2794.000000	96.634349 
2793.000000	96.635371 
2792.000000	96.636664 
2791.000000	96.638072 
2790.000000	96.639412 
2789.000000	96.640567 
2788.000000	96.641511 
2787.000000	96.642337 
2786.000000	96.643232 
2785.000000	96.644331 
2784.000000	96.645580 
2783.000000	96.646792 
2782.000000	96.647845 
2781.000000	96.648799 
2780.000000	96.649821 
2779.000000	96.651046 
2778.000000	96.652491 
2777.000000	96.654021 
2776.000000	96.655389 
2775.000000	96.656425 
2774.000000	96.657224 
2773.000000	96.658075 
2772.000000	96.659136 
2771.000000	96.660277 
2770.000000	96.661354 
2769.000000	96.662496 
2768.000000	96.663943 
2767.000000	96.665640 
2766.000000	96.667224 
2765.000000	96.668426 
2764.000000	96.669335 
2763.000000	96.670159 
2762.000000	96.670851 
2761.000000	96.671176 
2760.000000	96.671127 
2759.000000	96.671143 
2758.000000	96.671761 
2757.000000	96.672993 
2756.000000	96.674185 
2755.000000	96.674720 
2754.000000	96.674799 
2753.000000	96.675255 
2752.000000	96.676563 
2751.000000	96.678380 
2750.000000	96.680186 
2749.000000	96.681920 
2748.000000	96.683562 
2747.000000	96.684468 
2746.000000	96.683921 
2745.000000	96.682173 
2744.000000	96.680516 
2743.000000	96.680010 
2742.000000	96.680558 
2741.000000	96.681364 
2740.000000	96.681878 
2739.000000	96.682124 
2738.000000	96.682295 
2737.000000	96.682437 
2736.000000	96.682559 
2735.000000	96.682797 
2734.000000	96.683323 
2733.000000	96.684148 
2732.000000	96.685070 
2731.000000	96.685868 
2730.000000	96.686546 
2729.000000	96.687312 
2728.000000	96.688246 
2727.000000	96.689084 
2726.000000	96.689502 
2725.000000	96.689548 
2724.000000	96.689595 
2723.000000	96.689858 
2722.000000	96.690154 
2721.000000	96.690263 
2720.000000	96.690325 
2719.000000	96.690718 
2718.000000	96.691582 
2717.000000	96.692655 
2716.000000	96.693536 
2715.000000	96.694122 
2714.000000	96.694641 
2713.000000	96.695314 
2712.000000	96.696095 
2711.000000	96.696762 
2710.000000	96.697195 
2709.000000	96.697471 
2708.000000	96.697758 
2707.000000	96.698162 
2706.000000	96.698705 
2705.000000	96.699360 
2704.000000	96.700044 
2703.000000	96.700595 
2702.000000	96.700919 
2701.000000	96.701199 
2700.000000	96.701858 
2699.000000	96.703147 
2698.000000	96.704804 
2697.000000	96.706137 
2696.000000	96.706595 
2695.000000	96.706213 
2694.000000	96.705590 
2693.000000	96.705366 
2692.000000	96.705654 
2691.000000	96.706067 
2690.000000	96.706224 
2689.000000	96.706152 
2688.000000	96.706114 
2687.000000	96.706220 
2686.000000	96.706430 
2685.000000	96.706832 
2684.000000	96.707578 
2683.000000	96.708549 
2682.000000	96.709377 
2681.000000	96.709881 
2680.000000	96.710251 
2679.000000	96.710722 
2678.000000	96.711241 
2677.000000	96.711592 
2676.000000	96.711569 
2675.000000	96.710955 
2674.000000	96.709645 
2673.000000	96.708042 
2672.000000	96.707025 
2671.000000	96.707141 
2670.000000	96.707998 
2669.000000	96.708706 
2668.000000	96.708828 
2667.000000	96.708533 
2666.000000	96.707900 
2665.000000	96.706597 
2664.000000	96.704488 
2663.000000	96.702194 
2662.000000	96.700713 
2661.000000	96.700457 
2660.000000	96.700898 
2659.000000	96.701111 
2658.000000	96.700587 
2657.000000	96.699510 
2656.000000	96.698362 
2655.000000	96.697389 
2654.000000	96.696444 
2653.000000	96.695289 
2652.000000	96.693996 
2651.000000	96.692999 
2650.000000	96.692735 
2649.000000	96.693233 
2648.000000	96.694041 
2647.000000	96.694485 
2646.000000	96.694040 
2645.000000	96.692575 
2644.000000	96.690429 
2643.000000	96.688339 
2642.000000	96.687037 
2641.000000	96.686768 
2640.000000	96.687191 
2639.000000	96.687752 
2638.000000	96.688162 
2637.000000	96.688463 
2636.000000	96.688771 
2635.000000	96.689159 
2634.000000	96.689651 
2633.000000	96.690106 
2632.000000	96.690123 
2631.000000	96.689351 
2630.000000	96.687956 
2629.000000	96.686601 
2628.000000	96.685798 
2627.000000	96.685476 
2626.000000	96.685298 
2625.000000	96.685173 
2624.000000	96.685250 
2623.000000	96.685580 
2622.000000	96.686007 
2621.000000	96.686288 
2620.000000	96.686143 
2619.000000	96.685313 
2618.000000	96.683867 
2617.000000	96.682453 
2616.000000	96.681840 
2615.000000	96.682185 
2614.000000	96.682933 
2613.000000	96.683466 
2612.000000	96.683725 
2611.000000	96.684000 
2610.000000	96.684458 
2609.000000	96.685010 
2608.000000	96.685417 
2607.000000	96.685409 
2606.000000	96.684933 
2605.000000	96.684406 
2604.000000	96.684424 
2603.000000	96.685098 
2602.000000	96.685938 
2601.000000	96.686573 
2600.000000	96.687116 
2599.000000	96.687566 
2598.000000	96.687464 
2597.000000	96.686578 
2596.000000	96.685338 
2595.000000	96.684168 
2594.000000	96.682835 
2593.000000	96.681186 
2592.000000	96.680058 
2591.000000	96.680448 
2590.000000	96.682023 
2589.000000	96.683278 
2588.000000	96.683403 
2587.000000	96.683121 
2586.000000	96.683417 
2585.000000	96.684222 
2584.000000	96.684767 
2583.000000	96.684657 
2582.000000	96.684200 
2581.000000	96.684034 
2580.000000	96.684716 
2579.000000	96.686402 
2578.000000	96.688665 
2577.000000	96.690731 
2576.000000	96.691930 
2575.000000	96.691852 
2574.000000	96.690355 
2573.000000	96.687775 
2572.000000	96.684911 
2571.000000	96.682279 
2570.000000	96.679694 
2569.000000	96.677097 
2568.000000	96.675404 
2567.000000	96.675675 
2566.000000	96.677605 
2565.000000	96.679656 
2564.000000	96.680773 
2563.000000	96.681234 
2562.000000	96.681684 
2561.000000	96.682353 
2560.000000	96.683551 
2559.000000	96.685913 
2558.000000	96.689326 
2557.000000	96.692245 
2556.000000	96.693119 
2555.000000	96.692193 
2554.000000	96.691200 
2553.000000	96.691236 
2552.000000	96.691733 
2551.000000	96.691883 
2550.000000	96.692004 
2549.000000	96.692679 
2548.000000	96.693232 
2547.000000	96.692373 
2546.000000	96.690233 
2545.000000	96.688591 
2544.000000	96.688570 
2543.000000	96.689079 
2542.000000	96.688323 
2541.000000	96.686292 
2540.000000	96.684809 
2539.000000	96.685192 
2538.000000	96.686897 
2537.000000	96.688547 
2536.000000	96.689608 
2535.000000	96.690461 
2534.000000	96.691305 
2533.000000	96.691813 
2532.000000	96.691807 
2531.000000	96.691610 
2530.000000	96.691518 
2529.000000	96.691296 
2528.000000	96.690510 
2527.000000	96.689232 
2526.000000	96.688203 
2525.000000	96.688161 
2524.000000	96.689134 
2523.000000	96.690451 
2522.000000	96.691419 
2521.000000	96.691899 
2520.000000	96.692169 
2519.000000	96.692459 
2518.000000	96.692769 
2517.000000	96.692937 
2516.000000	96.692614 
2515.000000	96.691397 
2514.000000	96.689472 
2513.000000	96.687994 
2512.000000	96.688183 
2511.000000	96.690128 
2510.000000	96.692812 
2509.000000	96.695215 
2508.000000	96.697012 
2507.000000	96.698166 
2506.000000	96.698740 
2505.000000	96.699361 
2504.000000	96.701015 
2503.000000	96.703800 
2502.000000	96.706377 
2501.000000	96.707342 
2500.000000	96.706719 
2499.000000	96.705575 
2498.000000	96.704628 
2497.000000	96.703887 
2496.000000	96.703468 
2495.000000	96.703744 
2494.000000	96.704613 
2493.000000	96.705387 
2492.000000	96.705748 
2491.000000	96.706349 
2490.000000	96.708001 
2489.000000	96.710457 
2488.000000	96.712385 
2487.000000	96.712704 
2486.000000	96.711671 
2485.000000	96.710601 
2484.000000	96.710559 
2483.000000	96.711493 
2482.000000	96.712631 
2481.000000	96.713386 
2480.000000	96.713688 
2479.000000	96.713703 
2478.000000	96.713669 
2477.000000	96.713828 
2476.000000	96.714037 
2475.000000	96.713547 
2474.000000	96.711756 
2473.000000	96.709258 
2472.000000	96.707538 
2471.000000	96.707301 
2470.000000	96.707785 
2469.000000	96.707929 
2468.000000	96.707610 
2467.000000	96.707250 
2466.000000	96.706806 
2465.000000	96.705958 
2464.000000	96.705041 
2463.000000	96.705027 
2462.000000	96.706485 
2461.000000	96.708980 
2460.000000	96.711449 
2459.000000	96.712901 
2458.000000	96.712754 
2457.000000	96.710923 
2456.000000	96.707855 
2455.000000	96.704476 
2454.000000	96.701874 
2453.000000	96.700697 
2452.000000	96.700636 
2451.000000	96.700637 
2450.000000	96.700064 
2449.000000	96.699574 
2448.000000	96.700288 
2447.000000	96.702190 
2446.000000	96.703971 
2445.000000	96.704586 
2444.000000	96.704266 
2443.000000	96.703767 
2442.000000	96.703391 
2441.000000	96.703128 
2440.000000	96.703214 
2439.000000	96.704066 
2438.000000	96.705907 
2437.000000	96.708698 
2436.000000	96.712052 
2435.000000	96.715052 
2434.000000	96.716680 
2433.000000	96.716720 
2432.000000	96.715993 
2431.000000	96.715579 
2430.000000	96.716025 
2429.000000	96.717382 
2428.000000	96.719381 
2427.000000	96.721241 
2426.000000	96.721915 
2425.000000	96.721037 
2424.000000	96.719414 
2423.000000	96.718312 
2422.000000	96.718324 
2421.000000	96.719290 
2420.000000	96.721010 
2419.000000	96.723454 
2418.000000	96.726369 
2417.000000	96.729258 
2416.000000	96.731744 
2415.000000	96.733664 
2414.000000	96.734840 
2413.000000	96.735263 
2412.000000	96.735491 
2411.000000	96.736076 
2410.000000	96.736832 
2409.000000	96.737479 
2408.000000	96.738567 
2407.000000	96.740781 
2406.000000	96.743499 
2405.000000	96.745106 
2404.000000	96.744755 
2403.000000	96.743059 
2402.000000	96.741234 
2401.000000	96.740433 
2400.000000	96.741627 
2399.000000	96.745001 
2398.000000	96.749392 
2397.000000	96.753248 
2396.000000	96.756071 
2395.000000	96.758078 
2394.000000	96.758827 
2393.000000	96.757612 
2392.000000	96.755247 
2391.000000	96.753993 
2390.000000	96.755148 
2389.000000	96.757774 
2388.000000	96.760084 
2387.000000	96.761160 
2386.000000	96.761077 
2385.000000	96.760440 
2384.000000	96.760338 
2383.000000	96.761903 
2382.000000	96.765571 
2381.000000	96.771489 
2380.000000	96.780510 
2379.000000	96.793157 
2378.000000	96.806817 
2377.000000	96.815785 
2376.000000	96.816069 
2375.000000	96.808922 
2374.000000	96.798719 
2373.000000	96.788082 
2372.000000	96.777482 
2371.000000	96.769037 
2370.000000	96.766476 
2369.000000	96.770063 
2368.000000	96.774536 
2367.000000	96.774697 
2366.000000	96.771484 
2365.000000	96.769556 
2364.000000	96.770401 
2363.000000	96.771050 
2362.000000	96.769325 
2361.000000	96.766796 
2360.000000	96.765180 
2359.000000	96.763916 
2358.000000	96.762518 
2357.000000	96.762651 
2356.000000	96.765531 
2355.000000	96.769381 
2354.000000	96.770605 
2353.000000	96.767436 
2352.000000	96.761506 
2351.000000	96.754709 
2350.000000	96.747665 
2349.000000	96.742219 
2348.000000	96.740677 
2347.000000	96.740659 
2346.000000	96.735918 
2345.000000	96.725864 
2344.000000	96.716294 
2343.000000	96.711204 
2342.000000	96.711407 
2341.000000	96.717044 
2340.000000	96.726153 
2339.000000	96.733978 
2338.000000	96.737029 
2337.000000	96.736231 
2336.000000	96.735227 
2335.000000	96.735293 
2334.000000	96.733730 
2333.000000	96.727132 
2332.000000	96.716526 
2331.000000	96.705705 
2330.000000	96.695653 
2329.000000	96.683026 
2328.000000	96.666120 
2327.000000	96.647607 
2326.000000	96.631009 
2325.000000	96.617969 
2324.000000	96.610586 
2323.000000	96.611078 
2322.000000	96.617326 
2321.000000	96.622058 
2320.000000	96.621519 
2319.000000	96.620059 
2318.000000	96.623544 
2317.000000	96.631053 
2316.000000	96.637016 
2315.000000	96.637866 
2314.000000	96.634349 
2313.000000	96.628592 
2312.000000	96.622540 
2311.000000	96.617924 
2310.000000	96.615026 
2309.000000	96.611847 
2308.000000	96.606993 
2307.000000	96.602445 
2306.000000	96.601116 
2305.000000	96.602385 
2304.000000	96.603022 
2303.000000	96.602017 
2302.000000	96.602086 
2301.000000	96.605461 
2300.000000	96.610705 
2299.000000	96.613962 
2298.000000	96.612837 
2297.000000	96.607853 
2296.000000	96.601673 
2295.000000	96.597266 
2294.000000	96.596145 
2293.000000	96.597555 
2292.000000	96.599633 
2291.000000	96.601444 
2290.000000	96.603381 
2289.000000	96.605879 
2288.000000	96.608281 
2287.000000	96.609513 
2286.000000	96.609383 
2285.000000	96.609064 
2284.000000	96.610048 
2283.000000	96.612680 
2282.000000	96.615766 
2281.000000	96.617742 
2280.000000	96.617972 
2279.000000	96.616671 
2278.000000	96.614207 
2277.000000	96.611193 
2276.000000	96.608938 
2275.000000	96.608722 
2274.000000	96.610548 
2273.000000	96.613326 
2272.000000	96.616410 
2271.000000	96.619962 
2270.000000	96.623694 
2269.000000	96.626454 
2268.000000	96.627631 
2267.000000	96.627915 
2266.000000	96.627973 
2265.000000	96.627524 
2264.000000	96.626133 
2263.000000	96.623856 
2262.000000	96.620744 
2261.000000	96.616760 
2260.000000	96.612643 
2259.000000	96.609734 
2258.000000	96.608494 
2257.000000	96.608253 
2256.000000	96.608772 
2255.000000	96.610750 
2254.000000	96.614047 
2253.000000	96.616593 
2252.000000	96.616313 
2251.000000	96.613215 
2250.000000	96.608734 
2249.000000	96.603997 
2248.000000	96.599613 
2247.000000	96.596421 
2246.000000	96.595151 
2245.000000	96.595376 
2244.000000	96.595618 
2243.000000	96.594760 
2242.000000	96.592914 
2241.000000	96.590906 
2240.000000	96.589417 
2239.000000	96.588566 
2238.000000	96.587957 
2237.000000	96.587058 
2236.000000	96.585695 
2235.000000	96.584102 
2234.000000	96.582522 
2233.000000	96.580963 
2232.000000	96.579348 
2231.000000	96.577666 
2230.000000	96.575914 
2229.000000	96.574093 
2228.000000	96.572258 
2227.000000	96.570440 
2226.000000	96.568620 
2225.000000	96.566797 
2224.000000	96.564967 
2223.000000	96.563136 
2222.000000	96.561321 
2221.000000	96.559536 
2220.000000	96.557773 
2219.000000	96.556014 
2218.000000	96.554246 
2217.000000	96.552472 
2216.000000	96.550711 
2215.000000	96.548975 
2214.000000	96.547261 
2213.000000	96.545559 
2212.000000	96.543866 
2211.000000	96.542198 
2210.000000	96.540572 
2209.000000	96.538988 
2208.000000	96.537425 
2207.000000	96.535851 
2206.000000	96.534245 
2205.000000	96.532593 
2204.000000	96.530885 
2203.000000	96.529118 
2202.000000	96.527306 
2201.000000	96.525691 
2200.000000	96.524419 
2199.000000	96.522869 
2198.000000	96.520430 
2197.000000	96.517431 
2196.000000	96.514951 
2195.000000	96.513542 
2194.000000	96.512536 
2193.000000	96.511057 
2192.000000	96.509309 
2191.000000	96.508045 
2190.000000	96.507181 
2189.000000	96.506114 
2188.000000	96.505217 
2187.000000	96.505353 
2186.000000	96.505570 
2185.000000	96.503404 
2184.000000	96.498910 
2183.000000	96.496559 
2182.000000	96.500530 
2181.000000	96.508917 
2180.000000	96.514599 
2179.000000	96.512848 
2178.000000	96.505861 
2177.000000	96.500131 
2176.000000	96.500140 
2175.000000	96.505049 
2174.000000	96.510266 
2173.000000	96.511845 
2172.000000	96.510210 
2171.000000	96.509489 
2170.000000	96.512335 
2169.000000	96.515820 
2168.000000	96.514160 
2167.000000	96.505650 
2166.000000	96.494757 
2165.000000	96.486439 
2164.000000	96.480604 
2163.000000	96.474603 
2162.000000	96.470038 
2161.000000	96.473765 
2160.000000	96.491097 
2159.000000	96.519608 
2158.000000	96.549896 
2157.000000	96.572902 
2156.000000	96.585710 
2155.000000	96.590389 
2154.000000	96.590554 
2153.000000	96.589823 
2152.000000	96.590783 
2151.000000	96.593084 
2150.000000	96.593693 
2149.000000	96.591275 
2148.000000	96.589567 
2147.000000	96.593598 
2146.000000	96.602831 
2145.000000	96.611461 
2144.000000	96.616319 
2143.000000	96.620714 
2142.000000	96.628470 
2141.000000	96.637826 
2140.000000	96.644523 
2139.000000	96.648629 
2138.000000	96.654434 
2137.000000	96.664242 
2136.000000	96.675379 
2135.000000	96.683150 
2134.000000	96.684552 
2133.000000	96.680119 
2132.000000	96.674157 
2131.000000	96.671858 
2130.000000	96.674513 
2129.000000	96.678331 
2128.000000	96.679312 
2127.000000	96.678228 
2126.000000	96.679009 
2125.000000	96.683069 
2124.000000	96.687456 
2123.000000	96.688489 
2122.000000	96.685189 
2121.000000	96.679118 
2120.000000	96.672437 
2119.000000	96.666574 
2118.000000	96.662025 
2117.000000	96.658870 
2116.000000	96.657102 
2115.000000	96.656046 
2114.000000	96.653804 
2113.000000	96.648823 
2112.000000	96.642641 
2111.000000	96.639392 
2110.000000	96.641472 
2109.000000	96.646945 
2108.000000	96.651986 
2107.000000	96.654554 
2106.000000	96.654672 
2105.000000	96.652989 
2104.000000	96.650822 
2103.000000	96.649970 
2102.000000	96.650374 
2101.000000	96.649131 
2100.000000	96.644075 
2099.000000	96.637683 
2098.000000	96.635186 
2097.000000	96.638848 
2096.000000	96.646116 
2095.000000	96.652604 
2094.000000	96.655830 
2093.000000	96.655753 
2092.000000	96.653396 
2091.000000	96.650149 
2090.000000	96.647474 
2089.000000	96.646157 
2088.000000	96.645745 
2087.000000	96.645023 
2086.000000	96.643049 
2085.000000	96.639808 
2084.000000	96.636207 
2083.000000	96.633367 
2082.000000	96.631654 
2081.000000	96.630502 
2080.000000	96.629401 
2079.000000	96.628640 
2078.000000	96.628505 
2077.000000	96.628177 
2076.000000	96.626486 
2075.000000	96.623700 
2074.000000	96.621334 
2073.000000	96.619845 
2072.000000	96.617727 
2071.000000	96.613586 
2070.000000	96.608146 
2069.000000	96.603580 
2068.000000	96.601310 
2067.000000	96.601010 
2066.000000	96.601189 
2065.000000	96.600207 
2064.000000	96.597310 
2063.000000	96.593258 
2062.000000	96.589945 
2061.000000	96.588846 
2060.000000	96.589769 
2059.000000	96.591230 
2058.000000	96.591712 
2057.000000	96.590561 
2056.000000	96.587827 
2055.000000	96.583686 
2054.000000	96.578426 
2053.000000	96.572785 
2052.000000	96.568008 
2051.000000	96.565125 
2050.000000	96.564193 
2049.000000	96.564193 
2048.000000	96.563827 
2047.000000	96.562616 
2046.000000	96.561090 
2045.000000	96.560138 
2044.000000	96.560233 
2043.000000	96.561070 
2042.000000	96.561752 
2041.000000	96.561496 
2040.000000	96.560483 
2039.000000	96.559885 
2038.000000	96.560657 
2037.000000	96.562357 
2036.000000	96.563505 
2035.000000	96.563121 
2034.000000	96.561692 
2033.000000	96.560712 
2032.000000	96.561264 
2031.000000	96.562925 
2030.000000	96.563904 
2029.000000	96.562641 
2028.000000	96.559440 
2027.000000	96.556279 
2026.000000	96.554716 
2025.000000	96.554658 
2024.000000	96.555531 
2023.000000	96.557759 
2022.000000	96.562104 
2021.000000	96.567607 
2020.000000	96.571312 
2019.000000	96.570757 
2018.000000	96.565914 
2017.000000	96.559099 
2016.000000	96.553230 
2015.000000	96.549912 
2014.000000	96.548703 
2013.000000	96.547624 
2012.000000	96.545431 
2011.000000	96.543772 
2010.000000	96.545673 
2009.000000	96.551646 
2008.000000	96.558360 
2007.000000	96.562080 
2006.000000	96.562385 
2005.000000	96.561321 
2004.000000	96.560502 
2003.000000	96.560426 
2002.000000	96.561668 
2001.000000	96.564253 
2000.000000	96.566027 
1999.000000	96.563738 
1998.000000	96.556275 
1997.000000	96.546382 
1996.000000	96.538693 
1995.000000	96.535904 
1994.000000	96.537183 
1993.000000	96.539336 
1992.000000	96.539404 
1991.000000	96.537063 
1990.000000	96.534720 
1989.000000	96.535067 
1988.000000	96.538261 
1987.000000	96.541357 
1986.000000	96.540878 
1985.000000	96.536145 
1984.000000	96.529736 
1983.000000	96.524594 
1982.000000	96.521421 
1981.000000	96.519425 
1980.000000	96.518967 
1979.000000	96.521617 
1978.000000	96.527068 
1977.000000	96.532095 
1976.000000	96.533863 
1975.000000	96.533278 
1974.000000	96.533783 
1973.000000	96.537772 
1972.000000	96.544774 
1971.000000	96.552244 
1970.000000	96.557335 
1969.000000	96.558387 
1968.000000	96.555678 
1967.000000	96.551391 
1966.000000	96.548558 
1965.000000	96.549273 
1964.000000	96.553936 
1963.000000	96.561648 
1962.000000	96.570821 
1961.000000	96.579346 
1960.000000	96.584913 
1959.000000	96.586201 
1958.000000	96.584269 
1957.000000	96.582496 
1956.000000	96.583753 
1955.000000	96.587625 
1954.000000	96.591178 
1953.000000	96.592456 
1952.000000	96.592201 
1951.000000	96.592199 
1950.000000	96.593399 
1949.000000	96.595999 
1948.000000	96.600052 
1947.000000	96.604998 
1946.000000	96.609264 
1945.000000	96.611480 
1944.000000	96.611704 
1943.000000	96.610930 
1942.000000	96.610021 
1941.000000	96.609458 
1940.000000	96.609614 
1939.000000	96.610506 
1938.000000	96.611680 
1937.000000	96.613004 
1936.000000	96.615017 
1935.000000	96.617854 
1934.000000	96.620454 
1933.000000	96.621806 
1932.000000	96.622447 
1931.000000	96.623757 
1930.000000	96.626067 
1929.000000	96.628101 
1928.000000	96.628871 
1927.000000	96.628856 
1926.000000	96.628968 
1925.000000	96.629241 
1924.000000	96.629131 
1923.000000	96.628723 
1922.000000	96.628509 
1921.000000	96.628480 
1920.000000	96.628404 
1919.000000	96.628280 
1918.000000	96.627988 
1917.000000	96.627132 
1916.000000	96.625857 
1915.000000	96.625245 
1914.000000	96.625941 
1913.000000	96.627130 
1912.000000	96.627437 
1911.000000	96.626677 
1910.000000	96.625741 
1909.000000	96.625234 
1908.000000	96.625125 
1907.000000	96.625230 
1906.000000	96.625249 
1905.000000	96.624575 
1904.000000	96.622826 
1903.000000	96.620736 
1902.000000	96.619517 
1901.000000	96.619339 
1900.000000	96.619397 
1899.000000	96.619101 
1898.000000	96.618639 
1897.000000	96.618297 
1896.000000	96.617764 
1895.000000	96.616686 
1894.000000	96.615208 
1893.000000	96.613583 
1892.000000	96.611924 
1891.000000	96.610547 
1890.000000	96.609924 
1889.000000	96.610037 
1888.000000	96.610417 
1887.000000	96.610962 
1886.000000	96.611800 
1885.000000	96.612440 
1884.000000	96.612044 
1883.000000	96.610686 
1882.000000	96.609540 
1881.000000	96.609497 
1880.000000	96.610349 
1879.000000	96.611209 
1878.000000	96.611394 
1877.000000	96.611062 
1876.000000	96.610981 
1875.000000	96.611791 
1874.000000	96.613519 
1873.000000	96.615535 
1872.000000	96.617169 
1871.000000	96.618273 
1870.000000	96.618922 
1869.000000	96.619075 
1868.000000	96.618927 
1867.000000	96.619275 
1866.000000	96.620669 
1865.000000	96.622468 
1864.000000	96.623686 
1863.000000	96.624505 
1862.000000	96.626009 
1861.000000	96.628503 
1860.000000	96.631139 
1859.000000	96.633282 
1858.000000	96.635238 
1857.000000	96.637340 
1856.000000	96.639403 
1855.000000	96.641181 
1854.000000	96.642648 
1853.000000	96.643767 
1852.000000	96.645007 
1851.000000	96.647343 
1850.000000	96.650957 
1849.000000	96.654734 
1848.000000	96.657397 
1847.000000	96.659032 
1846.000000	96.660610 
1845.000000	96.662469 
1844.000000	96.664176 
1843.000000	96.665759 
1842.000000	96.667777 
1841.000000	96.670296 
1840.000000	96.673106 
1839.000000	96.676128 
1838.000000	96.679179 
1837.000000	96.681495 
1836.000000	96.682389 
1835.000000	96.682614 
1834.000000	96.683590 
1833.000000	96.685461 
1832.000000	96.687338 
1831.000000	96.688330 
1830.000000	96.688257 
1829.000000	96.688106 
1828.000000	96.688927 
1827.000000	96.691088 
1826.000000	96.694061 
1825.000000	96.696591 
1824.000000	96.697608 
1823.000000	96.697316 
1822.000000	96.697152 
1821.000000	96.697965 
1820.000000	96.699123 
1819.000000	96.699763 
1818.000000	96.700726 
1817.000000	96.703060 
1816.000000	96.705205 
1815.000000	96.705495 
1814.000000	96.704864 
1813.000000	96.705336 
1812.000000	96.706428 
1811.000000	96.705283 
1810.000000	96.702021 
1809.000000	96.699546 
1808.000000	96.698606 
1807.000000	96.698346 
1806.000000	96.699417 
1805.000000	96.702559 
1804.000000	96.705365 
1803.000000	96.704634 
1802.000000	96.700136 
1801.000000	96.695348 
1800.000000	96.693062 
1799.000000	96.692551 
1798.000000	96.693040 
1797.000000	96.693779 
1796.000000	96.693128 
1795.000000	96.691164 
1794.000000	96.690049 
1793.000000	96.691035 
1792.000000	96.692014 
1791.000000	96.690818 
1790.000000	96.690072 
1789.000000	96.692802 
1788.000000	96.697978 
1787.000000	96.702513 
1786.000000	96.705305 
1785.000000	96.707268 
1784.000000	96.708435 
1783.000000	96.709159 
1782.000000	96.709865 
1781.000000	96.710817 
1780.000000	96.712735 
1779.000000	96.715849 
1778.000000	96.720516 
1777.000000	96.725529 
1776.000000	96.729010 
1775.000000	96.730421 
1774.000000	96.730190 
1773.000000	96.729711 
1772.000000	96.730961 
1771.000000	96.732980 
1770.000000	96.733867 
1769.000000	96.734215 
1768.000000	96.735282 
1767.000000	96.737173 
1766.000000	96.739225 
1765.000000	96.741692 
1764.000000	96.745065 
1763.000000	96.748302 
1762.000000	96.749587 
1761.000000	96.749570 
1760.000000	96.750165 
1759.000000	96.751653 
1758.000000	96.753009 
1757.000000	96.753261 
1756.000000	96.753836 
1755.000000	96.755453 
1754.000000	96.756350 
1753.000000	96.755066 
1752.000000	96.752807 
1751.000000	96.752520 
1750.000000	96.755173 
1749.000000	96.758747 
1748.000000	96.761403 
1747.000000	96.763523 
1746.000000	96.764929 
1745.000000	96.765498 
1744.000000	96.766188 
1743.000000	96.766928 
1742.000000	96.766690 
1741.000000	96.766051 
1740.000000	96.766640 
1739.000000	96.768393 
1738.000000	96.769500 
1737.000000	96.769624 
1736.000000	96.769891 
1735.000000	96.769808 
1734.000000	96.768438 
1733.000000	96.765841 
1732.000000	96.763927 
1731.000000	96.765672 
1730.000000	96.771235 
1729.000000	96.776478 
1728.000000	96.778628 
1727.000000	96.778983 
1726.000000	96.778986 
1725.000000	96.779053 
1724.000000	96.778851 
1723.000000	96.778177 
1722.000000	96.778098 
1721.000000	96.778762 
1720.000000	96.778829 
1719.000000	96.776176 
1718.000000	96.770913 
1717.000000	96.766483 
1716.000000	96.761874 
1715.000000	96.756267 
1714.000000	96.753720 
1713.000000	96.755107 
1712.000000	96.756070 
1711.000000	96.754795 
1710.000000	96.753144 
1709.000000	96.751754 
1708.000000	96.749418 
1707.000000	96.746146 
1706.000000	96.743691 
1705.000000	96.741846 
1704.000000	96.737117 
1703.000000	96.729031 
1702.000000	96.721120 
1701.000000	96.716476 
1700.000000	96.714021 
1699.000000	96.708740 
1698.000000	96.703279 
1697.000000	96.701373 
1696.000000	96.700940 
1695.000000	96.698621 
1694.000000	96.694554 
1693.000000	96.690590 
1692.000000	96.687008 
1691.000000	96.683075 
1690.000000	96.678461 
1689.000000	96.673341 
1688.000000	96.668369 
1687.000000	96.663966 
1686.000000	96.660246 
1685.000000	96.656857 
1684.000000	96.652565 
1683.000000	96.647168 
1682.000000	96.641775 
1681.000000	96.636742 
1680.000000	96.632592 
1679.000000	96.629264 
1678.000000	96.625853 
1677.000000	96.621611 
1676.000000	96.616830 
1675.000000	96.612365 
1674.000000	96.606587 
1673.000000	96.598587 
1672.000000	96.590840 
1671.000000	96.585976 
1670.000000	96.583576 
1669.000000	96.580346 
1668.000000	96.576279 
1667.000000	96.573787 
1666.000000	96.572062 
1665.000000	96.569787 
1664.000000	96.567304 
1663.000000	96.565817 
1662.000000	96.563526 
1661.000000	96.556391 
1660.000000	96.547135 
1659.000000	96.541912 
1658.000000	96.540509 
1657.000000	96.538751 
1656.000000	96.535676 
1655.000000	96.533531 
1654.000000	96.528866 
1653.000000	96.519723 
1652.000000	96.504758 
1651.000000	96.489464 
1650.000000	96.477679 
1649.000000	96.472742 
1648.000000	96.471623 
1647.000000	96.470849 
1646.000000	96.470426 
1645.000000	96.469638 
1644.000000	96.466634 
1643.000000	96.462997 
1642.000000	96.462230 
1641.000000	96.463378 
1640.000000	96.463821 
1639.000000	96.461527 
1638.000000	96.457607 
1637.000000	96.454212 
1636.000000	96.452417 
1635.000000	96.454356 
1634.000000	96.457236 
1633.000000	96.458057 
1632.000000	96.456344 
1631.000000	96.455783 
1630.000000	96.459395 
1629.000000	96.465384 
1628.000000	96.469554 
1627.000000	96.472368 
1626.000000	96.476053 
1625.000000	96.480389 
1624.000000	96.485342 
1623.000000	96.492689 
1622.000000	96.501207 
1621.000000	96.505536 
1620.000000	96.506520 
1619.000000	96.510016 
1618.000000	96.518894 
1617.000000	96.527212 
1616.000000	96.529161 
1615.000000	96.529313 
1614.000000	96.532618 
1613.000000	96.536825 
1612.000000	96.539191 
1611.000000	96.541947 
1610.000000	96.547730 
1609.000000	96.554975 
1608.000000	96.562845 
1607.000000	96.573463 
1606.000000	96.585044 
1605.000000	96.593128 
1604.000000	96.599201 
1603.000000	96.607044 
1602.000000	96.615792 
1601.000000	96.622146 
1600.000000	96.626592 
1599.000000	96.632230 
1598.000000	96.638739 
1597.000000	96.643855 
1596.000000	96.648159 
1595.000000	96.654478 
1594.000000	96.662973 
1593.000000	96.670427 
1592.000000	96.675570 
1591.000000	96.680722 
1590.000000	96.686960 
1589.000000	96.692146 
1588.000000	96.695910 
1587.000000	96.701069 
1586.000000	96.708173 
1585.000000	96.712702 
1584.000000	96.713916 
1583.000000	96.717172 
1582.000000	96.723829 
1581.000000	96.729507 
1580.000000	96.733058 
1579.000000	96.738429 
1578.000000	96.747384 
1577.000000	96.756930 
1576.000000	96.763442 
1575.000000	96.767101 
1574.000000	96.768038 
1573.000000	96.767446 
1572.000000	96.769991 
1571.000000	96.778189 
1570.000000	96.786137 
1569.000000	96.783709 
1568.000000	96.774861 
1567.000000	96.770960 
1566.000000	96.772909 
1565.000000	96.774494 
1564.000000	96.775075 
1563.000000	96.775686 
1562.000000	96.777306 
1561.000000	96.772751 
1560.000000	96.766943 
1559.000000	96.765691 
1558.000000	96.765235 
1557.000000	96.760427 
1556.000000	96.755129 
1555.000000	96.754358 
1554.000000	96.754742 
1553.000000	96.752517 
1552.000000	96.749319 
1551.000000	96.744199 
1550.000000	96.735592 
1549.000000	96.725798 
1548.000000	96.719306 
1547.000000	96.717500 
1546.000000	96.715342 
1545.000000	96.707217 
1544.000000	96.694482 
1543.000000	96.682791 
1542.000000	96.676454 
1541.000000	96.675929 
1540.000000	96.672084 
1539.000000	96.660962 
1538.000000	96.646593 
1537.000000	96.631871 
1536.000000	96.618734 
1535.000000	96.609601 
1534.000000	96.603734 
1533.000000	96.598230 
1532.000000	96.590630 
1531.000000	96.580611 
1530.000000	96.570580 
1529.000000	96.561768 
1528.000000	96.552154 
1527.000000	96.540589 
1526.000000	96.528262 
1525.000000	96.517243 
1524.000000	96.508757 
1523.000000	96.502408 
1522.000000	96.495970 
1521.000000	96.486190 
1520.000000	96.472062 
1519.000000	96.456257 
1518.000000	96.441338 
1517.000000	96.428048 
1516.000000	96.416187 
1515.000000	96.406065 
1514.000000	96.397880 
1513.000000	96.390925 
1512.000000	96.383104 
1511.000000	96.371850 
1510.000000	96.357780 
1509.000000	96.343286 
1508.000000	96.330917 
1507.000000	96.320258 
1506.000000	96.311228 
1505.000000	96.302270 
1504.000000	96.291809 
1503.000000	96.280172 
1502.000000	96.268287 
1501.000000	96.256777 
1500.000000	96.246090 
1499.000000	96.235359 
1498.000000	96.222919 
1497.000000	96.210025 
1496.000000	96.199203 
1495.000000	96.190630 
1494.000000	96.183491 
1493.000000	96.177666 
1492.000000	96.172628 
1491.000000	96.166594 
1490.000000	96.158056 
1489.000000	96.148208 
1488.000000	96.137495 
1487.000000	96.125007 
1486.000000	96.112525 
1485.000000	96.099993 
1484.000000	96.086693 
1483.000000	96.074398 
1482.000000	96.064463 
1481.000000	96.056507 
1480.000000	96.048388 
1479.000000	96.039317 
1478.000000	96.030039 
1477.000000	96.020544 
1476.000000	96.008278 
1475.000000	95.992231 
1474.000000	95.976230 
1473.000000	95.965526 
1472.000000	95.961332 
1471.000000	95.958475 
1470.000000	95.953821 
1469.000000	95.948289 
1468.000000	95.941580 
1467.000000	95.932159 
1466.000000	95.921113 
1465.000000	95.911565 
1464.000000	95.905118 
1463.000000	95.898027 
1462.000000	95.887603 
1461.000000	95.876727 
1460.000000	95.869405 
1459.000000	95.864426 
1458.000000	95.853167 
1457.000000	95.833727 
1456.000000	95.817905 
1455.000000	95.808897 
1454.000000	95.801047 
1453.000000	95.795193 
1452.000000	95.794746 
1451.000000	95.798543 
1450.000000	95.802869 
1449.000000	95.806931 
1448.000000	95.809719 
1447.000000	95.809000 
1446.000000	95.803963 
1445.000000	95.797986 
1444.000000	95.795979 
1443.000000	95.795931 
1442.000000	95.793487 
1441.000000	95.788773 
1440.000000	95.785635 
1439.000000	95.783870 
1438.000000	95.779568 
1437.000000	95.773642 
1436.000000	95.771742 
1435.000000	95.771861 
1434.000000	95.769575 
1433.000000	95.767764 
1432.000000	95.770522 
1431.000000	95.777129 
1430.000000	95.783217 
1429.000000	95.787876 
1428.000000	95.791823 
1427.000000	95.795234 
1426.000000	95.797982 
1425.000000	95.801082 
1424.000000	95.808279 
1423.000000	95.817032 
1422.000000	95.821853 
1421.000000	95.824363 
1420.000000	95.831359 
1419.000000	95.839876 
1418.000000	95.839511 
1417.000000	95.835268 
1416.000000	95.840413 
1415.000000	95.855543 
1414.000000	95.870026 
1413.000000	95.876920 
1412.000000	95.880636 
1411.000000	95.886477 
1410.000000	95.892976 
1409.000000	95.899455 
1408.000000	95.907955 
1407.000000	95.918756 
1406.000000	95.929228 
1405.000000	95.938958 
1404.000000	95.952770 
1403.000000	95.970003 
1402.000000	95.984665 
1401.000000	95.996510 
1400.000000	96.011244 
1399.000000	96.030687 
1398.000000	96.048727 
1397.000000	96.061578 
1396.000000	96.072847 
1395.000000	96.087452 
1394.000000	96.104163 
1393.000000	96.120526 
1392.000000	96.139651 
1391.000000	96.162834 
1390.000000	96.185974 
1389.000000	96.204443 
1388.000000	96.216884 
1387.000000	96.225054 
1386.000000	96.231993 
1385.000000	96.241431 
1384.000000	96.256768 
1383.000000	96.276794 
1382.000000	96.296076 
1381.000000	96.310882 
1380.000000	96.321766 
1379.000000	96.331962 
1378.000000	96.344140 
1377.000000	96.358726 
1376.000000	96.374121 
1375.000000	96.388159 
1374.000000	96.399486 
1373.000000	96.409720 
1372.000000	96.421817 
1371.000000	96.437127 
1370.000000	96.453927 
1369.000000	96.468537 
1368.000000	96.480563 
1367.000000	96.492340 
1366.000000	96.505314 
1365.000000	96.519317 
1364.000000	96.532237 
1363.000000	96.541000 
1362.000000	96.545513 
1361.000000	96.550008 
1360.000000	96.558813 
1359.000000	96.572795 
1358.000000	96.589312 
1357.000000	96.604779 
1356.000000	96.617470 
1355.000000	96.627607 
1354.000000	96.636011 
1353.000000	96.644642 
1352.000000	96.654280 
1351.000000	96.664878 
1350.000000	96.675998 
1349.000000	96.685260 
1348.000000	96.691242 
1347.000000	96.695118 
1346.000000	96.699648 
1345.000000	96.706747 
1344.000000	96.716233 
1343.000000	96.726624 
1342.000000	96.736173 
1341.000000	96.743020 
1340.000000	96.745817 
1339.000000	96.745279 
1338.000000	96.743862 
1337.000000	96.744097 
1336.000000	96.747075 
1335.000000	96.751742 
1334.000000	96.756180 
1333.000000	96.759679 
1332.000000	96.762704 
1331.000000	96.765803 
1330.000000	96.768834 
1329.000000	96.771640 
1328.000000	96.774601 
1327.000000	96.778467 
1326.000000	96.782600 
1325.000000	96.784377 
1324.000000	96.782505 
1323.000000	96.778149 
1322.000000	96.773212 
1321.000000	96.769116 
1320.000000	96.766954 
1319.000000	96.767160 
1318.000000	96.769094 
1317.000000	96.771977 
1316.000000	96.775214 
1315.000000	96.777284 
1314.000000	96.776122 
1313.000000	96.772309 
1312.000000	96.769647 
1311.000000	96.770695 
1310.000000	96.773337 
1309.000000	96.774239 
1308.000000	96.773446 
1307.000000	96.773933 
1306.000000	96.777192 
1305.000000	96.781509 
1304.000000	96.785086 
1303.000000	96.787225 
1302.000000	96.787195 
1301.000000	96.784498 
1300.000000	96.780509 
1299.000000	96.777697 
1298.000000	96.776951 
1297.000000	96.777025 
1296.000000	96.776592 
1295.000000	96.775831 
1294.000000	96.775629 
1293.000000	96.776591 
1292.000000	96.778699 
1291.000000	96.780953 
1290.000000	96.782007 
1289.000000	96.781767 
1288.000000	96.781376 
1287.000000	96.780989 
1286.000000	96.779014 
1285.000000	96.775022 
1284.000000	96.771711 
1283.000000	96.771511 
1282.000000	96.772737 
1281.000000	96.771487 
1280.000000	96.766989 
1279.000000	96.762723 
1278.000000	96.762235 
1277.000000	96.765927 
1276.000000	96.771765 
1275.000000	96.777345 
1274.000000	96.780870 
1273.000000	96.781920 
1272.000000	96.781809 
1271.000000	96.781991 
1270.000000	96.782210 
1269.000000	96.781340 
1268.000000	96.779664 
1267.000000	96.778267 
1266.000000	96.776734 
1265.000000	96.774197 
1264.000000	96.771992 
1263.000000	96.772285 
1262.000000	96.774452 
1261.000000	96.775553 
1260.000000	96.775105 
1259.000000	96.776380 
1258.000000	96.781388 
1257.000000	96.787269 
1256.000000	96.789349 
1255.000000	96.786583 
1254.000000	96.782736 
1253.000000	96.782040 
1252.000000	96.784263 
1251.000000	96.784792 
1250.000000	96.780113 
1249.000000	96.772527 
1248.000000	96.768059 
1247.000000	96.769261 
1246.000000	96.772172 
1245.000000	96.771912 
1244.000000	96.768662 
1243.000000	96.765910 
1242.000000	96.765095 
1241.000000	96.764897 
1240.000000	96.764187 
1239.000000	96.762388 
1238.000000	96.757938 
1237.000000	96.749630 
1236.000000	96.739187 
1235.000000	96.729835 
1234.000000	96.722419 
1233.000000	96.715059 
1232.000000	96.706080 
1231.000000	96.694818 
1230.000000	96.680341 
1229.000000	96.662230 
1228.000000	96.641966 
1227.000000	96.620810 
1226.000000	96.596648 
1225.000000	96.565596 
1224.000000	96.526668 
1223.000000	96.482458 
1222.000000	96.435400 
1221.000000	96.385797 
1220.000000	96.333607 
1219.000000	96.279403 
1218.000000	96.222971 
1217.000000	96.163223 
1216.000000	96.099685 
1215.000000	96.032225 
1214.000000	95.960049 
1213.000000	95.883827 
1212.000000	95.807786 
1211.000000	95.735625 
1210.000000	95.664579 
1209.000000	95.587947 
1208.000000	95.503967 
1207.000000	95.417967 
1206.000000	95.334808 
1205.000000	95.253210 
1204.000000	95.169221 
1203.000000	95.081797 
1202.000000	94.993096 
1201.000000	94.905704 
1200.000000	94.821096 
1199.000000	94.738760 
1198.000000	94.655811 
1197.000000	94.569654 
1196.000000	94.481224 
1195.000000	94.393405 
1194.000000	94.306595 
1193.000000	94.218474 
1192.000000	94.127850 
1191.000000	94.035404 
1190.000000	93.940733 
1189.000000	93.842098 
1188.000000	93.739297 
1187.000000	93.633720 
1186.000000	93.525696 
1185.000000	93.414912 
1184.000000	93.302740 
1183.000000	93.190522 
1182.000000	93.076341 
1181.000000	92.957389 
1180.000000	92.834636 
1179.000000	92.710696 
1178.000000	92.583870 
1177.000000	92.449584 
1176.000000	92.307362 
1175.000000	92.161221 
1174.000000	92.013533 
1173.000000	91.864084 
1172.000000	91.714988 
1171.000000	91.569827 
1170.000000	91.427405 
1169.000000	91.283389 
1168.000000	91.139603 
1167.000000	91.005584 
1166.000000	90.890442 
1165.000000	90.800316 
1164.000000	90.743940 
1163.000000	90.730930 
1162.000000	90.760440 
1161.000000	90.817174 
1160.000000	90.880631 
1159.000000	90.933199 
1158.000000	90.959834 
1157.000000	90.949194 
1156.000000	90.899194 
1155.000000	90.817051 
1154.000000	90.712176 
1153.000000	90.592723 
1152.000000	90.468185 
1151.000000	90.347551 
1150.000000	90.232420 
1149.000000	90.118173 
1148.000000	90.003606 
1147.000000	89.892738 
1146.000000	89.785915 
1145.000000	89.677046 
1144.000000	89.562480 
1143.000000	89.445669 
1142.000000	89.330362 
1141.000000	89.215843 
1140.000000	89.101444 
1139.000000	88.988945 
1138.000000	88.877894 
1137.000000	88.764971 
1136.000000	88.650096 
1135.000000	88.536684 
1134.000000	88.424368 
1133.000000	88.308609 
1132.000000	88.188974 
1131.000000	88.070169 
1130.000000	87.953288 
1129.000000	87.834155 
1128.000000	87.712128 
1127.000000	87.592030 
1126.000000	87.474905 
1125.000000	87.355295 
1124.000000	87.230394 
1123.000000	87.103931 
1122.000000	86.978465 
1121.000000	86.852054 
1120.000000	86.725024 
1119.000000	86.601339 
1118.000000	86.480829 
1117.000000	86.359209 
1116.000000	86.238039 
1115.000000	86.125026 
1114.000000	86.021877 
1113.000000	85.921727 
1112.000000	85.820784 
1111.000000	85.721962 
1110.000000	85.624831 
1109.000000	85.523772 
1108.000000	85.418510 
1107.000000	85.314972 
1106.000000	85.213897 
1105.000000	85.109762 
1104.000000	85.002357 
1103.000000	84.897888 
1102.000000	84.796087 
1101.000000	84.690135 
1100.000000	84.580008 
1099.000000	84.474316 
1098.000000	84.377298 
1097.000000	84.284343 
1096.000000	84.192955 
1095.000000	84.104891 
1094.000000	84.016871 
1093.000000	83.922832 
1092.000000	83.827350 
1091.000000	83.743118 
1090.000000	83.673130 
1089.000000	83.608450 
1088.000000	83.544173 
1087.000000	83.482929 
1086.000000	83.422206 
1085.000000	83.354779 
1084.000000	83.283828 
1083.000000	83.221354 
1082.000000	83.168638 
1081.000000	83.113999 
1080.000000	83.052657 
1079.000000	82.992456 
1078.000000	82.936514 
1077.000000	82.876259 
1076.000000	82.805602 
1075.000000	82.726210 
1074.000000	82.635210 
1073.000000	82.523507 
1072.000000	82.389991 
1071.000000	82.242109 
1070.000000	82.078916 
1069.000000	81.889243 
1068.000000	81.670701 
1067.000000	81.435319 
1066.000000	81.192880 
1065.000000	80.944209 
1064.000000	80.694350 
1063.000000	80.454121 
1062.000000	80.222427 
1061.000000	79.984388 
1060.000000	79.733820 
1059.000000	79.481843 
1058.000000	79.237712 
1057.000000	78.997207 
1056.000000	78.755581 
1055.000000	78.515293 
1054.000000	78.274754 
1053.000000	78.025753 
1052.000000	77.768853 
1051.000000	77.515126 
1050.000000	77.266103 
1049.000000	77.010197 
1048.000000	76.744530 
1047.000000	76.480057 
1046.000000	76.220997 
1045.000000	75.959614 
1044.000000	75.694247 
1043.000000	75.432828 
1042.000000	75.175724 
1041.000000	74.914538 
1040.000000	74.651443 
1039.000000	74.400323 
1038.000000	74.165073 
1037.000000	73.936498 
1036.000000	73.713928 
1035.000000	73.509341 
1034.000000	73.326539 
1033.000000	73.157098 
1032.000000	72.999925 
1031.000000	72.863185 
1030.000000	72.743942 
1029.000000	72.628578 
1028.000000	72.517012 
1027.000000	72.423720 
1026.000000	72.351049 
1025.000000	72.284403 
1024.000000	72.217231 
1023.000000	72.157250 
1022.000000	72.104078 
1021.000000	72.044874 
1020.000000	71.976894 
1019.000000	71.911380 
1018.000000	71.851030 
1017.000000	71.786609 
1016.000000	71.719084 
1015.000000	71.661185 
1014.000000	71.613203 
1013.000000	71.561328 
1012.000000	71.503929 
1011.000000	71.455357 
1010.000000	71.419958 
1009.000000	71.387102 
1008.000000	71.356092 
1007.000000	71.340902 
1006.000000	71.345306 
1005.000000	71.357815 
1004.000000	71.375503 
1003.000000	71.407789 
1002.000000	71.452093 
1001.000000	71.492046 
1000.000000	71.526202 
999.000000	 71.573062 
998.000000	 71.640503 
997.000000	 71.714573 
996.000000	 71.785440 
995.000000	 71.860953 
994.000000	 71.947124 
993.000000	 72.037987 
992.000000	 72.131718 
991.000000	 72.234917 
990.000000	 72.344850 
989.000000	 72.449301 
988.000000	 72.549672 
987.000000	 72.662535 
986.000000	 72.793704 
985.000000	 72.933097 
984.000000	 73.079062 
983.000000	 73.243662 
982.000000	 73.428090 
981.000000	 73.616804 
980.000000	 73.802921 
979.000000	 73.996861 
978.000000	 74.203137 
977.000000	 74.411594 
976.000000	 74.619014 
975.000000	 74.837355 
974.000000	 75.072275 
973.000000	 75.313911 
972.000000	 75.556369 
971.000000	 75.806668 
970.000000	 76.066906 
969.000000	 76.326505 
968.000000	 76.579415 
967.000000	 76.831638 
966.000000	 77.085935 
965.000000	 77.336646 
964.000000	 77.584702 
963.000000	 77.839646 
962.000000	 78.101198 
961.000000	 78.356290 
960.000000	 78.599642 
959.000000	 78.840132 
958.000000	 79.081915 
957.000000	 79.316483 
956.000000	 79.538972 
955.000000	 79.755885 
954.000000	 79.971236 
953.000000	 80.180201 
952.000000	 80.381090 
951.000000	 80.578559 
950.000000	 80.771346 
949.000000	 80.951900 
948.000000	 81.121024 
947.000000	 81.287324 
946.000000	 81.449800 
945.000000	 81.597488 
944.000000	 81.729258 
943.000000	 81.857398 
942.000000	 81.988168 
941.000000	 82.115413 
940.000000	 82.237368 
939.000000	 82.362393 
938.000000	 82.493060 
937.000000	 82.621068 
936.000000	 82.743532 
935.000000	 82.868806 
934.000000	 83.000982 
933.000000	 83.133717 
932.000000	 83.264353 
931.000000	 83.399052 
930.000000	 83.538797 
929.000000	 83.674911 
928.000000	 83.803773 
927.000000	 83.932149 
926.000000	 84.062899 
925.000000	 84.188405 
924.000000	 84.302634 
923.000000	 84.407607 
922.000000	 84.505019 
921.000000	 84.594218 
920.000000	 84.680775 
919.000000	 84.773280 
918.000000	 84.868644 
917.000000	 84.954260 
916.000000	 85.028102 
915.000000	 85.103893 
914.000000	 85.193920 
913.000000	 85.299974 
912.000000	 85.422740 
911.000000	 85.565392 
910.000000	 85.725098 
909.000000	 85.895265 
908.000000	 86.078641 
907.000000	 86.284288 
906.000000	 86.510517 
905.000000	 86.745262 
904.000000	 86.983793 
903.000000	 87.230453 
902.000000	 87.482573 
901.000000	 87.729779 
900.000000	 87.971072 
899.000000	 88.216180 
898.000000	 88.467220 
897.000000	 88.713827 
896.000000	 88.948513 
895.000000	 89.172187 
894.000000	 89.383295 
893.000000	 89.577048 
892.000000	 89.757834 
891.000000	 89.937566 
890.000000	 90.118004 
889.000000	 90.287320 
888.000000	 90.436264 
887.000000	 90.565397 
886.000000	 90.676421 
885.000000	 90.770425 
884.000000	 90.855132 
883.000000	 90.938910 
882.000000	 91.016990 
881.000000	 91.080177 
880.000000	 91.138187 
879.000000	 91.215408 
878.000000	 91.320010 
877.000000	 91.436606 
876.000000	 91.553991 
875.000000	 91.680234 
874.000000	 91.824684 
873.000000	 91.985678 
872.000000	 92.163344 
871.000000	 92.364550 
870.000000	 92.585614 
869.000000	 92.806623 
868.000000	 93.011765 
867.000000	 93.202165 
866.000000	 93.383550 
865.000000	 93.556173 
864.000000	 93.723361 
863.000000	 93.895456 
862.000000	 94.076132 
861.000000	 94.255639 
860.000000	 94.424903 
859.000000	 94.586218 
858.000000	 94.744184 
857.000000	 94.896494 
856.000000	 95.039809 
855.000000	 95.174902 
854.000000	 95.299961 
853.000000	 95.408145 
852.000000	 95.498101 
851.000000	 95.579360 
850.000000	 95.662461 
849.000000	 95.750440 
848.000000	 95.842063 
847.000000	 95.933991 
846.000000	 96.017444 
845.000000	 96.083502 
844.000000	 96.135173 
843.000000	 96.184492 
842.000000	 96.234931 
841.000000	 96.276959 
840.000000	 96.303282 
839.000000	 96.316671 
838.000000	 96.319972 
837.000000	 96.311651 
836.000000	 96.296671 
835.000000	 96.289267 
834.000000	 96.296861 
833.000000	 96.310948 
832.000000	 96.321062 
831.000000	 96.328551 
830.000000	 96.340068 
829.000000	 96.357426 
828.000000	 96.382330 
827.000000	 96.422023 
826.000000	 96.480056 
825.000000	 96.547990 
824.000000	 96.614312 
823.000000	 96.674611 
822.000000	 96.727293 
821.000000	 96.768510 
820.000000	 96.797052 
819.000000	 96.815397 
818.000000	 96.821042 
817.000000	 96.804147 
816.000000	 96.757418 
815.000000	 96.681674 
814.000000	 96.578218 
813.000000	 96.441509 
812.000000	 96.261823 
811.000000	 96.028341 
810.000000	 95.726810 
809.000000	 95.342273 
808.000000	 94.870205 
807.000000	 94.322002 
806.000000	 93.718474 
805.000000	 93.084145 
804.000000	 92.448798 
803.000000	 91.843323 
802.000000	 91.288354 
801.000000	 90.796251 
800.000000	 90.386274 
799.000000	 90.083030 
798.000000	 89.894622 
797.000000	 89.805744 
796.000000	 89.795209 
795.000000	 89.844952 
794.000000	 89.931117 
793.000000	 90.026945 
792.000000	 90.120296 
791.000000	 90.211932 
790.000000	 90.293040 
789.000000	 90.341434 
788.000000	 90.343208 
787.000000	 90.300516 
786.000000	 90.213679 
785.000000	 90.072979 
784.000000	 89.874888 
783.000000	 89.632403 
782.000000	 89.365546 
781.000000	 89.097698 
780.000000	 88.863974 
779.000000	 88.702102 
778.000000	 88.625690 
777.000000	 88.622167 
776.000000	 88.681218 
775.000000	 88.804899 
774.000000	 88.983974 
773.000000	 89.187709 
772.000000	 89.388890 
771.000000	 89.581935 
770.000000	 89.768176 
769.000000	 89.941453 
768.000000	 90.097098 
767.000000	 90.237950 
766.000000	 90.362447 
765.000000	 90.463016 
764.000000	 90.544863 
763.000000	 90.629675 
762.000000	 90.730899 
761.000000	 90.840516 
760.000000	 90.948954 
759.000000	 91.061451 
758.000000	 91.184352 
757.000000	 91.311785 
756.000000	 91.438572 
755.000000	 91.572057 
754.000000	 91.717232 
753.000000	 91.860923 
752.000000	 91.983638 
751.000000	 92.080064 
750.000000	 92.160264 
749.000000	 92.239261 
748.000000	 92.331264 
747.000000	 92.442900 
746.000000	 92.564154 
745.000000	 92.675848 
744.000000	 92.773290 
743.000000	 92.873067 
742.000000	 92.990708 
741.000000	 93.122909 
740.000000	 93.258443 
739.000000	 93.394373 
738.000000	 93.532061 
737.000000	 93.666170 
736.000000	 93.787070 
735.000000	 93.889618 
734.000000	 93.974794 
733.000000	 94.047909 
732.000000	 94.116865 
731.000000	 94.185236 
730.000000	 94.245905 
729.000000	 94.288932 
728.000000	 94.316902 
727.000000	 94.343609 
726.000000	 94.378761 
725.000000	 94.425552 
724.000000	 94.489252 
723.000000	 94.572280 
722.000000	 94.661750 
721.000000	 94.739148 
720.000000	 94.804919 
719.000000	 94.875606 
718.000000	 94.954310 
717.000000	 95.025287 
716.000000	 95.079876 
715.000000	 95.127003 
714.000000	 95.173889 
713.000000	 95.216448 
712.000000	 95.257572 
711.000000	 95.314665 
710.000000	 95.396644 
709.000000	 95.488433 
708.000000	 95.569704 
707.000000	 95.634490 
706.000000	 95.680741 
705.000000	 95.697978 
704.000000	 95.678257 
703.000000	 95.624374 
702.000000	 95.534657 
701.000000	 95.390218 
700.000000	 95.170007 
699.000000	 94.874011 
698.000000	 94.526189 
697.000000	 94.169562 
696.000000	 93.864563 
695.000000	 93.670975 
694.000000	 93.615507 
693.000000	 93.679499 
692.000000	 93.822495 
691.000000	 94.010439 
690.000000	 94.217257 
689.000000	 94.418160 
688.000000	 94.596065 
687.000000	 94.747233 
686.000000	 94.874430 
685.000000	 94.982355 
684.000000	 95.082861 
683.000000	 95.190584 
682.000000	 95.305934 
681.000000	 95.415169 
680.000000	 95.510766 
679.000000	 95.600515 
678.000000	 95.689381 
677.000000	 95.773160 
676.000000	 95.857996 
675.000000	 95.955417 
674.000000	 96.056157 
673.000000	 96.135754 
672.000000	 96.192240 
671.000000	 96.259415 
670.000000	 96.375837 
669.000000	 96.526168 
668.000000	 96.613103 
667.000000	 96.605731 
666.000000	 96.579399 
665.000000	 96.560828 
664.000000	 96.552587 
663.000000	 96.567784 
662.000000	 96.620223 
661.000000	 96.691216 
660.000000	 96.761881 
659.000000	 96.834769 
658.000000	 96.907031 
657.000000	 96.948321 
656.000000	 96.938606 
655.000000	 96.891819 
654.000000	 96.828700 
653.000000	 96.753562 
652.000000	 96.680921 
651.000000	 96.653199 
650.000000	 96.692883 

