4000.000000	97.330716 
3999.000000	97.329557 
3998.000000	97.327294 
3997.000000	97.324936 
3996.000000	97.323304 
3995.000000	97.322559 
3994.000000	97.322560 
3993.000000	97.323001 
3992.000000	97.323438 
3991.000000	97.323628 
3990.000000	97.323740 
3989.000000	97.324019 
3988.000000	97.324309 
3987.000000	97.324259 
3986.000000	97.323984 
3985.000000	97.324091 
3984.000000	97.324793 
3983.000000	97.325515 
3982.000000	97.325708 
3981.000000	97.325591 
3980.000000	97.325620 
3979.000000	97.325509 
3978.000000	97.324592 
3977.000000	97.323035 
3976.000000	97.321868 
3975.000000	97.321654 
3974.000000	97.321747 
3973.000000	97.321166 
3972.000000	97.319665 
3971.000000	97.317709 
3970.000000	97.316041 
3969.000000	97.315282 
3968.000000	97.315624 
3967.000000	97.316630 
3966.000000	97.317484 
3965.000000	97.317549 
3964.000000	97.316654 
3963.000000	97.315082 
3962.000000	97.313467 
3961.000000	97.312588 
3960.000000	97.312677 
3959.000000	97.313026 
3958.000000	97.312931 
3957.000000	97.312448 
3956.000000	97.311971 
3955.000000	97.311304 
3954.000000	97.309814 
3953.000000	97.307335 
3952.000000	97.304418 
3951.000000	97.301980 
3950.000000	97.300615 
3949.000000	97.300194 
3948.000000	97.300042 
3947.000000	97.299667 
3946.000000	97.299047 
3945.000000	97.298228 
3944.000000	97.297243 
3943.000000	97.296567 
3942.000000	97.297050 
3941.000000	97.299125 
3940.000000	97.301897 
3939.000000	97.303334 
3938.000000	97.302528 
3937.000000	97.300470 
3936.000000	97.298528 
3935.000000	97.296690 
3934.000000	97.294408 
3933.000000	97.292622 
3932.000000	97.292719 
3931.000000	97.294186 
3930.000000	97.294917 
3929.000000	97.293997 
3928.000000	97.292965 
3927.000000	97.293112 
3926.000000	97.293465 
3925.000000	97.292738 
3924.000000	97.291646 
3923.000000	97.291300 
3922.000000	97.290765 
3921.000000	97.288902 
3920.000000	97.286972 
3919.000000	97.286892 
3918.000000	97.288336 
3917.000000	97.289472 
3916.000000	97.289745 
3915.000000	97.289951 
3914.000000	97.290244 
3913.000000	97.289890 
3912.000000	97.288878 
3911.000000	97.287576 
3910.000000	97.286346 
3909.000000	97.285247 
3908.000000	97.284367 
3907.000000	97.283768 
3906.000000	97.283376 
3905.000000	97.283078 
3904.000000	97.282796 
3903.000000	97.282545 
3902.000000	97.282375 
3901.000000	97.282269 
3900.000000	97.282193 
3899.000000	97.282121 
3898.000000	97.282037 
3897.000000	97.281938 
3896.000000	97.281826 
3895.000000	97.281687 
3894.000000	97.281503 
3893.000000	97.281275 
3892.000000	97.281016 
3891.000000	97.280738 
3890.000000	97.280462 
3889.000000	97.280216 
3888.000000	97.280003 
3887.000000	97.279810 
3886.000000	97.279631 
3885.000000	97.279475 
3884.000000	97.279353 
3883.000000	97.279257 
3882.000000	97.279166 
3881.000000	97.279077 
3880.000000	97.279012 
3879.000000	97.278990 
3878.000000	97.279008 
3877.000000	97.279036 
3876.000000	97.279054 
3875.000000	97.279065 
3874.000000	97.279101 
3873.000000	97.279187 
3872.000000	97.279324 
3871.000000	97.279492 
3870.000000	97.279687 
3869.000000	97.279938 
3868.000000	97.280266 
3867.000000	97.280650 
3866.000000	97.281044 
3865.000000	97.281441 
3864.000000	97.281858 
3863.000000	97.282286 
3862.000000	97.282681 
3861.000000	97.283022 
3860.000000	97.283326 
3859.000000	97.283614 
3858.000000	97.283894 
3857.000000	97.284177 
3856.000000	97.284502 
3855.000000	97.284907 
3854.000000	97.285396 
3853.000000	97.285949 
3852.000000	97.286603 
3851.000000	97.287413 
3850.000000	97.288363 
3849.000000	97.289391 
3848.000000	97.290443 
3847.000000	97.291487 
3846.000000	97.292516 
3845.000000	97.293534 
3844.000000	97.294544 
3843.000000	97.295545 
3842.000000	97.296535 
3841.000000	97.297529 
3840.000000	97.298541 
3839.000000	97.299567 
3838.000000	97.300585 
3837.000000	97.301581 
3836.000000	97.302561 
3835.000000	97.303544 
3834.000000	97.304536 
3833.000000	97.305530 
3832.000000	97.306515 
3831.000000	97.307487 
3830.000000	97.308445 
3829.000000	97.309391 
3828.000000	97.310323 
3827.000000	97.311227 
3826.000000	97.312094 
3825.000000	97.312933 
3824.000000	97.313762 
3823.000000	97.314584 
3822.000000	97.315376 
3821.000000	97.316131 
3820.000000	97.316883 
3819.000000	97.317673 
3818.000000	97.318483 
3817.000000	97.319264 
3816.000000	97.319997 
3815.000000	97.320716 
3814.000000	97.321448 
3813.000000	97.322172 
3812.000000	97.322848 
3811.000000	97.323472 
3810.000000	97.324061 
3809.000000	97.324591 
3808.000000	97.325019 
3807.000000	97.325338 
3806.000000	97.325600 
3805.000000	97.325871 
3804.000000	97.326169 
3803.000000	97.326471 
3802.000000	97.326759 
3801.000000	97.327048 
3800.000000	97.327369 
3799.000000	97.327722 
3798.000000	97.328061 
3797.000000	97.328353 
3796.000000	97.328600 
3795.000000	97.328818 
3794.000000	97.329007 
3793.000000	97.329158 
3792.000000	97.329261 
3791.000000	97.329310 
3790.000000	97.329306 
3789.000000	97.329255 
3788.000000	97.329165 
3787.000000	97.329042 
3786.000000	97.328878 
3785.000000	97.328667 
3784.000000	97.328427 
3783.000000	97.328178 
3782.000000	97.327906 
3781.000000	97.327589 
3780.000000	97.327222 
3779.000000	97.326817 
3778.000000	97.326382 
3777.000000	97.325902 
3776.000000	97.325373 
3775.000000	97.324816 
3774.000000	97.324255 
3773.000000	97.323684 
3772.000000	97.323076 
3771.000000	97.322412 
3770.000000	97.321696 
3769.000000	97.320948 
3768.000000	97.320176 
3767.000000	97.319377 
3766.000000	97.318557 
3765.000000	97.317740 
3764.000000	97.316944 
3763.000000	97.316149 
3762.000000	97.315314 
3761.000000	97.314419 
3760.000000	97.313472 
3759.000000	97.312477 
3758.000000	97.311414 
3757.000000	97.310268 
3756.000000	97.309053 
3755.000000	97.307807 
3754.000000	97.306564 
3753.000000	97.305343 
3752.000000	97.304145 
3751.000000	97.302944 
3750.000000	97.301641 
3749.000000	97.299852 
3748.000000	97.297891 
3747.000000	97.296571 
3746.000000	97.295812 
3745.000000	97.294526 
3744.000000	97.291516 
3743.000000	97.288996 
3742.000000	97.290172 
3741.000000	97.291246 
3740.000000	97.287707 
3739.000000	97.281973 
3738.000000	97.278517 
3737.000000	97.277066 
3736.000000	97.275075 
3735.000000	97.274538 
3734.000000	97.277630 
3733.000000	97.278901 
3732.000000	97.272425 
3731.000000	97.263023 
3730.000000	97.259992 
3729.000000	97.262568 
3728.000000	97.262207 
3727.000000	97.256675 
3726.000000	97.252690 
3725.000000	97.255687 
3724.000000	97.260942 
3723.000000	97.260977 
3722.000000	97.255769 
3721.000000	97.249568 
3720.000000	97.244360 
3719.000000	97.237385 
3718.000000	97.226277 
3717.000000	97.214108 
3716.000000	97.205980 
3715.000000	97.201774 
3714.000000	97.198011 
3713.000000	97.196135 
3712.000000	97.197886 
3711.000000	97.196564 
3710.000000	97.185781 
3709.000000	97.166444 
3708.000000	97.142258 
3707.000000	97.117007 
3706.000000	97.094070 
3705.000000	97.074405 
3704.000000	97.055768 
3703.000000	97.035383 
3702.000000	97.011338 
3701.000000	96.984427 
3700.000000	96.961202 
3699.000000	96.946188 
3698.000000	96.934261 
3697.000000	96.920549 
3696.000000	96.908691 
3695.000000	96.903282 
3694.000000	96.900210 
3693.000000	96.892790 
3692.000000	96.882989 
3691.000000	96.876984 
3690.000000	96.872635 
3689.000000	96.859431 
3688.000000	96.837992 
3687.000000	96.825543 
3686.000000	96.828505 
3685.000000	96.831843 
3684.000000	96.824686 
3683.000000	96.812555 
3682.000000	96.802191 
3681.000000	96.788967 
3680.000000	96.765882 
3679.000000	96.739532 
3678.000000	96.720514 
3677.000000	96.706713 
3676.000000	96.683519 
3675.000000	96.645749 
3674.000000	96.616700 
3673.000000	96.609290 
3672.000000	96.600924 
3671.000000	96.577417 
3670.000000	96.547525 
3669.000000	96.522003 
3668.000000	96.505400 
3667.000000	96.492188 
3666.000000	96.474923 
3665.000000	96.454551 
3664.000000	96.435489 
3663.000000	96.417262 
3662.000000	96.395385 
3661.000000	96.368026 
3660.000000	96.338955 
3659.000000	96.313385 
3658.000000	96.290399 
3657.000000	96.263051 
3656.000000	96.226676 
3655.000000	96.191788 
3654.000000	96.168716 
3653.000000	96.145883 
3652.000000	96.110731 
3651.000000	96.075437 
3650.000000	96.056030 
3649.000000	96.042775 
3648.000000	96.019429 
3647.000000	95.993158 
3646.000000	95.981374 
3645.000000	95.984954 
3644.000000	95.990149 
3643.000000	95.986011 
3642.000000	95.974256 
3641.000000	95.961551 
3640.000000	95.948337 
3639.000000	95.929086 
3638.000000	95.903067 
3637.000000	95.878045 
3636.000000	95.856227 
3635.000000	95.828415 
3634.000000	95.788871 
3633.000000	95.747926 
3632.000000	95.717815 
3631.000000	95.696874 
3630.000000	95.678481 
3629.000000	95.652133 
3628.000000	95.618669 
3627.000000	95.604967 
3626.000000	95.612048 
3625.000000	95.610223 
3624.000000	95.592064 
3623.000000	95.571362 
3622.000000	95.555269 
3621.000000	95.541147 
3620.000000	95.530291 
3619.000000	95.528786 
3618.000000	95.541755 
3617.000000	95.571786 
3616.000000	95.612254 
3615.000000	95.650864 
3614.000000	95.681850 
3613.000000	95.707738 
3612.000000	95.732860 
3611.000000	95.756912 
3610.000000	95.775490 
3609.000000	95.787864 
3608.000000	95.799048 
3607.000000	95.813436 
3606.000000	95.830342 
3605.000000	95.846316 
3604.000000	95.861762 
3603.000000	95.880844 
3602.000000	95.902474 
3601.000000	95.918800 
3600.000000	95.925605 
3599.000000	95.926729 
3598.000000	95.927629 
3597.000000	95.933451 
3596.000000	95.946429 
3595.000000	95.962807 
3594.000000	95.974668 
3593.000000	95.977592 
3592.000000	95.972600 
3591.000000	95.962283 
3590.000000	95.950408 
3589.000000	95.944312 
3588.000000	95.950223 
3587.000000	95.966298 
3586.000000	95.986940 
3585.000000	96.007082 
3584.000000	96.022247 
3583.000000	96.032218 
3582.000000	96.040383 
3581.000000	96.048233 
3580.000000	96.053865 
3579.000000	96.056020 
3578.000000	96.055873 
3577.000000	96.055823 
3576.000000	96.056948 
3575.000000	96.057719 
3574.000000	96.055715 
3573.000000	96.049346 
3572.000000	96.038563 
3571.000000	96.024577 
3570.000000	96.010109 
3569.000000	95.999964 
3568.000000	95.999615 
3567.000000	96.009789 
3566.000000	96.024906 
3565.000000	96.038182 
3564.000000	96.044860 
3563.000000	96.044381 
3562.000000	96.041029 
3561.000000	96.039898 
3560.000000	96.042262 
3559.000000	96.045561 
3558.000000	96.046791 
3557.000000	96.045160 
3556.000000	96.042437 
3555.000000	96.040786 
3554.000000	96.040717 
3553.000000	96.041090 
3552.000000	96.040695 
3551.000000	96.039253 
3550.000000	96.036760 
3549.000000	96.033304 
3548.000000	96.030479 
3547.000000	96.030760 
3546.000000	96.034350 
3545.000000	96.038798 
3544.000000	96.042112 
3543.000000	96.044328 
3542.000000	96.046094 
3541.000000	96.047373 
3540.000000	96.047938 
3539.000000	96.047837 
3538.000000	96.047314 
3537.000000	96.046724 
3536.000000	96.046399 
3535.000000	96.046437 
3534.000000	96.046580 
3533.000000	96.046642 
3532.000000	96.046866 
3531.000000	96.047673 
3530.000000	96.048916 
3529.000000	96.049667 
3528.000000	96.049078 
3527.000000	96.047356 
3526.000000	96.045639 
3525.000000	96.044982 
3524.000000	96.045802 
3523.000000	96.047942 
3522.000000	96.050809 
3521.000000	96.053444 
3520.000000	96.055147 
3519.000000	96.055951 
3518.000000	96.056309 
3517.000000	96.056443 
3516.000000	96.056063 
3515.000000	96.054927 
3514.000000	96.053505 
3513.000000	96.052692 
3512.000000	96.052831 
3511.000000	96.053424 
3510.000000	96.053746 
3509.000000	96.053550 
3508.000000	96.053101 
3507.000000	96.052567 
3506.000000	96.051588 
3505.000000	96.049773 
3504.000000	96.047438 
3503.000000	96.045570 
3502.000000	96.045068 
3501.000000	96.046135 
3500.000000	96.048173 
3499.000000	96.050110 
3498.000000	96.051034 
3497.000000	96.050670 
3496.000000	96.049376 
3495.000000	96.047752 
3494.000000	96.046266 
3493.000000	96.045197 
3492.000000	96.044569 
3491.000000	96.044085 
3490.000000	96.043320 
3489.000000	96.042105 
3488.000000	96.040633 
3487.000000	96.039151 
3486.000000	96.037698 
3485.000000	96.036241 
3484.000000	96.034832 
3483.000000	96.033458 
3482.000000	96.031965 
3481.000000	96.030438 
3480.000000	96.029347 
3479.000000	96.028963 
3478.000000	96.028740 
3477.000000	96.027664 
3476.000000	96.025262 
3475.000000	96.021979 
3474.000000	96.018767 
3473.000000	96.016362 
3472.000000	96.014794 
3471.000000	96.013410 
3470.000000	96.011439 
3469.000000	96.008699 
3468.000000	96.005770 
3467.000000	96.003453 
3466.000000	96.002087 
3465.000000	96.001314 
3464.000000	96.000329 
3463.000000	95.998415 
3462.000000	95.995424 
3461.000000	95.991923 
3460.000000	95.988765 
3459.000000	95.986243 
3458.000000	95.983808 
3457.000000	95.980777 
3456.000000	95.977239 
3455.000000	95.974155 
3454.000000	95.972262 
3453.000000	95.971259 
3452.000000	95.970275 
3451.000000	95.968853 
3450.000000	95.966999 
3449.000000	95.964586 
3448.000000	95.961392 
3447.000000	95.957657 
3446.000000	95.954083 
3445.000000	95.951108 
3444.000000	95.948566 
3443.000000	95.946190 
3442.000000	95.943894 
3441.000000	95.941360 
3440.000000	95.938009 
3439.000000	95.933657 
3438.000000	95.928929 
3437.000000	95.924714 
3436.000000	95.921555 
3435.000000	95.919907 
3434.000000	95.920097 
3433.000000	95.921524 
3432.000000	95.922524 
3431.000000	95.921824 
3430.000000	95.919773 
3429.000000	95.917661 
3428.000000	95.916020 
3427.000000	95.914094 
3426.000000	95.911271 
3425.000000	95.908439 
3424.000000	95.907189 
3423.000000	95.907751 
3422.000000	95.908472 
3421.000000	95.907741 
3420.000000	95.905794 
3419.000000	95.904062 
3418.000000	95.903285 
3417.000000	95.903066 
3416.000000	95.902892 
3415.000000	95.902592 
3414.000000	95.901765 
3413.000000	95.899712 
3412.000000	95.896360 
3411.000000	95.892758 
3410.000000	95.890324 
3409.000000	95.889857 
3408.000000	95.891261 
3407.000000	95.893585 
3406.000000	95.895409 
3405.000000	95.895781 
3404.000000	95.894826 
3403.000000	95.893228 
3402.000000	95.891376 
3401.000000	95.889479 
3400.000000	95.888104 
3399.000000	95.887830 
3398.000000	95.888435 
3397.000000	95.889080 
3396.000000	95.889333 
3395.000000	95.889565 
3394.000000	95.890323 
3393.000000	95.891740 
3392.000000	95.893584 
3391.000000	95.895474 
3390.000000	95.897075 
3389.000000	95.898400 
3388.000000	95.899938 
3387.000000	95.902191 
3386.000000	95.904975 
3385.000000	95.907378 
3384.000000	95.908457 
3383.000000	95.908080 
3382.000000	95.907242 
3381.000000	95.907492 
3380.000000	95.909529 
3379.000000	95.912365 
3378.000000	95.914366 
3377.000000	95.915285 
3376.000000	95.916486 
3375.000000	95.918827 
3374.000000	95.921203 
3373.000000	95.921879 
3372.000000	95.920778 
3371.000000	95.919707 
3370.000000	95.920418 
3369.000000	95.923150 
3368.000000	95.926980 
3367.000000	95.930786 
3366.000000	95.933762 
3365.000000	95.935583 
3364.000000	95.936581 
3363.000000	95.937598 
3362.000000	95.939319 
3361.000000	95.941805 
3360.000000	95.944737 
3359.000000	95.947849 
3358.000000	95.950985 
3357.000000	95.953988 
3356.000000	95.956736 
3355.000000	95.959273 
3354.000000	95.961840 
3353.000000	95.964775 
3352.000000	95.968300 
3351.000000	95.972249 
3350.000000	95.976052 
3349.000000	95.979127 
3348.000000	95.981406 
3347.000000	95.983391 
3346.000000	95.985642 
3345.000000	95.988302 
3344.000000	95.991053 
3343.000000	95.993462 
3342.000000	95.995383 
3341.000000	95.997081 
3340.000000	95.998954 
3339.000000	96.001117 
3338.000000	96.003397 
3337.000000	96.005684 
3336.000000	96.008106 
3335.000000	96.010812 
3334.000000	96.013709 
3333.000000	96.016523 
3332.000000	96.019072 
3331.000000	96.021378 
3330.000000	96.023551 
3329.000000	96.025697 
3328.000000	96.027917 
3327.000000	96.030306 
3326.000000	96.032887 
3325.000000	96.035580 
3324.000000	96.038239 
3323.000000	96.040756 
3322.000000	96.043145 
3321.000000	96.045509 
3320.000000	96.047943 
3319.000000	96.050457 
3318.000000	96.053000 
3317.000000	96.055510 
3316.000000	96.057952 
3315.000000	96.060326 
3314.000000	96.062649 
3313.000000	96.064955 
3312.000000	96.067292 
3311.000000	96.069702 
3310.000000	96.072216 
3309.000000	96.074820 
3308.000000	96.077434 
3307.000000	96.079913 
3306.000000	96.082153 
3305.000000	96.084200 
3304.000000	96.086267 
3303.000000	96.088572 
3302.000000	96.091169 
3301.000000	96.093944 
3300.000000	96.096707 
3299.000000	96.099294 
3298.000000	96.101622 
3297.000000	96.103743 
3296.000000	96.105895 
3295.000000	96.108359 
3294.000000	96.111258 
3293.000000	96.114516 
3292.000000	96.117936 
3291.000000	96.121301 
3290.000000	96.124434 
3289.000000	96.127267 
3288.000000	96.129889 
3287.000000	96.132456 
3286.000000	96.135017 
3285.000000	96.137500 
3284.000000	96.139864 
3283.000000	96.142190 
3282.000000	96.144619 
3281.000000	96.147205 
3280.000000	96.149857 
3279.000000	96.152423 
3278.000000	96.154898 
3277.000000	96.157462 
3276.000000	96.160245 
3275.000000	96.163088 
3274.000000	96.165732 
3273.000000	96.168236 
3272.000000	96.171007 
3271.000000	96.174347 
3270.000000	96.178128 
3269.000000	96.181885 
3268.000000	96.185189 
3267.000000	96.187919 
3266.000000	96.190294 
3265.000000	96.192790 
3264.000000	96.195791 
3263.000000	96.199238 
3262.000000	96.202694 
3261.000000	96.205817 
3260.000000	96.208654 
3259.000000	96.211406 
3258.000000	96.214119 
3257.000000	96.216778 
3256.000000	96.219537 
3255.000000	96.222588 
3254.000000	96.225828 
3253.000000	96.228975 
3252.000000	96.232033 
3251.000000	96.235344 
3250.000000	96.239078 
3249.000000	96.242888 
3248.000000	96.246245 
3247.000000	96.249020 
3246.000000	96.251589 
3245.000000	96.254402 
3244.000000	96.257533 
3243.000000	96.260685 
3242.000000	96.263584 
3241.000000	96.266260 
3240.000000	96.268973 
3239.000000	96.271992 
3238.000000	96.275541 
3237.000000	96.279787 
3236.000000	96.284691 
3235.000000	96.289836 
3234.000000	96.294565 
3233.000000	96.298442 
3232.000000	96.301485 
3231.000000	96.304030 
3230.000000	96.306464 
3229.000000	96.309082 
3228.000000	96.312113 
3227.000000	96.315706 
3226.000000	96.319861 
3225.000000	96.324374 
3224.000000	96.328863 
3223.000000	96.332973 
3222.000000	96.336663 
3221.000000	96.340309 
3220.000000	96.344323 
3219.000000	96.348626 
3218.000000	96.352689 
3217.000000	96.356166 
3216.000000	96.359278 
3215.000000	96.362571 
3214.000000	96.366342 
3213.000000	96.370348 
3212.000000	96.374044 
3211.000000	96.377092 
3210.000000	96.379693 
3209.000000	96.382465 
3208.000000	96.385850 
3207.000000	96.389644 
3206.000000	96.393211 
3205.000000	96.396255 
3204.000000	96.399289 
3203.000000	96.403153 
3202.000000	96.408139 
3201.000000	96.413614 
3200.000000	96.418467 
3199.000000	96.422110 
3198.000000	96.424912 
3197.000000	96.427755 
3196.000000	96.431066 
3195.000000	96.434489 
3194.000000	96.437583 
3193.000000	96.440556 
3192.000000	96.443976 
3191.000000	96.447936 
3190.000000	96.451901 
3189.000000	96.455444 
3188.000000	96.458758 
3187.000000	96.462333 
3186.000000	96.466486 
3185.000000	96.471241 
3184.000000	96.476337 
3183.000000	96.481406 
3182.000000	96.486266 
3181.000000	96.490918 
3180.000000	96.495229 
3179.000000	96.498867 
3178.000000	96.501819 
3177.000000	96.504767 
3176.000000	96.508540 
3175.000000	96.513232 
3174.000000	96.518205 
3173.000000	96.522858 
3172.000000	96.527103 
3171.000000	96.531065 
3170.000000	96.534733 
3169.000000	96.538078 
3168.000000	96.541221 
3167.000000	96.544324 
3166.000000	96.547474 
3165.000000	96.550739 
3164.000000	96.554163 
3163.000000	96.557658 
3162.000000	96.561036 
3161.000000	96.564197 
3160.000000	96.567240 
3159.000000	96.570384 
3158.000000	96.573790 
3157.000000	96.577447 
3156.000000	96.581151 
3155.000000	96.584667 
3154.000000	96.587947 
3153.000000	96.591169 
3152.000000	96.594524 
3151.000000	96.598010 
3150.000000	96.601465 
3149.000000	96.604764 
3148.000000	96.607920 
3147.000000	96.611034 
3146.000000	96.614211 
3145.000000	96.617488 
3144.000000	96.620814 
3143.000000	96.624060 
3142.000000	96.627127 
3141.000000	96.630023 
3140.000000	96.632880 
3139.000000	96.635847 
3138.000000	96.638970 
3137.000000	96.642183 
3136.000000	96.645358 
3135.000000	96.648399 
3134.000000	96.651299 
3133.000000	96.654135 
3132.000000	96.656979 
3131.000000	96.659810 
3130.000000	96.662589 
3129.000000	96.665412 
3128.000000	96.668487 
3127.000000	96.671921 
3126.000000	96.675601 
3125.000000	96.679264 
3124.000000	96.682671 
3123.000000	96.685699 
3122.000000	96.688362 
3121.000000	96.690854 
3120.000000	96.693462 
3119.000000	96.696306 
3118.000000	96.699247 
3117.000000	96.702128 
3116.000000	96.705031 
3115.000000	96.708151 
3114.000000	96.711473 
3113.000000	96.714753 
3112.000000	96.717839 
3111.000000	96.720892 
3110.000000	96.724197 
3109.000000	96.727825 
3108.000000	96.731565 
3107.000000	96.735162 
3106.000000	96.738468 
3105.000000	96.741347 
3104.000000	96.743628 
3103.000000	96.745276 
3102.000000	96.746615 
3101.000000	96.748202 
3100.000000	96.750330 
3099.000000	96.752831 
3098.000000	96.755490 
3097.000000	96.758479 
3096.000000	96.762037 
3095.000000	96.765797 
3094.000000	96.768896 
3093.000000	96.770908 
3092.000000	96.772354 
3091.000000	96.774057 
3090.000000	96.776262 
3089.000000	96.778578 
3088.000000	96.780512 
3087.000000	96.781977 
3086.000000	96.783462 
3085.000000	96.785654 
3084.000000	96.788612 
3083.000000	96.791425 
3082.000000	96.793051 
3081.000000	96.793493 
3080.000000	96.793893 
3079.000000	96.795253 
3078.000000	96.797573 
3077.000000	96.800550 
3076.000000	96.804302 
3075.000000	96.808642 
3074.000000	96.812306 
3073.000000	96.814087 
3072.000000	96.814337 
3071.000000	96.814335 
3070.000000	96.814485 
3069.000000	96.814398 
3068.000000	96.814453 
3067.000000	96.815741 
3066.000000	96.818312 
3065.000000	96.820791 
3064.000000	96.822052 
3063.000000	96.822132 
3062.000000	96.821449 
3061.000000	96.820376 
3060.000000	96.819820 
3059.000000	96.821059 
3058.000000	96.824552 
3057.000000	96.829504 
3056.000000	96.834423 
3055.000000	96.837484 
3054.000000	96.836936 
3053.000000	96.832722 
3052.000000	96.827878 
3051.000000	96.826632 
3050.000000	96.830278 
3049.000000	96.835812 
3048.000000	96.838949 
3047.000000	96.837696 
3046.000000	96.832818 
3045.000000	96.826461 
3044.000000	96.821269 
3043.000000	96.819812 
3042.000000	96.823355 
3041.000000	96.830486 
3040.000000	96.837246 
3039.000000	96.839488 
3038.000000	96.835727 
3037.000000	96.828049 
3036.000000	96.820100 
3035.000000	96.813878 
3034.000000	96.808939 
3033.000000	96.804454 
3032.000000	96.800614 
3031.000000	96.797590 
3030.000000	96.794599 
3029.000000	96.790973 
3028.000000	96.786929 
3027.000000	96.782222 
3026.000000	96.775261 
3025.000000	96.765149 
3024.000000	96.753826 
3023.000000	96.744384 
3022.000000	96.737568 
3021.000000	96.731731 
3020.000000	96.725842 
3019.000000	96.720393 
3018.000000	96.715189 
3017.000000	96.708354 
3016.000000	96.698396 
3015.000000	96.686034 
3014.000000	96.673648 
3013.000000	96.663823 
3012.000000	96.658092 
3011.000000	96.655547 
3010.000000	96.652643 
3009.000000	96.645894 
3008.000000	96.634907 
3007.000000	96.621808 
3006.000000	96.608085 
3005.000000	96.593700 
3004.000000	96.579197 
3003.000000	96.566480 
3002.000000	96.556835 
3001.000000	96.549705 
3000.000000	96.543846 
2999.000000	96.538073 
2998.000000	96.530706 
2997.000000	96.520277 
2996.000000	96.507597 
2995.000000	96.495469 
2994.000000	96.485149 
2993.000000	96.474382 
2992.000000	96.460154 
2991.000000	96.442617 
2990.000000	96.425437 
2989.000000	96.412924 
2988.000000	96.407486 
2987.000000	96.408951 
2986.000000	96.415180 
2985.000000	96.423429 
2984.000000	96.431606 
2983.000000	96.438495 
2982.000000	96.443386 
2981.000000	96.446228 
2980.000000	96.447740 
2979.000000	96.448147 
2978.000000	96.446149 
2977.000000	96.440640 
2976.000000	96.433487 
2975.000000	96.428867 
2974.000000	96.429275 
2973.000000	96.433578 
2972.000000	96.439279 
2971.000000	96.445196 
2970.000000	96.451275 
2969.000000	96.457477 
2968.000000	96.464169 
2967.000000	96.472373 
2966.000000	96.482303 
2965.000000	96.492404 
2964.000000	96.501030 
2963.000000	96.508463 
2962.000000	96.516166 
2961.000000	96.524620 
2960.000000	96.533046 
2959.000000	96.540986 
2958.000000	96.549092 
2957.000000	96.558145 
2956.000000	96.567786 
2955.000000	96.576360 
2954.000000	96.582175 
2953.000000	96.585448 
2952.000000	96.588887 
2951.000000	96.595388 
2950.000000	96.604676 
2949.000000	96.613138 
2948.000000	96.617512 
2947.000000	96.617762 
2946.000000	96.615961 
2945.000000	96.613700 
2944.000000	96.611681 
2943.000000	96.610820 
2942.000000	96.611823 
2941.000000	96.613710 
2940.000000	96.614375 
2939.000000	96.613145 
2938.000000	96.611753 
2937.000000	96.612198 
2936.000000	96.614265 
2935.000000	96.615671 
2934.000000	96.614246 
2933.000000	96.609571 
2932.000000	96.603087 
2931.000000	96.597354 
2930.000000	96.594975 
2929.000000	96.597235 
2928.000000	96.602964 
2927.000000	96.608810 
2926.000000	96.611569 
2925.000000	96.610939 
2924.000000	96.609676 
2923.000000	96.610498 
2922.000000	96.613025 
2921.000000	96.614488 
2920.000000	96.613487 
2919.000000	96.612058 
2918.000000	96.613306 
2917.000000	96.617479 
2916.000000	96.621338 
2915.000000	96.621658 
2914.000000	96.618820 
2913.000000	96.616389 
2912.000000	96.617277 
2911.000000	96.620866 
2910.000000	96.624008 
2909.000000	96.624538 
2908.000000	96.623265 
2907.000000	96.622482 
2906.000000	96.623122 
2905.000000	96.623746 
2904.000000	96.622218 
2903.000000	96.618368 
2902.000000	96.615009 
2901.000000	96.616155 
2900.000000	96.623820 
2899.000000	96.636409 
2898.000000	96.649922 
2897.000000	96.660958 
2896.000000	96.668417 
2895.000000	96.672722 
2894.000000	96.674903 
2893.000000	96.676831 
2892.000000	96.680893 
2891.000000	96.687967 
2890.000000	96.696162 
2889.000000	96.702769 
2888.000000	96.707215 
2887.000000	96.710889 
2886.000000	96.714466 
2885.000000	96.717244 
2884.000000	96.719531 
2883.000000	96.723681 
2882.000000	96.731403 
2881.000000	96.741243 
2880.000000	96.750227 
2879.000000	96.757579 
2878.000000	96.765178 
2877.000000	96.774354 
2876.000000	96.783806 
2875.000000	96.791317 
2874.000000	96.796481 
2873.000000	96.800809 
2872.000000	96.805626 
2871.000000	96.810780 
2870.000000	96.815456 
2869.000000	96.819517 
2868.000000	96.823636 
2867.000000	96.828431 
2866.000000	96.833920 
2865.000000	96.839820 
2864.000000	96.846109 
2863.000000	96.853203 
2862.000000	96.861677 
2861.000000	96.871705 
2860.000000	96.882533 
2859.000000	96.892682 
2858.000000	96.901185 
2857.000000	96.908673 
2856.000000	96.916703 
2855.000000	96.925688 
2854.000000	96.934119 
2853.000000	96.940341 
2852.000000	96.944559 
2851.000000	96.948549 
2850.000000	96.953889 
2849.000000	96.961041 
2848.000000	96.969662 
2847.000000	96.978819 
2846.000000	96.987102 
2845.000000	96.993639 
2844.000000	96.999203 
2843.000000	97.005505 
2842.000000	97.013113 
2841.000000	97.020681 
2840.000000	97.026471 
2839.000000	97.030104 
2838.000000	97.032634 
2837.000000	97.035466 
2836.000000	97.039527 
2835.000000	97.044998 
2834.000000	97.051406 
2833.000000	97.058151 
2832.000000	97.064982 
2831.000000	97.071621 
2830.000000	97.076974 
2829.000000	97.079458 
2828.000000	97.078588 
2827.000000	97.075988 
2826.000000	97.074481 
2825.000000	97.075980 
2824.000000	97.080231 
2823.000000	97.085270 
2822.000000	97.089006 
2821.000000	97.090707 
2820.000000	97.091183 
2819.000000	97.091584 
2818.000000	97.092238 
2817.000000	97.092963 
2816.000000	97.094113 
2815.000000	97.096488 
2814.000000	97.100037 
2813.000000	97.103274 
2812.000000	97.104496 
2811.000000	97.103408 
2810.000000	97.101456 
2809.000000	97.100758 
2808.000000	97.102712 
2807.000000	97.107286 
2806.000000	97.113200 
2805.000000	97.118780 
2804.000000	97.122888 
2803.000000	97.125212 
2802.000000	97.126122 
2801.000000	97.126559 
2800.000000	97.127674 
2799.000000	97.129915 
2798.000000	97.132443 
2797.000000	97.133938 
2796.000000	97.134061 
2795.000000	97.133735 
2794.000000	97.134036 
2793.000000	97.135200 
2792.000000	97.136886 
2791.000000	97.138837 
2790.000000	97.140907 
2789.000000	97.142798 
2788.000000	97.144212 
2787.000000	97.145215 
2786.000000	97.146208 
2785.000000	97.147557 
2784.000000	97.149300 
2783.000000	97.151209 
2782.000000	97.153032 
2781.000000	97.154708 
2780.000000	97.156355 
2779.000000	97.158073 
2778.000000	97.159803 
2777.000000	97.161404 
2776.000000	97.162832 
2775.000000	97.164202 
2774.000000	97.165629 
2773.000000	97.167041 
2772.000000	97.168263 
2771.000000	97.169273 
2770.000000	97.170335 
2769.000000	97.171804 
2768.000000	97.173795 
2767.000000	97.176028 
2766.000000	97.177995 
2765.000000	97.179368 
2764.000000	97.180257 
2763.000000	97.181053 
2762.000000	97.181988 
2761.000000	97.182972 
2760.000000	97.183882 
2759.000000	97.184831 
2758.000000	97.186006 
2757.000000	97.187284 
2756.000000	97.188265 
2755.000000	97.188755 
2754.000000	97.189063 
2753.000000	97.189708 
2752.000000	97.190851 
2751.000000	97.192224 
2750.000000	97.193547 
2749.000000	97.194834 
2748.000000	97.196133 
2747.000000	97.197180 
2746.000000	97.197614 
2745.000000	97.197459 
2744.000000	97.197235 
2743.000000	97.197458 
2742.000000	97.198177 
2741.000000	97.199134 
2740.000000	97.200122 
2739.000000	97.201121 
2738.000000	97.202074 
2737.000000	97.202840 
2736.000000	97.203411 
2735.000000	97.203986 
2734.000000	97.204762 
2733.000000	97.205711 
2732.000000	97.206646 
2731.000000	97.207449 
2730.000000	97.208176 
2729.000000	97.208958 
2728.000000	97.209827 
2727.000000	97.210680 
2726.000000	97.211397 
2725.000000	97.211981 
2724.000000	97.212542 
2723.000000	97.213163 
2722.000000	97.213838 
2721.000000	97.214530 
2720.000000	97.215232 
2719.000000	97.215960 
2718.000000	97.216717 
2717.000000	97.217487 
2716.000000	97.218250 
2715.000000	97.219002 
2714.000000	97.219759 
2713.000000	97.220537 
2712.000000	97.221337 
2711.000000	97.222139 
2710.000000	97.222917 
2709.000000	97.223664 
2708.000000	97.224397 
2707.000000	97.225158 
2706.000000	97.225983 
2705.000000	97.226891 
2704.000000	97.227869 
2703.000000	97.228862 
2702.000000	97.229786 
2701.000000	97.230603 
2700.000000	97.231409 
2699.000000	97.232382 
2698.000000	97.233605 
2697.000000	97.234916 
2696.000000	97.235983 
2695.000000	97.236635 
2694.000000	97.237040 
2693.000000	97.237545 
2692.000000	97.238277 
2691.000000	97.239091 
2690.000000	97.239851 
2689.000000	97.240589 
2688.000000	97.241322 
2687.000000	97.241901 
2686.000000	97.242266 
2685.000000	97.242684 
2684.000000	97.243484 
2683.000000	97.244623 
2682.000000	97.245721 
2681.000000	97.246551 
2680.000000	97.247248 
2679.000000	97.248003 
2678.000000	97.248834 
2677.000000	97.249755 
2676.000000	97.250833 
2675.000000	97.251857 
2674.000000	97.252306 
2673.000000	97.251978 
2672.000000	97.251395 
2671.000000	97.251210 
2670.000000	97.251414 
2669.000000	97.251614 
2668.000000	97.251849 
2667.000000	97.252578 
2666.000000	97.253805 
2665.000000	97.254774 
2664.000000	97.254856 
2663.000000	97.254308 
2662.000000	97.253879 
2661.000000	97.253835 
2660.000000	97.253742 
2659.000000	97.253138 
2658.000000	97.252116 
2657.000000	97.251208 
2656.000000	97.250849 
2655.000000	97.250948 
2654.000000	97.250934 
2653.000000	97.250298 
2652.000000	97.249146 
2651.000000	97.248177 
2650.000000	97.248034 
2649.000000	97.248775 
2648.000000	97.249947 
2647.000000	97.250962 
2646.000000	97.251357 
2645.000000	97.250880 
2644.000000	97.249617 
2643.000000	97.248105 
2642.000000	97.247051 
2641.000000	97.246776 
2640.000000	97.247046 
2639.000000	97.247419 
2638.000000	97.247662 
2637.000000	97.247784 
2636.000000	97.247845 
2635.000000	97.247930 
2634.000000	97.248200 
2633.000000	97.248734 
2632.000000	97.249342 
2631.000000	97.249665 
2630.000000	97.249554 
2629.000000	97.249226 
2628.000000	97.249017 
2627.000000	97.249032 
2626.000000	97.249132 
2625.000000	97.249199 
2624.000000	97.249259 
2623.000000	97.249349 
2622.000000	97.249406 
2621.000000	97.249311 
2620.000000	97.248988 
2619.000000	97.248452 
2618.000000	97.247859 
2617.000000	97.247502 
2616.000000	97.247619 
2615.000000	97.248169 
2614.000000	97.248827 
2613.000000	97.249283 
2612.000000	97.249512 
2611.000000	97.249716 
2610.000000	97.250086 
2609.000000	97.250644 
2608.000000	97.251231 
2607.000000	97.251610 
2606.000000	97.251666 
2605.000000	97.251506 
2604.000000	97.251339 
2603.000000	97.251280 
2602.000000	97.251349 
2601.000000	97.251587 
2600.000000	97.252042 
2599.000000	97.252625 
2598.000000	97.253129 
2597.000000	97.253457 
2596.000000	97.253680 
2595.000000	97.253871 
2594.000000	97.253955 
2593.000000	97.253862 
2592.000000	97.253775 
2591.000000	97.253997 
2590.000000	97.254530 
2589.000000	97.255034 
2588.000000	97.255299 
2587.000000	97.255519 
2586.000000	97.255957 
2585.000000	97.256603 
2584.000000	97.257337 
2583.000000	97.258157 
2582.000000	97.259043 
2581.000000	97.259738 
2580.000000	97.259965 
2579.000000	97.259810 
2578.000000	97.259705 
2577.000000	97.259967 
2576.000000	97.260444 
2575.000000	97.260721 
2574.000000	97.260630 
2573.000000	97.260505 
2572.000000	97.260814 
2571.000000	97.261576 
2570.000000	97.262264 
2569.000000	97.262441 
2568.000000	97.262331 
2567.000000	97.262499 
2566.000000	97.263057 
2565.000000	97.263538 
2564.000000	97.263584 
2563.000000	97.263425 
2562.000000	97.263495 
2561.000000	97.263966 
2560.000000	97.264881 
2559.000000	97.266362 
2558.000000	97.268285 
2557.000000	97.269977 
2556.000000	97.270794 
2555.000000	97.270873 
2554.000000	97.270957 
2553.000000	97.271348 
2552.000000	97.271517 
2551.000000	97.271051 
2550.000000	97.270399 
2549.000000	97.270258 
2548.000000	97.270507 
2547.000000	97.270392 
2546.000000	97.269696 
2545.000000	97.269118 
2544.000000	97.269261 
2543.000000	97.269772 
2542.000000	97.269892 
2541.000000	97.269598 
2540.000000	97.269614 
2539.000000	97.270312 
2538.000000	97.271184 
2537.000000	97.271616 
2536.000000	97.271811 
2535.000000	97.272493 
2534.000000	97.273833 
2533.000000	97.275061 
2532.000000	97.275318 
2531.000000	97.274537 
2530.000000	97.273339 
2529.000000	97.272385 
2528.000000	97.271859 
2527.000000	97.271671 
2526.000000	97.271794 
2525.000000	97.272270 
2524.000000	97.273008 
2523.000000	97.273758 
2522.000000	97.274320 
2521.000000	97.274681 
2520.000000	97.274929 
2519.000000	97.275134 
2518.000000	97.275323 
2517.000000	97.275486 
2516.000000	97.275541 
2515.000000	97.275401 
2514.000000	97.275168 
2513.000000	97.275177 
2512.000000	97.275678 
2511.000000	97.276580 
2510.000000	97.277587 
2509.000000	97.278498 
2508.000000	97.279266 
2507.000000	97.279844 
2506.000000	97.280204 
2505.000000	97.280478 
2504.000000	97.280901 
2503.000000	97.281539 
2502.000000	97.282233 
2501.000000	97.282799 
2500.000000	97.283231 
2499.000000	97.283638 
2498.000000	97.284088 
2497.000000	97.284563 
2496.000000	97.285050 
2495.000000	97.285559 
2494.000000	97.286075 
2493.000000	97.286553 
2492.000000	97.286982 
2491.000000	97.287412 
2490.000000	97.287892 
2489.000000	97.288413 
2488.000000	97.288914 
2487.000000	97.289355 
2486.000000	97.289754 
2485.000000	97.290171 
2484.000000	97.290637 
2483.000000	97.291127 
2482.000000	97.291580 
2481.000000	97.291965 
2480.000000	97.292311 
2479.000000	97.292674 
2478.000000	97.293058 
2477.000000	97.293429 
2476.000000	97.293784 
2475.000000	97.294147 
2474.000000	97.294492 
2473.000000	97.294762 
2472.000000	97.294960 
2471.000000	97.295120 
2470.000000	97.295220 
2469.000000	97.295239 
2468.000000	97.295259 
2467.000000	97.295377 
2466.000000	97.295541 
2465.000000	97.295583 
2464.000000	97.295482 
2463.000000	97.295469 
2462.000000	97.295813 
2461.000000	97.296604 
2460.000000	97.297682 
2459.000000	97.298717 
2458.000000	97.299338 
2457.000000	97.299297 
2456.000000	97.298601 
2455.000000	97.297552 
2454.000000	97.296659 
2453.000000	97.296331 
2452.000000	97.296600 
2451.000000	97.297113 
2450.000000	97.297530 
2449.000000	97.297918 
2448.000000	97.298552 
2447.000000	97.299400 
2446.000000	97.300079 
2445.000000	97.300370 
2444.000000	97.300437 
2443.000000	97.300467 
2442.000000	97.300375 
2441.000000	97.300084 
2440.000000	97.299857 
2439.000000	97.300109 
2438.000000	97.300995 
2437.000000	97.302353 
2436.000000	97.303872 
2435.000000	97.305199 
2434.000000	97.306053 
2433.000000	97.306409 
2432.000000	97.306574 
2431.000000	97.306935 
2430.000000	97.307676 
2429.000000	97.308794 
2428.000000	97.310188 
2427.000000	97.311612 
2426.000000	97.312594 
2425.000000	97.312567 
2424.000000	97.311439 
2423.000000	97.309976 
2422.000000	97.309103 
2421.000000	97.309360 
2420.000000	97.311017 
2419.000000	97.313746 
2418.000000	97.316349 
2417.000000	97.317840 
2416.000000	97.318699 
2415.000000	97.319983 
2414.000000	97.321609 
2413.000000	97.322763 
2412.000000	97.323382 
2411.000000	97.323787 
2410.000000	97.323545 
2409.000000	97.322501 
2408.000000	97.322307 
2407.000000	97.324862 
2406.000000	97.329304 
2405.000000	97.332408 
2404.000000	97.332152 
2403.000000	97.329431 
2402.000000	97.326378 
2401.000000	97.324609 
2400.000000	97.325080 
2399.000000	97.327957 
2398.000000	97.332217 
2397.000000	97.336440 
2396.000000	97.340059 
2395.000000	97.342806 
2394.000000	97.343507 
2393.000000	97.341320 
2392.000000	97.337934 
2391.000000	97.336779 
2390.000000	97.339494 
2389.000000	97.344643 
2388.000000	97.350144 
2387.000000	97.355454 
2386.000000	97.360848 
2385.000000	97.365889 
2384.000000	97.369525 
2383.000000	97.370651 
2382.000000	97.367928 
2381.000000	97.360299 
2380.000000	97.348393 
2379.000000	97.334618 
2378.000000	97.321116 
2377.000000	97.308709 
2376.000000	97.298815 
2375.000000	97.294658 
2374.000000	97.298315 
2373.000000	97.307508 
2372.000000	97.317293 
2371.000000	97.324930 
2370.000000	97.330739 
2369.000000	97.334477 
2368.000000	97.334264 
2367.000000	97.329632 
2366.000000	97.323064 
2365.000000	97.317637 
2364.000000	97.314653 
2363.000000	97.314047 
2362.000000	97.315580 
2361.000000	97.318599 
2360.000000	97.321766 
2359.000000	97.323992 
2358.000000	97.324384 
2357.000000	97.322756 
2356.000000	97.319914 
2355.000000	97.317065 
2354.000000	97.314156 
2353.000000	97.311646 
2352.000000	97.311501 
2351.000000	97.314213 
2350.000000	97.317598 
2349.000000	97.319194 
2348.000000	97.318825 
2347.000000	97.317896 
2346.000000	97.317898 
2345.000000	97.319360 
2344.000000	97.321677 
2343.000000	97.323828 
2342.000000	97.325070 
2341.000000	97.325450 
2340.000000	97.325585 
2339.000000	97.326044 
2338.000000	97.326753 
2337.000000	97.327256 
2336.000000	97.328001 
2335.000000	97.329790 
2334.000000	97.332293 
2333.000000	97.333954 
2332.000000	97.335004 
2331.000000	97.337036 
2330.000000	97.340846 
2329.000000	97.344680 
2328.000000	97.347670 
2327.000000	97.350372 
2326.000000	97.353209 
2325.000000	97.355337 
2324.000000	97.356856 
2323.000000	97.358981 
2322.000000	97.361451 
2321.000000	97.361839 
2320.000000	97.360016 
2319.000000	97.358535 
2318.000000	97.359753 
2317.000000	97.361422 
2316.000000	97.361196 
2315.000000	97.358982 
2314.000000	97.358096 
2313.000000	97.360362 
2312.000000	97.367087 
2311.000000	97.377444 
2310.000000	97.388694 
2309.000000	97.395885 
2308.000000	97.397701 
2307.000000	97.397073 
2306.000000	97.397529 
2305.000000	97.398514 
2304.000000	97.398833 
2303.000000	97.399243 
2302.000000	97.402472 
2301.000000	97.408020 
2300.000000	97.412619 
2299.000000	97.412137 
2298.000000	97.405549 
2297.000000	97.393564 
2296.000000	97.379189 
2295.000000	97.365862 
2294.000000	97.355895 
2293.000000	97.348479 
2292.000000	97.341967 
2291.000000	97.336203 
2290.000000	97.332409 
2289.000000	97.331341 
2288.000000	97.332223 
2287.000000	97.333226 
2286.000000	97.332240 
2285.000000	97.328904 
2284.000000	97.325444 
2283.000000	97.324671 
2282.000000	97.326018 
2281.000000	97.325457 
2280.000000	97.319751 
2279.000000	97.309856 
2278.000000	97.299531 
2277.000000	97.292084 
2276.000000	97.289132 
2275.000000	97.290547 
2274.000000	97.294478 
2273.000000	97.298365 
2272.000000	97.300999 
2271.000000	97.302456 
2270.000000	97.302503 
2269.000000	97.300802 
2268.000000	97.298644 
2267.000000	97.298016 
2266.000000	97.298807 
2265.000000	97.298956 
2264.000000	97.297482 
2263.000000	97.295225 
2262.000000	97.292576 
2261.000000	97.288868 
2260.000000	97.284343 
2259.000000	97.280664 
2258.000000	97.278774 
2257.000000	97.278064 
2256.000000	97.278093 
2255.000000	97.279410 
2254.000000	97.281867 
2253.000000	97.283379 
2252.000000	97.281952 
2251.000000	97.277825 
2250.000000	97.272801 
2249.000000	97.268284 
2248.000000	97.264766 
2247.000000	97.262584 
2246.000000	97.261766 
2245.000000	97.261381 
2244.000000	97.260125 
2243.000000	97.257635 
2242.000000	97.254634 
2241.000000	97.252091 
2240.000000	97.250487 
2239.000000	97.249748 
2238.000000	97.249365 
2237.000000	97.248712 
2236.000000	97.247605 
2235.000000	97.246324 
2234.000000	97.245079 
2233.000000	97.243778 
2232.000000	97.242306 
2231.000000	97.240713 
2230.000000	97.239079 
2229.000000	97.237407 
2228.000000	97.235715 
2227.000000	97.234077 
2226.000000	97.232507 
2225.000000	97.230937 
2224.000000	97.229319 
2223.000000	97.227683 
2222.000000	97.226060 
2221.000000	97.224462 
2220.000000	97.222885 
2219.000000	97.221317 
2218.000000	97.219749 
2217.000000	97.218185 
2216.000000	97.216633 
2215.000000	97.215093 
2214.000000	97.213554 
2213.000000	97.212011 
2212.000000	97.210472 
2211.000000	97.208964 
2210.000000	97.207511 
2209.000000	97.206115 
2208.000000	97.204755 
2207.000000	97.203402 
2206.000000	97.202034 
2205.000000	97.200631 
2204.000000	97.199177 
2203.000000	97.197668 
2202.000000	97.196108 
2201.000000	97.194511 
2200.000000	97.192885 
2199.000000	97.191267 
2198.000000	97.189600 
2197.000000	97.187769 
2196.000000	97.185926 
2195.000000	97.184328 
2194.000000	97.182988 
2193.000000	97.181653 
2192.000000	97.180247 
2191.000000	97.179048 
2190.000000	97.178251 
2189.000000	97.177651 
2188.000000	97.177011 
2187.000000	97.176298 
2186.000000	97.175156 
2185.000000	97.172816 
2184.000000	97.169400 
2183.000000	97.166881 
2182.000000	97.167335 
2181.000000	97.170506 
2180.000000	97.173534 
2179.000000	97.173937 
2178.000000	97.171759 
2177.000000	97.168811 
2176.000000	97.166795 
2175.000000	97.166228 
2174.000000	97.166523 
2173.000000	97.166780 
2172.000000	97.167038 
2171.000000	97.168481 
2170.000000	97.171548 
2169.000000	97.174403 
2168.000000	97.174694 
2167.000000	97.172405 
2166.000000	97.169313 
2165.000000	97.165875 
2164.000000	97.160730 
2163.000000	97.153856 
2162.000000	97.148512 
2161.000000	97.148973 
2160.000000	97.157222 
2159.000000	97.171626 
2158.000000	97.187216 
2157.000000	97.198280 
2156.000000	97.202572 
2155.000000	97.202764 
2154.000000	97.203707 
2153.000000	97.208249 
2152.000000	97.215372 
2151.000000	97.221499 
2150.000000	97.223369 
2149.000000	97.220892 
2148.000000	97.217916 
2147.000000	97.218965 
2146.000000	97.224686 
2145.000000	97.231867 
2144.000000	97.238215 
2143.000000	97.244880 
2142.000000	97.252850 
2141.000000	97.259571 
2140.000000	97.261956 
2139.000000	97.261399 
2138.000000	97.262972 
2137.000000	97.269600 
2136.000000	97.278967 
2135.000000	97.285980 
2134.000000	97.287086 
2133.000000	97.282652 
2132.000000	97.276724 
2131.000000	97.273764 
2130.000000	97.274677 
2129.000000	97.276769 
2128.000000	97.277726 
2127.000000	97.278463 
2126.000000	97.281264 
2125.000000	97.286346 
2124.000000	97.291599 
2123.000000	97.294996 
2122.000000	97.295957 
2121.000000	97.294874 
2120.000000	97.292447 
2119.000000	97.289350 
2118.000000	97.286080 
2117.000000	97.283192 
2116.000000	97.281406 
2115.000000	97.280751 
2114.000000	97.279769 
2113.000000	97.276940 
2112.000000	97.273354 
2111.000000	97.272222 
2110.000000	97.274987 
2109.000000	97.279492 
2108.000000	97.282742 
2107.000000	97.284063 
2106.000000	97.284493 
2105.000000	97.284818 
2104.000000	97.285452 
2103.000000	97.286769 
2102.000000	97.288090 
2101.000000	97.287518 
2100.000000	97.284177 
2099.000000	97.279851 
2098.000000	97.277471 
2097.000000	97.278211 
2096.000000	97.281053 
2095.000000	97.284213 
2094.000000	97.286216 
2093.000000	97.286369 
2092.000000	97.284941 
2091.000000	97.283026 
2090.000000	97.281775 
2089.000000	97.281558 
2088.000000	97.282004 
2087.000000	97.282454 
2086.000000	97.282171 
2085.000000	97.280654 
2084.000000	97.278305 
2083.000000	97.276331 
2082.000000	97.275401 
2081.000000	97.274958 
2080.000000	97.274416 
2079.000000	97.274174 
2078.000000	97.274519 
2077.000000	97.274317 
2076.000000	97.272269 
2075.000000	97.269003 
2074.000000	97.266406 
2073.000000	97.264905 
2072.000000	97.263113 
2071.000000	97.260123 
2070.000000	97.256665 
2069.000000	97.253894 
2068.000000	97.252201 
2067.000000	97.251321 
2066.000000	97.250681 
2065.000000	97.249419 
2064.000000	97.246895 
2063.000000	97.243491 
2062.000000	97.240529 
2061.000000	97.239062 
2060.000000	97.239117 
2059.000000	97.240071 
2058.000000	97.241121 
2057.000000	97.241475 
2056.000000	97.240516 
2055.000000	97.238079 
2054.000000	97.234671 
2053.000000	97.231215 
2052.000000	97.228466 
2051.000000	97.226581 
2050.000000	97.225186 
2049.000000	97.223807 
2048.000000	97.222334 
2047.000000	97.221024 
2046.000000	97.220079 
2045.000000	97.219462 
2044.000000	97.219116 
2043.000000	97.219042 
2042.000000	97.219075 
2041.000000	97.218903 
2040.000000	97.218546 
2039.000000	97.218483 
2038.000000	97.218986 
2037.000000	97.219568 
2036.000000	97.219454 
2035.000000	97.218478 
2034.000000	97.217290 
2033.000000	97.216771 
2032.000000	97.217272 
2031.000000	97.218335 
2030.000000	97.218887 
2029.000000	97.218100 
2028.000000	97.216160 
2027.000000	97.214230 
2026.000000	97.213246 
2025.000000	97.213190 
2024.000000	97.213814 
2023.000000	97.215442 
2022.000000	97.218392 
2021.000000	97.221786 
2020.000000	97.223834 
2019.000000	97.223462 
2018.000000	97.220944 
2017.000000	97.217490 
2016.000000	97.214516 
2015.000000	97.212981 
2014.000000	97.212680 
2013.000000	97.212129 
2012.000000	97.210159 
2011.000000	97.207738 
2010.000000	97.207114 
2009.000000	97.209099 
2008.000000	97.212223 
2007.000000	97.214529 
2006.000000	97.215422 
2005.000000	97.215209 
2004.000000	97.214213 
2003.000000	97.212997 
2002.000000	97.212587 
2001.000000	97.213278 
2000.000000	97.213832 
1999.000000	97.212473 
1998.000000	97.208477 
1997.000000	97.202809 
1996.000000	97.197492 
1995.000000	97.194283 
1994.000000	97.193531 
1993.000000	97.194017 
1992.000000	97.193982 
1991.000000	97.192953 
1990.000000	97.192066 
1989.000000	97.192437 
1988.000000	97.193755 
1987.000000	97.194556 
1986.000000	97.193662 
1985.000000	97.191322 
1984.000000	97.188919 
1983.000000	97.187509 
1982.000000	97.186864 
1981.000000	97.186126 
1980.000000	97.185348 
1979.000000	97.185508 
1978.000000	97.186824 
1977.000000	97.188175 
1976.000000	97.188508 
1975.000000	97.188200 
1974.000000	97.188367 
1973.000000	97.189532 
1972.000000	97.191333 
1971.000000	97.193134 
1970.000000	97.194448 
1969.000000	97.195007 
1968.000000	97.194862 
1967.000000	97.194445 
1966.000000	97.194389 
1965.000000	97.195061 
1964.000000	97.196408 
1963.000000	97.198147 
1962.000000	97.199948 
1961.000000	97.201530 
1960.000000	97.202742 
1959.000000	97.203622 
1958.000000	97.204395 
1957.000000	97.205371 
1956.000000	97.206715 
1955.000000	97.208387 
1954.000000	97.210149 
1953.000000	97.211752 
1952.000000	97.213143 
1951.000000	97.214441 
1950.000000	97.215784 
1949.000000	97.217256 
1948.000000	97.218953 
1947.000000	97.220917 
1946.000000	97.222921 
1945.000000	97.224540 
1944.000000	97.225549 
1943.000000	97.226137 
1942.000000	97.226667 
1941.000000	97.227319 
1940.000000	97.228134 
1939.000000	97.229103 
1938.000000	97.230179 
1937.000000	97.231395 
1936.000000	97.232974 
1935.000000	97.234957 
1934.000000	97.236767 
1933.000000	97.237825 
1932.000000	97.238526 
1931.000000	97.240012 
1930.000000	97.242625 
1929.000000	97.245136 
1928.000000	97.246785 
1927.000000	97.248402 
1926.000000	97.250828 
1925.000000	97.253067 
1924.000000	97.253509 
1923.000000	97.252750 
1922.000000	97.252550 
1921.000000	97.253166 
1920.000000	97.253820 
1919.000000	97.254727 
1918.000000	97.256061 
1917.000000	97.256156 
1916.000000	97.254144 
1915.000000	97.252168 
1914.000000	97.252378 
1913.000000	97.253917 
1912.000000	97.254084 
1911.000000	97.252341 
1910.000000	97.250553 
1909.000000	97.249937 
1908.000000	97.250454 
1907.000000	97.251436 
1906.000000	97.252047 
1905.000000	97.251177 
1904.000000	97.248395 
1903.000000	97.245545 
1902.000000	97.244406 
1901.000000	97.244352 
1900.000000	97.243962 
1899.000000	97.243117 
1898.000000	97.242586 
1897.000000	97.242453 
1896.000000	97.242041 
1895.000000	97.241257 
1894.000000	97.240381 
1893.000000	97.239298 
1892.000000	97.237947 
1891.000000	97.237013 
1890.000000	97.237103 
1889.000000	97.237753 
1888.000000	97.238233 
1887.000000	97.238569 
1886.000000	97.238925 
1885.000000	97.238934 
1884.000000	97.238228 
1883.000000	97.237170 
1882.000000	97.236533 
1881.000000	97.236635 
1880.000000	97.237286 
1879.000000	97.238055 
1878.000000	97.238550 
1877.000000	97.238734 
1876.000000	97.238899 
1875.000000	97.239409 
1874.000000	97.240354 
1873.000000	97.241436 
1872.000000	97.242335 
1871.000000	97.243064 
1870.000000	97.243776 
1869.000000	97.244437 
1868.000000	97.245075 
1867.000000	97.246022 
1866.000000	97.247325 
1865.000000	97.248533 
1864.000000	97.249377 
1863.000000	97.250189 
1862.000000	97.251442 
1861.000000	97.253099 
1860.000000	97.254779 
1859.000000	97.256400 
1858.000000	97.258135 
1857.000000	97.259953 
1856.000000	97.261683 
1855.000000	97.263319 
1854.000000	97.264933 
1853.000000	97.266463 
1852.000000	97.267907 
1851.000000	97.269392 
1850.000000	97.270982 
1849.000000	97.272630 
1848.000000	97.274265 
1847.000000	97.275877 
1846.000000	97.277466 
1845.000000	97.279007 
1844.000000	97.280491 
1843.000000	97.281971 
1842.000000	97.283482 
1841.000000	97.284981 
1840.000000	97.286434 
1839.000000	97.287839 
1838.000000	97.289191 
1837.000000	97.290480 
1836.000000	97.291710 
1835.000000	97.292889 
1834.000000	97.294030 
1833.000000	97.295129 
1832.000000	97.296174 
1831.000000	97.297164 
1830.000000	97.298113 
1829.000000	97.299040 
1828.000000	97.299962 
1827.000000	97.300876 
1826.000000	97.301771 
1825.000000	97.302627 
1824.000000	97.303426 
1823.000000	97.304160 
1822.000000	97.304837 
1821.000000	97.305464 
1820.000000	97.306044 
1819.000000	97.306579 
1818.000000	97.307082 
1817.000000	97.307561 
1816.000000	97.308013 
1815.000000	97.308435 
1814.000000	97.308828 
1813.000000	97.309191 
1812.000000	97.309521 
1811.000000	97.309818 
1810.000000	97.310094 
1809.000000	97.310362 
1808.000000	97.310627 
1807.000000	97.310883 
1806.000000	97.311128 
1805.000000	97.311359 
1804.000000	97.311578 
1803.000000	97.311792 
1802.000000	97.312014 
1801.000000	97.312245 
1800.000000	97.312475 
1799.000000	97.312701 
1798.000000	97.312938 
1797.000000	97.313197 
1796.000000	97.313481 
1795.000000	97.313779 
1794.000000	97.314094 
1793.000000	97.314437 
1792.000000	97.314781 
1791.000000	97.315133 
1790.000000	97.315566 
1789.000000	97.316064 
1788.000000	97.316547 
1787.000000	97.316996 
1786.000000	97.317449 
1785.000000	97.317910 
1784.000000	97.318348 
1783.000000	97.318774 
1782.000000	97.319208 
1781.000000	97.319668 
1780.000000	97.320163 
1779.000000	97.320682 
1778.000000	97.321217 
1777.000000	97.321759 
1776.000000	97.322298 
1775.000000	97.322817 
1774.000000	97.323301 
1773.000000	97.323749 
1772.000000	97.324175 
1771.000000	97.324598 
1770.000000	97.325037 
1769.000000	97.325495 
1768.000000	97.325960 
1767.000000	97.326408 
1766.000000	97.326825 
1765.000000	97.327205 
1764.000000	97.327551 
1763.000000	97.327871 
1762.000000	97.328171 
1761.000000	97.328446 
1760.000000	97.328691 
1759.000000	97.328901 
1758.000000	97.329071 
1757.000000	97.329199 
1756.000000	97.329292 
1755.000000	97.329333 
1754.000000	97.329266 
1753.000000	97.329052 
1752.000000	97.328782 
1751.000000	97.328593 
1750.000000	97.328521 
1749.000000	97.328384 
1748.000000	97.327960 
1747.000000	97.327216 
1746.000000	97.326142 
1745.000000	97.325032 
1744.000000	97.324444 
1743.000000	97.324496 
1742.000000	97.324657 
1741.000000	97.324238 
1740.000000	97.322888 
1739.000000	97.321210 
1738.000000	97.320516 
1737.000000	97.320342 
1736.000000	97.319440 
1735.000000	97.318633 
1734.000000	97.317247 
1733.000000	97.313475 
1732.000000	97.310519 
1731.000000	97.309362 
1730.000000	97.309669 
1729.000000	97.310536 
1728.000000	97.310360 
1727.000000	97.308300 
1726.000000	97.304758 
1725.000000	97.301807 
1724.000000	97.299709 
1723.000000	97.297358 
1722.000000	97.295437 
1721.000000	97.293504 
1720.000000	97.289810 
1719.000000	97.284488 
1718.000000	97.280455 
1717.000000	97.277358 
1716.000000	97.272142 
1715.000000	97.265798 
1714.000000	97.261527 
1713.000000	97.258905 
1712.000000	97.254550 
1711.000000	97.248530 
1710.000000	97.243594 
1709.000000	97.239978 
1708.000000	97.235275 
1707.000000	97.228323 
1706.000000	97.221194 
1705.000000	97.215291 
1704.000000	97.209630 
1703.000000	97.203034 
1702.000000	97.196393 
1701.000000	97.191548 
1700.000000	97.184167 
1699.000000	97.174168 
1698.000000	97.167497 
1697.000000	97.161625 
1696.000000	97.153973 
1695.000000	97.145360 
1694.000000	97.138271 
1693.000000	97.131626 
1692.000000	97.123364 
1691.000000	97.114013 
1690.000000	97.104793 
1689.000000	97.096179 
1688.000000	97.088237 
1687.000000	97.080402 
1686.000000	97.072422 
1685.000000	97.064241 
1684.000000	97.054591 
1683.000000	97.044290 
1682.000000	97.035627 
1681.000000	97.027215 
1680.000000	97.018847 
1679.000000	97.011303 
1678.000000	97.003913 
1677.000000	96.995474 
1676.000000	96.986379 
1675.000000	96.977184 
1674.000000	96.967119 
1673.000000	96.956746 
1672.000000	96.946490 
1671.000000	96.936990 
1670.000000	96.927976 
1669.000000	96.917164 
1668.000000	96.907620 
1667.000000	96.902277 
1666.000000	96.897998 
1665.000000	96.891293 
1664.000000	96.881923 
1663.000000	96.872358 
1662.000000	96.862814 
1661.000000	96.852260 
1660.000000	96.842406 
1659.000000	96.833540 
1658.000000	96.823892 
1657.000000	96.813181 
1656.000000	96.803658 
1655.000000	96.798397 
1654.000000	96.798574 
1653.000000	96.782761 
1652.000000	96.749389 
1651.000000	96.738168 
1650.000000	96.736460 
1649.000000	96.729137 
1648.000000	96.720638 
1647.000000	96.716175 
1646.000000	96.712496 
1645.000000	96.710097 
1644.000000	96.708071 
1643.000000	96.705409 
1642.000000	96.702403 
1641.000000	96.698657 
1640.000000	96.695423 
1639.000000	96.692783 
1638.000000	96.690930 
1637.000000	96.690431 
1636.000000	96.689237 
1635.000000	96.682736 
1634.000000	96.678790 
1633.000000	96.682109 
1632.000000	96.684326 
1631.000000	96.685610 
1630.000000	96.687992 
1629.000000	96.689516 
1628.000000	96.689540 
1627.000000	96.693551 
1626.000000	96.702769 
1625.000000	96.712050 
1624.000000	96.718829 
1623.000000	96.724963 
1622.000000	96.732115 
1621.000000	96.740010 
1620.000000	96.748501 
1619.000000	96.757827 
1618.000000	96.768397 
1617.000000	96.772788 
1616.000000	96.769013 
1615.000000	96.772027 
1614.000000	96.784503 
1613.000000	96.794774 
1612.000000	96.799850 
1611.000000	96.805366 
1610.000000	96.812574 
1609.000000	96.819861 
1608.000000	96.830979 
1607.000000	96.848649 
1606.000000	96.864980 
1605.000000	96.872949 
1604.000000	96.877808 
1603.000000	96.885040 
1602.000000	96.893261 
1601.000000	96.899577 
1600.000000	96.905720 
1599.000000	96.913313 
1598.000000	96.919963 
1597.000000	96.924107 
1596.000000	96.927664 
1595.000000	96.932826 
1594.000000	96.938981 
1593.000000	96.944880 
1592.000000	96.951071 
1591.000000	96.958022 
1590.000000	96.964614 
1589.000000	96.970239 
1588.000000	96.975925 
1587.000000	96.982390 
1586.000000	96.988911 
1585.000000	96.994668 
1584.000000	97.000254 
1583.000000	97.006157 
1582.000000	97.011979 
1581.000000	97.017562 
1580.000000	97.023224 
1579.000000	97.029040 
1578.000000	97.034783 
1577.000000	97.040333 
1576.000000	97.045668 
1575.000000	97.050935 
1574.000000	97.056201 
1573.000000	97.061333 
1572.000000	97.066309 
1571.000000	97.071166 
1570.000000	97.075879 
1569.000000	97.080447 
1568.000000	97.084923 
1567.000000	97.089305 
1566.000000	97.093578 
1565.000000	97.097743 
1564.000000	97.101811 
1563.000000	97.105803 
1562.000000	97.109724 
1561.000000	97.113573 
1560.000000	97.117351 
1559.000000	97.121023 
1558.000000	97.124551 
1557.000000	97.127958 
1556.000000	97.131268 
1555.000000	97.134487 
1554.000000	97.137611 
1553.000000	97.140626 
1552.000000	97.143518 
1551.000000	97.146279 
1550.000000	97.148918 
1549.000000	97.151446 
1548.000000	97.153869 
1547.000000	97.156182 
1546.000000	97.158380 
1545.000000	97.160463 
1544.000000	97.162425 
1543.000000	97.164258 
1542.000000	97.165953 
1541.000000	97.167493 
1540.000000	97.168864 
1539.000000	97.170082 
1538.000000	97.171187 
1537.000000	97.172191 
1536.000000	97.173096 
1535.000000	97.173918 
1534.000000	97.174673 
1533.000000	97.175363 
1532.000000	97.175981 
1531.000000	97.176524 
1530.000000	97.176998 
1529.000000	97.177411 
1528.000000	97.177774 
1527.000000	97.178095 
1526.000000	97.178369 
1525.000000	97.178576 
1524.000000	97.178698 
1523.000000	97.178736 
1522.000000	97.178693 
1521.000000	97.178565 
1520.000000	97.178345 
1519.000000	97.178026 
1518.000000	97.177597 
1517.000000	97.177084 
1516.000000	97.176557 
1515.000000	97.176056 
1514.000000	97.175534 
1513.000000	97.174938 
1512.000000	97.174223 
1511.000000	97.173327 
1510.000000	97.172270 
1509.000000	97.171213 
1508.000000	97.170507 
1507.000000	97.170283 
1506.000000	97.169749 
1505.000000	97.168475 
1504.000000	97.166755 
1503.000000	97.164539 
1502.000000	97.161937 
1501.000000	97.159560 
1500.000000	97.157722 
1499.000000	97.155967 
1498.000000	97.154087 
1497.000000	97.152834 
1496.000000	97.152028 
1495.000000	97.151375 
1494.000000	97.151267 
1493.000000	97.151317 
1492.000000	97.150861 
1491.000000	97.150218 
1490.000000	97.150526 
1489.000000	97.151420 
1488.000000	97.150330 
1487.000000	97.146977 
1486.000000	97.143836 
1485.000000	97.140212 
1484.000000	97.135072 
1483.000000	97.129430 
1482.000000	97.125327 
1481.000000	97.123316 
1480.000000	97.120931 
1479.000000	97.116734 
1478.000000	97.111933 
1477.000000	97.108238 
1476.000000	97.104611 
1475.000000	97.100375 
1474.000000	97.096558 
1473.000000	97.094211 
1472.000000	97.092418 
1471.000000	97.089721 
1470.000000	97.086132 
1469.000000	97.081087 
1468.000000	97.074440 
1467.000000	97.067752 
1466.000000	97.063062 
1465.000000	97.060403 
1464.000000	97.058131 
1463.000000	97.054008 
1462.000000	97.047628 
1461.000000	97.039947 
1460.000000	97.032390 
1459.000000	97.026145 
1458.000000	97.022080 
1457.000000	97.019506 
1456.000000	97.016267 
1455.000000	97.011699 
1454.000000	97.005195 
1453.000000	96.998035 
1452.000000	96.992300 
1451.000000	96.988357 
1450.000000	96.985691 
1449.000000	96.984245 
1448.000000	96.983436 
1447.000000	96.981952 
1446.000000	96.978180 
1445.000000	96.972545 
1444.000000	96.967355 
1443.000000	96.962484 
1442.000000	96.957124 
1441.000000	96.951267 
1440.000000	96.945068 
1439.000000	96.937137 
1438.000000	96.929658 
1437.000000	96.928230 
1436.000000	96.931392 
1435.000000	96.931160 
1434.000000	96.924894 
1433.000000	96.917160 
1432.000000	96.913026 
1431.000000	96.912395 
1430.000000	96.911906 
1429.000000	96.911154 
1428.000000	96.909669 
1427.000000	96.906349 
1426.000000	96.900393 
1425.000000	96.896320 
1424.000000	96.899482 
1423.000000	96.903752 
1422.000000	96.900492 
1421.000000	96.891249 
1420.000000	96.886225 
1419.000000	96.886948 
1418.000000	96.886534 
1417.000000	96.885135 
1416.000000	96.884676 
1415.000000	96.883506 
1414.000000	96.878538 
1413.000000	96.870344 
1412.000000	96.862958 
1411.000000	96.857580 
1410.000000	96.853296 
1409.000000	96.850748 
1408.000000	96.849863 
1407.000000	96.851057 
1406.000000	96.855598 
1405.000000	96.866199 
1404.000000	96.883467 
1403.000000	96.899725 
1402.000000	96.908679 
1401.000000	96.913951 
1400.000000	96.924369 
1399.000000	96.940545 
1398.000000	96.953001 
1397.000000	96.955182 
1396.000000	96.950759 
1395.000000	96.949533 
1394.000000	96.956789 
1393.000000	96.971933 
1392.000000	96.991104 
1391.000000	97.008043 
1390.000000	97.018798 
1389.000000	97.024376 
1388.000000	97.028599 
1387.000000	97.033376 
1386.000000	97.037304 
1385.000000	97.039918 
1384.000000	97.043892 
1383.000000	97.050442 
1382.000000	97.057748 
1381.000000	97.063436 
1380.000000	97.068079 
1379.000000	97.074424 
1378.000000	97.082673 
1377.000000	97.090243 
1376.000000	97.096051 
1375.000000	97.102671 
1374.000000	97.112612 
1373.000000	97.125507 
1372.000000	97.138711 
1371.000000	97.150439 
1370.000000	97.160602 
1369.000000	97.170278 
1368.000000	97.180527 
1367.000000	97.189327 
1366.000000	97.193935 
1365.000000	97.195118 
1364.000000	97.197788 
1363.000000	97.206113 
1362.000000	97.218718 
1361.000000	97.230746 
1360.000000	97.240031 
1359.000000	97.247800 
1358.000000	97.254711 
1357.000000	97.260026 
1356.000000	97.264121 
1355.000000	97.268443 
1354.000000	97.273843 
1353.000000	97.280168 
1352.000000	97.286589 
1351.000000	97.293712 
1350.000000	97.301380 
1349.000000	97.307713 
1348.000000	97.312004 
1347.000000	97.314814 
1346.000000	97.317560 
1345.000000	97.320463 
1344.000000	97.322110 
1343.000000	97.320505 
1342.000000	97.315884 
1341.000000	97.311953 
1340.000000	97.313190 
1339.000000	97.319595 
1338.000000	97.326490 
1337.000000	97.330423 
1336.000000	97.331783 
1335.000000	97.331782 
1334.000000	97.330643 
1333.000000	97.329061 
1332.000000	97.328733 
1331.000000	97.330253 
1330.000000	97.332090 
1329.000000	97.332813 
1328.000000	97.332715 
1327.000000	97.332672 
1326.000000	97.332433 
1325.000000	97.331604 
1324.000000	97.330593 
1323.000000	97.328824 
1322.000000	97.325053 
1321.000000	97.319918 
1320.000000	97.316429 
1319.000000	97.316642 
1318.000000	97.319593 
1317.000000	97.322941 
1316.000000	97.324936 
1315.000000	97.324555 
1314.000000	97.322145 
1313.000000	97.320452 
1312.000000	97.322350 
1311.000000	97.326854 
1310.000000	97.329795 
1309.000000	97.329192 
1308.000000	97.327417 
1307.000000	97.327757 
1306.000000	97.330406 
1305.000000	97.333536 
1304.000000	97.336120 
1303.000000	97.337358 
1302.000000	97.335987 
1301.000000	97.332040 
1300.000000	97.328265 
1299.000000	97.327684 
1298.000000	97.330291 
1297.000000	97.333113 
1296.000000	97.333252 
1295.000000	97.330250 
1294.000000	97.326242 
1293.000000	97.324309 
1292.000000	97.325678 
1291.000000	97.328523 
1290.000000	97.330446 
1289.000000	97.331608 
1288.000000	97.333632 
1287.000000	97.335938 
1286.000000	97.335840 
1285.000000	97.332789 
1284.000000	97.329765 
1283.000000	97.329286 
1282.000000	97.330082 
1281.000000	97.329163 
1280.000000	97.325894 
1279.000000	97.322430 
1278.000000	97.321191 
1277.000000	97.323156 
1276.000000	97.327327 
1275.000000	97.330952 
1274.000000	97.331529 
1273.000000	97.329799 
1272.000000	97.329318 
1271.000000	97.331983 
1270.000000	97.335382 
1269.000000	97.336004 
1268.000000	97.333540 
1267.000000	97.330300 
1266.000000	97.327980 
1265.000000	97.326836 
1264.000000	97.326795 
1263.000000	97.327635 
1262.000000	97.328607 
1261.000000	97.329239 
1260.000000	97.330408 
1259.000000	97.333200 
1258.000000	97.336827 
1257.000000	97.338670 
1256.000000	97.336344 
1255.000000	97.330075 
1254.000000	97.323274 
1253.000000	97.319818 
1252.000000	97.319845 
1251.000000	97.319491 
1250.000000	97.316248 
1249.000000	97.313151 
1248.000000	97.315095 
1247.000000	97.321849 
1246.000000	97.327970 
1245.000000	97.329396 
1244.000000	97.326840 
1243.000000	97.323258 
1242.000000	97.321608 
1241.000000	97.324927 
1240.000000	97.334124 
1239.000000	97.344405 
1238.000000	97.347945 
1237.000000	97.342127 
1236.000000	97.332210 
1235.000000	97.324513 
1234.000000	97.319985 
1233.000000	97.316097 
1232.000000	97.311392 
1231.000000	97.305336 
1230.000000	97.296667 
1229.000000	97.285059 
1228.000000	97.272498 
1227.000000	97.260417 
1226.000000	97.246828 
1225.000000	97.228584 
1224.000000	97.205171 
1223.000000	97.178296 
1222.000000	97.149031 
1221.000000	97.117339 
1220.000000	97.083458 
1219.000000	97.047854 
1218.000000	97.010353 
1217.000000	96.970369 
1216.000000	96.926956 
1215.000000	96.878138 
1214.000000	96.822444 
1213.000000	96.762451 
1212.000000	96.703989 
1211.000000	96.649220 
1210.000000	96.592754 
1209.000000	96.527902 
1208.000000	96.455250 
1207.000000	96.381733 
1206.000000	96.311915 
1205.000000	96.243361 
1204.000000	96.170818 
1203.000000	96.092186 
1202.000000	96.010131 
1201.000000	95.929644 
1200.000000	95.853990 
1199.000000	95.781693 
1198.000000	95.707853 
1197.000000	95.629463 
1196.000000	95.548151 
1195.000000	95.466704 
1194.000000	95.384993 
1193.000000	95.301421 
1192.000000	95.216269 
1191.000000	95.130621 
1190.000000	95.043462 
1189.000000	94.952916 
1188.000000	94.859329 
1187.000000	94.764393 
1186.000000	94.668390 
1185.000000	94.570983 
1184.000000	94.473298 
1183.000000	94.376168 
1182.000000	94.277738 
1181.000000	94.175985 
1180.000000	94.071972 
1179.000000	93.966920 
1178.000000	93.857773 
1177.000000	93.740102 
1176.000000	93.614299 
1175.000000	93.484755 
1174.000000	93.354078 
1173.000000	93.222538 
1172.000000	93.091808 
1171.000000	92.963747 
1170.000000	92.836336 
1169.000000	92.706718 
1168.000000	92.578354 
1167.000000	92.459998 
1166.000000	92.358345 
1165.000000	92.277819 
1164.000000	92.226656 
1163.000000	92.214791 
1162.000000	92.242938 
1161.000000	92.298248 
1160.000000	92.361269 
1159.000000	92.412924 
1158.000000	92.436754 
1157.000000	92.422589 
1156.000000	92.370724 
1155.000000	92.289207 
1154.000000	92.186795 
1153.000000	92.071272 
1152.000000	91.952083 
1151.000000	91.837583 
1150.000000	91.728961 
1149.000000	91.622490 
1148.000000	91.517735 
1147.000000	91.417381 
1146.000000	91.319296 
1145.000000	91.216288 
1144.000000	91.105192 
1143.000000	90.989983 
1142.000000	90.874805 
1141.000000	90.759856 
1140.000000	90.644922 
1139.000000	90.530629 
1138.000000	90.415221 
1137.000000	90.296096 
1136.000000	90.175007 
1135.000000	90.055623 
1134.000000	89.935970 
1133.000000	89.810298 
1132.000000	89.678465 
1131.000000	89.545982 
1130.000000	89.414551 
1129.000000	89.280434 
1128.000000	89.142728 
1127.000000	89.004855 
1126.000000	88.866608 
1125.000000	88.723098 
1124.000000	88.573333 
1123.000000	88.422072 
1122.000000	88.271630 
1121.000000	88.119622 
1120.000000	87.966084 
1119.000000	87.814717 
1118.000000	87.666192 
1117.000000	87.518983 
1116.000000	87.377458 
1115.000000	87.249519 
1114.000000	87.134918 
1113.000000	87.025181 
1112.000000	86.915793 
1111.000000	86.808521 
1110.000000	86.701819 
1109.000000	86.590399 
1108.000000	86.474462 
1107.000000	86.358646 
1106.000000	86.241904 
1105.000000	86.119426 
1104.000000	85.994302 
1103.000000	85.874818 
1102.000000	85.760127 
1101.000000	85.641384 
1100.000000	85.517389 
1099.000000	85.396311 
1098.000000	85.281433 
1097.000000	85.168265 
1096.000000	85.055960 
1095.000000	84.947219 
1094.000000	84.836377 
1093.000000	84.713074 
1092.000000	84.580127 
1091.000000	84.453328 
1090.000000	84.340801 
1089.000000	84.235839 
1088.000000	84.131446 
1087.000000	84.027365 
1086.000000	83.921490 
1085.000000	83.809818 
1084.000000	83.697101 
1083.000000	83.592646 
1082.000000	83.493669 
1081.000000	83.388022 
1080.000000	83.274792 
1079.000000	83.165899 
1078.000000	83.065099 
1077.000000	82.961856 
1076.000000	82.848684 
1075.000000	82.727771 
1074.000000	82.597786 
1073.000000	82.450902 
1072.000000	82.285481 
1071.000000	82.104678 
1070.000000	81.900035 
1069.000000	81.655451 
1068.000000	81.372772 
1067.000000	81.077140 
1066.000000	80.791302 
1065.000000	80.518994 
1064.000000	80.256811 
1063.000000	80.002647 
1062.000000	79.745894 
1061.000000	79.468915 
1060.000000	79.168054 
1059.000000	78.859145 
1058.000000	78.555797 
1057.000000	78.256209 
1056.000000	77.955600 
1055.000000	77.654526 
1054.000000	77.349156 
1053.000000	77.030356 
1052.000000	76.699433 
1051.000000	76.368583 
1050.000000	76.039779 
1049.000000	75.701857 
1048.000000	75.353112 
1047.000000	75.005218 
1046.000000	74.661279 
1045.000000	74.312011 
1044.000000	73.956369 
1043.000000	73.604720 
1042.000000	73.258612 
1041.000000	72.908329 
1040.000000	72.554573 
1039.000000	72.211996 
1038.000000	71.887100 
1037.000000	71.573338 
1036.000000	71.271273 
1035.000000	70.991476 
1034.000000	70.733866 
1033.000000	70.486538 
1032.000000	70.248171 
1031.000000	70.028879 
1030.000000	69.827154 
1029.000000	69.631345 
1028.000000	69.446615 
1027.000000	69.293348 
1026.000000	69.173945 
1025.000000	69.066767 
1024.000000	68.957551 
1023.000000	68.851189 
1022.000000	68.748147 
1021.000000	68.636851 
1020.000000	68.515676 
1019.000000	68.396871 
1018.000000	68.282735 
1017.000000	68.162315 
1016.000000	68.035932 
1015.000000	67.917509 
1014.000000	67.808376 
1013.000000	67.694779 
1012.000000	67.575538 
1011.000000	67.465822 
1010.000000	67.369248 
1009.000000	67.273263 
1008.000000	67.176869 
1007.000000	67.095862 
1006.000000	67.035500 
1005.000000	66.984856 
1004.000000	66.942705 
1003.000000	66.921337 
1002.000000	66.919515 
1001.000000	66.919717 
1000.000000	66.918354 
999.000000	 66.931400 
998.000000	 66.963902 
997.000000	 67.001223 
996.000000	 67.036666 
995.000000	 67.080958 
994.000000	 67.137753 
993.000000	 67.196350 
992.000000	 67.255126 
991.000000	 67.326061 
990.000000	 67.409723 
989.000000	 67.491725 
988.000000	 67.570032 
987.000000	 67.659929 
986.000000	 67.766281 
985.000000	 67.877491 
984.000000	 67.992827 
983.000000	 68.128653 
982.000000	 68.289978 
981.000000	 68.461437 
980.000000	 68.633936 
979.000000	 68.816219 
978.000000	 69.013464 
977.000000	 69.219071 
976.000000	 69.434072 
975.000000	 69.670163 
974.000000	 69.926380 
973.000000	 70.186040 
972.000000	 70.443489 
971.000000	 70.711578 
970.000000	 70.996664 
969.000000	 71.288462 
968.000000	 71.580181 
967.000000	 71.877188 
966.000000	 72.180436 
965.000000	 72.482129 
964.000000	 72.782281 
963.000000	 73.089169 
962.000000	 73.399872 
961.000000	 73.700901 
960.000000	 73.990970 
959.000000	 74.282382 
958.000000	 74.577284 
957.000000	 74.863626 
956.000000	 75.137478 
955.000000	 75.408171 
954.000000	 75.678278 
953.000000	 75.939003 
952.000000	 76.188094 
951.000000	 76.431799 
950.000000	 76.666959 
949.000000	 76.882182 
948.000000	 77.079141 
947.000000	 77.271687 
946.000000	 77.460950 
945.000000	 77.632400 
944.000000	 77.781166 
943.000000	 77.919700 
942.000000	 78.056671 
941.000000	 78.188206 
940.000000	 78.314023 
939.000000	 78.441885 
938.000000	 78.571433 
937.000000	 78.693304 
936.000000	 78.809087 
935.000000	 78.933137 
934.000000	 79.070078 
933.000000	 79.209177 
932.000000	 79.344733 
931.000000	 79.482638 
930.000000	 79.622646 
929.000000	 79.753860 
928.000000	 79.873391 
927.000000	 79.991627 
926.000000	 80.113669 
925.000000	 80.231727 
924.000000	 80.339508 
923.000000	 80.437815 
922.000000	 80.523820 
921.000000	 80.592405 
920.000000	 80.650548 
919.000000	 80.712349 
918.000000	 80.776990 
917.000000	 80.829743 
916.000000	 80.868011 
915.000000	 80.908641 
914.000000	 80.966645 
913.000000	 81.044937 
912.000000	 81.147617 
911.000000	 81.283870 
910.000000	 81.454236 
909.000000	 81.650595 
908.000000	 81.872846 
907.000000	 82.128570 
906.000000	 82.415077 
905.000000	 82.719868 
904.000000	 83.039154 
903.000000	 83.377365 
902.000000	 83.729074 
901.000000	 84.081209 
900.000000	 84.432642 
899.000000	 84.791900 
898.000000	 85.155867 
897.000000	 85.510186 
896.000000	 85.849543 
895.000000	 86.178296 
894.000000	 86.493777 
893.000000	 86.789757 
892.000000	 87.074502 
891.000000	 87.363579 
890.000000	 87.654722 
889.000000	 87.930366 
888.000000	 88.184745 
887.000000	 88.427902 
886.000000	 88.663705 
885.000000	 88.885654 
884.000000	 89.095015 
883.000000	 89.301180 
882.000000	 89.503152 
881.000000	 89.693667 
880.000000	 89.883428 
879.000000	 90.096374 
878.000000	 90.335692 
877.000000	 90.578087 
876.000000	 90.807067 
875.000000	 91.028774 
874.000000	 91.250767 
873.000000	 91.469868 
872.000000	 91.687607 
871.000000	 91.914389 
870.000000	 92.150177 
869.000000	 92.380892 
868.000000	 92.600532 
867.000000	 92.818428 
866.000000	 93.039212 
865.000000	 93.253785 
864.000000	 93.456541 
863.000000	 93.654903 
862.000000	 93.854782 
861.000000	 94.051060 
860.000000	 94.238993 
859.000000	 94.421827 
858.000000	 94.601303 
857.000000	 94.772568 
856.000000	 94.933226 
855.000000	 95.085861 
854.000000	 95.227868 
853.000000	 95.350468 
852.000000	 95.451809 
851.000000	 95.540880 
850.000000	 95.626004 
849.000000	 95.709229 
848.000000	 95.792268 
847.000000	 95.875283 
846.000000	 95.948731 
845.000000	 95.999798 
844.000000	 96.028778 
843.000000	 96.047068 
842.000000	 96.058357 
841.000000	 96.054801 
840.000000	 96.032114 
839.000000	 95.993925 
838.000000	 95.940377 
837.000000	 95.868217 
836.000000	 95.785445 
835.000000	 95.710788 
834.000000	 95.653508 
833.000000	 95.606875 
832.000000	 95.565409 
831.000000	 95.534276 
830.000000	 95.517457 
829.000000	 95.512363 
828.000000	 95.522618 
827.000000	 95.560438 
826.000000	 95.627767 
825.000000	 95.709532 
824.000000	 95.793339 
823.000000	 95.880703 
822.000000	 95.972758 
821.000000	 96.061739 
820.000000	 96.141954 
819.000000	 96.213045 
818.000000	 96.268367 
817.000000	 96.294501 
816.000000	 96.286465 
815.000000	 96.251866 
814.000000	 96.196173 
813.000000	 96.113311 
812.000000	 95.992254 
811.000000	 95.821130 
810.000000	 95.582703 
809.000000	 95.259005 
808.000000	 94.846553 
807.000000	 94.359411 
806.000000	 93.816053 
805.000000	 93.234191 
804.000000	 92.640000 
803.000000	 92.067012 
802.000000	 91.539875 
801.000000	 91.072529 
800.000000	 90.685323 
799.000000	 90.405498 
798.000000	 90.243955 
797.000000	 90.187185 
796.000000	 90.215269 
795.000000	 90.310087 
794.000000	 90.445169 
793.000000	 90.590599 
792.000000	 90.733735 
791.000000	 90.876737 
790.000000	 91.011230 
789.000000	 91.114726 
788.000000	 91.173671 
787.000000	 91.189128 
786.000000	 91.156639 
785.000000	 91.061806 
784.000000	 90.902162 
783.000000	 90.696295 
782.000000	 90.467904 
781.000000	 90.239519 
780.000000	 90.043891 
779.000000	 89.917038 
778.000000	 89.870878 
777.000000	 89.891848 
776.000000	 89.971611 
775.000000	 90.116434 
774.000000	 90.319506 
773.000000	 90.548409 
772.000000	 90.771471 
771.000000	 90.978226 
770.000000	 91.166396 
769.000000	 91.328631 
768.000000	 91.461177 
767.000000	 91.568022 
766.000000	 91.648391 
765.000000	 91.696905 
764.000000	 91.722593 
763.000000	 91.749307 
762.000000	 91.788949 
761.000000	 91.831518 
760.000000	 91.869095 
759.000000	 91.910932 
758.000000	 91.966165 
757.000000	 92.030817 
756.000000	 92.102752 
755.000000	 92.191298 
754.000000	 92.299060 
753.000000	 92.408786 
752.000000	 92.500499 
751.000000	 92.571753 
750.000000	 92.634112 
749.000000	 92.700948 
748.000000	 92.783998 
747.000000	 92.888284 
746.000000	 93.003583 
745.000000	 93.113899 
744.000000	 93.221268 
743.000000	 93.346464 
742.000000	 93.501181 
741.000000	 93.674620 
740.000000	 93.852175 
739.000000	 94.030955 
738.000000	 94.210313 
737.000000	 94.382096 
736.000000	 94.538606 
735.000000	 94.679351 
734.000000	 94.805730 
733.000000	 94.919620 
732.000000	 95.027044 
731.000000	 95.129314 
730.000000	 95.212234 
729.000000	 95.262245 
728.000000	 95.289989 
727.000000	 95.320907 
726.000000	 95.367203 
725.000000	 95.424944 
724.000000	 95.494075 
723.000000	 95.579749 
722.000000	 95.674328 
721.000000	 95.760336 
720.000000	 95.834980 
719.000000	 95.912313 
718.000000	 95.997306 
717.000000	 96.078887 
716.000000	 96.151789 
715.000000	 96.221375 
714.000000	 96.283840 
713.000000	 96.326853 
712.000000	 96.354910 
711.000000	 96.389218 
710.000000	 96.433549 
709.000000	 96.468165 
708.000000	 96.477413 
707.000000	 96.465389 
706.000000	 96.439987 
705.000000	 96.398041 
704.000000	 96.335456 
703.000000	 96.256112 
702.000000	 96.155565 
701.000000	 96.011567 
700.000000	 95.805922 
699.000000	 95.542460 
698.000000	 95.243284 
697.000000	 94.942668 
696.000000	 94.687327 
695.000000	 94.526360 
694.000000	 94.481866 
693.000000	 94.538539 
692.000000	 94.666016 
691.000000	 94.833695 
690.000000	 95.009806 
689.000000	 95.167236 
688.000000	 95.298949 
687.000000	 95.416301 
686.000000	 95.523251 
685.000000	 95.611978 
684.000000	 95.686185 
683.000000	 95.760894 
682.000000	 95.839203 
681.000000	 95.911206 
680.000000	 95.978036 
679.000000	 96.050897 
678.000000	 96.127838 
677.000000	 96.200305 
676.000000	 96.271908 
675.000000	 96.353985 
674.000000	 96.441188 
673.000000	 96.504736 
672.000000	 96.521886 
671.000000	 96.482088 
670.000000	 96.385144 
669.000000	 96.248544 
668.000000	 96.206702 
667.000000	 96.399032 
666.000000	 96.688045 
665.000000	 96.894164 
664.000000	 97.014096 
663.000000	 97.088094 
662.000000	 97.144515 
661.000000	 97.192549 
660.000000	 97.236860 
659.000000	 97.284288 
658.000000	 97.329814 
657.000000	 97.359582 
656.000000	 97.365172 
655.000000	 97.353983 
654.000000	 97.337660 
653.000000	 97.317451 
652.000000	 97.294845 
651.000000	 97.286717 
650.000000	 97.308301 

