4000.000000	96.497371 
3999.000000	96.496661 
3998.000000	96.494643 
3997.000000	96.491778 
3996.000000	96.489016 
3995.000000	96.487197 
3994.000000	96.486698 
3993.000000	96.487294 
3992.000000	96.488230 
3991.000000	96.488655 
3990.000000	96.488322 
3989.000000	96.487736 
3988.000000	96.487473 
3987.000000	96.487681 
3986.000000	96.488285 
3985.000000	96.489242 
3984.000000	96.490330 
3983.000000	96.491022 
3982.000000	96.491059 
3981.000000	96.490856 
3980.000000	96.490826 
3979.000000	96.490637 
3978.000000	96.489745 
3977.000000	96.488420 
3976.000000	96.487609 
3975.000000	96.487663 
3974.000000	96.487834 
3973.000000	96.487200 
3972.000000	96.485561 
3971.000000	96.483430 
3970.000000	96.481526 
3969.000000	96.480546 
3968.000000	96.480946 
3967.000000	96.482506 
3966.000000	96.484342 
3965.000000	96.485405 
3964.000000	96.484937 
3963.000000	96.482762 
3962.000000	96.479530 
3961.000000	96.476528 
3960.000000	96.474701 
3959.000000	96.474017 
3958.000000	96.473878 
3957.000000	96.474053 
3956.000000	96.474694 
3955.000000	96.475465 
3954.000000	96.475574 
3953.000000	96.474468 
3952.000000	96.472272 
3951.000000	96.469426 
3950.000000	96.466236 
3949.000000	96.463082 
3948.000000	96.460490 
3947.000000	96.458941 
3946.000000	96.458693 
3945.000000	96.459649 
3944.000000	96.460966 
3943.000000	96.461354 
3942.000000	96.460672 
3941.000000	96.460125 
3940.000000	96.460704 
3939.000000	96.462144 
3938.000000	96.463319 
3937.000000	96.463543 
3936.000000	96.462878 
3935.000000	96.461193 
3934.000000	96.458433 
3933.000000	96.455445 
3932.000000	96.453840 
3931.000000	96.453930 
3930.000000	96.454348 
3929.000000	96.454546 
3928.000000	96.455584 
3927.000000	96.458094 
3926.000000	96.460334 
3925.000000	96.459824 
3924.000000	96.456808 
3923.000000	96.453539 
3922.000000	96.450727 
3921.000000	96.447562 
3920.000000	96.444230 
3919.000000	96.442511 
3918.000000	96.443136 
3917.000000	96.444718 
3916.000000	96.445989 
3915.000000	96.447310 
3914.000000	96.449209 
3913.000000	96.451208 
3912.000000	96.452619 
3911.000000	96.453818 
3910.000000	96.455068 
3909.000000	96.455902 
3908.000000	96.455864 
3907.000000	96.454597 
3906.000000	96.451614 
3905.000000	96.445766 
3904.000000	96.437148 
3903.000000	96.428708 
3902.000000	96.423931 
3901.000000	96.423777 
3900.000000	96.426566 
3899.000000	96.429950 
3898.000000	96.432988 
3897.000000	96.435382 
3896.000000	96.436528 
3895.000000	96.436585 
3894.000000	96.436524 
3893.000000	96.437054 
3892.000000	96.437280 
3891.000000	96.435792 
3890.000000	96.432822 
3889.000000	96.429863 
3888.000000	96.428095 
3887.000000	96.427441 
3886.000000	96.427393 
3885.000000	96.427761 
3884.000000	96.428161 
3883.000000	96.427774 
3882.000000	96.426405 
3881.000000	96.424966 
3880.000000	96.424534 
3879.000000	96.424959 
3878.000000	96.425381 
3877.000000	96.425474 
3876.000000	96.425504 
3875.000000	96.425440 
3874.000000	96.424956 
3873.000000	96.424043 
3872.000000	96.423001 
3871.000000	96.421936 
3870.000000	96.420920 
3869.000000	96.420362 
3868.000000	96.420388 
3867.000000	96.420588 
3866.000000	96.420502 
3865.000000	96.420185 
3864.000000	96.420081 
3863.000000	96.420326 
3862.000000	96.420513 
3861.000000	96.420463 
3860.000000	96.420484 
3859.000000	96.420830 
3858.000000	96.421354 
3857.000000	96.421731 
3856.000000	96.421813 
3855.000000	96.421453 
3854.000000	96.420320 
3853.000000	96.418803 
3852.000000	96.417818 
3851.000000	96.417485 
3850.000000	96.417357 
3849.000000	96.417325 
3848.000000	96.417684 
3847.000000	96.418637 
3846.000000	96.419733 
3845.000000	96.420294 
3844.000000	96.420154 
3843.000000	96.419611 
3842.000000	96.418964 
3841.000000	96.418409 
3840.000000	96.417912 
3839.000000	96.417582 
3838.000000	96.417739 
3837.000000	96.418238 
3836.000000	96.418587 
3835.000000	96.418581 
3834.000000	96.418493 
3833.000000	96.418726 
3832.000000	96.419374 
3831.000000	96.420306 
3830.000000	96.421352 
3829.000000	96.422408 
3828.000000	96.423570 
3827.000000	96.424899 
3826.000000	96.426071 
3825.000000	96.426761 
3824.000000	96.426883 
3823.000000	96.426606 
3822.000000	96.426148 
3821.000000	96.425784 
3820.000000	96.425898 
3819.000000	96.426322 
3818.000000	96.426551 
3817.000000	96.426497 
3816.000000	96.426904 
3815.000000	96.428498 
3814.000000	96.430805 
3813.000000	96.432521 
3812.000000	96.433111 
3811.000000	96.433437 
3810.000000	96.434655 
3809.000000	96.436631 
3808.000000	96.437924 
3807.000000	96.437695 
3806.000000	96.436668 
3805.000000	96.435972 
3804.000000	96.435641 
3803.000000	96.435387 
3802.000000	96.435261 
3801.000000	96.435924 
3800.000000	96.437519 
3799.000000	96.438419 
3798.000000	96.437407 
3797.000000	96.435811 
3796.000000	96.436272 
3795.000000	96.439547 
3794.000000	96.443463 
3793.000000	96.445516 
3792.000000	96.445903 
3791.000000	96.446975 
3790.000000	96.449664 
3789.000000	96.452164 
3788.000000	96.452788 
3787.000000	96.452064 
3786.000000	96.451350 
3785.000000	96.450682 
3784.000000	96.449221 
3783.000000	96.447145 
3782.000000	96.444952 
3781.000000	96.442547 
3780.000000	96.440171 
3779.000000	96.439553 
3778.000000	96.441636 
3777.000000	96.444633 
3776.000000	96.445552 
3775.000000	96.443380 
3774.000000	96.439833 
3773.000000	96.437070 
3772.000000	96.435068 
3771.000000	96.431822 
3770.000000	96.426855 
3769.000000	96.422821 
3768.000000	96.421416 
3767.000000	96.420945 
3766.000000	96.419564 
3765.000000	96.417857 
3764.000000	96.418092 
3763.000000	96.420492 
3762.000000	96.421907 
3761.000000	96.419813 
3760.000000	96.415693 
3759.000000	96.413405 
3758.000000	96.411332 
3757.000000	96.404662 
3756.000000	96.394162 
3755.000000	96.384455 
3754.000000	96.376899 
3753.000000	96.368184 
3752.000000	96.358138 
3751.000000	96.351950 
3750.000000	96.349367 
3749.000000	96.343957 
3748.000000	96.336093 
3747.000000	96.332440 
3746.000000	96.334715 
3745.000000	96.335979 
3744.000000	96.338957 
3743.000000	96.348874 
3742.000000	96.355338 
3741.000000	96.347006 
3740.000000	96.328619 
3739.000000	96.317964 
3738.000000	96.324818 
3737.000000	96.337283 
3736.000000	96.340026 
3735.000000	96.335836 
3734.000000	96.336454 
3733.000000	96.341804 
3732.000000	96.345862 
3731.000000	96.349360 
3730.000000	96.354104 
3729.000000	96.356506 
3728.000000	96.352975 
3727.000000	96.345951 
3726.000000	96.342571 
3725.000000	96.344823 
3724.000000	96.347063 
3723.000000	96.345262 
3722.000000	96.342441 
3721.000000	96.343112 
3720.000000	96.344968 
3719.000000	96.344643 
3718.000000	96.341959 
3717.000000	96.337489 
3716.000000	96.331928 
3715.000000	96.323100 
3714.000000	96.308355 
3713.000000	96.289625 
3712.000000	96.271650 
3711.000000	96.257716 
3710.000000	96.245595 
3709.000000	96.232535 
3708.000000	96.218788 
3707.000000	96.204187 
3706.000000	96.188499 
3705.000000	96.172556 
3704.000000	96.157256 
3703.000000	96.141751 
3702.000000	96.122313 
3701.000000	96.096412 
3700.000000	96.066110 
3699.000000	96.036807 
3698.000000	96.013768 
3697.000000	95.998109 
3696.000000	95.989400 
3695.000000	95.986197 
3694.000000	95.983977 
3693.000000	95.978964 
3692.000000	95.971503 
3691.000000	95.963358 
3690.000000	95.951196 
3689.000000	95.934072 
3688.000000	95.919791 
3687.000000	95.913990 
3686.000000	95.912996 
3685.000000	95.909081 
3684.000000	95.899328 
3683.000000	95.889494 
3682.000000	95.885691 
3681.000000	95.881936 
3680.000000	95.866048 
3679.000000	95.834218 
3678.000000	95.795215 
3677.000000	95.756126 
3676.000000	95.714800 
3675.000000	95.676282 
3674.000000	95.645711 
3673.000000	95.616665 
3672.000000	95.581234 
3671.000000	95.543599 
3670.000000	95.515488 
3669.000000	95.501008 
3668.000000	95.488306 
3667.000000	95.465409 
3666.000000	95.436073 
3665.000000	95.410347 
3664.000000	95.390350 
3663.000000	95.370833 
3662.000000	95.345321 
3661.000000	95.310498 
3660.000000	95.268886 
3659.000000	95.225096 
3658.000000	95.183315 
3657.000000	95.143273 
3656.000000	95.103404 
3655.000000	95.064622 
3654.000000	95.026032 
3653.000000	94.985024 
3652.000000	94.938893 
3651.000000	94.887054 
3650.000000	94.833293 
3649.000000	94.785073 
3648.000000	94.748163 
3647.000000	94.723814 
3646.000000	94.710784 
3645.000000	94.705037 
3644.000000	94.700457 
3643.000000	94.693084 
3642.000000	94.681834 
3641.000000	94.666101 
3640.000000	94.644434 
3639.000000	94.614779 
3638.000000	94.578781 
3637.000000	94.541621 
3636.000000	94.506979 
3635.000000	94.472591 
3634.000000	94.433857 
3633.000000	94.390801 
3632.000000	94.346957 
3631.000000	94.303747 
3630.000000	94.259936 
3629.000000	94.220668 
3628.000000	94.195640 
3627.000000	94.182241 
3626.000000	94.169267 
3625.000000	94.155653 
3624.000000	94.149013 
3623.000000	94.153393 
3622.000000	94.163920 
3621.000000	94.171340 
3620.000000	94.170361 
3619.000000	94.164459 
3618.000000	94.160674 
3617.000000	94.164039 
3616.000000	94.179785 
3615.000000	94.210633 
3614.000000	94.251094 
3613.000000	94.290485 
3612.000000	94.320970 
3611.000000	94.341035 
3610.000000	94.355740 
3609.000000	94.373944 
3608.000000	94.400699 
3607.000000	94.432896 
3606.000000	94.462772 
3605.000000	94.487576 
3604.000000	94.512227 
3603.000000	94.541172 
3602.000000	94.571998 
3601.000000	94.596949 
3600.000000	94.611241 
3599.000000	94.616936 
3598.000000	94.620147 
3597.000000	94.625792 
3596.000000	94.637378 
3595.000000	94.653302 
3594.000000	94.667583 
3593.000000	94.675780 
3592.000000	94.677678 
3591.000000	94.676417 
3590.000000	94.676624 
3589.000000	94.681455 
3588.000000	94.690922 
3587.000000	94.703026 
3586.000000	94.715258 
3585.000000	94.726048 
3584.000000	94.737409 
3583.000000	94.752087 
3582.000000	94.770310 
3581.000000	94.787622 
3580.000000	94.798553 
3579.000000	94.801126 
3578.000000	94.798184 
3577.000000	94.794654 
3576.000000	94.793348 
3575.000000	94.793950 
3574.000000	94.793697 
3573.000000	94.790352 
3572.000000	94.782930 
3571.000000	94.771460 
3570.000000	94.756873 
3569.000000	94.741612 
3568.000000	94.730023 
3567.000000	94.726917 
3566.000000	94.732641 
3565.000000	94.741704 
3564.000000	94.748757 
3563.000000	94.753649 
3562.000000	94.759048 
3561.000000	94.766275 
3560.000000	94.773621 
3559.000000	94.778294 
3558.000000	94.779138 
3557.000000	94.777564 
3556.000000	94.775840 
3555.000000	94.775237 
3554.000000	94.775384 
3553.000000	94.774966 
3552.000000	94.773254 
3551.000000	94.769884 
3550.000000	94.764549 
3549.000000	94.758122 
3548.000000	94.753322 
3547.000000	94.752284 
3546.000000	94.753969 
3545.000000	94.755334 
3544.000000	94.755554 
3543.000000	94.756764 
3542.000000	94.760438 
3541.000000	94.765570 
3540.000000	94.770417 
3539.000000	94.774162 
3538.000000	94.776676 
3537.000000	94.777682 
3536.000000	94.777280 
3535.000000	94.775917 
3534.000000	94.774174 
3533.000000	94.772716 
3532.000000	94.772397 
3531.000000	94.773694 
3530.000000	94.775773 
3529.000000	94.776731 
3528.000000	94.775263 
3527.000000	94.771902 
3526.000000	94.768548 
3525.000000	94.766862 
3524.000000	94.767340 
3523.000000	94.769491 
3522.000000	94.772322 
3521.000000	94.774839 
3520.000000	94.776619 
3519.000000	94.777780 
3518.000000	94.778603 
3517.000000	94.779080 
3516.000000	94.779072 
3515.000000	94.778670 
3514.000000	94.778340 
3513.000000	94.778514 
3512.000000	94.778965 
3511.000000	94.778803 
3510.000000	94.777352 
3509.000000	94.774994 
3508.000000	94.772911 
3507.000000	94.771963 
3506.000000	94.772050 
3505.000000	94.772417 
3504.000000	94.772420 
3503.000000	94.771769 
3502.000000	94.770373 
3501.000000	94.768352 
3500.000000	94.766316 
3499.000000	94.765118 
3498.000000	94.765051 
3497.000000	94.765522 
3496.000000	94.765557 
3495.000000	94.764673 
3494.000000	94.763311 
3493.000000	94.762479 
3492.000000	94.762692 
3491.000000	94.763109 
3490.000000	94.762321 
3489.000000	94.760045 
3488.000000	94.757388 
3487.000000	94.755275 
3486.000000	94.753377 
3485.000000	94.751152 
3484.000000	94.749031 
3483.000000	94.747588 
3482.000000	94.746335 
3481.000000	94.744446 
3480.000000	94.742198 
3479.000000	94.740570 
3478.000000	94.739613 
3477.000000	94.738196 
3476.000000	94.735354 
3475.000000	94.731383 
3474.000000	94.727410 
3473.000000	94.724250 
3472.000000	94.721802 
3471.000000	94.719272 
3470.000000	94.715936 
3469.000000	94.711934 
3468.000000	94.708201 
3467.000000	94.705654 
3466.000000	94.704557 
3465.000000	94.704396 
3464.000000	94.704028 
3463.000000	94.702034 
3462.000000	94.697567 
3461.000000	94.691146 
3460.000000	94.684344 
3459.000000	94.678335 
3458.000000	94.672998 
3457.000000	94.667504 
3456.000000	94.661770 
3455.000000	94.656762 
3454.000000	94.653673 
3453.000000	94.652766 
3452.000000	94.653177 
3451.000000	94.653648 
3450.000000	94.653143 
3449.000000	94.650947 
3448.000000	94.646563 
3447.000000	94.639983 
3446.000000	94.631917 
3445.000000	94.623737 
3444.000000	94.617027 
3443.000000	94.612774 
3442.000000	94.610669 
3441.000000	94.609223 
3440.000000	94.607100 
3439.000000	94.604156 
3438.000000	94.601019 
3437.000000	94.597879 
3436.000000	94.594497 
3435.000000	94.591028 
3434.000000	94.588204 
3433.000000	94.586354 
3432.000000	94.585019 
3431.000000	94.583882 
3430.000000	94.583187 
3429.000000	94.583025 
3428.000000	94.582600 
3427.000000	94.580856 
3426.000000	94.577841 
3425.000000	94.574998 
3424.000000	94.573753 
3423.000000	94.573743 
3422.000000	94.572924 
3421.000000	94.569844 
3420.000000	94.565495 
3419.000000	94.562241 
3418.000000	94.561208 
3417.000000	94.561640 
3416.000000	94.562445 
3415.000000	94.563213 
3414.000000	94.563477 
3413.000000	94.562193 
3412.000000	94.558922 
3411.000000	94.555045 
3410.000000	94.552832 
3409.000000	94.553399 
3408.000000	94.555952 
3407.000000	94.558677 
3406.000000	94.560189 
3405.000000	94.560300 
3404.000000	94.559826 
3403.000000	94.559504 
3402.000000	94.559230 
3401.000000	94.558523 
3400.000000	94.557549 
3399.000000	94.557116 
3398.000000	94.557625 
3397.000000	94.558700 
3396.000000	94.559916 
3395.000000	94.561375 
3394.000000	94.563194 
3393.000000	94.564880 
3392.000000	94.565672 
3391.000000	94.565464 
3390.000000	94.565147 
3389.000000	94.566015 
3388.000000	94.568880 
3387.000000	94.573526 
3386.000000	94.578722 
3385.000000	94.582778 
3384.000000	94.584597 
3383.000000	94.584439 
3382.000000	94.583898 
3381.000000	94.584737 
3380.000000	94.587372 
3379.000000	94.590661 
3378.000000	94.593370 
3377.000000	94.595753 
3376.000000	94.599004 
3375.000000	94.603309 
3374.000000	94.607263 
3373.000000	94.609485 
3372.000000	94.610264 
3371.000000	94.611259 
3370.000000	94.613823 
3369.000000	94.617985 
3368.000000	94.622789 
3367.000000	94.627132 
3366.000000	94.630400 
3365.000000	94.632726 
3364.000000	94.634828 
3363.000000	94.637454 
3362.000000	94.640873 
3361.000000	94.644908 
3360.000000	94.649331 
3359.000000	94.653988 
3358.000000	94.658598 
3357.000000	94.662724 
3356.000000	94.666096 
3355.000000	94.668934 
3354.000000	94.671869 
3353.000000	94.675527 
3352.000000	94.680090 
3351.000000	94.685174 
3350.000000	94.690097 
3349.000000	94.694385 
3348.000000	94.698092 
3347.000000	94.701666 
3346.000000	94.705497 
3345.000000	94.709564 
3344.000000	94.713470 
3343.000000	94.716850 
3342.000000	94.719796 
3341.000000	94.722908 
3340.000000	94.726667 
3339.000000	94.730872 
3338.000000	94.734887 
3337.000000	94.738348 
3336.000000	94.741456 
3335.000000	94.744624 
3334.000000	94.748069 
3333.000000	94.751746 
3332.000000	94.755528 
3331.000000	94.759337 
3330.000000	94.763149 
3329.000000	94.766965 
3328.000000	94.770796 
3327.000000	94.774656 
3326.000000	94.778535 
3325.000000	94.782400 
3324.000000	94.786217 
3323.000000	94.789981 
3322.000000	94.793718 
3321.000000	94.797463 
3320.000000	94.801232 
3319.000000	94.805017 
3318.000000	94.808803 
3317.000000	94.812580 
3316.000000	94.816344 
3315.000000	94.820092 
3314.000000	94.823823 
3313.000000	94.827542 
3312.000000	94.831263 
3311.000000	94.834994 
3310.000000	94.838738 
3309.000000	94.842491 
3308.000000	94.846243 
3307.000000	94.849982 
3306.000000	94.853703 
3305.000000	94.857415 
3304.000000	94.861141 
3303.000000	94.864901 
3302.000000	94.868703 
3301.000000	94.872545 
3300.000000	94.876402 
3299.000000	94.880231 
3298.000000	94.883998 
3297.000000	94.887699 
3296.000000	94.891388 
3295.000000	94.895138 
3294.000000	94.898993 
3293.000000	94.902939 
3292.000000	94.906940 
3291.000000	94.910976 
3290.000000	94.915021 
3289.000000	94.919024 
3288.000000	94.922942 
3287.000000	94.926791 
3286.000000	94.930604 
3285.000000	94.934365 
3284.000000	94.938008 
3283.000000	94.941515 
3282.000000	94.945005 
3281.000000	94.948668 
3280.000000	94.952586 
3279.000000	94.956644 
3278.000000	94.960670 
3277.000000	94.964649 
3276.000000	94.968676 
3275.000000	94.972752 
3274.000000	94.976757 
3273.000000	94.980640 
3272.000000	94.984539 
3271.000000	94.988629 
3270.000000	94.992924 
3269.000000	94.997267 
3268.000000	95.001487 
3267.000000	95.005530 
3266.000000	95.009490 
3265.000000	95.013562 
3264.000000	95.017877 
3263.000000	95.022383 
3262.000000	95.026851 
3261.000000	95.031108 
3260.000000	95.035172 
3259.000000	95.039171 
3258.000000	95.043192 
3257.000000	95.047261 
3256.000000	95.051428 
3255.000000	95.055715 
3254.000000	95.060053 
3253.000000	95.064370 
3252.000000	95.068703 
3251.000000	95.073136 
3250.000000	95.077661 
3249.000000	95.082174 
3248.000000	95.086590 
3247.000000	95.090922 
3246.000000	95.095249 
3245.000000	95.099648 
3244.000000	95.104146 
3243.000000	95.108715 
3242.000000	95.113309 
3241.000000	95.117901 
3240.000000	95.122495 
3239.000000	95.127104 
3238.000000	95.131736 
3237.000000	95.136397 
3236.000000	95.141082 
3235.000000	95.145775 
3234.000000	95.150447 
3233.000000	95.155083 
3232.000000	95.159698 
3231.000000	95.164322 
3230.000000	95.168969 
3229.000000	95.173628 
3228.000000	95.178287 
3227.000000	95.182957 
3226.000000	95.187663 
3225.000000	95.192418 
3224.000000	95.197204 
3223.000000	95.201985 
3222.000000	95.206747 
3221.000000	95.211501 
3220.000000	95.216267 
3219.000000	95.221047 
3218.000000	95.225830 
3217.000000	95.230618 
3216.000000	95.235426 
3215.000000	95.240261 
3214.000000	95.245119 
3213.000000	95.249994 
3212.000000	95.254876 
3211.000000	95.259753 
3210.000000	95.264609 
3209.000000	95.269443 
3208.000000	95.274271 
3207.000000	95.279115 
3206.000000	95.283971 
3205.000000	95.288823 
3204.000000	95.293667 
3203.000000	95.298526 
3202.000000	95.303418 
3201.000000	95.308326 
3200.000000	95.313199 
3199.000000	95.317999 
3198.000000	95.322751 
3197.000000	95.327534 
3196.000000	95.332377 
3195.000000	95.337220 
3194.000000	95.341996 
3193.000000	95.346754 
3192.000000	95.351631 
3191.000000	95.356658 
3190.000000	95.361672 
3189.000000	95.366458 
3188.000000	95.370962 
3187.000000	95.375360 
3186.000000	95.379939 
3185.000000	95.384884 
3184.000000	95.390158 
3183.000000	95.395524 
3182.000000	95.400787 
3181.000000	95.405911 
3180.000000	95.410883 
3179.000000	95.415589 
3178.000000	95.419977 
3177.000000	95.424274 
3176.000000	95.428827 
3175.000000	95.433768 
3174.000000	95.438976 
3173.000000	95.444267 
3172.000000	95.449484 
3171.000000	95.454442 
3170.000000	95.459020 
3169.000000	95.463331 
3168.000000	95.467604 
3167.000000	95.471892 
3166.000000	95.476096 
3165.000000	95.480233 
3164.000000	95.484461 
3163.000000	95.488835 
3162.000000	95.493231 
3161.000000	95.497541 
3160.000000	95.501820 
3159.000000	95.506210 
3158.000000	95.510816 
3157.000000	95.515644 
3156.000000	95.520561 
3155.000000	95.525336 
3154.000000	95.529843 
3153.000000	95.534196 
3152.000000	95.538598 
3151.000000	95.543048 
3150.000000	95.547351 
3149.000000	95.551396 
3148.000000	95.555293 
3147.000000	95.559249 
3146.000000	95.563415 
3145.000000	95.567851 
3144.000000	95.572513 
3143.000000	95.577172 
3142.000000	95.581503 
3141.000000	95.585384 
3140.000000	95.589005 
3139.000000	95.592742 
3138.000000	95.596770 
3137.000000	95.600959 
3136.000000	95.605027 
3135.000000	95.608785 
3134.000000	95.612261 
3133.000000	95.615687 
3132.000000	95.619321 
3131.000000	95.623221 
3130.000000	95.627249 
3129.000000	95.631294 
3128.000000	95.635404 
3127.000000	95.639657 
3126.000000	95.644007 
3125.000000	95.648325 
3124.000000	95.652500 
3123.000000	95.656431 
3122.000000	95.660044 
3121.000000	95.663426 
3120.000000	95.666877 
3119.000000	95.670639 
3118.000000	95.674649 
3117.000000	95.678664 
3116.000000	95.682536 
3115.000000	95.686242 
3114.000000	95.689810 
3113.000000	95.693394 
3112.000000	95.697327 
3111.000000	95.701857 
3110.000000	95.706775 
3109.000000	95.711423 
3108.000000	95.715205 
3107.000000	95.718109 
3106.000000	95.720651 
3105.000000	95.723280 
3104.000000	95.725859 
3103.000000	95.727931 
3102.000000	95.729390 
3101.000000	95.730703 
3100.000000	95.732426 
3099.000000	95.734775 
3098.000000	95.737894 
3097.000000	95.742203 
3096.000000	95.747913 
3095.000000	95.754206 
3094.000000	95.759723 
3093.000000	95.763886 
3092.000000	95.767195 
3091.000000	95.770209 
3090.000000	95.772833 
3089.000000	95.774831 
3088.000000	95.776492 
3087.000000	95.778506 
3086.000000	95.781464 
3085.000000	95.785520 
3084.000000	95.790104 
3083.000000	95.794073 
3082.000000	95.796697 
3081.000000	95.798580 
3080.000000	95.800971 
3079.000000	95.803988 
3078.000000	95.806528 
3077.000000	95.808215 
3076.000000	95.810355 
3075.000000	95.814069 
3074.000000	95.818433 
3073.000000	95.821641 
3072.000000	95.823382 
3071.000000	95.824860 
3070.000000	95.826841 
3069.000000	95.829009 
3068.000000	95.831067 
3067.000000	95.833198 
3066.000000	95.835362 
3065.000000	95.837201 
3064.000000	95.838684 
3063.000000	95.839920 
3062.000000	95.840447 
3061.000000	95.839729 
3060.000000	95.838358 
3059.000000	95.837864 
3058.000000	95.839352 
3057.000000	95.842895 
3056.000000	95.847841 
3055.000000	95.852692 
3054.000000	95.855257 
3053.000000	95.854489 
3052.000000	95.852331 
3051.000000	95.852405 
3050.000000	95.856185 
3049.000000	95.861497 
3048.000000	95.865099 
3047.000000	95.865650 
3046.000000	95.863751 
3045.000000	95.860609 
3044.000000	95.857736 
3043.000000	95.857104 
3042.000000	95.859982 
3041.000000	95.865244 
3040.000000	95.869619 
3039.000000	95.870414 
3038.000000	95.867919 
3037.000000	95.864761 
3036.000000	95.862751 
3035.000000	95.860793 
3034.000000	95.856638 
3033.000000	95.850182 
3032.000000	95.843873 
3031.000000	95.839937 
3030.000000	95.838399 
3029.000000	95.838042 
3028.000000	95.837686 
3027.000000	95.835841 
3026.000000	95.830774 
3025.000000	95.822513 
3024.000000	95.813974 
3023.000000	95.808381 
3022.000000	95.805908 
3021.000000	95.804418 
3020.000000	95.802919 
3019.000000	95.802323 
3018.000000	95.802658 
3017.000000	95.801722 
3016.000000	95.797561 
3015.000000	95.791008 
3014.000000	95.784868 
3013.000000	95.781126 
3012.000000	95.779230 
3011.000000	95.776416 
3010.000000	95.769724 
3009.000000	95.758592 
3008.000000	95.745738 
3007.000000	95.734843 
3006.000000	95.727204 
3005.000000	95.721335 
3004.000000	95.715478 
3003.000000	95.709423 
3002.000000	95.703980 
3001.000000	95.699922 
3000.000000	95.697501 
2999.000000	95.695833 
2998.000000	95.692726 
2997.000000	95.686501 
2996.000000	95.678152 
2995.000000	95.670392 
2994.000000	95.664170 
2993.000000	95.657335 
2992.000000	95.647259 
2991.000000	95.633915 
2990.000000	95.620021 
2989.000000	95.609107 
2988.000000	95.603740 
2987.000000	95.604448 
2986.000000	95.609494 
2985.000000	95.616204 
2984.000000	95.622928 
2983.000000	95.629442 
2982.000000	95.635672 
2981.000000	95.640937 
2980.000000	95.644464 
2979.000000	95.645750 
2978.000000	95.644414 
2977.000000	95.640745 
2976.000000	95.636571 
2975.000000	95.634480 
2974.000000	95.635754 
2973.000000	95.639794 
2972.000000	95.645605 
2971.000000	95.652703 
2970.000000	95.660299 
2969.000000	95.667011 
2968.000000	95.672276 
2967.000000	95.677188 
2966.000000	95.683236 
2965.000000	95.690935 
2964.000000	95.700123 
2963.000000	95.710551 
2962.000000	95.721320 
2961.000000	95.730535 
2960.000000	95.736731 
2959.000000	95.740564 
2958.000000	95.744378 
2957.000000	95.750106 
2956.000000	95.757843 
2955.000000	95.766171 
2954.000000	95.773510 
2953.000000	95.779521 
2952.000000	95.785530 
2951.000000	95.793131 
2950.000000	95.801897 
2949.000000	95.808959 
2948.000000	95.811564 
2947.000000	95.809830 
2946.000000	95.806721 
2945.000000	95.805579 
2944.000000	95.807922 
2943.000000	95.813080 
2942.000000	95.818826 
2941.000000	95.822434 
2940.000000	95.822384 
2939.000000	95.819912 
2938.000000	95.818472 
2937.000000	95.820769 
2936.000000	95.826302 
2935.000000	95.832112 
2934.000000	95.835735 
2933.000000	95.836902 
2932.000000	95.836649 
2931.000000	95.835775 
2930.000000	95.834687 
2929.000000	95.834106 
2928.000000	95.834892 
2927.000000	95.837032 
2926.000000	95.839511 
2925.000000	95.841652 
2924.000000	95.844098 
2923.000000	95.847788 
2922.000000	95.852165 
2921.000000	95.855236 
2920.000000	95.855848 
2919.000000	95.855368 
2918.000000	95.856436 
2917.000000	95.859916 
2916.000000	95.863662 
2915.000000	95.864719 
2914.000000	95.862438 
2913.000000	95.858821 
2912.000000	95.855966 
2911.000000	95.853867 
2910.000000	95.851362 
2909.000000	95.848600 
2908.000000	95.847491 
2907.000000	95.849416 
2906.000000	95.853176 
2905.000000	95.855551 
2904.000000	95.854039 
2903.000000	95.848820 
2902.000000	95.843497 
2901.000000	95.842223 
2900.000000	95.846776 
2899.000000	95.855738 
2898.000000	95.865823 
2897.000000	95.874612 
2896.000000	95.881306 
2895.000000	95.885604 
2894.000000	95.887414 
2893.000000	95.888169 
2892.000000	95.890745 
2891.000000	95.896685 
2890.000000	95.904199 
2889.000000	95.910193 
2888.000000	95.913821 
2887.000000	95.916542 
2886.000000	95.919047 
2885.000000	95.920252 
2884.000000	95.920006 
2883.000000	95.920892 
2882.000000	95.925703 
2881.000000	95.934141 
2880.000000	95.943530 
2879.000000	95.952345 
2878.000000	95.961301 
2877.000000	95.970826 
2876.000000	95.979298 
2875.000000	95.984808 
2874.000000	95.987608 
2873.000000	95.989748 
2872.000000	95.992766 
2871.000000	95.996666 
2870.000000	96.000893 
2869.000000	96.005193 
2868.000000	96.009349 
2867.000000	96.013033 
2866.000000	96.016437 
2865.000000	96.020556 
2864.000000	96.026421 
2863.000000	96.034390 
2862.000000	96.044280 
2861.000000	96.055406 
2860.000000	96.066156 
2859.000000	96.074473 
2858.000000	96.079684 
2857.000000	96.083617 
2856.000000	96.089091 
2855.000000	96.097123 
2854.000000	96.106247 
2853.000000	96.114389 
2852.000000	96.120590 
2851.000000	96.124902 
2850.000000	96.127723 
2849.000000	96.129775 
2848.000000	96.132122 
2847.000000	96.135454 
2846.000000	96.139517 
2845.000000	96.143626 
2844.000000	96.147539 
2843.000000	96.151541 
2842.000000	96.155852 
2841.000000	96.160169 
2840.000000	96.163718 
2839.000000	96.165799 
2838.000000	96.166594 
2837.000000	96.167486 
2836.000000	96.170186 
2835.000000	96.175279 
2834.000000	96.181774 
2833.000000	96.188133 
2832.000000	96.193466 
2831.000000	96.197556 
2830.000000	96.200241 
2829.000000	96.201401 
2828.000000	96.201565 
2827.000000	96.202076 
2826.000000	96.204330 
2825.000000	96.208729 
2824.000000	96.214262 
2823.000000	96.219073 
2822.000000	96.221785 
2821.000000	96.222457 
2820.000000	96.222312 
2819.000000	96.222564 
2818.000000	96.223552 
2817.000000	96.225054 
2816.000000	96.227016 
2815.000000	96.229598 
2814.000000	96.232639 
2813.000000	96.235448 
2812.000000	96.237323 
2811.000000	96.238206 
2810.000000	96.238758 
2809.000000	96.239833 
2808.000000	96.241840 
2807.000000	96.244582 
2806.000000	96.247568 
2805.000000	96.250363 
2804.000000	96.252746 
2803.000000	96.254670 
2802.000000	96.256255 
2801.000000	96.257783 
2800.000000	96.259546 
2799.000000	96.261601 
2798.000000	96.263737 
2797.000000	96.265689 
2796.000000	96.267373 
2795.000000	96.268890 
2794.000000	96.270400 
2793.000000	96.271992 
2792.000000	96.273675 
2791.000000	96.275401 
2790.000000	96.277120 
2789.000000	96.278805 
2788.000000	96.280467 
2787.000000	96.282125 
2786.000000	96.283794 
2785.000000	96.285476 
2784.000000	96.287161 
2783.000000	96.288833 
2782.000000	96.290484 
2781.000000	96.292123 
2780.000000	96.293760 
2779.000000	96.295394 
2778.000000	96.297020 
2777.000000	96.298632 
2776.000000	96.300222 
2775.000000	96.301789 
2774.000000	96.303334 
2773.000000	96.304861 
2772.000000	96.306373 
2771.000000	96.307871 
2770.000000	96.309358 
2769.000000	96.310847 
2768.000000	96.312347 
2767.000000	96.313858 
2766.000000	96.315357 
2765.000000	96.316821 
2764.000000	96.318245 
2763.000000	96.319636 
2762.000000	96.320995 
2761.000000	96.322324 
2760.000000	96.323638 
2759.000000	96.324968 
2758.000000	96.326329 
2757.000000	96.327689 
2756.000000	96.328993 
2755.000000	96.330221 
2754.000000	96.331434 
2753.000000	96.332722 
2752.000000	96.334108 
2751.000000	96.335516 
2750.000000	96.336852 
2749.000000	96.338117 
2748.000000	96.339364 
2747.000000	96.340548 
2746.000000	96.341575 
2745.000000	96.342461 
2744.000000	96.343360 
2743.000000	96.344390 
2742.000000	96.345538 
2741.000000	96.346717 
2740.000000	96.347848 
2739.000000	96.348909 
2738.000000	96.349902 
2737.000000	96.350836 
2736.000000	96.351758 
2735.000000	96.352741 
2734.000000	96.353828 
2733.000000	96.355003 
2732.000000	96.356214 
2731.000000	96.357413 
2730.000000	96.358574 
2729.000000	96.359685 
2728.000000	96.360742 
2727.000000	96.361738 
2726.000000	96.362674 
2725.000000	96.363580 
2724.000000	96.364503 
2723.000000	96.365464 
2722.000000	96.366446 
2721.000000	96.367420 
2720.000000	96.368380 
2719.000000	96.369341 
2718.000000	96.370311 
2717.000000	96.371286 
2716.000000	96.372254 
2715.000000	96.373209 
2714.000000	96.374152 
2713.000000	96.375100 
2712.000000	96.376062 
2711.000000	96.377022 
2710.000000	96.377949 
2709.000000	96.378833 
2708.000000	96.379693 
2707.000000	96.380571 
2706.000000	96.381511 
2705.000000	96.382545 
2704.000000	96.383643 
2703.000000	96.384675 
2702.000000	96.385490 
2701.000000	96.386069 
2700.000000	96.386636 
2699.000000	96.387482 
2698.000000	96.388695 
2697.000000	96.390061 
2696.000000	96.391235 
2695.000000	96.392058 
2694.000000	96.392656 
2693.000000	96.393265 
2692.000000	96.393915 
2691.000000	96.394366 
2690.000000	96.394401 
2689.000000	96.394164 
2688.000000	96.394076 
2687.000000	96.394415 
2686.000000	96.395138 
2685.000000	96.396110 
2684.000000	96.397266 
2683.000000	96.398401 
2682.000000	96.399054 
2681.000000	96.398904 
2680.000000	96.398233 
2679.000000	96.397822 
2678.000000	96.398328 
2677.000000	96.399858 
2676.000000	96.401881 
2675.000000	96.403384 
2674.000000	96.403452 
2673.000000	96.402033 
2672.000000	96.400145 
2671.000000	96.398915 
2670.000000	96.398476 
2669.000000	96.398273 
2668.000000	96.398114 
2667.000000	96.398276 
2666.000000	96.398590 
2665.000000	96.398193 
2664.000000	96.396599 
2663.000000	96.394521 
2662.000000	96.393207 
2661.000000	96.393072 
2660.000000	96.393406 
2659.000000	96.393220 
2658.000000	96.392096 
2657.000000	96.390279 
2656.000000	96.388300 
2655.000000	96.386550 
2654.000000	96.384990 
2653.000000	96.383343 
2652.000000	96.381641 
2651.000000	96.380467 
2650.000000	96.380419 
2649.000000	96.381398 
2648.000000	96.382609 
2647.000000	96.383212 
2646.000000	96.382792 
2645.000000	96.381274 
2644.000000	96.378815 
2643.000000	96.375968 
2642.000000	96.373584 
2641.000000	96.372242 
2640.000000	96.371848 
2639.000000	96.371930 
2638.000000	96.372165 
2637.000000	96.372418 
2636.000000	96.372503 
2635.000000	96.372350 
2634.000000	96.372333 
2633.000000	96.372903 
2632.000000	96.373825 
2631.000000	96.374206 
2630.000000	96.373531 
2629.000000	96.372313 
2628.000000	96.371480 
2627.000000	96.371326 
2626.000000	96.371443 
2625.000000	96.371530 
2624.000000	96.371776 
2623.000000	96.372397 
2622.000000	96.373124 
2621.000000	96.373327 
2620.000000	96.372554 
2619.000000	96.370865 
2618.000000	96.368919 
2617.000000	96.367639 
2616.000000	96.367493 
2615.000000	96.368116 
2614.000000	96.368703 
2613.000000	96.368914 
2612.000000	96.369146 
2611.000000	96.369857 
2610.000000	96.371008 
2609.000000	96.372202 
2608.000000	96.373053 
2607.000000	96.373334 
2606.000000	96.373034 
2605.000000	96.372428 
2604.000000	96.371888 
2603.000000	96.371508 
2602.000000	96.371166 
2601.000000	96.370959 
2600.000000	96.371170 
2599.000000	96.371679 
2598.000000	96.371898 
2597.000000	96.371552 
2596.000000	96.371069 
2595.000000	96.370853 
2594.000000	96.370644 
2593.000000	96.370146 
2592.000000	96.369922 
2591.000000	96.370742 
2590.000000	96.372264 
2589.000000	96.373249 
2588.000000	96.373318 
2587.000000	96.373539 
2586.000000	96.374910 
2585.000000	96.377073 
2584.000000	96.378905 
2583.000000	96.379781 
2582.000000	96.379731 
2581.000000	96.379010 
2580.000000	96.378081 
2579.000000	96.377685 
2578.000000	96.378312 
2577.000000	96.379626 
2576.000000	96.380712 
2575.000000	96.380840 
2574.000000	96.379927 
2573.000000	96.378506 
2572.000000	96.377362 
2571.000000	96.376888 
2570.000000	96.376761 
2569.000000	96.376442 
2568.000000	96.375940 
2567.000000	96.375657 
2566.000000	96.375594 
2565.000000	96.375383 
2564.000000	96.375117 
2563.000000	96.375366 
2562.000000	96.376206 
2561.000000	96.377049 
2560.000000	96.377777 
2559.000000	96.379249 
2558.000000	96.382019 
2557.000000	96.385164 
2556.000000	96.387168 
2555.000000	96.387722 
2554.000000	96.387826 
2553.000000	96.388217 
2552.000000	96.388501 
2551.000000	96.388226 
2550.000000	96.387889 
2549.000000	96.388136 
2548.000000	96.388456 
2547.000000	96.387689 
2546.000000	96.385789 
2545.000000	96.384131 
2544.000000	96.383717 
2543.000000	96.383962 
2542.000000	96.383751 
2541.000000	96.383189 
2540.000000	96.383433 
2539.000000	96.384968 
2538.000000	96.386882 
2537.000000	96.388063 
2536.000000	96.388501 
2535.000000	96.388844 
2534.000000	96.389143 
2533.000000	96.388743 
2532.000000	96.387410 
2531.000000	96.385925 
2530.000000	96.385288 
2529.000000	96.385580 
2528.000000	96.385996 
2527.000000	96.385935 
2526.000000	96.385760 
2525.000000	96.386282 
2524.000000	96.387735 
2523.000000	96.389504 
2522.000000	96.390784 
2521.000000	96.391303 
2520.000000	96.391315 
2519.000000	96.391136 
2518.000000	96.390844 
2517.000000	96.390350 
2516.000000	96.389562 
2515.000000	96.388569 
2514.000000	96.387778 
2513.000000	96.387757 
2512.000000	96.388746 
2511.000000	96.390409 
2510.000000	96.392169 
2509.000000	96.393677 
2508.000000	96.394798 
2507.000000	96.395414 
2506.000000	96.395599 
2505.000000	96.395880 
2504.000000	96.396870 
2503.000000	96.398582 
2502.000000	96.400294 
2501.000000	96.401270 
2500.000000	96.401435 
2499.000000	96.401185 
2498.000000	96.400894 
2497.000000	96.400756 
2496.000000	96.400980 
2495.000000	96.401736 
2494.000000	96.402886 
2493.000000	96.403997 
2492.000000	96.404766 
2491.000000	96.405284 
2490.000000	96.405809 
2489.000000	96.406386 
2488.000000	96.406817 
2487.000000	96.406999 
2486.000000	96.407149 
2485.000000	96.407626 
2484.000000	96.408578 
2483.000000	96.409825 
2482.000000	96.411036 
2481.000000	96.411992 
2480.000000	96.412617 
2479.000000	96.412875 
2478.000000	96.412854 
2477.000000	96.412931 
2476.000000	96.413553 
2475.000000	96.414707 
2474.000000	96.415809 
2473.000000	96.416307 
2472.000000	96.416189 
2471.000000	96.415740 
2470.000000	96.415112 
2469.000000	96.414473 
2468.000000	96.414296 
2467.000000	96.414979 
2466.000000	96.416239 
2465.000000	96.417302 
2464.000000	96.417796 
2463.000000	96.418113 
2462.000000	96.418859 
2461.000000	96.420299 
2460.000000	96.422320 
2459.000000	96.424538 
2458.000000	96.426241 
2457.000000	96.426649 
2456.000000	96.425490 
2455.000000	96.423305 
2454.000000	96.421151 
2453.000000	96.419795 
2452.000000	96.419123 
2451.000000	96.418475 
2450.000000	96.417661 
2449.000000	96.417362 
2448.000000	96.418217 
2447.000000	96.419826 
2446.000000	96.421099 
2445.000000	96.421488 
2444.000000	96.421361 
2443.000000	96.421242 
2442.000000	96.421299 
2441.000000	96.421594 
2440.000000	96.422295 
2439.000000	96.423564 
2438.000000	96.425592 
2437.000000	96.428669 
2436.000000	96.432606 
2435.000000	96.436189 
2434.000000	96.438026 
2433.000000	96.438005 
2432.000000	96.437447 
2431.000000	96.437750 
2430.000000	96.439312 
2429.000000	96.441823 
2428.000000	96.444757 
2427.000000	96.447287 
2426.000000	96.448450 
2425.000000	96.447964 
2424.000000	96.446656 
2423.000000	96.445801 
2422.000000	96.446144 
2421.000000	96.447788 
2420.000000	96.450493 
2419.000000	96.453670 
2418.000000	96.456453 
2417.000000	96.458429 
2416.000000	96.459977 
2415.000000	96.461635 
2414.000000	96.463462 
2413.000000	96.465268 
2412.000000	96.467025 
2411.000000	96.468611 
2410.000000	96.469617 
2409.000000	96.470007 
2408.000000	96.470571 
2407.000000	96.472096 
2406.000000	96.474306 
2405.000000	96.476185 
2404.000000	96.477165 
2403.000000	96.477445 
2402.000000	96.477475 
2401.000000	96.477800 
2400.000000	96.479213 
2399.000000	96.482357 
2398.000000	96.487031 
2397.000000	96.492271 
2396.000000	96.497118 
2395.000000	96.500927 
2394.000000	96.502720 
2393.000000	96.502004 
2392.000000	96.500567 
2391.000000	96.501187 
2390.000000	96.504427 
2389.000000	96.508224 
2388.000000	96.510892 
2387.000000	96.512861 
2386.000000	96.515158 
2385.000000	96.517926 
2384.000000	96.520899 
2383.000000	96.523954 
2382.000000	96.526839 
2381.000000	96.529776 
2380.000000	96.534822 
2379.000000	96.544550 
2378.000000	96.557918 
2377.000000	96.569169 
2376.000000	96.572936 
2375.000000	96.569827 
2374.000000	96.564632 
2373.000000	96.559833 
2372.000000	96.554293 
2371.000000	96.548444 
2370.000000	96.546154 
2369.000000	96.549353 
2368.000000	96.554363 
2367.000000	96.556378 
2366.000000	96.555219 
2365.000000	96.555823 
2364.000000	96.562561 
2363.000000	96.573845 
2362.000000	96.586757 
2361.000000	96.600347 
2360.000000	96.613865 
2359.000000	96.626669 
2358.000000	96.637671 
2357.000000	96.649098 
2356.000000	96.661960 
2355.000000	96.669390 
2354.000000	96.661227 
2353.000000	96.634960 
2352.000000	96.602900 
2351.000000	96.579112 
2350.000000	96.569067 
2349.000000	96.569722 
2348.000000	96.569423 
2347.000000	96.560119 
2346.000000	96.545407 
2345.000000	96.537694 
2344.000000	96.539476 
2343.000000	96.542577 
2342.000000	96.544752 
2341.000000	96.548302 
2340.000000	96.554413 
2339.000000	96.558287 
2338.000000	96.555620 
2337.000000	96.547557 
2336.000000	96.540682 
2335.000000	96.537834 
2334.000000	96.535368 
2333.000000	96.526727 
2332.000000	96.514137 
2331.000000	96.503633 
2330.000000	96.497001 
2329.000000	96.491310 
2328.000000	96.482223 
2327.000000	96.470542 
2326.000000	96.455488 
2325.000000	96.438518 
2324.000000	96.424187 
2323.000000	96.417505 
2322.000000	96.418296 
2321.000000	96.419336 
2320.000000	96.417430 
2319.000000	96.415092 
2318.000000	96.416464 
2317.000000	96.419332 
2316.000000	96.419266 
2315.000000	96.413925 
2314.000000	96.404447 
2313.000000	96.392797 
2312.000000	96.381169 
2311.000000	96.372242 
2310.000000	96.366610 
2309.000000	96.362234 
2308.000000	96.357118 
2307.000000	96.352761 
2306.000000	96.351331 
2305.000000	96.352223 
2304.000000	96.352804 
2303.000000	96.352233 
2302.000000	96.352560 
2301.000000	96.355370 
2300.000000	96.359167 
2299.000000	96.360684 
2298.000000	96.357418 
2297.000000	96.349961 
2296.000000	96.341723 
2295.000000	96.337324 
2294.000000	96.338274 
2293.000000	96.342057 
2292.000000	96.344498 
2291.000000	96.344226 
2290.000000	96.343052 
2289.000000	96.343308 
2288.000000	96.345151 
2287.000000	96.346974 
2286.000000	96.347430 
2285.000000	96.346911 
2284.000000	96.347128 
2283.000000	96.349162 
2282.000000	96.352201 
2281.000000	96.354343 
2280.000000	96.354560 
2279.000000	96.353181 
2278.000000	96.351264 
2277.000000	96.349988 
2276.000000	96.350458 
2275.000000	96.352918 
2274.000000	96.356289 
2273.000000	96.359365 
2272.000000	96.362115 
2271.000000	96.364956 
2270.000000	96.367204 
2269.000000	96.367728 
2268.000000	96.366881 
2267.000000	96.366275 
2266.000000	96.366666 
2265.000000	96.367380 
2264.000000	96.367691 
2263.000000	96.367475 
2262.000000	96.366384 
2261.000000	96.363932 
2260.000000	96.360647 
2259.000000	96.358018 
2258.000000	96.356943 
2257.000000	96.357069 
2256.000000	96.357911 
2255.000000	96.359466 
2254.000000	96.361369 
2253.000000	96.362368 
2252.000000	96.361539 
2251.000000	96.359227 
2250.000000	96.356356 
2249.000000	96.353471 
2248.000000	96.350939 
2247.000000	96.349309 
2246.000000	96.348756 
2245.000000	96.348680 
2244.000000	96.348149 
2243.000000	96.346859 
2242.000000	96.345202 
2241.000000	96.343712 
2240.000000	96.342604 
2239.000000	96.341775 
2238.000000	96.340998 
2237.000000	96.340048 
2236.000000	96.338855 
2235.000000	96.337512 
2234.000000	96.336147 
2233.000000	96.334804 
2232.000000	96.333463 
2231.000000	96.332117 
2230.000000	96.330762 
2229.000000	96.329370 
2228.000000	96.327932 
2227.000000	96.326466 
2226.000000	96.324984 
2225.000000	96.323473 
2224.000000	96.321928 
2223.000000	96.320373 
2222.000000	96.318849 
2221.000000	96.317381 
2220.000000	96.315968 
2219.000000	96.314594 
2218.000000	96.313244 
2217.000000	96.311914 
2216.000000	96.310602 
2215.000000	96.309303 
2214.000000	96.308010 
2213.000000	96.306720 
2212.000000	96.305447 
2211.000000	96.304215 
2210.000000	96.303039 
2209.000000	96.301907 
2208.000000	96.300787 
2207.000000	96.299650 
2206.000000	96.298475 
2205.000000	96.297269 
2204.000000	96.296062 
2203.000000	96.295016 
2202.000000	96.294275 
2201.000000	96.293776 
2200.000000	96.293141 
2199.000000	96.291786 
2198.000000	96.289424 
2197.000000	96.286652 
2196.000000	96.284701 
2195.000000	96.284095 
2194.000000	96.283910 
2193.000000	96.283079 
2192.000000	96.282023 
2191.000000	96.281718 
2190.000000	96.281498 
2189.000000	96.279638 
2188.000000	96.276164 
2187.000000	96.272870 
2186.000000	96.270047 
2185.000000	96.266042 
2184.000000	96.261656 
2183.000000	96.261954 
2182.000000	96.270525 
2181.000000	96.283342 
2180.000000	96.291267 
2179.000000	96.289385 
2178.000000	96.280729 
2177.000000	96.272266 
2176.000000	96.268823 
2175.000000	96.270911 
2174.000000	96.276041 
2173.000000	96.281026 
2172.000000	96.284475 
2171.000000	96.287254 
2170.000000	96.289499 
2169.000000	96.288323 
2168.000000	96.280947 
2167.000000	96.269706 
2166.000000	96.260761 
2165.000000	96.256842 
2164.000000	96.254246 
2163.000000	96.249040 
2162.000000	96.244499 
2161.000000	96.249445 
2160.000000	96.269602 
2159.000000	96.301783 
2158.000000	96.335406 
2157.000000	96.360385 
2156.000000	96.373446 
2155.000000	96.377018 
2154.000000	96.375214 
2153.000000	96.372003 
2152.000000	96.370677 
2151.000000	96.371921 
2150.000000	96.372735 
2149.000000	96.370210 
2148.000000	96.366815 
2147.000000	96.368831 
2146.000000	96.378409 
2145.000000	96.390493 
2144.000000	96.399608 
2143.000000	96.406380 
2142.000000	96.414200 
2141.000000	96.422575 
2140.000000	96.428149 
2139.000000	96.431031 
2138.000000	96.435728 
2137.000000	96.445305 
2136.000000	96.457363 
2135.000000	96.466147 
2134.000000	96.467118 
2133.000000	96.460398 
2132.000000	96.451643 
2131.000000	96.448141 
2130.000000	96.452274 
2129.000000	96.459479 
2128.000000	96.463528 
2127.000000	96.462695 
2126.000000	96.459543 
2125.000000	96.456561 
2124.000000	96.454340 
2123.000000	96.452995 
2122.000000	96.452551 
2121.000000	96.451645 
2120.000000	96.447848 
2119.000000	96.440078 
2118.000000	96.430112 
2117.000000	96.421655 
2116.000000	96.417629 
2115.000000	96.417734 
2114.000000	96.418285 
2113.000000	96.415454 
2112.000000	96.409797 
2111.000000	96.406104 
2110.000000	96.407864 
2109.000000	96.413391 
2108.000000	96.418122 
2107.000000	96.419361 
2106.000000	96.417591 
2105.000000	96.414886 
2104.000000	96.413720 
2103.000000	96.415691 
2102.000000	96.419449 
2101.000000	96.420959 
2100.000000	96.417817 
2099.000000	96.412590 
2098.000000	96.410406 
2097.000000	96.413593 
2096.000000	96.420121 
2095.000000	96.426188 
2094.000000	96.429178 
2093.000000	96.428582 
2092.000000	96.425518 
2091.000000	96.421965 
2090.000000	96.419605 
2089.000000	96.418760 
2088.000000	96.418553 
2087.000000	96.417893 
2086.000000	96.416103 
2085.000000	96.413020 
2084.000000	96.409211 
2083.000000	96.405899 
2082.000000	96.404047 
2081.000000	96.403577 
2080.000000	96.403895 
2079.000000	96.404866 
2078.000000	96.406477 
2077.000000	96.407842 
2076.000000	96.407757 
2075.000000	96.406282 
2074.000000	96.404531 
2073.000000	96.402700 
2072.000000	96.399698 
2071.000000	96.395157 
2070.000000	96.390556 
2069.000000	96.387762 
2068.000000	96.387345 
2067.000000	96.388536 
2066.000000	96.389937 
2065.000000	96.390008 
2064.000000	96.387778 
2063.000000	96.383752 
2062.000000	96.379806 
2061.000000	96.377796 
2060.000000	96.378283 
2059.000000	96.380627 
2058.000000	96.383474 
2057.000000	96.385105 
2056.000000	96.384141 
2055.000000	96.380250 
2054.000000	96.374323 
2053.000000	96.367916 
2052.000000	96.362574 
2051.000000	96.359282 
2050.000000	96.358014 
2049.000000	96.357845 
2048.000000	96.357983 
2047.000000	96.358606 
2046.000000	96.360083 
2045.000000	96.361794 
2044.000000	96.362613 
2043.000000	96.362349 
2042.000000	96.361875 
2041.000000	96.361880 
2040.000000	96.362335 
2039.000000	96.363319 
2038.000000	96.365246 
2037.000000	96.367751 
2036.000000	96.369423 
2035.000000	96.369354 
2034.000000	96.368506 
2033.000000	96.369042 
2032.000000	96.372317 
2031.000000	96.377492 
2030.000000	96.381670 
2029.000000	96.381951 
2028.000000	96.378038 
2027.000000	96.372763 
2026.000000	96.369421 
2025.000000	96.368922 
2024.000000	96.370462 
2023.000000	96.373952 
2022.000000	96.380270 
2021.000000	96.388758 
2020.000000	96.395937 
2019.000000	96.398038 
2018.000000	96.394096 
2017.000000	96.386521 
2016.000000	96.379363 
2015.000000	96.375493 
2014.000000	96.374645 
2013.000000	96.373626 
2012.000000	96.369735 
2011.000000	96.364648 
2010.000000	96.363183 
2009.000000	96.367614 
2008.000000	96.375059 
2007.000000	96.381289 
2006.000000	96.385344 
2005.000000	96.388342 
2004.000000	96.390213 
2003.000000	96.390322 
2002.000000	96.389949 
2001.000000	96.390844 
2000.000000	96.391708 
1999.000000	96.388674 
1998.000000	96.379491 
1997.000000	96.366440 
1996.000000	96.355008 
1995.000000	96.349401 
1994.000000	96.349528 
1993.000000	96.351644 
1992.000000	96.351839 
1991.000000	96.349946 
1990.000000	96.349476 
1989.000000	96.353288 
1988.000000	96.359948 
1987.000000	96.364391 
1986.000000	96.362254 
1985.000000	96.353542 
1984.000000	96.342291 
1983.000000	96.332944 
1982.000000	96.327369 
1981.000000	96.325400 
1980.000000	96.327262 
1979.000000	96.333521 
1978.000000	96.342199 
1977.000000	96.348788 
1976.000000	96.350849 
1975.000000	96.350650 
1974.000000	96.352036 
1973.000000	96.356449 
1972.000000	96.362703 
1971.000000	96.368844 
1970.000000	96.372938 
1969.000000	96.373255 
1968.000000	96.369325 
1967.000000	96.363041 
1966.000000	96.358156 
1965.000000	96.357786 
1964.000000	96.362626 
1963.000000	96.371153 
1962.000000	96.380624 
1961.000000	96.388292 
1960.000000	96.392409 
1959.000000	96.392576 
1958.000000	96.389983 
1957.000000	96.387298 
1956.000000	96.386939 
1955.000000	96.388882 
1954.000000	96.390860 
1953.000000	96.391144 
1952.000000	96.390131 
1951.000000	96.388995 
1950.000000	96.388420 
1949.000000	96.389066 
1948.000000	96.391872 
1947.000000	96.396725 
1946.000000	96.401365 
1945.000000	96.403156 
1944.000000	96.401596 
1943.000000	96.398304 
1942.000000	96.395175 
1941.000000	96.393111 
1940.000000	96.392431 
1939.000000	96.393102 
1938.000000	96.394439 
1937.000000	96.395827 
1936.000000	96.397613 
1935.000000	96.400109 
1934.000000	96.402103 
1933.000000	96.402178 
1932.000000	96.401129 
1931.000000	96.401377 
1930.000000	96.404025 
1929.000000	96.407340 
1928.000000	96.409277 
1927.000000	96.409958 
1926.000000	96.410498 
1925.000000	96.410939 
1924.000000	96.410206 
1923.000000	96.407981 
1922.000000	96.404987 
1921.000000	96.401669 
1920.000000	96.398329 
1919.000000	96.395720 
1918.000000	96.393978 
1917.000000	96.391818 
1916.000000	96.388529 
1915.000000	96.386018 
1914.000000	96.386313 
1913.000000	96.388432 
1912.000000	96.389503 
1911.000000	96.388634 
1910.000000	96.387545 
1909.000000	96.387183 
1908.000000	96.386728 
1907.000000	96.385717 
1906.000000	96.384561 
1905.000000	96.382767 
1904.000000	96.378962 
1903.000000	96.374149 
1902.000000	96.371484 
1901.000000	96.371570 
1900.000000	96.371842 
1899.000000	96.370798 
1898.000000	96.369772 
1897.000000	96.369923 
1896.000000	96.369529 
1895.000000	96.366536 
1894.000000	96.361628 
1893.000000	96.356829 
1892.000000	96.353149 
1891.000000	96.350880 
1890.000000	96.350128 
1889.000000	96.349978 
1888.000000	96.349147 
1887.000000	96.348339 
1886.000000	96.349336 
1885.000000	96.351383 
1884.000000	96.351197 
1883.000000	96.347620 
1882.000000	96.343639 
1881.000000	96.342252 
1880.000000	96.343122 
1879.000000	96.343982 
1878.000000	96.343456 
1877.000000	96.342157 
1876.000000	96.341470 
1875.000000	96.342346 
1874.000000	96.345040 
1873.000000	96.348462 
1872.000000	96.350809 
1871.000000	96.351508 
1870.000000	96.351467 
1869.000000	96.351231 
1868.000000	96.350229 
1867.000000	96.349145 
1866.000000	96.349745 
1865.000000	96.351371 
1864.000000	96.351796 
1863.000000	96.351434 
1862.000000	96.353216 
1861.000000	96.357985 
1860.000000	96.362986 
1859.000000	96.366080 
1858.000000	96.368569 
1857.000000	96.371982 
1856.000000	96.375585 
1855.000000	96.378299 
1854.000000	96.380222 
1853.000000	96.381319 
1852.000000	96.381873 
1851.000000	96.383577 
1850.000000	96.387474 
1849.000000	96.392179 
1848.000000	96.395286 
1847.000000	96.396576 
1846.000000	96.397803 
1845.000000	96.399808 
1844.000000	96.401489 
1843.000000	96.402279 
1842.000000	96.403161 
1841.000000	96.404785 
1840.000000	96.407232 
1839.000000	96.410438 
1838.000000	96.413861 
1837.000000	96.416261 
1836.000000	96.416810 
1835.000000	96.416555 
1834.000000	96.417301 
1833.000000	96.419360 
1832.000000	96.421898 
1831.000000	96.423865 
1830.000000	96.424306 
1829.000000	96.423453 
1828.000000	96.422700 
1827.000000	96.423120 
1826.000000	96.424832 
1825.000000	96.427025 
1824.000000	96.428427 
1823.000000	96.428426 
1822.000000	96.427896 
1821.000000	96.427955 
1820.000000	96.428520 
1819.000000	96.428836 
1818.000000	96.429717 
1817.000000	96.432589 
1816.000000	96.435568 
1815.000000	96.435859 
1814.000000	96.434323 
1813.000000	96.434505 
1812.000000	96.436738 
1811.000000	96.436199 
1810.000000	96.431447 
1809.000000	96.427165 
1808.000000	96.425758 
1807.000000	96.425243 
1806.000000	96.424950 
1805.000000	96.426173 
1804.000000	96.427764 
1803.000000	96.426869 
1802.000000	96.423007 
1801.000000	96.419051 
1800.000000	96.416391 
1799.000000	96.413475 
1798.000000	96.411860 
1797.000000	96.413383 
1796.000000	96.414619 
1795.000000	96.412166 
1794.000000	96.408457 
1793.000000	96.408838 
1792.000000	96.412323 
1791.000000	96.412799 
1790.000000	96.411366 
1789.000000	96.413284 
1788.000000	96.418605 
1787.000000	96.423622 
1786.000000	96.427204 
1785.000000	96.430910 
1784.000000	96.434465 
1783.000000	96.437551 
1782.000000	96.440596 
1781.000000	96.443278 
1780.000000	96.444915 
1779.000000	96.445542 
1778.000000	96.447624 
1777.000000	96.452133 
1776.000000	96.456790 
1775.000000	96.459449 
1774.000000	96.459627 
1773.000000	96.459130 
1772.000000	96.460132 
1771.000000	96.461198 
1770.000000	96.460391 
1769.000000	96.459774 
1768.000000	96.462179 
1767.000000	96.466883 
1766.000000	96.471028 
1765.000000	96.474170 
1764.000000	96.478178 
1763.000000	96.483014 
1762.000000	96.485770 
1761.000000	96.485634 
1760.000000	96.484983 
1759.000000	96.485104 
1758.000000	96.485326 
1757.000000	96.484579 
1756.000000	96.484271 
1755.000000	96.485000 
1754.000000	96.484368 
1753.000000	96.481032 
1752.000000	96.477963 
1751.000000	96.479547 
1750.000000	96.485238 
1749.000000	96.490166 
1748.000000	96.492243 
1747.000000	96.493695 
1746.000000	96.495244 
1745.000000	96.496396 
1744.000000	96.497997 
1743.000000	96.499417 
1742.000000	96.498295 
1741.000000	96.495026 
1740.000000	96.493298 
1739.000000	96.494929 
1738.000000	96.496614 
1737.000000	96.495915 
1736.000000	96.493788 
1735.000000	96.492012 
1734.000000	96.490710 
1733.000000	96.488532 
1732.000000	96.486420 
1731.000000	96.487383 
1730.000000	96.492365 
1729.000000	96.497044 
1728.000000	96.498999 
1727.000000	96.499612 
1726.000000	96.500172 
1725.000000	96.499914 
1724.000000	96.498016 
1723.000000	96.494492 
1722.000000	96.490748 
1721.000000	96.487476 
1720.000000	96.484810 
1719.000000	96.481951 
1718.000000	96.478285 
1717.000000	96.475654 
1716.000000	96.472047 
1715.000000	96.465099 
1714.000000	96.459458 
1713.000000	96.457661 
1712.000000	96.456157 
1711.000000	96.452879 
1710.000000	96.449416 
1709.000000	96.446499 
1708.000000	96.443163 
1707.000000	96.439357 
1706.000000	96.436345 
1705.000000	96.433728 
1704.000000	96.427366 
1703.000000	96.416236 
1702.000000	96.403387 
1701.000000	96.394625 
1700.000000	96.391007 
1699.000000	96.386284 
1698.000000	96.380004 
1697.000000	96.375924 
1696.000000	96.373095 
1695.000000	96.368308 
1694.000000	96.361628 
1693.000000	96.354939 
1692.000000	96.348882 
1691.000000	96.342775 
1690.000000	96.336150 
1689.000000	96.328977 
1688.000000	96.321458 
1687.000000	96.313838 
1686.000000	96.306425 
1685.000000	96.300218 
1684.000000	96.293990 
1683.000000	96.286391 
1682.000000	96.278647 
1681.000000	96.270754 
1680.000000	96.263902 
1679.000000	96.257760 
1678.000000	96.250537 
1677.000000	96.240181 
1676.000000	96.228992 
1675.000000	96.220988 
1674.000000	96.213344 
1673.000000	96.201836 
1672.000000	96.190426 
1671.000000	96.185315 
1670.000000	96.185415 
1669.000000	96.181257 
1668.000000	96.172011 
1667.000000	96.164661 
1666.000000	96.158378 
1665.000000	96.150144 
1664.000000	96.141575 
1663.000000	96.136399 
1662.000000	96.132122 
1661.000000	96.120312 
1660.000000	96.104540 
1659.000000	96.094733 
1658.000000	96.093525 
1657.000000	96.090195 
1656.000000	96.082471 
1655.000000	96.074621 
1654.000000	96.069137 
1653.000000	96.057239 
1652.000000	96.036767 
1651.000000	96.015362 
1650.000000	95.992036 
1649.000000	95.978182 
1648.000000	95.969307 
1647.000000	95.960123 
1646.000000	95.949681 
1645.000000	95.946138 
1644.000000	95.943519 
1643.000000	95.940178 
1642.000000	95.939025 
1641.000000	95.940304 
1640.000000	95.940119 
1639.000000	95.935193 
1638.000000	95.928615 
1637.000000	95.924919 
1636.000000	95.923654 
1635.000000	95.927470 
1634.000000	95.936515 
1633.000000	95.942946 
1632.000000	95.943021 
1631.000000	95.942056 
1630.000000	95.948217 
1629.000000	95.960795 
1628.000000	95.972292 
1627.000000	95.981285 
1626.000000	95.991438 
1625.000000	96.003279 
1624.000000	96.016012 
1623.000000	96.031285 
1622.000000	96.048712 
1621.000000	96.060790 
1620.000000	96.067022 
1619.000000	96.076720 
1618.000000	96.096090 
1617.000000	96.115234 
1616.000000	96.120694 
1615.000000	96.120566 
1614.000000	96.125837 
1613.000000	96.134579 
1612.000000	96.142095 
1611.000000	96.151105 
1610.000000	96.165323 
1609.000000	96.180752 
1608.000000	96.194215 
1607.000000	96.210082 
1606.000000	96.228263 
1605.000000	96.241527 
1604.000000	96.250233 
1603.000000	96.261268 
1602.000000	96.275350 
1601.000000	96.286277 
1600.000000	96.292758 
1599.000000	96.300592 
1598.000000	96.311563 
1597.000000	96.321790 
1596.000000	96.329922 
1595.000000	96.339737 
1594.000000	96.352853 
1593.000000	96.364375 
1592.000000	96.371009 
1591.000000	96.376674 
1590.000000	96.384934 
1589.000000	96.392573 
1588.000000	96.397390 
1587.000000	96.404221 
1586.000000	96.415835 
1585.000000	96.424970 
1584.000000	96.427559 
1583.000000	96.431108 
1582.000000	96.439995 
1581.000000	96.448606 
1580.000000	96.453726 
1579.000000	96.461554 
1578.000000	96.475923 
1577.000000	96.488968 
1576.000000	96.491092 
1575.000000	96.488934 
1574.000000	96.488137 
1573.000000	96.485203 
1572.000000	96.483766 
1571.000000	96.489119 
1570.000000	96.496288 
1569.000000	96.488946 
1568.000000	96.471545 
1567.000000	96.461145 
1566.000000	96.461009 
1565.000000	96.461703 
1564.000000	96.462648 
1563.000000	96.465269 
1562.000000	96.467081 
1561.000000	96.455837 
1560.000000	96.436842 
1559.000000	96.419679 
1558.000000	96.407976 
1557.000000	96.403518 
1556.000000	96.392553 
1555.000000	96.388232 
1554.000000	96.381749 
1553.000000	96.372717 
1552.000000	96.361461 
1551.000000	96.351080 
1550.000000	96.336098 
1549.000000	96.315584 
1548.000000	96.295778 
1547.000000	96.283619 
1546.000000	96.276991 
1545.000000	96.268758 
1544.000000	96.255386 
1543.000000	96.238867 
1542.000000	96.224440 
1541.000000	96.213655 
1540.000000	96.191001 
1539.000000	96.158837 
1538.000000	96.132597 
1537.000000	96.107275 
1536.000000	96.082019 
1535.000000	96.061239 
1534.000000	96.046931 
1533.000000	96.033917 
1532.000000	96.017836 
1531.000000	95.995840 
1530.000000	95.971948 
1529.000000	95.951101 
1528.000000	95.931463 
1527.000000	95.909423 
1526.000000	95.884984 
1525.000000	95.861859 
1524.000000	95.842835 
1523.000000	95.826429 
1522.000000	95.807884 
1521.000000	95.783411 
1520.000000	95.754051 
1519.000000	95.723441 
1518.000000	95.694632 
1517.000000	95.668188 
1516.000000	95.641828 
1515.000000	95.615963 
1514.000000	95.592369 
1513.000000	95.573815 
1512.000000	95.559390 
1511.000000	95.541246 
1510.000000	95.515292 
1509.000000	95.486866 
1508.000000	95.462987 
1507.000000	95.433202 
1506.000000	95.397754 
1505.000000	95.371785 
1504.000000	95.349606 
1503.000000	95.326010 
1502.000000	95.299578 
1501.000000	95.272848 
1500.000000	95.248574 
1499.000000	95.225345 
1498.000000	95.196575 
1497.000000	95.165893 
1496.000000	95.143418 
1495.000000	95.127748 
1494.000000	95.111468 
1493.000000	95.094020 
1492.000000	95.079566 
1491.000000	95.068849 
1490.000000	95.056483 
1489.000000	95.040093 
1488.000000	95.019243 
1487.000000	94.992155 
1486.000000	94.964344 
1485.000000	94.937801 
1484.000000	94.911318 
1483.000000	94.887145 
1482.000000	94.866364 
1481.000000	94.847604 
1480.000000	94.827228 
1479.000000	94.804490 
1478.000000	94.782635 
1477.000000	94.764859 
1476.000000	94.746849 
1475.000000	94.722126 
1474.000000	94.693245 
1473.000000	94.670381 
1472.000000	94.659454 
1471.000000	94.652991 
1470.000000	94.643511 
1469.000000	94.631923 
1468.000000	94.619583 
1467.000000	94.604365 
1466.000000	94.586243 
1465.000000	94.569350 
1464.000000	94.557666 
1463.000000	94.546098 
1462.000000	94.528778 
1461.000000	94.509809 
1460.000000	94.497134 
1459.000000	94.491947 
1458.000000	94.478461 
1457.000000	94.448853 
1456.000000	94.425097 
1455.000000	94.414469 
1454.000000	94.402185 
1453.000000	94.390270 
1452.000000	94.385354 
1451.000000	94.387115 
1450.000000	94.389174 
1449.000000	94.392600 
1448.000000	94.399029 
1447.000000	94.402136 
1446.000000	94.394932 
1445.000000	94.381795 
1444.000000	94.373988 
1443.000000	94.371492 
1442.000000	94.366735 
1441.000000	94.357396 
1440.000000	94.348344 
1439.000000	94.340640 
1438.000000	94.329224 
1437.000000	94.316752 
1436.000000	94.313838 
1435.000000	94.317262 
1434.000000	94.314884 
1433.000000	94.309876 
1432.000000	94.311440 
1431.000000	94.320420 
1430.000000	94.327912 
1429.000000	94.331071 
1428.000000	94.335252 
1427.000000	94.342917 
1426.000000	94.351017 
1425.000000	94.357227 
1424.000000	94.366946 
1423.000000	94.379202 
1422.000000	94.385609 
1421.000000	94.387877 
1420.000000	94.400869 
1419.000000	94.423522 
1418.000000	94.431913 
1417.000000	94.426313 
1416.000000	94.429781 
1415.000000	94.449581 
1414.000000	94.471386 
1413.000000	94.484095 
1412.000000	94.494325 
1411.000000	94.510451 
1410.000000	94.527652 
1409.000000	94.542480 
1408.000000	94.560633 
1407.000000	94.586227 
1406.000000	94.614591 
1405.000000	94.640713 
1404.000000	94.670241 
1403.000000	94.703951 
1402.000000	94.733006 
1401.000000	94.757345 
1400.000000	94.788306 
1399.000000	94.829675 
1398.000000	94.867451 
1397.000000	94.890851 
1396.000000	94.907003 
1395.000000	94.929392 
1394.000000	94.959134 
1393.000000	94.990570 
1392.000000	95.026669 
1391.000000	95.069616 
1390.000000	95.113550 
1389.000000	95.151632 
1388.000000	95.182313 
1387.000000	95.207591 
1386.000000	95.229702 
1385.000000	95.252369 
1384.000000	95.281265 
1383.000000	95.316728 
1382.000000	95.352042 
1381.000000	95.382684 
1380.000000	95.410351 
1379.000000	95.439477 
1378.000000	95.471643 
1377.000000	95.505675 
1376.000000	95.540814 
1375.000000	95.576586 
1374.000000	95.609901 
1373.000000	95.638924 
1372.000000	95.666539 
1371.000000	95.697317 
1370.000000	95.732309 
1369.000000	95.765849 
1368.000000	95.794512 
1367.000000	95.820166 
1366.000000	95.846010 
1365.000000	95.874357 
1364.000000	95.904102 
1363.000000	95.929598 
1362.000000	95.947678 
1361.000000	95.962782 
1360.000000	95.981330 
1359.000000	96.005885 
1358.000000	96.034391 
1357.000000	96.062503 
1356.000000	96.087333 
1355.000000	96.108198 
1354.000000	96.126036 
1353.000000	96.144108 
1352.000000	96.163463 
1351.000000	96.182873 
1350.000000	96.202062 
1349.000000	96.218843 
1348.000000	96.232513 
1347.000000	96.244827 
1346.000000	96.258376 
1345.000000	96.273454 
1344.000000	96.288875 
1343.000000	96.304479 
1342.000000	96.321492 
1341.000000	96.339047 
1340.000000	96.353118 
1339.000000	96.361267 
1338.000000	96.365592 
1337.000000	96.369959 
1336.000000	96.376331 
1335.000000	96.383861 
1334.000000	96.391226 
1333.000000	96.398611 
1332.000000	96.406472 
1331.000000	96.414500 
1330.000000	96.422167 
1329.000000	96.429531 
1328.000000	96.437072 
1327.000000	96.445404 
1326.000000	96.453865 
1325.000000	96.459187 
1324.000000	96.460196 
1323.000000	96.459005 
1322.000000	96.458005 
1321.000000	96.457988 
1320.000000	96.459493 
1319.000000	96.463055 
1318.000000	96.468135 
1317.000000	96.473864 
1316.000000	96.479895 
1315.000000	96.485104 
1314.000000	96.487014 
1313.000000	96.485382 
1312.000000	96.483986 
1311.000000	96.486090 
1310.000000	96.489809 
1309.000000	96.491446 
1308.000000	96.490950 
1307.000000	96.491629 
1306.000000	96.495321 
1305.000000	96.499911 
1304.000000	96.503488 
1303.000000	96.505392 
1302.000000	96.504659 
1301.000000	96.500723 
1300.000000	96.496105 
1299.000000	96.494577 
1298.000000	96.496516 
1297.000000	96.498665 
1296.000000	96.498550 
1295.000000	96.497151 
1294.000000	96.496446 
1293.000000	96.497228 
1292.000000	96.499453 
1291.000000	96.502368 
1290.000000	96.504229 
1289.000000	96.503628 
1288.000000	96.500980 
1287.000000	96.497545 
1286.000000	96.493561 
1285.000000	96.489283 
1284.000000	96.486821 
1283.000000	96.487882 
1282.000000	96.490534 
1281.000000	96.490742 
1280.000000	96.487298 
1279.000000	96.483418 
1278.000000	96.482894 
1277.000000	96.486639 
1276.000000	96.492616 
1275.000000	96.497859 
1274.000000	96.500155 
1273.000000	96.499644 
1272.000000	96.498905 
1271.000000	96.500083 
1270.000000	96.502114 
1269.000000	96.502297 
1268.000000	96.500169 
1267.000000	96.497372 
1266.000000	96.494337 
1265.000000	96.490837 
1264.000000	96.488767 
1263.000000	96.490385 
1262.000000	96.494212 
1261.000000	96.496236 
1260.000000	96.495923 
1259.000000	96.497549 
1258.000000	96.503533 
1257.000000	96.510309 
1256.000000	96.512358 
1255.000000	96.508410 
1254.000000	96.502315 
1253.000000	96.498742 
1252.000000	96.498606 
1251.000000	96.498783 
1250.000000	96.496206 
1249.000000	96.492185 
1248.000000	96.491513 
1247.000000	96.496298 
1246.000000	96.502277 
1245.000000	96.503771 
1244.000000	96.500186 
1243.000000	96.495426 
1242.000000	96.493020 
1241.000000	96.494372 
1240.000000	96.499351 
1239.000000	96.505148 
1238.000000	96.506431 
1237.000000	96.500188 
1236.000000	96.489216 
1235.000000	96.478058 
1234.000000	96.467265 
1233.000000	96.454778 
1232.000000	96.440845 
1231.000000	96.427300 
1230.000000	96.413606 
1229.000000	96.397895 
1228.000000	96.380228 
1227.000000	96.360537 
1226.000000	96.334975 
1225.000000	96.299079 
1224.000000	96.253856 
1223.000000	96.204435 
1222.000000	96.153134 
1221.000000	96.097961 
1220.000000	96.037600 
1219.000000	95.973308 
1218.000000	95.905494 
1217.000000	95.832651 
1216.000000	95.754046 
1215.000000	95.670076 
1214.000000	95.580528 
1213.000000	95.486502 
1212.000000	95.392805 
1211.000000	95.302832 
1210.000000	95.211939 
1209.000000	95.112091 
1208.000000	95.003208 
1207.000000	94.893857 
1206.000000	94.789875 
1205.000000	94.687982 
1204.000000	94.582145 
1203.000000	94.471049 
1202.000000	94.357697 
1201.000000	94.245804 
1200.000000	94.137989 
1199.000000	94.033897 
1198.000000	93.928941 
1197.000000	93.818556 
1196.000000	93.703672 
1195.000000	93.588634 
1194.000000	93.474727 
1193.000000	93.359739 
1192.000000	93.242962 
1191.000000	93.125497 
1190.000000	93.006152 
1189.000000	92.882147 
1188.000000	92.753657 
1187.000000	92.623013 
1186.000000	92.490229 
1185.000000	92.354119 
1184.000000	92.216201 
1183.000000	92.078056 
1182.000000	91.936707 
1181.000000	91.788712 
1180.000000	91.636881 
1179.000000	91.485975 
1178.000000	91.333274 
1177.000000	91.171299 
1176.000000	90.998850 
1175.000000	90.821282 
1174.000000	90.640736 
1173.000000	90.454876 
1172.000000	90.265334 
1171.000000	90.077656 
1170.000000	89.891910 
1169.000000	89.703181 
1168.000000	89.513441 
1167.000000	89.334199 
1166.000000	89.176361 
1165.000000	89.047361 
1164.000000	88.959285 
1163.000000	88.927379 
1162.000000	88.954970 
1161.000000	89.026397 
1160.000000	89.116238 
1159.000000	89.198653 
1158.000000	89.249401 
1157.000000	89.251253 
1156.000000	89.202153 
1155.000000	89.112396 
1154.000000	88.992933 
1153.000000	88.851951 
1152.000000	88.700605 
1151.000000	88.551103 
1150.000000	88.407003 
1149.000000	88.264238 
1148.000000	88.122627 
1147.000000	87.986662 
1146.000000	87.854415 
1145.000000	87.716969 
1144.000000	87.571138 
1143.000000	87.422648 
1142.000000	87.274908 
1141.000000	87.125171 
1140.000000	86.973646 
1139.000000	86.825187 
1138.000000	86.679396 
1137.000000	86.529842 
1136.000000	86.375376 
1135.000000	86.221445 
1134.000000	86.068429 
1133.000000	85.910184 
1132.000000	85.746186 
1131.000000	85.583124 
1130.000000	85.422091 
1129.000000	85.256207 
1128.000000	85.083369 
1127.000000	84.909027 
1126.000000	84.734016 
1125.000000	84.552467 
1124.000000	84.364627 
1123.000000	84.178778 
1122.000000	83.997175 
1121.000000	83.813133 
1120.000000	83.625192 
1119.000000	83.440306 
1118.000000	83.259832 
1117.000000	83.077511 
1116.000000	82.895104 
1115.000000	82.724490 
1114.000000	82.569652 
1113.000000	82.421581 
1112.000000	82.274782 
1111.000000	82.132688 
1110.000000	81.993086 
1109.000000	81.845866 
1108.000000	81.689816 
1107.000000	81.534575 
1106.000000	81.382979 
1105.000000	81.227991 
1104.000000	81.069532 
1103.000000	80.916712 
1102.000000	80.769224 
1101.000000	80.616323 
1100.000000	80.457400 
1099.000000	80.303404 
1098.000000	80.158187 
1097.000000	80.012770 
1096.000000	79.863880 
1095.000000	79.717964 
1094.000000	79.574250 
1093.000000	79.423642 
1092.000000	79.268389 
1091.000000	79.122816 
1090.000000	78.990609 
1089.000000	78.861029 
1088.000000	78.730271 
1087.000000	78.605292 
1086.000000	78.483929 
1085.000000	78.354224 
1084.000000	78.217345 
1083.000000	78.088044 
1082.000000	77.968014 
1081.000000	77.842368 
1080.000000	77.707424 
1079.000000	77.577358 
1078.000000	77.456754 
1077.000000	77.330463 
1076.000000	77.188011 
1075.000000	77.034450 
1074.000000	76.870122 
1073.000000	76.683044 
1072.000000	76.468430 
1071.000000	76.232693 
1070.000000	75.971610 
1069.000000	75.668931 
1068.000000	75.325486 
1067.000000	74.967181 
1066.000000	74.614926 
1065.000000	74.267539 
1064.000000	73.921875 
1063.000000	73.584609 
1062.000000	73.253888 
1061.000000	72.913784 
1060.000000	72.558918 
1059.000000	72.203591 
1058.000000	71.857180 
1057.000000	71.511664 
1056.000000	71.161275 
1055.000000	70.811471 
1054.000000	70.460076 
1053.000000	70.093071 
1052.000000	69.708927 
1051.000000	69.323342 
1050.000000	68.939976 
1049.000000	68.543144 
1048.000000	68.128547 
1047.000000	67.711735 
1046.000000	67.298809 
1045.000000	66.878531 
1044.000000	66.449119 
1043.000000	66.024122 
1042.000000	65.606028 
1041.000000	65.182088 
1040.000000	64.752864 
1039.000000	64.337080 
1038.000000	63.941654 
1037.000000	63.555381 
1036.000000	63.177925 
1035.000000	62.824837 
1034.000000	62.497755 
1033.000000	62.180822 
1032.000000	61.872857 
1031.000000	61.591212 
1030.000000	61.337823 
1029.000000	61.095052 
1028.000000	60.861823 
1027.000000	60.659076 
1026.000000	60.490916 
1025.000000	60.334559 
1024.000000	60.177245 
1023.000000	60.029153 
1022.000000	59.891344 
1021.000000	59.746221 
1020.000000	59.589423 
1019.000000	59.437432 
1018.000000	59.294435 
1017.000000	59.145062 
1016.000000	58.987920 
1015.000000	58.841858 
1014.000000	58.710279 
1013.000000	58.573836 
1012.000000	58.427502 
1011.000000	58.290616 
1010.000000	58.171282 
1009.000000	58.055487 
1008.000000	57.940520 
1007.000000	57.844509 
1006.000000	57.773196 
1005.000000	57.711125 
1004.000000	57.654458 
1003.000000	57.618428 
1002.000000	57.603854 
1001.000000	57.591287 
1000.000000	57.577314 
999.000000	 57.581714 
998.000000	 57.609348 
997.000000	 57.639890 
996.000000	 57.664887 
995.000000	 57.700728 
994.000000	 57.755026 
993.000000	 57.814140 
992.000000	 57.873453 
991.000000	 57.946389 
990.000000	 58.034164 
989.000000	 58.120157 
988.000000	 58.203347 
987.000000	 58.304086 
986.000000	 58.428435 
985.000000	 58.560709 
984.000000	 58.699039 
983.000000	 58.863182 
982.000000	 59.057884 
981.000000	 59.263377 
980.000000	 59.471930 
979.000000	 59.699847 
978.000000	 59.953223 
977.000000	 60.216185 
976.000000	 60.483682 
975.000000	 60.772721 
974.000000	 61.089712 
973.000000	 61.418242 
972.000000	 61.749685 
971.000000	 62.095465 
970.000000	 62.458904 
969.000000	 62.824987 
968.000000	 63.187558 
967.000000	 63.557782 
966.000000	 63.937338 
965.000000	 64.312224 
964.000000	 64.680670 
963.000000	 65.057858 
962.000000	 65.445316 
961.000000	 65.824720 
960.000000	 66.189487 
959.000000	 66.553373 
958.000000	 66.920271 
957.000000	 67.274777 
956.000000	 67.611367 
955.000000	 67.944552 
954.000000	 68.281038 
953.000000	 68.608382 
952.000000	 68.919377 
951.000000	 69.221261 
950.000000	 69.513502 
949.000000	 69.783168 
948.000000	 70.030106 
947.000000	 70.270644 
946.000000	 70.508502 
945.000000	 70.727332 
944.000000	 70.919863 
943.000000	 71.099519 
942.000000	 71.275941 
941.000000	 71.443675 
940.000000	 71.602932 
939.000000	 71.766661 
938.000000	 71.938468 
937.000000	 72.106863 
936.000000	 72.268993 
935.000000	 72.436989 
934.000000	 72.614396 
933.000000	 72.790125 
932.000000	 72.962231 
931.000000	 73.143447 
930.000000	 73.336199 
929.000000	 73.525736 
928.000000	 73.705008 
927.000000	 73.883256 
926.000000	 74.063436 
925.000000	 74.233837 
924.000000	 74.388408 
923.000000	 74.533541 
922.000000	 74.669792 
921.000000	 74.789350 
920.000000	 74.896155 
919.000000	 75.005305 
918.000000	 75.117570 
917.000000	 75.217878 
916.000000	 75.304640 
915.000000	 75.398047 
914.000000	 75.514371 
913.000000	 75.654561 
912.000000	 75.821719 
911.000000	 76.025373 
910.000000	 76.263748 
909.000000	 76.525974 
908.000000	 76.815887 
907.000000	 77.149333 
906.000000	 77.525021 
905.000000	 77.922864 
904.000000	 78.333183 
903.000000	 78.761854 
902.000000	 79.205134 
901.000000	 79.647157 
900.000000	 80.085431 
899.000000	 80.532085 
898.000000	 80.986296 
897.000000	 81.429949 
896.000000	 81.853644 
895.000000	 82.262660 
894.000000	 82.656134 
893.000000	 83.025474 
892.000000	 83.375248 
891.000000	 83.720399 
890.000000	 84.059375 
889.000000	 84.373221 
888.000000	 84.653024 
887.000000	 84.905068 
886.000000	 85.128851 
885.000000	 85.315716 
884.000000	 85.471071 
883.000000	 85.611689 
882.000000	 85.738355 
881.000000	 85.839060 
880.000000	 85.923407 
879.000000	 86.023794 
878.000000	 86.155080 
877.000000	 86.302728 
876.000000	 86.459140 
875.000000	 86.641352 
874.000000	 86.863522 
873.000000	 87.121964 
872.000000	 87.416709 
871.000000	 87.757377 
870.000000	 88.136308 
869.000000	 88.523089 
868.000000	 88.897011 
867.000000	 89.262285 
866.000000	 89.624544 
865.000000	 89.976996 
864.000000	 90.318307 
863.000000	 90.660594 
862.000000	 91.008238 
861.000000	 91.347207 
860.000000	 91.664393 
859.000000	 91.960443 
858.000000	 92.237122 
857.000000	 92.490227 
856.000000	 92.722627 
855.000000	 92.947365 
854.000000	 93.169530 
853.000000	 93.379301 
852.000000	 93.568814 
851.000000	 93.741741 
850.000000	 93.902358 
849.000000	 94.049964 
848.000000	 94.187046 
847.000000	 94.317125 
846.000000	 94.432108 
845.000000	 94.518764 
844.000000	 94.579813 
843.000000	 94.630938 
842.000000	 94.674821 
841.000000	 94.696754 
840.000000	 94.688413 
839.000000	 94.656545 
838.000000	 94.606056 
837.000000	 94.535909 
836.000000	 94.456597 
835.000000	 94.390075 
834.000000	 94.344209 
833.000000	 94.306269 
832.000000	 94.269189 
831.000000	 94.244889 
830.000000	 94.243835 
829.000000	 94.261889 
828.000000	 94.297728 
827.000000	 94.362825 
826.000000	 94.461250 
825.000000	 94.577633 
824.000000	 94.695948 
823.000000	 94.811585 
822.000000	 94.918332 
821.000000	 95.006405 
820.000000	 95.079481 
819.000000	 95.150759 
818.000000	 95.215914 
817.000000	 95.249010 
816.000000	 95.229786 
815.000000	 95.157986 
814.000000	 95.037298 
813.000000	 94.862585 
812.000000	 94.627332 
811.000000	 94.325095 
810.000000	 93.936937 
809.000000	 93.435989 
808.000000	 92.814546 
807.000000	 92.093792 
806.000000	 91.302196 
805.000000	 90.461226 
804.000000	 89.598562 
803.000000	 88.754275 
802.000000	 87.962970 
801.000000	 87.249038 
800.000000	 86.646193 
799.000000	 86.195067 
798.000000	 85.908836 
797.000000	 85.763914 
796.000000	 85.732370 
795.000000	 85.797644 
794.000000	 85.933014 
793.000000	 86.096987 
792.000000	 86.262133 
791.000000	 86.422728 
790.000000	 86.566704 
789.000000	 86.667301 
788.000000	 86.709252 
787.000000	 86.695107 
786.000000	 86.618122 
785.000000	 86.457391 
784.000000	 86.210628 
783.000000	 85.907008 
782.000000	 85.579565 
781.000000	 85.252174 
780.000000	 84.961195 
779.000000	 84.756550 
778.000000	 84.665016 
777.000000	 84.678039 
776.000000	 84.785247 
775.000000	 84.988778 
774.000000	 85.272519 
773.000000	 85.590324 
772.000000	 85.902699 
771.000000	 86.200305 
770.000000	 86.480148 
769.000000	 86.727609 
768.000000	 86.935603 
767.000000	 87.114019 
766.000000	 87.265890 
765.000000	 87.380326 
764.000000	 87.463002 
763.000000	 87.546360 
762.000000	 87.652308 
761.000000	 87.768524 
760.000000	 87.877758 
759.000000	 87.986680 
758.000000	 88.108754 
757.000000	 88.241758 
756.000000	 88.380737 
755.000000	 88.532806 
754.000000	 88.700782 
753.000000	 88.869046 
752.000000	 89.021383 
751.000000	 89.158083 
750.000000	 89.285391 
749.000000	 89.405675 
748.000000	 89.527672 
747.000000	 89.666851 
746.000000	 89.824231 
745.000000	 89.983253 
744.000000	 90.137740 
743.000000	 90.303405 
742.000000	 90.492044 
741.000000	 90.695738 
740.000000	 90.907157 
739.000000	 91.133135 
738.000000	 91.375094 
737.000000	 91.615561 
736.000000	 91.837846 
735.000000	 92.042769 
734.000000	 92.235460 
733.000000	 92.412582 
732.000000	 92.571434 
731.000000	 92.714444 
730.000000	 92.836521 
729.000000	 92.925526 
728.000000	 92.983982 
727.000000	 93.033493 
726.000000	 93.092076 
725.000000	 93.164508 
724.000000	 93.256578 
723.000000	 93.376157 
722.000000	 93.514897 
721.000000	 93.651382 
720.000000	 93.779491 
719.000000	 93.911031 
718.000000	 94.044385 
717.000000	 94.157863 
716.000000	 94.241600 
715.000000	 94.311290 
714.000000	 94.382476 
713.000000	 94.454444 
712.000000	 94.528861 
711.000000	 94.618086 
710.000000	 94.721489 
709.000000	 94.816227 
708.000000	 94.884837 
707.000000	 94.930298 
706.000000	 94.953408 
705.000000	 94.940623 
704.000000	 94.885035 
703.000000	 94.793683 
702.000000	 94.659716 
701.000000	 94.450035 
700.000000	 94.136655 
699.000000	 93.724907 
698.000000	 93.245244 
697.000000	 92.745873 
696.000000	 92.303843 
695.000000	 92.008927 
694.000000	 91.910858 
693.000000	 91.992171 
692.000000	 92.197656 
691.000000	 92.471448 
690.000000	 92.763177 
689.000000	 93.032506 
688.000000	 93.268246 
687.000000	 93.482863 
686.000000	 93.677261 
685.000000	 93.835900 
684.000000	 93.962578 
683.000000	 94.086825 
682.000000	 94.223405 
681.000000	 94.356998 
680.000000	 94.477579 
679.000000	 94.599525 
678.000000	 94.730525 
677.000000	 94.856243 
676.000000	 94.975259 
675.000000	 95.109030 
674.000000	 95.254802 
673.000000	 95.371420 
672.000000	 95.438778 
671.000000	 95.496332 
670.000000	 95.605870 
669.000000	 95.775891 
668.000000	 95.957754 
667.000000	 96.095517 
666.000000	 96.167993 
665.000000	 96.194662 
664.000000	 96.204576 
663.000000	 96.227008 
662.000000	 96.279467 
661.000000	 96.344869 
660.000000	 96.407118 
659.000000	 96.475481 
658.000000	 96.551623 
657.000000	 96.608054 
656.000000	 96.628733 
655.000000	 96.627953 
654.000000	 96.607024 
653.000000	 96.542446 
652.000000	 96.444437 
651.000000	 96.380864 
650.000000	 96.397677 

