4000.000000	97.931178 
3999.000000	97.929790 
3998.000000	97.926644 
3997.000000	97.922771 
3996.000000	97.919695 
3995.000000	97.918248 
3994.000000	97.918403 
3993.000000	97.919623 
3992.000000	97.921079 
3991.000000	97.921905 
3990.000000	97.921663 
3989.000000	97.920616 
3988.000000	97.919400 
3987.000000	97.918560 
3986.000000	97.918479 
3985.000000	97.919412 
3984.000000	97.921171 
3983.000000	97.923029 
3982.000000	97.924430 
3981.000000	97.925469 
3980.000000	97.926247 
3979.000000	97.926249 
3978.000000	97.925045 
3977.000000	97.923293 
3976.000000	97.922266 
3975.000000	97.922230 
3974.000000	97.922039 
3973.000000	97.920581 
3972.000000	97.918032 
3971.000000	97.915574 
3970.000000	97.914206 
3969.000000	97.914159 
3968.000000	97.915154 
3967.000000	97.916651 
3966.000000	97.918110 
3965.000000	97.919165 
3964.000000	97.919442 
3963.000000	97.918510 
3962.000000	97.916328 
3961.000000	97.913597 
3960.000000	97.911240 
3959.000000	97.909691 
3958.000000	97.908821 
3957.000000	97.908479 
3956.000000	97.908612 
3955.000000	97.908727 
3954.000000	97.908085 
3953.000000	97.906360 
3952.000000	97.903969 
3951.000000	97.901654 
3950.000000	97.899706 
3949.000000	97.897946 
3948.000000	97.896046 
3947.000000	97.894041 
3946.000000	97.892625 
3945.000000	97.892744 
3944.000000	97.894611 
3943.000000	97.896994 
3942.000000	97.898569 
3941.000000	97.899281 
3940.000000	97.899720 
3939.000000	97.899950 
3938.000000	97.899338 
3937.000000	97.897410 
3936.000000	97.894488 
3935.000000	97.891175 
3934.000000	97.888147 
3933.000000	97.886123 
3932.000000	97.885576 
3931.000000	97.885958 
3930.000000	97.886010 
3929.000000	97.885502 
3928.000000	97.885507 
3927.000000	97.886809 
3926.000000	97.888546 
3925.000000	97.888802 
3924.000000	97.886889 
3923.000000	97.883937 
3922.000000	97.881157 
3921.000000	97.879028 
3920.000000	97.877885 
3919.000000	97.878255 
3918.000000	97.879959 
3917.000000	97.881746 
3916.000000	97.882646 
3915.000000	97.882913 
3914.000000	97.883278 
3913.000000	97.883921 
3912.000000	97.884508 
3911.000000	97.884910 
3910.000000	97.884948 
3909.000000	97.884197 
3908.000000	97.882585 
3907.000000	97.880305 
3906.000000	97.877573 
3905.000000	97.873906 
3904.000000	97.868864 
3903.000000	97.863639 
3902.000000	97.860517 
3901.000000	97.860643 
3900.000000	97.863121 
3899.000000	97.865805 
3898.000000	97.867374 
3897.000000	97.867774 
3896.000000	97.867245 
3895.000000	97.866304 
3894.000000	97.865739 
3893.000000	97.866004 
3892.000000	97.866321 
3891.000000	97.865242 
3890.000000	97.862613 
3889.000000	97.859548 
3888.000000	97.857272 
3887.000000	97.856158 
3886.000000	97.855796 
3885.000000	97.855555 
3884.000000	97.855080 
3883.000000	97.854231 
3882.000000	97.853182 
3881.000000	97.852382 
3880.000000	97.852043 
3879.000000	97.851710 
3878.000000	97.850909 
3877.000000	97.849807 
3876.000000	97.849046 
3875.000000	97.848745 
3874.000000	97.848240 
3873.000000	97.847024 
3872.000000	97.845378 
3871.000000	97.843761 
3870.000000	97.842279 
3869.000000	97.841197 
3868.000000	97.840780 
3867.000000	97.840702 
3866.000000	97.840409 
3865.000000	97.839910 
3864.000000	97.839762 
3863.000000	97.840077 
3862.000000	97.840090 
3861.000000	97.839533 
3860.000000	97.839138 
3859.000000	97.839490 
3858.000000	97.840219 
3857.000000	97.840453 
3856.000000	97.839908 
3855.000000	97.838941 
3854.000000	97.837227 
3853.000000	97.834549 
3852.000000	97.832283 
3851.000000	97.831573 
3850.000000	97.831887 
3849.000000	97.832511 
3848.000000	97.833327 
3847.000000	97.834539 
3846.000000	97.835667 
3845.000000	97.835813 
3844.000000	97.834786 
3843.000000	97.833138 
3842.000000	97.831425 
3841.000000	97.830221 
3840.000000	97.829855 
3839.000000	97.830318 
3838.000000	97.831365 
3837.000000	97.832230 
3836.000000	97.832405 
3835.000000	97.832172 
3834.000000	97.832272 
3833.000000	97.833312 
3832.000000	97.835076 
3831.000000	97.836781 
3830.000000	97.837999 
3829.000000	97.838978 
3828.000000	97.840571 
3827.000000	97.843229 
3826.000000	97.845790 
3825.000000	97.846555 
3824.000000	97.844922 
3823.000000	97.842219 
3822.000000	97.840548 
3821.000000	97.840056 
3820.000000	97.839632 
3819.000000	97.838733 
3818.000000	97.837647 
3817.000000	97.837682 
3816.000000	97.840391 
3815.000000	97.845964 
3814.000000	97.852394 
3813.000000	97.856847 
3812.000000	97.858182 
3811.000000	97.858102 
3810.000000	97.858788 
3809.000000	97.860146 
3808.000000	97.860028 
3807.000000	97.857060 
3806.000000	97.852398 
3805.000000	97.848237 
3804.000000	97.845301 
3803.000000	97.844589 
3802.000000	97.846669 
3801.000000	97.849657 
3800.000000	97.851631 
3799.000000	97.851579 
3798.000000	97.850159 
3797.000000	97.850608 
3796.000000	97.855756 
3795.000000	97.864512 
3794.000000	97.872351 
3793.000000	97.876057 
3792.000000	97.876603 
3791.000000	97.877511 
3790.000000	97.880057 
3789.000000	97.882109 
3788.000000	97.882103 
3787.000000	97.881353 
3786.000000	97.881761 
3785.000000	97.882846 
3784.000000	97.882350 
3783.000000	97.879219 
3782.000000	97.874253 
3781.000000	97.869288 
3780.000000	97.866504 
3779.000000	97.867704 
3778.000000	97.872680 
3777.000000	97.878772 
3776.000000	97.882595 
3775.000000	97.882507 
3774.000000	97.879321 
3773.000000	97.874939 
3772.000000	97.870917 
3771.000000	97.867333 
3770.000000	97.863302 
3769.000000	97.859020 
3768.000000	97.855509 
3767.000000	97.852674 
3766.000000	97.850288 
3765.000000	97.848717 
3764.000000	97.848787 
3763.000000	97.850158 
3762.000000	97.850728 
3761.000000	97.849255 
3760.000000	97.846705 
3759.000000	97.845237 
3758.000000	97.843504 
3757.000000	97.837617 
3756.000000	97.827349 
3755.000000	97.815141 
3754.000000	97.802091 
3753.000000	97.787779 
3752.000000	97.774599 
3751.000000	97.766970 
3750.000000	97.763865 
3749.000000	97.760370 
3748.000000	97.756065 
3747.000000	97.755047 
3746.000000	97.761165 
3745.000000	97.770585 
3744.000000	97.778742 
3743.000000	97.785912 
3742.000000	97.788482 
3741.000000	97.780876 
3740.000000	97.766146 
3739.000000	97.755955 
3738.000000	97.758285 
3737.000000	97.766579 
3736.000000	97.770346 
3735.000000	97.769816 
3734.000000	97.772326 
3733.000000	97.778608 
3732.000000	97.783870 
3731.000000	97.787554 
3730.000000	97.791061 
3729.000000	97.792885 
3728.000000	97.791885 
3727.000000	97.789855 
3726.000000	97.789630 
3725.000000	97.791275 
3724.000000	97.792559 
3723.000000	97.792802 
3722.000000	97.793457 
3721.000000	97.795931 
3720.000000	97.797788 
3719.000000	97.796881 
3718.000000	97.794136 
3717.000000	97.789956 
3716.000000	97.783586 
3715.000000	97.772707 
3714.000000	97.756576 
3713.000000	97.739504 
3712.000000	97.726318 
3711.000000	97.717579 
3710.000000	97.710007 
3709.000000	97.701323 
3708.000000	97.691745 
3707.000000	97.680703 
3706.000000	97.667627 
3705.000000	97.653522 
3704.000000	97.640482 
3703.000000	97.628926 
3702.000000	97.615129 
3701.000000	97.595213 
3700.000000	97.570599 
3699.000000	97.547144 
3698.000000	97.530454 
3697.000000	97.521225 
3696.000000	97.516120 
3695.000000	97.511013 
3694.000000	97.502516 
3693.000000	97.489995 
3692.000000	97.475905 
3691.000000	97.463635 
3690.000000	97.452942 
3689.000000	97.442175 
3688.000000	97.433323 
3687.000000	97.428541 
3686.000000	97.425895 
3685.000000	97.421764 
3684.000000	97.415006 
3683.000000	97.407849 
3682.000000	97.402282 
3681.000000	97.395067 
3680.000000	97.380462 
3679.000000	97.355989 
3678.000000	97.325567 
3677.000000	97.296534 
3676.000000	97.272191 
3675.000000	97.252903 
3674.000000	97.238299 
3673.000000	97.225188 
3672.000000	97.209801 
3671.000000	97.194996 
3670.000000	97.185626 
3669.000000	97.181399 
3668.000000	97.177411 
3667.000000	97.169409 
3666.000000	97.158366 
3665.000000	97.147920 
3664.000000	97.139077 
3663.000000	97.130351 
3662.000000	97.119874 
3661.000000	97.106135 
3660.000000	97.089151 
3659.000000	97.070058 
3658.000000	97.051214 
3657.000000	97.033798 
3656.000000	97.016990 
3655.000000	97.000866 
3654.000000	96.985032 
3653.000000	96.967342 
3652.000000	96.944839 
3651.000000	96.916459 
3650.000000	96.884726 
3649.000000	96.856377 
3648.000000	96.839287 
3647.000000	96.836162 
3646.000000	96.844052 
3645.000000	96.857965 
3644.000000	96.873247 
3643.000000	96.886550 
3642.000000	96.895370 
3641.000000	96.897435 
3640.000000	96.892117 
3639.000000	96.880442 
3638.000000	96.864969 
3637.000000	96.848424 
3636.000000	96.832383 
3635.000000	96.816982 
3634.000000	96.802045 
3633.000000	96.788489 
3632.000000	96.776038 
3631.000000	96.760971 
3630.000000	96.738202 
3629.000000	96.707700 
3628.000000	96.680114 
3627.000000	96.667318 
3626.000000	96.668995 
3625.000000	96.678689 
3624.000000	96.692086 
3623.000000	96.706213 
3622.000000	96.716869 
3621.000000	96.719537 
3620.000000	96.712518 
3619.000000	96.699847 
3618.000000	96.689751 
3617.000000	96.688792 
3616.000000	96.699342 
3615.000000	96.720121 
3614.000000	96.745765 
3613.000000	96.768949 
3612.000000	96.784830 
3611.000000	96.792732 
3610.000000	96.795648 
3609.000000	96.798946 
3608.000000	96.806488 
3607.000000	96.818507 
3606.000000	96.832960 
3605.000000	96.848583 
3604.000000	96.866062 
3603.000000	96.885265 
3602.000000	96.903173 
3601.000000	96.915253 
3600.000000	96.919221 
3599.000000	96.917425 
3598.000000	96.915321 
3597.000000	96.917297 
3596.000000	96.924947 
3595.000000	96.935823 
3594.000000	96.944745 
3593.000000	96.949017 
3592.000000	96.949402 
3591.000000	96.947870 
3590.000000	96.946511 
3589.000000	96.947054 
3588.000000	96.949224 
3587.000000	96.951072 
3586.000000	96.952553 
3585.000000	96.956000 
3584.000000	96.963827 
3583.000000	96.975935 
3582.000000	96.990041 
3581.000000	97.002624 
3580.000000	97.010919 
3579.000000	97.014164 
3578.000000	97.013462 
3577.000000	97.011161 
3576.000000	97.009316 
3575.000000	97.009047 
3574.000000	97.009819 
3573.000000	97.010226 
3572.000000	97.008572 
3571.000000	97.003223 
3570.000000	96.993483 
3569.000000	96.981164 
3568.000000	96.970469 
3567.000000	96.965059 
3566.000000	96.965579 
3565.000000	96.970262 
3564.000000	96.976838 
3563.000000	96.984012 
3562.000000	96.991039 
3561.000000	96.997193 
3560.000000	97.001928 
3559.000000	97.005202 
3558.000000	97.007472 
3557.000000	97.009436 
3556.000000	97.011566 
3555.000000	97.013755 
3554.000000	97.015322 
3553.000000	97.015174 
3552.000000	97.012746 
3551.000000	97.008401 
3550.000000	97.003188 
3549.000000	96.998708 
3548.000000	96.996787 
3547.000000	96.997821 
3546.000000	96.999821 
3545.000000	97.000229 
3544.000000	96.999109 
3543.000000	96.999026 
3542.000000	97.001717 
3541.000000	97.006361 
3540.000000	97.011096 
3539.000000	97.014865 
3538.000000	97.017560 
3537.000000	97.018985 
3536.000000	97.018852 
3535.000000	97.017205 
3534.000000	97.014585 
3533.000000	97.011922 
3532.000000	97.010224 
3531.000000	97.010022 
3530.000000	97.010652 
3529.000000	97.010583 
3528.000000	97.008882 
3527.000000	97.006311 
3526.000000	97.004622 
3525.000000	97.004915 
3524.000000	97.006943 
3523.000000	97.009651 
3522.000000	97.012119 
3521.000000	97.014040 
3520.000000	97.015603 
3519.000000	97.016936 
3518.000000	97.017769 
3517.000000	97.017583 
3516.000000	97.016230 
3515.000000	97.014311 
3514.000000	97.012841 
3513.000000	97.012499 
3512.000000	97.013090 
3511.000000	97.013691 
3510.000000	97.013393 
3509.000000	97.012077 
3508.000000	97.010449 
3507.000000	97.009368 
3506.000000	97.009128 
3505.000000	97.009376 
3504.000000	97.009517 
3503.000000	97.009182 
3502.000000	97.008422 
3501.000000	97.007578 
3500.000000	97.006988 
3499.000000	97.006721 
3498.000000	97.006481 
3497.000000	97.005846 
3496.000000	97.004677 
3495.000000	97.003306 
3494.000000	97.002255 
3493.000000	97.001750 
3492.000000	97.001535 
3491.000000	97.001102 
3490.000000	97.000201 
3489.000000	96.999053 
3488.000000	96.997975 
3487.000000	96.996910 
3486.000000	96.995538 
3485.000000	96.993797 
3484.000000	96.992002 
3483.000000	96.990475 
3482.000000	96.989219 
3481.000000	96.988028 
3480.000000	96.986758 
3479.000000	96.985388 
3478.000000	96.983869 
3477.000000	96.982093 
3476.000000	96.980040 
3475.000000	96.977874 
3474.000000	96.975855 
3473.000000	96.974141 
3472.000000	96.972672 
3471.000000	96.971222 
3470.000000	96.969568 
3469.000000	96.967692 
3468.000000	96.965761 
3467.000000	96.963950 
3466.000000	96.962285 
3465.000000	96.960622 
3464.000000	96.958731 
3463.000000	96.956463 
3462.000000	96.953892 
3461.000000	96.951326 
3460.000000	96.949081 
3459.000000	96.947190 
3458.000000	96.945336 
3457.000000	96.943104 
3456.000000	96.940353 
3455.000000	96.937356 
3454.000000	96.934633 
3453.000000	96.932536 
3452.000000	96.931035 
3451.000000	96.929782 
3450.000000	96.928350 
3449.000000	96.926487 
3448.000000	96.924125 
3447.000000	96.921325 
3446.000000	96.918278 
3445.000000	96.915315 
3444.000000	96.912802 
3443.000000	96.910941 
3442.000000	96.909624 
3441.000000	96.908474 
3440.000000	96.907102 
3439.000000	96.905337 
3438.000000	96.903238 
3437.000000	96.900966 
3436.000000	96.898727 
3435.000000	96.896775 
3434.000000	96.895334 
3433.000000	96.894391 
3432.000000	96.893605 
3431.000000	96.892597 
3430.000000	96.891270 
3429.000000	96.889835 
3428.000000	96.888473 
3427.000000	96.887078 
3426.000000	96.885452 
3425.000000	96.883695 
3424.000000	96.882203 
3423.000000	96.881148 
3422.000000	96.880156 
3421.000000	96.878710 
3420.000000	96.876853 
3419.000000	96.875190 
3418.000000	96.874189 
3417.000000	96.873782 
3416.000000	96.873681 
3415.000000	96.873741 
3414.000000	96.873791 
3413.000000	96.873430 
3412.000000	96.872374 
3411.000000	96.870883 
3410.000000	96.869613 
3409.000000	96.869065 
3408.000000	96.869264 
3407.000000	96.869823 
3406.000000	96.870174 
3405.000000	96.869909 
3404.000000	96.869067 
3403.000000	96.867996 
3402.000000	96.866983 
3401.000000	96.866129 
3400.000000	96.865502 
3399.000000	96.865134 
3398.000000	96.864814 
3397.000000	96.864207 
3396.000000	96.863356 
3395.000000	96.862810 
3394.000000	96.863002 
3393.000000	96.863680 
3392.000000	96.864131 
3391.000000	96.863911 
3390.000000	96.863254 
3389.000000	96.862827 
3388.000000	96.863223 
3387.000000	96.864615 
3386.000000	96.866639 
3385.000000	96.868465 
3384.000000	96.869251 
3383.000000	96.868758 
3382.000000	96.867652 
3381.000000	96.867075 
3380.000000	96.867608 
3379.000000	96.868789 
3378.000000	96.869807 
3377.000000	96.870649 
3376.000000	96.872058 
3375.000000	96.874294 
3374.000000	96.876486 
3373.000000	96.877565 
3372.000000	96.877569 
3371.000000	96.877587 
3370.000000	96.878524 
3369.000000	96.880302 
3368.000000	96.882242 
3367.000000	96.883773 
3366.000000	96.884637 
3365.000000	96.884832 
3364.000000	96.884689 
3363.000000	96.884798 
3362.000000	96.885508 
3361.000000	96.886583 
3360.000000	96.887599 
3359.000000	96.888613 
3358.000000	96.890135 
3357.000000	96.892421 
3356.000000	96.895084 
3355.000000	96.897532 
3354.000000	96.899659 
3353.000000	96.901871 
3352.000000	96.904449 
3351.000000	96.907077 
3350.000000	96.909152 
3349.000000	96.910477 
3348.000000	96.911543 
3347.000000	96.913086 
3346.000000	96.915385 
3345.000000	96.917970 
3344.000000	96.919959 
3343.000000	96.920767 
3342.000000	96.920556 
3341.000000	96.920196 
3340.000000	96.920497 
3339.000000	96.921406 
3338.000000	96.922238 
3337.000000	96.922616 
3336.000000	96.922977 
3335.000000	96.924068 
3334.000000	96.926095 
3333.000000	96.928526 
3332.000000	96.930626 
3331.000000	96.932099 
3330.000000	96.933135 
3329.000000	96.934044 
3328.000000	96.935019 
3327.000000	96.936173 
3326.000000	96.937606 
3325.000000	96.939301 
3324.000000	96.941013 
3323.000000	96.942422 
3322.000000	96.943454 
3321.000000	96.944396 
3320.000000	96.945624 
3319.000000	96.947246 
3318.000000	96.949053 
3317.000000	96.950750 
3316.000000	96.952192 
3315.000000	96.953405 
3314.000000	96.954474 
3313.000000	96.955469 
3312.000000	96.956450 
3311.000000	96.957503 
3310.000000	96.958767 
3309.000000	96.960362 
3308.000000	96.962253 
3307.000000	96.964159 
3306.000000	96.965705 
3305.000000	96.966732 
3304.000000	96.967446 
3303.000000	96.968272 
3302.000000	96.969494 
3301.000000	96.971027 
3300.000000	96.972464 
3299.000000	96.973376 
3298.000000	96.973644 
3297.000000	96.973631 
3296.000000	96.973991 
3295.000000	96.975167 
3294.000000	96.977185 
3293.000000	96.979786 
3292.000000	96.982648 
3291.000000	96.985412 
3290.000000	96.987659 
3289.000000	96.989089 
3288.000000	96.989751 
3287.000000	96.990040 
3286.000000	96.990362 
3285.000000	96.990862 
3284.000000	96.991501 
3283.000000	96.992310 
3282.000000	96.993459 
3281.000000	96.995044 
3280.000000	96.996818 
3279.000000	96.998274 
3278.000000	96.999153 
3277.000000	96.999820 
3276.000000	97.000905 
3275.000000	97.002563 
3274.000000	97.004344 
3273.000000	97.005889 
3272.000000	97.007450 
3271.000000	97.009481 
3270.000000	97.011926 
3269.000000	97.014171 
3268.000000	97.015700 
3267.000000	97.016609 
3266.000000	97.017463 
3265.000000	97.018776 
3264.000000	97.020606 
3263.000000	97.022605 
3262.000000	97.024391 
3261.000000	97.025901 
3260.000000	97.027347 
3259.000000	97.028840 
3258.000000	97.030210 
3257.000000	97.031292 
3256.000000	97.032234 
3255.000000	97.033344 
3254.000000	97.034690 
3253.000000	97.036103 
3252.000000	97.037539 
3251.000000	97.039180 
3250.000000	97.041122 
3249.000000	97.043147 
3248.000000	97.044915 
3247.000000	97.046345 
3246.000000	97.047660 
3245.000000	97.049097 
3244.000000	97.050662 
3243.000000	97.052217 
3242.000000	97.053717 
3241.000000	97.055266 
3240.000000	97.056952 
3239.000000	97.058768 
3238.000000	97.060725 
3237.000000	97.062909 
3236.000000	97.065327 
3235.000000	97.067737 
3234.000000	97.069792 
3233.000000	97.071353 
3232.000000	97.072567 
3231.000000	97.073777 
3230.000000	97.075251 
3229.000000	97.077057 
3228.000000	97.079125 
3227.000000	97.081346 
3226.000000	97.083665 
3225.000000	97.086040 
3224.000000	97.088359 
3223.000000	97.090499 
3222.000000	97.092455 
3221.000000	97.094395 
3220.000000	97.096500 
3219.000000	97.098771 
3218.000000	97.101054 
3217.000000	97.103217 
3216.000000	97.105270 
3215.000000	97.107325 
3214.000000	97.109476 
3213.000000	97.111744 
3212.000000	97.114095 
3211.000000	97.116473 
3210.000000	97.118842 
3209.000000	97.121198 
3208.000000	97.123554 
3207.000000	97.125921 
3206.000000	97.128297 
3205.000000	97.130706 
3204.000000	97.133199 
3203.000000	97.135804 
3202.000000	97.138479 
3201.000000	97.141125 
3200.000000	97.143673 
3199.000000	97.146133 
3198.000000	97.148590 
3197.000000	97.151135 
3196.000000	97.153780 
3195.000000	97.156473 
3194.000000	97.159185 
3193.000000	97.161945 
3192.000000	97.164787 
3191.000000	97.167666 
3190.000000	97.170480 
3189.000000	97.173160 
3188.000000	97.175721 
3187.000000	97.178264 
3186.000000	97.180914 
3185.000000	97.183723 
3184.000000	97.186650 
3183.000000	97.189572 
3182.000000	97.192407 
3181.000000	97.195171 
3180.000000	97.197904 
3179.000000	97.200584 
3178.000000	97.203187 
3177.000000	97.205789 
3176.000000	97.208523 
3175.000000	97.211447 
3174.000000	97.214538 
3173.000000	97.217742 
3172.000000	97.220945 
3171.000000	97.223945 
3170.000000	97.226602 
3169.000000	97.229017 
3168.000000	97.231469 
3167.000000	97.234100 
3166.000000	97.236792 
3165.000000	97.239372 
3164.000000	97.241804 
3163.000000	97.244155 
3162.000000	97.246511 
3161.000000	97.248958 
3160.000000	97.251537 
3159.000000	97.254200 
3158.000000	97.256871 
3157.000000	97.259553 
3156.000000	97.262303 
3155.000000	97.265092 
3154.000000	97.267825 
3153.000000	97.270513 
3152.000000	97.273289 
3151.000000	97.276215 
3150.000000	97.279153 
3149.000000	97.281885 
3148.000000	97.284301 
3147.000000	97.286463 
3146.000000	97.288577 
3145.000000	97.290878 
3144.000000	97.293462 
3143.000000	97.296187 
3142.000000	97.298799 
3141.000000	97.301222 
3140.000000	97.303652 
3139.000000	97.306314 
3138.000000	97.309171 
3137.000000	97.311929 
3136.000000	97.314311 
3135.000000	97.316340 
3134.000000	97.318383 
3133.000000	97.320852 
3132.000000	97.323760 
3131.000000	97.326613 
3130.000000	97.328898 
3129.000000	97.330662 
3128.000000	97.332511 
3127.000000	97.335018 
3126.000000	97.338308 
3125.000000	97.342131 
3124.000000	97.346061 
3123.000000	97.349665 
3122.000000	97.352672 
3121.000000	97.355155 
3120.000000	97.357482 
3119.000000	97.359986 
3118.000000	97.362680 
3117.000000	97.365332 
3116.000000	97.367696 
3115.000000	97.369696 
3114.000000	97.371549 
3113.000000	97.373728 
3112.000000	97.376663 
3111.000000	97.380390 
3110.000000	97.384476 
3109.000000	97.388313 
3108.000000	97.391523 
3107.000000	97.394144 
3106.000000	97.396485 
3105.000000	97.398770 
3104.000000	97.400877 
3103.000000	97.402509 
3102.000000	97.403634 
3101.000000	97.404605 
3100.000000	97.405785 
3099.000000	97.407300 
3098.000000	97.409343 
3097.000000	97.412387 
3096.000000	97.416696 
3095.000000	97.421675 
3094.000000	97.426095 
3093.000000	97.429159 
3092.000000	97.431014 
3091.000000	97.432213 
3090.000000	97.433122 
3089.000000	97.434009 
3088.000000	97.435299 
3087.000000	97.437457 
3086.000000	97.440708 
3085.000000	97.444864 
3084.000000	97.449062 
3083.000000	97.451835 
3082.000000	97.452276 
3081.000000	97.451427 
3080.000000	97.451673 
3079.000000	97.454058 
3078.000000	97.457270 
3077.000000	97.459903 
3076.000000	97.462357 
3075.000000	97.465314 
3074.000000	97.467773 
3073.000000	97.468383 
3072.000000	97.467852 
3071.000000	97.468280 
3070.000000	97.470487 
3069.000000	97.473635 
3068.000000	97.477080 
3067.000000	97.480874 
3066.000000	97.484427 
3065.000000	97.486319 
3064.000000	97.485703 
3063.000000	97.482822 
3062.000000	97.478267 
3061.000000	97.473006 
3060.000000	97.469035 
3059.000000	97.468588 
3058.000000	97.472351 
3057.000000	97.479005 
3056.000000	97.486129 
3055.000000	97.490791 
3054.000000	97.490350 
3053.000000	97.484864 
3052.000000	97.478618 
3051.000000	97.476957 
3050.000000	97.480588 
3049.000000	97.484596 
3048.000000	97.483981 
3047.000000	97.478730 
3046.000000	97.472601 
3045.000000	97.468631 
3044.000000	97.467402 
3043.000000	97.468752 
3042.000000	97.472676 
3041.000000	97.477811 
3040.000000	97.480626 
3039.000000	97.477741 
3038.000000	97.469021 
3037.000000	97.457499 
3036.000000	97.446070 
3035.000000	97.435010 
3034.000000	97.423358 
3033.000000	97.411652 
3032.000000	97.401823 
3031.000000	97.394692 
3030.000000	97.389011 
3029.000000	97.382983 
3028.000000	97.375220 
3027.000000	97.364123 
3026.000000	97.348371 
3025.000000	97.329119 
3024.000000	97.310305 
3023.000000	97.295222 
3022.000000	97.283530 
3021.000000	97.272849 
3020.000000	97.262107 
3019.000000	97.251601 
3018.000000	97.240473 
3017.000000	97.226380 
3016.000000	97.208174 
3015.000000	97.187445 
3014.000000	97.167021 
3013.000000	97.148841 
3012.000000	97.133159 
3011.000000	97.118495 
3010.000000	97.102152 
3009.000000	97.082085 
3008.000000	97.058818 
3007.000000	97.034859 
3006.000000	97.011951 
3005.000000	96.989615 
3004.000000	96.966589 
3003.000000	96.942969 
3002.000000	96.920624 
3001.000000	96.901931 
3000.000000	96.887884 
2999.000000	96.876684 
2998.000000	96.864458 
2997.000000	96.848639 
2996.000000	96.830596 
2995.000000	96.813419 
2994.000000	96.796705 
2993.000000	96.775319 
2992.000000	96.744847 
2991.000000	96.707760 
2990.000000	96.672879 
2989.000000	96.648760 
2988.000000	96.638433 
2987.000000	96.639842 
2986.000000	96.649315 
2985.000000	96.663551 
2984.000000	96.679035 
2983.000000	96.691760 
2982.000000	96.699118 
2981.000000	96.701789 
2980.000000	96.702533 
2979.000000	96.702723 
2978.000000	96.700941 
2977.000000	96.695411 
2976.000000	96.686923 
2975.000000	96.678583 
2974.000000	96.673362 
2973.000000	96.672925 
2972.000000	96.678109 
2971.000000	96.688870 
2970.000000	96.703500 
2969.000000	96.719220 
2968.000000	96.734249 
2967.000000	96.748719 
2966.000000	96.763353 
2965.000000	96.778108 
2964.000000	96.792468 
2963.000000	96.806158 
2962.000000	96.818966 
2961.000000	96.830534 
2960.000000	96.841096 
2959.000000	96.852102 
2958.000000	96.865383 
2957.000000	96.881506 
2956.000000	96.898954 
2955.000000	96.914813 
2954.000000	96.926684 
2953.000000	96.934881 
2952.000000	96.942836 
2951.000000	96.954239 
2950.000000	96.968931 
2949.000000	96.982360 
2948.000000	96.989998 
2947.000000	96.991658 
2946.000000	96.990939 
2945.000000	96.991224 
2944.000000	96.993406 
2943.000000	96.997044 
2942.000000	97.001627 
2941.000000	97.005930 
2940.000000	97.007943 
2939.000000	97.006979 
2938.000000	97.005005 
2937.000000	97.004655 
2936.000000	97.006230 
2935.000000	97.007610 
2934.000000	97.006756 
2933.000000	97.003313 
2932.000000	96.998168 
2931.000000	96.992725 
2930.000000	96.988683 
2929.000000	96.987265 
2928.000000	96.988087 
2927.000000	96.989403 
2926.000000	96.989860 
2925.000000	96.989571 
2924.000000	96.989339 
2923.000000	96.989537 
2922.000000	96.990073 
2921.000000	96.990868 
2920.000000	96.992038 
2919.000000	96.993991 
2918.000000	96.997134 
2917.000000	97.000546 
2916.000000	97.001016 
2915.000000	96.995125 
2914.000000	96.983361 
2913.000000	96.971003 
2912.000000	96.963503 
2911.000000	96.961376 
2910.000000	96.960913 
2909.000000	96.959276 
2908.000000	96.957214 
2907.000000	96.956423 
2906.000000	96.955914 
2905.000000	96.952125 
2904.000000	96.942728 
2903.000000	96.929852 
2902.000000	96.920690 
2901.000000	96.922571 
2900.000000	96.937599 
2899.000000	96.960923 
2898.000000	96.983966 
2897.000000	97.000721 
2896.000000	97.010283 
2895.000000	97.014703 
2894.000000	97.016734 
2893.000000	97.019760 
2892.000000	97.027095 
2891.000000	97.039186 
2890.000000	97.052459 
2889.000000	97.062739 
2888.000000	97.069370 
2887.000000	97.074557 
2886.000000	97.079448 
2885.000000	97.083282 
2884.000000	97.086640 
2883.000000	97.092923 
2882.000000	97.104852 
2881.000000	97.120828 
2880.000000	97.136638 
2879.000000	97.150475 
2878.000000	97.164418 
2877.000000	97.180716 
2876.000000	97.198345 
2875.000000	97.214146 
2874.000000	97.226190 
2873.000000	97.234780 
2872.000000	97.240931 
2871.000000	97.245560 
2870.000000	97.250253 
2869.000000	97.257226 
2868.000000	97.267488 
2867.000000	97.279700 
2866.000000	97.291577 
2865.000000	97.302137 
2864.000000	97.312250 
2863.000000	97.323684 
2862.000000	97.338089 
2861.000000	97.355991 
2860.000000	97.375719 
2859.000000	97.393967 
2858.000000	97.408764 
2857.000000	97.421692 
2856.000000	97.435897 
2855.000000	97.451986 
2854.000000	97.467354 
2853.000000	97.479636 
2852.000000	97.489209 
2851.000000	97.497966 
2850.000000	97.507063 
2849.000000	97.516622 
2848.000000	97.526502 
2847.000000	97.536260 
2846.000000	97.545039 
2845.000000	97.552538 
2844.000000	97.559790 
2843.000000	97.568177 
2842.000000	97.577794 
2841.000000	97.587262 
2840.000000	97.595041 
2839.000000	97.600717 
2838.000000	97.605251 
2837.000000	97.610233 
2836.000000	97.616620 
2835.000000	97.623917 
2834.000000	97.630868 
2833.000000	97.637073 
2832.000000	97.643373 
2831.000000	97.650317 
2830.000000	97.656828 
2829.000000	97.661104 
2828.000000	97.662771 
2827.000000	97.663732 
2826.000000	97.666744 
2825.000000	97.673065 
2824.000000	97.681277 
2823.000000	97.688322 
2822.000000	97.691935 
2821.000000	97.692175 
2820.000000	97.690719 
2819.000000	97.689102 
2818.000000	97.688103 
2817.000000	97.688456 
2816.000000	97.691044 
2815.000000	97.695892 
2814.000000	97.701481 
2813.000000	97.705546 
2812.000000	97.706615 
2811.000000	97.704922 
2810.000000	97.702330 
2809.000000	97.701290 
2808.000000	97.703210 
2807.000000	97.707610 
2806.000000	97.712985 
2805.000000	97.718264 
2804.000000	97.723019 
2803.000000	97.726752 
2802.000000	97.729112 
2801.000000	97.730875 
2800.000000	97.733499 
2799.000000	97.737154 
2798.000000	97.740077 
2797.000000	97.740600 
2796.000000	97.739183 
2795.000000	97.737866 
2794.000000	97.738152 
2793.000000	97.740040 
2792.000000	97.742776 
2791.000000	97.745668 
2790.000000	97.748189 
2789.000000	97.749957 
2788.000000	97.750979 
2787.000000	97.751725 
2786.000000	97.752782 
2785.000000	97.754424 
2784.000000	97.756464 
2783.000000	97.758463 
2782.000000	97.760122 
2781.000000	97.761527 
2780.000000	97.762978 
2779.000000	97.764648 
2778.000000	97.766463 
2777.000000	97.768236 
2776.000000	97.769833 
2775.000000	97.771246 
2774.000000	97.772532 
2773.000000	97.773733 
2772.000000	97.774849 
2771.000000	97.775901 
2770.000000	97.776999 
2769.000000	97.778310 
2768.000000	97.779918 
2767.000000	97.781705 
2766.000000	97.783414 
2765.000000	97.784880 
2764.000000	97.786160 
2763.000000	97.787413 
2762.000000	97.788692 
2761.000000	97.789914 
2760.000000	97.791017 
2759.000000	97.792058 
2758.000000	97.793143 
2757.000000	97.794266 
2756.000000	97.795298 
2755.000000	97.796174 
2754.000000	97.797033 
2753.000000	97.798100 
2752.000000	97.799417 
2751.000000	97.800780 
2750.000000	97.801969 
2749.000000	97.803005 
2748.000000	97.804029 
2747.000000	97.805026 
2746.000000	97.805862 
2745.000000	97.806537 
2744.000000	97.807243 
2743.000000	97.808142 
2742.000000	97.809210 
2741.000000	97.810307 
2740.000000	97.811352 
2739.000000	97.812354 
2738.000000	97.813326 
2737.000000	97.814274 
2736.000000	97.815230 
2735.000000	97.816226 
2734.000000	97.817248 
2733.000000	97.818262 
2732.000000	97.819252 
2731.000000	97.820229 
2730.000000	97.821200 
2729.000000	97.822166 
2728.000000	97.823122 
2727.000000	97.824063 
2726.000000	97.824983 
2725.000000	97.825884 
2724.000000	97.826768 
2723.000000	97.827641 
2722.000000	97.828504 
2721.000000	97.829357 
2720.000000	97.830204 
2719.000000	97.831050 
2718.000000	97.831901 
2717.000000	97.832757 
2716.000000	97.833613 
2715.000000	97.834466 
2714.000000	97.835317 
2713.000000	97.836168 
2712.000000	97.837019 
2711.000000	97.837871 
2710.000000	97.838718 
2709.000000	97.839561 
2708.000000	97.840402 
2707.000000	97.841240 
2706.000000	97.842072 
2705.000000	97.842895 
2704.000000	97.843705 
2703.000000	97.844504 
2702.000000	97.845295 
2701.000000	97.846079 
2700.000000	97.846859 
2699.000000	97.847636 
2698.000000	97.848407 
2697.000000	97.849164 
2696.000000	97.849903 
2695.000000	97.850623 
2694.000000	97.851326 
2693.000000	97.852017 
2692.000000	97.852703 
2691.000000	97.853385 
2690.000000	97.854053 
2689.000000	97.854694 
2688.000000	97.855310 
2687.000000	97.855907 
2686.000000	97.856484 
2685.000000	97.857052 
2684.000000	97.857647 
2683.000000	97.858285 
2682.000000	97.858922 
2681.000000	97.859503 
2680.000000	97.860051 
2679.000000	97.860650 
2678.000000	97.861352 
2677.000000	97.862134 
2676.000000	97.862944 
2675.000000	97.863689 
2674.000000	97.864236 
2673.000000	97.864535 
2672.000000	97.864755 
2671.000000	97.865147 
2670.000000	97.865742 
2669.000000	97.866349 
2668.000000	97.866874 
2667.000000	97.867427 
2666.000000	97.868032 
2665.000000	97.868449 
2664.000000	97.868491 
2663.000000	97.868367 
2662.000000	97.868517 
2661.000000	97.869088 
2660.000000	97.869821 
2659.000000	97.870429 
2658.000000	97.870881 
2657.000000	97.871251 
2656.000000	97.871541 
2655.000000	97.871768 
2654.000000	97.871991 
2653.000000	97.872151 
2652.000000	97.872124 
2651.000000	97.872021 
2650.000000	97.872195 
2649.000000	97.872788 
2648.000000	97.873479 
2647.000000	97.873812 
2646.000000	97.873623 
2645.000000	97.873013 
2644.000000	97.872158 
2643.000000	97.871333 
2642.000000	97.870915 
2641.000000	97.871068 
2640.000000	97.871565 
2639.000000	97.872092 
2638.000000	97.872652 
2637.000000	97.873352 
2636.000000	97.874045 
2635.000000	97.874506 
2634.000000	97.874833 
2633.000000	97.875266 
2632.000000	97.875674 
2631.000000	97.875666 
2630.000000	97.875254 
2629.000000	97.874990 
2628.000000	97.875295 
2627.000000	97.875959 
2626.000000	97.876515 
2625.000000	97.876825 
2624.000000	97.877080 
2623.000000	97.877418 
2622.000000	97.877755 
2621.000000	97.877864 
2620.000000	97.877454 
2619.000000	97.876325 
2618.000000	97.874726 
2617.000000	97.873474 
2616.000000	97.873287 
2615.000000	97.874159 
2614.000000	97.875422 
2613.000000	97.876430 
2612.000000	97.877077 
2611.000000	97.877548 
2610.000000	97.878001 
2609.000000	97.878499 
2608.000000	97.878980 
2607.000000	97.879235 
2606.000000	97.879164 
2605.000000	97.879015 
2604.000000	97.879045 
2603.000000	97.879044 
2602.000000	97.878710 
2601.000000	97.878425 
2600.000000	97.878920 
2599.000000	97.879993 
2598.000000	97.880420 
2597.000000	97.879569 
2596.000000	97.878280 
2595.000000	97.877538 
2594.000000	97.877059 
2593.000000	97.876170 
2592.000000	97.875411 
2591.000000	97.875851 
2590.000000	97.877081 
2589.000000	97.877351 
2588.000000	97.875944 
2587.000000	97.874227 
2586.000000	97.873868 
2585.000000	97.875022 
2584.000000	97.876856 
2583.000000	97.878985 
2582.000000	97.881501 
2581.000000	97.883999 
2580.000000	97.885606 
2579.000000	97.886127 
2578.000000	97.886478 
2577.000000	97.887551 
2576.000000	97.888873 
2575.000000	97.888898 
2574.000000	97.886687 
2573.000000	97.882828 
2572.000000	97.878605 
2571.000000	97.874673 
2570.000000	97.871159 
2569.000000	97.868617 
2568.000000	97.867852 
2567.000000	97.868735 
2566.000000	97.870005 
2565.000000	97.870646 
2564.000000	97.870884 
2563.000000	97.871391 
2562.000000	97.872224 
2561.000000	97.873142 
2560.000000	97.874448 
2559.000000	97.876669 
2558.000000	97.879525 
2557.000000	97.881975 
2556.000000	97.883490 
2555.000000	97.884723 
2554.000000	97.886479 
2553.000000	97.888283 
2552.000000	97.888657 
2551.000000	97.887099 
2550.000000	97.885215 
2549.000000	97.885163 
2548.000000	97.886927 
2547.000000	97.888169 
2546.000000	97.887143 
2545.000000	97.884694 
2544.000000	97.882739 
2543.000000	97.881719 
2542.000000	97.880806 
2541.000000	97.880053 
2540.000000	97.880577 
2539.000000	97.882510 
2538.000000	97.884286 
2537.000000	97.884661 
2536.000000	97.884333 
2535.000000	97.884682 
2534.000000	97.885603 
2533.000000	97.885666 
2532.000000	97.884138 
2531.000000	97.881886 
2530.000000	97.880289 
2529.000000	97.879860 
2528.000000	97.880225 
2527.000000	97.880908 
2526.000000	97.881754 
2525.000000	97.882735 
2524.000000	97.883696 
2523.000000	97.884395 
2522.000000	97.884698 
2521.000000	97.884655 
2520.000000	97.884373 
2519.000000	97.883907 
2518.000000	97.883308 
2517.000000	97.882677 
2516.000000	97.882107 
2515.000000	97.881616 
2514.000000	97.881295 
2513.000000	97.881414 
2512.000000	97.882227 
2511.000000	97.883687 
2510.000000	97.885466 
2509.000000	97.887162 
2508.000000	97.888392 
2507.000000	97.888915 
2506.000000	97.888928 
2505.000000	97.889161 
2504.000000	97.890262 
2503.000000	97.892069 
2502.000000	97.893667 
2501.000000	97.894326 
2500.000000	97.894117 
2499.000000	97.893645 
2498.000000	97.893432 
2497.000000	97.893670 
2496.000000	97.894402 
2495.000000	97.895533 
2494.000000	97.896661 
2493.000000	97.897246 
2492.000000	97.897121 
2491.000000	97.896778 
2490.000000	97.896994 
2489.000000	97.898120 
2488.000000	97.899822 
2487.000000	97.901451 
2486.000000	97.902649 
2485.000000	97.903459 
2484.000000	97.903953 
2483.000000	97.904048 
2482.000000	97.903818 
2481.000000	97.903737 
2480.000000	97.904271 
2479.000000	97.905296 
2478.000000	97.906207 
2477.000000	97.906646 
2476.000000	97.906817 
2475.000000	97.907025 
2474.000000	97.907217 
2473.000000	97.907149 
2472.000000	97.906729 
2471.000000	97.906013 
2470.000000	97.905138 
2469.000000	97.904396 
2468.000000	97.904103 
2467.000000	97.904159 
2466.000000	97.904006 
2465.000000	97.903326 
2464.000000	97.902635 
2463.000000	97.902892 
2462.000000	97.904619 
2461.000000	97.907536 
2460.000000	97.910794 
2459.000000	97.913430 
2458.000000	97.914676 
2457.000000	97.914201 
2456.000000	97.912262 
2455.000000	97.909693 
2454.000000	97.907567 
2453.000000	97.906469 
2452.000000	97.906038 
2451.000000	97.905431 
2450.000000	97.904419 
2449.000000	97.903781 
2448.000000	97.904305 
2447.000000	97.905763 
2446.000000	97.907165 
2445.000000	97.907848 
2444.000000	97.907825 
2443.000000	97.907328 
2442.000000	97.906594 
2441.000000	97.905991 
2440.000000	97.905839 
2439.000000	97.906119 
2438.000000	97.906719 
2437.000000	97.907820 
2436.000000	97.909557 
2435.000000	97.911437 
2434.000000	97.912615 
2433.000000	97.912798 
2432.000000	97.912486 
2431.000000	97.912362 
2430.000000	97.912780 
2429.000000	97.913811 
2428.000000	97.915232 
2427.000000	97.916340 
2426.000000	97.916351 
2425.000000	97.915172 
2424.000000	97.913530 
2423.000000	97.912260 
2422.000000	97.911715 
2421.000000	97.912020 
2420.000000	97.913253 
2419.000000	97.915077 
2418.000000	97.916672 
2417.000000	97.917599 
2416.000000	97.918186 
2415.000000	97.918856 
2414.000000	97.919500 
2413.000000	97.919853 
2412.000000	97.920037 
2411.000000	97.920333 
2410.000000	97.920742 
2409.000000	97.921193 
2408.000000	97.921878 
2407.000000	97.922908 
2406.000000	97.923885 
2405.000000	97.924257 
2404.000000	97.923924 
2403.000000	97.923206 
2402.000000	97.922480 
2401.000000	97.922068 
2400.000000	97.922254 
2399.000000	97.923079 
2398.000000	97.924235 
2397.000000	97.925350 
2396.000000	97.926317 
2395.000000	97.927096 
2394.000000	97.927374 
2393.000000	97.927029 
2392.000000	97.926425 
2391.000000	97.925977 
2390.000000	97.925733 
2389.000000	97.925462 
2388.000000	97.925086 
2387.000000	97.924707 
2386.000000	97.924367 
2385.000000	97.924045 
2384.000000	97.923737 
2383.000000	97.923438 
2382.000000	97.923136 
2381.000000	97.922824 
2380.000000	97.922500 
2379.000000	97.922156 
2378.000000	97.921780 
2377.000000	97.921357 
2376.000000	97.920882 
2375.000000	97.920358 
2374.000000	97.919794 
2373.000000	97.919197 
2372.000000	97.918568 
2371.000000	97.917907 
2370.000000	97.917212 
2369.000000	97.916470 
2368.000000	97.915669 
2367.000000	97.914804 
2366.000000	97.913891 
2365.000000	97.912961 
2364.000000	97.912050 
2363.000000	97.911183 
2362.000000	97.910364 
2361.000000	97.909582 
2360.000000	97.908814 
2359.000000	97.908035 
2358.000000	97.907220 
2357.000000	97.906358 
2356.000000	97.905453 
2355.000000	97.904520 
2354.000000	97.903578 
2353.000000	97.902650 
2352.000000	97.901763 
2351.000000	97.900930 
2350.000000	97.900132 
2349.000000	97.899331 
2348.000000	97.898509 
2347.000000	97.897687 
2346.000000	97.896911 
2345.000000	97.896210 
2344.000000	97.895581 
2343.000000	97.894996 
2342.000000	97.894434 
2341.000000	97.893888 
2340.000000	97.893359 
2339.000000	97.892837 
2338.000000	97.892309 
2337.000000	97.891764 
2336.000000	97.891207 
2335.000000	97.890655 
2334.000000	97.890119 
2333.000000	97.889593 
2332.000000	97.889068 
2331.000000	97.888593 
2330.000000	97.888220 
2329.000000	97.887896 
2328.000000	97.887557 
2327.000000	97.887183 
2326.000000	97.886861 
2325.000000	97.886615 
2324.000000	97.886604 
2323.000000	97.886976 
2322.000000	97.887594 
2321.000000	97.888108 
2320.000000	97.888264 
2319.000000	97.888329 
2318.000000	97.888506 
2317.000000	97.888658 
2316.000000	97.888367 
2315.000000	97.887697 
2314.000000	97.887142 
2313.000000	97.887126 
2312.000000	97.887671 
2311.000000	97.888565 
2310.000000	97.889548 
2309.000000	97.890110 
2308.000000	97.890031 
2307.000000	97.889718 
2306.000000	97.889844 
2305.000000	97.890255 
2304.000000	97.890295 
2303.000000	97.889865 
2302.000000	97.889781 
2301.000000	97.890816 
2300.000000	97.892535 
2299.000000	97.893497 
2298.000000	97.892574 
2297.000000	97.889718 
2296.000000	97.886094 
2295.000000	97.883122 
2294.000000	97.881776 
2293.000000	97.881932 
2292.000000	97.882868 
2291.000000	97.883602 
2290.000000	97.883607 
2289.000000	97.883030 
2288.000000	97.882477 
2287.000000	97.882185 
2286.000000	97.881810 
2285.000000	97.881093 
2284.000000	97.880353 
2283.000000	97.879937 
2282.000000	97.879551 
2281.000000	97.878602 
2280.000000	97.876913 
2279.000000	97.874819 
2278.000000	97.872716 
2277.000000	97.870961 
2276.000000	97.869936 
2275.000000	97.869787 
2274.000000	97.870059 
2273.000000	97.870034 
2272.000000	97.869521 
2271.000000	97.868855 
2270.000000	97.868204 
2269.000000	97.867352 
2268.000000	97.866213 
2267.000000	97.865076 
2266.000000	97.864169 
2265.000000	97.863327 
2264.000000	97.862243 
2263.000000	97.860810 
2262.000000	97.859123 
2261.000000	97.857334 
2260.000000	97.855627 
2259.000000	97.854126 
2258.000000	97.852791 
2257.000000	97.851504 
2256.000000	97.850255 
2255.000000	97.849121 
2254.000000	97.848051 
2253.000000	97.846816 
2252.000000	97.845257 
2251.000000	97.843460 
2250.000000	97.841607 
2249.000000	97.839817 
2248.000000	97.838127 
2247.000000	97.836539 
2246.000000	97.835017 
2245.000000	97.833506 
2244.000000	97.831965 
2243.000000	97.830395 
2242.000000	97.828815 
2241.000000	97.827249 
2240.000000	97.825722 
2239.000000	97.824248 
2238.000000	97.822821 
2237.000000	97.821419 
2236.000000	97.820015 
2235.000000	97.818585 
2234.000000	97.817116 
2233.000000	97.815607 
2232.000000	97.814070 
2231.000000	97.812519 
2230.000000	97.810958 
2229.000000	97.809382 
2228.000000	97.807782 
2227.000000	97.806159 
2226.000000	97.804511 
2225.000000	97.802834 
2224.000000	97.801126 
2223.000000	97.799400 
2222.000000	97.797682 
2221.000000	97.795991 
2220.000000	97.794324 
2219.000000	97.792668 
2218.000000	97.791012 
2217.000000	97.789356 
2216.000000	97.787708 
2215.000000	97.786073 
2214.000000	97.784446 
2213.000000	97.782822 
2212.000000	97.781211 
2211.000000	97.779642 
2210.000000	97.778141 
2209.000000	97.776706 
2208.000000	97.775309 
2207.000000	97.773911 
2206.000000	97.772484 
2205.000000	97.771008 
2204.000000	97.769472 
2203.000000	97.767875 
2202.000000	97.766231 
2201.000000	97.764580 
2200.000000	97.762959 
2199.000000	97.761336 
2198.000000	97.759654 
2197.000000	97.757895 
2196.000000	97.756093 
2195.000000	97.754290 
2194.000000	97.752522 
2193.000000	97.750854 
2192.000000	97.749400 
2191.000000	97.748187 
2190.000000	97.747006 
2189.000000	97.745542 
2188.000000	97.743740 
2187.000000	97.741868 
2186.000000	97.740058 
2185.000000	97.738081 
2184.000000	97.735966 
2183.000000	97.734543 
2182.000000	97.734608 
2181.000000	97.735745 
2180.000000	97.736272 
2179.000000	97.734993 
2178.000000	97.732311 
2177.000000	97.729984 
2176.000000	97.729353 
2175.000000	97.730242 
2174.000000	97.731415 
2173.000000	97.732023 
2172.000000	97.732488 
2171.000000	97.733859 
2170.000000	97.736354 
2169.000000	97.738627 
2168.000000	97.738837 
2167.000000	97.736367 
2166.000000	97.732319 
2165.000000	97.728390 
2164.000000	97.725462 
2163.000000	97.723510 
2162.000000	97.722566 
2161.000000	97.723375 
2160.000000	97.726913 
2159.000000	97.733093 
2158.000000	97.740006 
2157.000000	97.745117 
2156.000000	97.747535 
2155.000000	97.748515 
2154.000000	97.749955 
2153.000000	97.752864 
2152.000000	97.756901 
2151.000000	97.760520 
2150.000000	97.761707 
2149.000000	97.759811 
2148.000000	97.757038 
2147.000000	97.756846 
2146.000000	97.760354 
2145.000000	97.765642 
2144.000000	97.770960 
2143.000000	97.776858 
2142.000000	97.783776 
2141.000000	97.789688 
2140.000000	97.792491 
2139.000000	97.793648 
2138.000000	97.796832 
2137.000000	97.802940 
2136.000000	97.808679 
2135.000000	97.810569 
2134.000000	97.808369 
2133.000000	97.804844 
2132.000000	97.803550 
2131.000000	97.806450 
2130.000000	97.812778 
2129.000000	97.819519 
2128.000000	97.823935 
2127.000000	97.825956 
2126.000000	97.827541 
2125.000000	97.830030 
2124.000000	97.832849 
2123.000000	97.834625 
2122.000000	97.834563 
2121.000000	97.832756 
2120.000000	97.829978 
2119.000000	97.827364 
2118.000000	97.825884 
2117.000000	97.825896 
2116.000000	97.827092 
2115.000000	97.828577 
2114.000000	97.829046 
2113.000000	97.827696 
2112.000000	97.825406 
2111.000000	97.824309 
2110.000000	97.825573 
2109.000000	97.828141 
2108.000000	97.830145 
2107.000000	97.830929 
2106.000000	97.830990 
2105.000000	97.830826 
2104.000000	97.830830 
2103.000000	97.831509 
2102.000000	97.832561 
2101.000000	97.832339 
2100.000000	97.829653 
2099.000000	97.825870 
2098.000000	97.824041 
2097.000000	97.825542 
2096.000000	97.828952 
2095.000000	97.831787 
2094.000000	97.832861 
2093.000000	97.832514 
2092.000000	97.831488 
2091.000000	97.830467 
2090.000000	97.830021 
2089.000000	97.830202 
2088.000000	97.830266 
2087.000000	97.829225 
2086.000000	97.826671 
2085.000000	97.823054 
2084.000000	97.819371 
2083.000000	97.816470 
2082.000000	97.814500 
2081.000000	97.813034 
2080.000000	97.811782 
2079.000000	97.810986 
2078.000000	97.810803 
2077.000000	97.810568 
2076.000000	97.809385 
2075.000000	97.807321 
2074.000000	97.805325 
2073.000000	97.803808 
2072.000000	97.802058 
2071.000000	97.799382 
2070.000000	97.796084 
2069.000000	97.793008 
2068.000000	97.790650 
2067.000000	97.788968 
2066.000000	97.787645 
2065.000000	97.786191 
2064.000000	97.784107 
2063.000000	97.781356 
2062.000000	97.778594 
2061.000000	97.776656 
2060.000000	97.775787 
2059.000000	97.775628 
2058.000000	97.775513 
2057.000000	97.774794 
2056.000000	97.773160 
2055.000000	97.770721 
2054.000000	97.767963 
2053.000000	97.765422 
2052.000000	97.763286 
2051.000000	97.761394 
2050.000000	97.759494 
2049.000000	97.757487 
2048.000000	97.755506 
2047.000000	97.753772 
2046.000000	97.752367 
2045.000000	97.751203 
2044.000000	97.750153 
2043.000000	97.749162 
2042.000000	97.748224 
2041.000000	97.747342 
2040.000000	97.746535 
2039.000000	97.745872 
2038.000000	97.745411 
2037.000000	97.745049 
2036.000000	97.744521 
2035.000000	97.743608 
2034.000000	97.742351 
2033.000000	97.741133 
2032.000000	97.740385 
2031.000000	97.740221 
2030.000000	97.740260 
2029.000000	97.739898 
2028.000000	97.738896 
2027.000000	97.737582 
2026.000000	97.736412 
2025.000000	97.735471 
2024.000000	97.734721 
2023.000000	97.734498 
2022.000000	97.735263 
2021.000000	97.736825 
2020.000000	97.738159 
2019.000000	97.738318 
2018.000000	97.737156 
2017.000000	97.735266 
2016.000000	97.733474 
2015.000000	97.732270 
2014.000000	97.731491 
2013.000000	97.730364 
2012.000000	97.728465 
2011.000000	97.726740 
2010.000000	97.726721 
2009.000000	97.728440 
2008.000000	97.729993 
2007.000000	97.729918 
2006.000000	97.729122 
2005.000000	97.729450 
2004.000000	97.731243 
2003.000000	97.733497 
2002.000000	97.735676 
2001.000000	97.737647 
2000.000000	97.738176 
1999.000000	97.735484 
1998.000000	97.729385 
1997.000000	97.721931 
1996.000000	97.715997 
1995.000000	97.713250 
1994.000000	97.713583 
1993.000000	97.715424 
1992.000000	97.716538 
1991.000000	97.715869 
1990.000000	97.714436 
1989.000000	97.713965 
1988.000000	97.714749 
1987.000000	97.715280 
1986.000000	97.713983 
1985.000000	97.710929 
1984.000000	97.707691 
1983.000000	97.705794 
1982.000000	97.705546 
1981.000000	97.706234 
1980.000000	97.707057 
1979.000000	97.707710 
1978.000000	97.708023 
1977.000000	97.707650 
1976.000000	97.706526 
1975.000000	97.705348 
1974.000000	97.705120 
1973.000000	97.706237 
1972.000000	97.708212 
1971.000000	97.710253 
1970.000000	97.711828 
1969.000000	97.712674 
1968.000000	97.712663 
1967.000000	97.711988 
1966.000000	97.711443 
1965.000000	97.712056 
1964.000000	97.714270 
1963.000000	97.717640 
1962.000000	97.721208 
1961.000000	97.724045 
1960.000000	97.725731 
1959.000000	97.726421 
1958.000000	97.726770 
1957.000000	97.727669 
1956.000000	97.729666 
1955.000000	97.732520 
1954.000000	97.735253 
1953.000000	97.737097 
1952.000000	97.738230 
1951.000000	97.739384 
1950.000000	97.741023 
1949.000000	97.743288 
1948.000000	97.746275 
1947.000000	97.749887 
1946.000000	97.753537 
1945.000000	97.756498 
1944.000000	97.758559 
1943.000000	97.759933 
1942.000000	97.760738 
1941.000000	97.760928 
1940.000000	97.760713 
1939.000000	97.760572 
1938.000000	97.760859 
1937.000000	97.761929 
1936.000000	97.764284 
1935.000000	97.767815 
1934.000000	97.771255 
1933.000000	97.773554 
1932.000000	97.775448 
1931.000000	97.778613 
1930.000000	97.783616 
1929.000000	97.789159 
1928.000000	97.793748 
1927.000000	97.797109 
1926.000000	97.799428 
1925.000000	97.800448 
1924.000000	97.799856 
1923.000000	97.798263 
1922.000000	97.796719 
1921.000000	97.795519 
1920.000000	97.794722 
1919.000000	97.794989 
1918.000000	97.796486 
1917.000000	97.797600 
1916.000000	97.797024 
1915.000000	97.796623 
1914.000000	97.799124 
1913.000000	97.804070 
1912.000000	97.808275 
1911.000000	97.810043 
1910.000000	97.810618 
1909.000000	97.811246 
1908.000000	97.811585 
1907.000000	97.811385 
1906.000000	97.811282 
1905.000000	97.811327 
1904.000000	97.810675 
1903.000000	97.809840 
1902.000000	97.810560 
1901.000000	97.812718 
1900.000000	97.814149 
1899.000000	97.813733 
1898.000000	97.812685 
1897.000000	97.812539 
1896.000000	97.812952 
1895.000000	97.812762 
1894.000000	97.811952 
1893.000000	97.811327 
1892.000000	97.811343 
1891.000000	97.812058 
1890.000000	97.813372 
1889.000000	97.814819 
1888.000000	97.815787 
1887.000000	97.816270 
1886.000000	97.816713 
1885.000000	97.817113 
1884.000000	97.817042 
1883.000000	97.816462 
1882.000000	97.816020 
1881.000000	97.816330 
1880.000000	97.817381 
1879.000000	97.818720 
1878.000000	97.819959 
1877.000000	97.821086 
1876.000000	97.822185 
1875.000000	97.823233 
1874.000000	97.824223 
1873.000000	97.825170 
1872.000000	97.826012 
1871.000000	97.826674 
1870.000000	97.827218 
1869.000000	97.827829 
1868.000000	97.828625 
1867.000000	97.829645 
1866.000000	97.830874 
1865.000000	97.832120 
1864.000000	97.833186 
1863.000000	97.834206 
1862.000000	97.835532 
1861.000000	97.837266 
1860.000000	97.839134 
1859.000000	97.840847 
1858.000000	97.842418 
1857.000000	97.843932 
1856.000000	97.845332 
1855.000000	97.846586 
1854.000000	97.847797 
1853.000000	97.849074 
1852.000000	97.850491 
1851.000000	97.852119 
1850.000000	97.853938 
1849.000000	97.855782 
1848.000000	97.857454 
1847.000000	97.858927 
1846.000000	97.860341 
1845.000000	97.861854 
1844.000000	97.863469 
1843.000000	97.865099 
1842.000000	97.866721 
1841.000000	97.868340 
1840.000000	97.869964 
1839.000000	97.871597 
1838.000000	97.873185 
1837.000000	97.874581 
1836.000000	97.875663 
1835.000000	97.876605 
1834.000000	97.877767 
1833.000000	97.879176 
1832.000000	97.880532 
1831.000000	97.881545 
1830.000000	97.882113 
1829.000000	97.882510 
1828.000000	97.883261 
1827.000000	97.884765 
1826.000000	97.887091 
1825.000000	97.889685 
1824.000000	97.891509 
1823.000000	97.891964 
1822.000000	97.891548 
1821.000000	97.891114 
1820.000000	97.890798 
1819.000000	97.890255 
1818.000000	97.890003 
1817.000000	97.891087 
1816.000000	97.892889 
1815.000000	97.893828 
1814.000000	97.893976 
1813.000000	97.895089 
1812.000000	97.897615 
1811.000000	97.899108 
1810.000000	97.898297 
1809.000000	97.897202 
1808.000000	97.897193 
1807.000000	97.897453 
1806.000000	97.897861 
1805.000000	97.899327 
1804.000000	97.900980 
1803.000000	97.900411 
1802.000000	97.896845 
1801.000000	97.892613 
1800.000000	97.889684 
1799.000000	97.887263 
1798.000000	97.885470 
1797.000000	97.885493 
1796.000000	97.886308 
1795.000000	97.886165 
1794.000000	97.885876 
1793.000000	97.888118 
1792.000000	97.892283 
1791.000000	97.894082 
1790.000000	97.893026 
1789.000000	97.892656 
1788.000000	97.894539 
1787.000000	97.897184 
1786.000000	97.899298 
1785.000000	97.901190 
1784.000000	97.902887 
1783.000000	97.904169 
1782.000000	97.905115 
1781.000000	97.905920 
1780.000000	97.906677 
1779.000000	97.907184 
1778.000000	97.907940 
1777.000000	97.909273 
1776.000000	97.910623 
1775.000000	97.911544 
1774.000000	97.912078 
1773.000000	97.913000 
1772.000000	97.914793 
1771.000000	97.916162 
1770.000000	97.916081 
1769.000000	97.915643 
1768.000000	97.916327 
1767.000000	97.917971 
1766.000000	97.919370 
1765.000000	97.920282 
1764.000000	97.921543 
1763.000000	97.923446 
1762.000000	97.925105 
1761.000000	97.925939 
1760.000000	97.926346 
1759.000000	97.926630 
1758.000000	97.926734 
1757.000000	97.926610 
1756.000000	97.926814 
1755.000000	97.927259 
1754.000000	97.926835 
1753.000000	97.925054 
1752.000000	97.923240 
1751.000000	97.923431 
1750.000000	97.925662 
1749.000000	97.927819 
1748.000000	97.928715 
1747.000000	97.929060 
1746.000000	97.929130 
1745.000000	97.928792 
1744.000000	97.928745 
1743.000000	97.929186 
1742.000000	97.929075 
1741.000000	97.928355 
1740.000000	97.928614 
1739.000000	97.930220 
1738.000000	97.930777 
1737.000000	97.928996 
1736.000000	97.926100 
1735.000000	97.924262 
1734.000000	97.924332 
1733.000000	97.924346 
1732.000000	97.923441 
1731.000000	97.923960 
1730.000000	97.927347 
1729.000000	97.931013 
1728.000000	97.932600 
1727.000000	97.932372 
1726.000000	97.931398 
1725.000000	97.929859 
1724.000000	97.927883 
1723.000000	97.925724 
1722.000000	97.923814 
1721.000000	97.922153 
1720.000000	97.920736 
1719.000000	97.919156 
1718.000000	97.916866 
1717.000000	97.914605 
1716.000000	97.911458 
1715.000000	97.906550 
1714.000000	97.902624 
1713.000000	97.901005 
1712.000000	97.899610 
1711.000000	97.897237 
1710.000000	97.894726 
1709.000000	97.892427 
1708.000000	97.889772 
1707.000000	97.886815 
1706.000000	97.884423 
1705.000000	97.882391 
1704.000000	97.878282 
1703.000000	97.871480 
1702.000000	97.863700 
1701.000000	97.858104 
1700.000000	97.855070 
1699.000000	97.850901 
1698.000000	97.845659 
1697.000000	97.842097 
1696.000000	97.840042 
1695.000000	97.837102 
1694.000000	97.832500 
1693.000000	97.827388 
1692.000000	97.822580 
1691.000000	97.817880 
1690.000000	97.812927 
1689.000000	97.807601 
1688.000000	97.802023 
1687.000000	97.796376 
1686.000000	97.790786 
1685.000000	97.785771 
1684.000000	97.781067 
1683.000000	97.775890 
1682.000000	97.770427 
1681.000000	97.764811 
1680.000000	97.759837 
1679.000000	97.755422 
1678.000000	97.750719 
1677.000000	97.744820 
1676.000000	97.738744 
1675.000000	97.733900 
1674.000000	97.727932 
1673.000000	97.718229 
1672.000000	97.707217 
1671.000000	97.699085 
1670.000000	97.694919 
1669.000000	97.691306 
1668.000000	97.687557 
1667.000000	97.686025 
1666.000000	97.684963 
1665.000000	97.681846 
1664.000000	97.677473 
1663.000000	97.674426 
1662.000000	97.671502 
1661.000000	97.663518 
1660.000000	97.652416 
1659.000000	97.644898 
1658.000000	97.643596 
1657.000000	97.642523 
1656.000000	97.639504 
1655.000000	97.635452 
1654.000000	97.632029 
1653.000000	97.625625 
1652.000000	97.612057 
1651.000000	97.594569 
1650.000000	97.575600 
1649.000000	97.563495 
1648.000000	97.557490 
1647.000000	97.556198 
1646.000000	97.556607 
1645.000000	97.557776 
1644.000000	97.555264 
1643.000000	97.551025 
1642.000000	97.549304 
1641.000000	97.550977 
1640.000000	97.553185 
1639.000000	97.553137 
1638.000000	97.551205 
1637.000000	97.548463 
1636.000000	97.545169 
1635.000000	97.545822 
1634.000000	97.551699 
1633.000000	97.556608 
1632.000000	97.556983 
1631.000000	97.555357 
1630.000000	97.556706 
1629.000000	97.562034 
1628.000000	97.569142 
1627.000000	97.577807 
1626.000000	97.587928 
1625.000000	97.596702 
1624.000000	97.603148 
1623.000000	97.611334 
1622.000000	97.623379 
1621.000000	97.633082 
1620.000000	97.637553 
1619.000000	97.642074 
1618.000000	97.651973 
1617.000000	97.663277 
1616.000000	97.667672 
1615.000000	97.668335 
1614.000000	97.671388 
1613.000000	97.675646 
1612.000000	97.678088 
1611.000000	97.680829 
1610.000000	97.687535 
1609.000000	97.696668 
1608.000000	97.705781 
1607.000000	97.716708 
1606.000000	97.728868 
1605.000000	97.737228 
1604.000000	97.741591 
1603.000000	97.747067 
1602.000000	97.755530 
1601.000000	97.763359 
1600.000000	97.768785 
1599.000000	97.774710 
1598.000000	97.782223 
1597.000000	97.788651 
1596.000000	97.792686 
1595.000000	97.797060 
1594.000000	97.803993 
1593.000000	97.811008 
1592.000000	97.815350 
1591.000000	97.818835 
1590.000000	97.824257 
1589.000000	97.830359 
1588.000000	97.835262 
1587.000000	97.840938 
1586.000000	97.848985 
1585.000000	97.855493 
1584.000000	97.857672 
1583.000000	97.859621 
1582.000000	97.864861 
1581.000000	97.870812 
1580.000000	97.875076 
1579.000000	97.880894 
1578.000000	97.891260 
1577.000000	97.902322 
1576.000000	97.907413 
1575.000000	97.908363 
1574.000000	97.908833 
1573.000000	97.908248 
1572.000000	97.908703 
1571.000000	97.912974 
1570.000000	97.919046 
1569.000000	97.917879 
1568.000000	97.910113 
1567.000000	97.904988 
1566.000000	97.905889 
1565.000000	97.908093 
1564.000000	97.910548 
1563.000000	97.913934 
1562.000000	97.917840 
1561.000000	97.914799 
1560.000000	97.906621 
1559.000000	97.903832 
1558.000000	97.907200 
1557.000000	97.909427 
1556.000000	97.904560 
1555.000000	97.904075 
1554.000000	97.904465 
1553.000000	97.903807 
1552.000000	97.900332 
1551.000000	97.895646 
1550.000000	97.887944 
1549.000000	97.878062 
1548.000000	97.869488 
1547.000000	97.865159 
1546.000000	97.863195 
1545.000000	97.860008 
1544.000000	97.854618 
1543.000000	97.848203 
1542.000000	97.843334 
1541.000000	97.842780 
1540.000000	97.839009 
1539.000000	97.828200 
1538.000000	97.814932 
1537.000000	97.798957 
1536.000000	97.782900 
1535.000000	97.770519 
1534.000000	97.764200 
1533.000000	97.761935 
1532.000000	97.759137 
1531.000000	97.751438 
1530.000000	97.740808 
1529.000000	97.731239 
1528.000000	97.722690 
1527.000000	97.713416 
1526.000000	97.703410 
1525.000000	97.694644 
1524.000000	97.688286 
1523.000000	97.682932 
1522.000000	97.675956 
1521.000000	97.665364 
1520.000000	97.650360 
1519.000000	97.631842 
1518.000000	97.612618 
1517.000000	97.595664 
1516.000000	97.581768 
1515.000000	97.570616 
1514.000000	97.561232 
1513.000000	97.553656 
1512.000000	97.546991 
1511.000000	97.537354 
1510.000000	97.522929 
1509.000000	97.506406 
1508.000000	97.491991 
1507.000000	97.476838 
1506.000000	97.461109 
1505.000000	97.448904 
1504.000000	97.436309 
1503.000000	97.422269 
1502.000000	97.407315 
1501.000000	97.393327 
1500.000000	97.381754 
1499.000000	97.371142 
1498.000000	97.356737 
1497.000000	97.339238 
1496.000000	97.324338 
1495.000000	97.313279 
1494.000000	97.303490 
1493.000000	97.294230 
1492.000000	97.286311 
1491.000000	97.279070 
1490.000000	97.270065 
1489.000000	97.259266 
1488.000000	97.246755 
1487.000000	97.230703 
1486.000000	97.213311 
1485.000000	97.196178 
1484.000000	97.179168 
1483.000000	97.163295 
1482.000000	97.149058 
1481.000000	97.136409 
1480.000000	97.124059 
1479.000000	97.110705 
1478.000000	97.096327 
1477.000000	97.082352 
1476.000000	97.068359 
1475.000000	97.051721 
1474.000000	97.031980 
1473.000000	97.013559 
1472.000000	97.001610 
1471.000000	96.993652 
1470.000000	96.984826 
1469.000000	96.974991 
1468.000000	96.965054 
1467.000000	96.953372 
1466.000000	96.938567 
1465.000000	96.922783 
1464.000000	96.910200 
1463.000000	96.899771 
1462.000000	96.887916 
1461.000000	96.876185 
1460.000000	96.868894 
1459.000000	96.865698 
1458.000000	96.853877 
1457.000000	96.825036 
1456.000000	96.795157 
1455.000000	96.776164 
1454.000000	96.761620 
1453.000000	96.749411 
1452.000000	96.741449 
1451.000000	96.738556 
1450.000000	96.738169 
1449.000000	96.739669 
1448.000000	96.743225 
1447.000000	96.746217 
1446.000000	96.744877 
1445.000000	96.739776 
1444.000000	96.735638 
1443.000000	96.733096 
1442.000000	96.729333 
1441.000000	96.724001 
1440.000000	96.720344 
1439.000000	96.718099 
1438.000000	96.709949 
1437.000000	96.692847 
1436.000000	96.677411 
1435.000000	96.671348 
1434.000000	96.669602 
1433.000000	96.669009 
1432.000000	96.669889 
1431.000000	96.671481 
1430.000000	96.670427 
1429.000000	96.666563 
1428.000000	96.663888 
1427.000000	96.664631 
1426.000000	96.666353 
1425.000000	96.665151 
1424.000000	96.664046 
1423.000000	96.667063 
1422.000000	96.671550 
1421.000000	96.672878 
1420.000000	96.670376 
1419.000000	96.662648 
1418.000000	96.646267 
1417.000000	96.628335 
1416.000000	96.620498 
1415.000000	96.623524 
1414.000000	96.626924 
1413.000000	96.623183 
1412.000000	96.616687 
1411.000000	96.614543 
1410.000000	96.615497 
1409.000000	96.616852 
1408.000000	96.620913 
1407.000000	96.630173 
1406.000000	96.642558 
1405.000000	96.655763 
1404.000000	96.673956 
1403.000000	96.698240 
1402.000000	96.722036 
1401.000000	96.742057 
1400.000000	96.762614 
1399.000000	96.786428 
1398.000000	96.805357 
1397.000000	96.809329 
1396.000000	96.799660 
1395.000000	96.790858 
1394.000000	96.797793 
1393.000000	96.823993 
1392.000000	96.864758 
1391.000000	96.910647 
1390.000000	96.950478 
1389.000000	96.976749 
1388.000000	96.989119 
1387.000000	96.993469 
1386.000000	96.997054 
1385.000000	97.004810 
1384.000000	97.019551 
1383.000000	97.040526 
1382.000000	97.063068 
1381.000000	97.083208 
1380.000000	97.100607 
1379.000000	97.118176 
1378.000000	97.138926 
1377.000000	97.163456 
1376.000000	97.189976 
1375.000000	97.215927 
1374.000000	97.239384 
1373.000000	97.260967 
1372.000000	97.282962 
1371.000000	97.306818 
1370.000000	97.331979 
1369.000000	97.355515 
1368.000000	97.376883 
1367.000000	97.398202 
1366.000000	97.420754 
1365.000000	97.444235 
1364.000000	97.466756 
1363.000000	97.485289 
1362.000000	97.499144 
1361.000000	97.511668 
1360.000000	97.526984 
1359.000000	97.547019 
1358.000000	97.570592 
1357.000000	97.594307 
1356.000000	97.615218 
1355.000000	97.632206 
1354.000000	97.645909 
1353.000000	97.659102 
1352.000000	97.673521 
1351.000000	97.689137 
1350.000000	97.705988 
1349.000000	97.721686 
1348.000000	97.734035 
1347.000000	97.743473 
1346.000000	97.752798 
1345.000000	97.763960 
1344.000000	97.776904 
1343.000000	97.790859 
1342.000000	97.805171 
1341.000000	97.817831 
1340.000000	97.825783 
1339.000000	97.828555 
1338.000000	97.829100 
1337.000000	97.830531 
1336.000000	97.833681 
1335.000000	97.837372 
1334.000000	97.840667 
1333.000000	97.844439 
1332.000000	97.850151 
1331.000000	97.858050 
1330.000000	97.866384 
1329.000000	97.872455 
1328.000000	97.875045 
1327.000000	97.876151 
1326.000000	97.878724 
1325.000000	97.882263 
1324.000000	97.884730 
1323.000000	97.885450 
1322.000000	97.885275 
1321.000000	97.885448 
1320.000000	97.887259 
1319.000000	97.891198 
1318.000000	97.896072 
1317.000000	97.900277 
1316.000000	97.903261 
1315.000000	97.904749 
1314.000000	97.903911 
1313.000000	97.901676 
1312.000000	97.901863 
1311.000000	97.907147 
1310.000000	97.914919 
1309.000000	97.920361 
1308.000000	97.922417 
1307.000000	97.924305 
1306.000000	97.928372 
1305.000000	97.932668 
1304.000000	97.934770 
1303.000000	97.934452 
1302.000000	97.932496 
1301.000000	97.929617 
1300.000000	97.927688 
1299.000000	97.928857 
1298.000000	97.932303 
1297.000000	97.934161 
1296.000000	97.931859 
1295.000000	97.927257 
1294.000000	97.924171 
1293.000000	97.924622 
1292.000000	97.928210 
1291.000000	97.933203 
1290.000000	97.937303 
1289.000000	97.938685 
1288.000000	97.937187 
1287.000000	97.933989 
1286.000000	97.930047 
1285.000000	97.926075 
1284.000000	97.923805 
1283.000000	97.924799 
1282.000000	97.927811 
1281.000000	97.929332 
1280.000000	97.927653 
1279.000000	97.925042 
1278.000000	97.924889 
1277.000000	97.928258 
1276.000000	97.933511 
1275.000000	97.938164 
1274.000000	97.940106 
1273.000000	97.938442 
1272.000000	97.934287 
1271.000000	97.929995 
1270.000000	97.926749 
1269.000000	97.923633 
1268.000000	97.919731 
1267.000000	97.915652 
1266.000000	97.912156 
1265.000000	97.909136 
1264.000000	97.906514 
1263.000000	97.904463 
1262.000000	97.902310 
1261.000000	97.898864 
1260.000000	97.894941 
1259.000000	97.893776 
1258.000000	97.896808 
1257.000000	97.900815 
1256.000000	97.900784 
1255.000000	97.895074 
1254.000000	97.886686 
1253.000000	97.879913 
1252.000000	97.876716 
1251.000000	97.876515 
1250.000000	97.878508 
1249.000000	97.883549 
1248.000000	97.893361 
1247.000000	97.907289 
1246.000000	97.920096 
1245.000000	97.924901 
1244.000000	97.919149 
1243.000000	97.907837 
1242.000000	97.900930 
1241.000000	97.906425 
1240.000000	97.923720 
1239.000000	97.942780 
1238.000000	97.951830 
1237.000000	97.947433 
1236.000000	97.936005 
1235.000000	97.925377 
1234.000000	97.917255 
1233.000000	97.909224 
1232.000000	97.900550 
1231.000000	97.892266 
1230.000000	97.883962 
1229.000000	97.874922 
1228.000000	97.867204 
1227.000000	97.863419 
1226.000000	97.861944 
1225.000000	97.858068 
1224.000000	97.849799 
1223.000000	97.839110 
1222.000000	97.827415 
1221.000000	97.813212 
1220.000000	97.794930 
1219.000000	97.773371 
1218.000000	97.750416 
1217.000000	97.727331 
1216.000000	97.704483 
1215.000000	97.680894 
1214.000000	97.654595 
1213.000000	97.625634 
1212.000000	97.597393 
1211.000000	97.571500 
1210.000000	97.542860 
1209.000000	97.504333 
1208.000000	97.456130 
1207.000000	97.406451 
1206.000000	97.362170 
1205.000000	97.322272 
1204.000000	97.281247 
1203.000000	97.235382 
1202.000000	97.184719 
1201.000000	97.131933 
1200.000000	97.080611 
1199.000000	97.032566 
1198.000000	96.985949 
1197.000000	96.937849 
1196.000000	96.888222 
1195.000000	96.838912 
1194.000000	96.789695 
1193.000000	96.738244 
1192.000000	96.683842 
1191.000000	96.628042 
1190.000000	96.571612 
1189.000000	96.513719 
1188.000000	96.454205 
1187.000000	96.393911 
1186.000000	96.332952 
1185.000000	96.271306 
1184.000000	96.210330 
1183.000000	96.150801 
1182.000000	96.090495 
1181.000000	96.026933 
1180.000000	95.961267 
1179.000000	95.895636 
1178.000000	95.827664 
1177.000000	95.752221 
1176.000000	95.668440 
1175.000000	95.580912 
1174.000000	95.494197 
1173.000000	95.410018 
1172.000000	95.329232 
1171.000000	95.251265 
1170.000000	95.171553 
1169.000000	95.085300 
1168.000000	94.994980 
1167.000000	94.909609 
1166.000000	94.836417 
1165.000000	94.778588 
1164.000000	94.740963 
1163.000000	94.730338 
1162.000000	94.747087 
1161.000000	94.781141 
1160.000000	94.818394 
1159.000000	94.847551 
1158.000000	94.860348 
1157.000000	94.850827 
1156.000000	94.817189 
1155.000000	94.761776 
1154.000000	94.688687 
1153.000000	94.604198 
1152.000000	94.518345 
1151.000000	94.440351 
1150.000000	94.371073 
1149.000000	94.304293 
1148.000000	94.235771 
1147.000000	94.166141 
1146.000000	94.095224 
1145.000000	94.020021 
1144.000000	93.939856 
1143.000000	93.858030 
1142.000000	93.776583 
1141.000000	93.694215 
1140.000000	93.610438 
1139.000000	93.526680 
1138.000000	93.442486 
1137.000000	93.355880 
1136.000000	93.267929 
1135.000000	93.181318 
1134.000000	93.094155 
1133.000000	93.001415 
1132.000000	92.902815 
1131.000000	92.802632 
1130.000000	92.701518 
1129.000000	92.595931 
1128.000000	92.486471 
1127.000000	92.378769 
1126.000000	92.274347 
1125.000000	92.168082 
1124.000000	92.056621 
1123.000000	91.942056 
1122.000000	91.825768 
1121.000000	91.706531 
1120.000000	91.586748 
1119.000000	91.472300 
1118.000000	91.363663 
1117.000000	91.255150 
1116.000000	91.145238 
1115.000000	91.039580 
1114.000000	90.941403 
1113.000000	90.847046 
1112.000000	90.753386 
1111.000000	90.661532 
1110.000000	90.570772 
1109.000000	90.477230 
1108.000000	90.380748 
1107.000000	90.284844 
1106.000000	90.188951 
1105.000000	90.088975 
1104.000000	89.986034 
1103.000000	89.885892 
1102.000000	89.788265 
1101.000000	89.687560 
1100.000000	89.584925 
1099.000000	89.487901 
1098.000000	89.399424 
1097.000000	89.313757 
1096.000000	89.226515 
1095.000000	89.137187 
1094.000000	89.040880 
1093.000000	88.929570 
1092.000000	88.805277 
1091.000000	88.681483 
1090.000000	88.567566 
1089.000000	88.460787 
1088.000000	88.355640 
1087.000000	88.250603 
1086.000000	88.143502 
1085.000000	88.031392 
1084.000000	87.917959 
1083.000000	87.810678 
1082.000000	87.708523 
1081.000000	87.603395 
1080.000000	87.495240 
1079.000000	87.393487 
1078.000000	87.301116 
1077.000000	87.209792 
1076.000000	87.113645 
1075.000000	87.015324 
1074.000000	86.915820 
1073.000000	86.810946 
1072.000000	86.699485 
1071.000000	86.580242 
1070.000000	86.438871 
1069.000000	86.255561 
1068.000000	86.033364 
1067.000000	85.805879 
1066.000000	85.608182 
1065.000000	85.448596 
1064.000000	85.313092 
1063.000000	85.182027 
1062.000000	85.035119 
1061.000000	84.855761 
1060.000000	84.643774 
1059.000000	84.417914 
1058.000000	84.198222 
1057.000000	83.990570 
1056.000000	83.790253 
1055.000000	83.589798 
1054.000000	83.379289 
1053.000000	83.150758 
1052.000000	82.908299 
1051.000000	82.664258 
1050.000000	82.421713 
1049.000000	82.172756 
1048.000000	81.916299 
1047.000000	81.662186 
1046.000000	81.415171 
1045.000000	81.170078 
1044.000000	80.924694 
1043.000000	80.682778 
1042.000000	80.442495 
1041.000000	80.196382 
1040.000000	79.945784 
1039.000000	79.702246 
1038.000000	79.472898 
1037.000000	79.257540 
1036.000000	79.059697 
1035.000000	78.884915 
1034.000000	78.727924 
1033.000000	78.577016 
1032.000000	78.429896 
1031.000000	78.289053 
1030.000000	78.146346 
1029.000000	77.994390 
1028.000000	77.850940 
1027.000000	77.746397 
1026.000000	77.684496 
1025.000000	77.637512 
1024.000000	77.582783 
1023.000000	77.521167 
1022.000000	77.456630 
1021.000000	77.383951 
1020.000000	77.303929 
1019.000000	77.228050 
1018.000000	77.159975 
1017.000000	77.091386 
1016.000000	77.021277 
1015.000000	76.959496 
1014.000000	76.906560 
1013.000000	76.850616 
1012.000000	76.789488 
1011.000000	76.735536 
1010.000000	76.693804 
1009.000000	76.655552 
1008.000000	76.618152 
1007.000000	76.591286 
1006.000000	76.578852 
1005.000000	76.574680 
1004.000000	76.579844 
1003.000000	76.603147 
1002.000000	76.640267 
1001.000000	76.674179 
1000.000000	76.701952 
999.000000	 76.740115 
998.000000	 76.797489 
997.000000	 76.863184 
996.000000	 76.927420 
995.000000	 76.994601 
994.000000	 77.069305 
993.000000	 77.147959 
992.000000	 77.230218 
991.000000	 77.320918 
990.000000	 77.416330 
989.000000	 77.506345 
988.000000	 77.593954 
987.000000	 77.694138 
986.000000	 77.810569 
985.000000	 77.932747 
984.000000	 78.058594 
983.000000	 78.198789 
982.000000	 78.354988 
981.000000	 78.515017 
980.000000	 78.674768 
979.000000	 78.844716 
978.000000	 79.028991 
977.000000	 79.218075 
976.000000	 79.408339 
975.000000	 79.609446 
974.000000	 79.825541 
973.000000	 80.047304 
972.000000	 80.269306 
971.000000	 80.498106 
970.000000	 80.736506 
969.000000	 80.975892 
968.000000	 81.210467 
967.000000	 81.444452 
966.000000	 81.680367 
965.000000	 81.914657 
964.000000	 82.148657 
963.000000	 82.388878 
962.000000	 82.632750 
961.000000	 82.868832 
960.000000	 83.094254 
959.000000	 83.316985 
958.000000	 83.538277 
957.000000	 83.748798 
956.000000	 83.945956 
955.000000	 84.139582 
954.000000	 84.335922 
953.000000	 84.529706 
952.000000	 84.715620 
951.000000	 84.893633 
950.000000	 85.060289 
949.000000	 85.209382 
948.000000	 85.344532 
947.000000	 85.476979 
946.000000	 85.607509 
945.000000	 85.724673 
944.000000	 85.824178 
943.000000	 85.915843 
942.000000	 86.007681 
941.000000	 86.097007 
940.000000	 86.181581 
939.000000	 86.265571 
938.000000	 86.349854 
937.000000	 86.429524 
936.000000	 86.505655 
935.000000	 86.587118 
934.000000	 86.676640 
933.000000	 86.767103 
932.000000	 86.854799 
931.000000	 86.943780 
930.000000	 87.034210 
929.000000	 87.119523 
928.000000	 87.198797 
927.000000	 87.279265 
926.000000	 87.362556 
925.000000	 87.439914 
924.000000	 87.504255 
923.000000	 87.556200 
922.000000	 87.596885 
921.000000	 87.627090 
920.000000	 87.654829 
919.000000	 87.690457 
918.000000	 87.731614 
917.000000	 87.765827 
916.000000	 87.790762 
915.000000	 87.819390 
914.000000	 87.863064 
913.000000	 87.922732 
912.000000	 87.999149 
911.000000	 88.097687 
910.000000	 88.219191 
909.000000	 88.358791 
908.000000	 88.516728 
907.000000	 88.698261 
906.000000	 88.901363 
905.000000	 89.116934 
904.000000	 89.341605 
903.000000	 89.577184 
902.000000	 89.817797 
901.000000	 90.052184 
900.000000	 90.279464 
899.000000	 90.508979 
898.000000	 90.743977 
897.000000	 90.977573 
896.000000	 91.204091 
895.000000	 91.421224 
894.000000	 91.623094 
893.000000	 91.805927 
892.000000	 91.979616 
891.000000	 92.158601 
890.000000	 92.340510 
889.000000	 92.507223 
888.000000	 92.646411 
887.000000	 92.758686 
886.000000	 92.846523 
885.000000	 92.912314 
884.000000	 92.966058 
883.000000	 93.017366 
882.000000	 93.059738 
881.000000	 93.081714 
880.000000	 93.094820 
879.000000	 93.129096 
878.000000	 93.195846 
877.000000	 93.275605 
876.000000	 93.349531 
875.000000	 93.422708 
874.000000	 93.509796 
873.000000	 93.618904 
872.000000	 93.758586 
871.000000	 93.940004 
870.000000	 94.159434 
869.000000	 94.392869 
868.000000	 94.617630 
867.000000	 94.828295 
866.000000	 95.027305 
865.000000	 95.215087 
864.000000	 95.396090 
863.000000	 95.580251 
862.000000	 95.768923 
861.000000	 95.949017 
860.000000	 96.108169 
859.000000	 96.247163 
858.000000	 96.373207 
857.000000	 96.490937 
856.000000	 96.604546 
855.000000	 96.717940 
854.000000	 96.826251 
853.000000	 96.916226 
852.000000	 96.981162 
851.000000	 97.028664 
850.000000	 97.070640 
849.000000	 97.113645 
848.000000	 97.161038 
847.000000	 97.213576 
846.000000	 97.263594 
845.000000	 97.299160 
844.000000	 97.318404 
843.000000	 97.330537 
842.000000	 97.339955 
841.000000	 97.339805 
840.000000	 97.324200 
839.000000	 97.295298 
838.000000	 97.255057 
837.000000	 97.202468 
836.000000	 97.143923 
835.000000	 97.094265 
834.000000	 97.060770 
833.000000	 97.036219 
832.000000	 97.013078 
831.000000	 96.993383 
830.000000	 96.979712 
829.000000	 96.969833 
828.000000	 96.968167 
827.000000	 96.988939 
826.000000	 97.036597 
825.000000	 97.094501 
824.000000	 97.144056 
823.000000	 97.183854 
822.000000	 97.220729 
821.000000	 97.255653 
820.000000	 97.288671 
819.000000	 97.324354 
818.000000	 97.361050 
817.000000	 97.383641 
816.000000	 97.376191 
815.000000	 97.336912 
814.000000	 97.275381 
813.000000	 97.199936 
812.000000	 97.111322 
811.000000	 97.001719 
810.000000	 96.854957 
809.000000	 96.654294 
808.000000	 96.395990 
807.000000	 96.092158 
806.000000	 95.759064 
805.000000	 95.408873 
804.000000	 95.054199 
803.000000	 94.710761 
802.000000	 94.391195 
801.000000	 94.105716 
800.000000	 93.871524 
799.000000	 93.708927 
798.000000	 93.622922 
797.000000	 93.599486 
796.000000	 93.622746 
795.000000	 93.682905 
794.000000	 93.765886 
793.000000	 93.852755 
792.000000	 93.935633 
791.000000	 94.019926 
790.000000	 94.105028 
789.000000	 94.175618 
788.000000	 94.216736 
787.000000	 94.224647 
786.000000	 94.198617 
785.000000	 94.135036 
784.000000	 94.035896 
783.000000	 93.912724 
782.000000	 93.777980 
781.000000	 93.643674 
780.000000	 93.530374 
779.000000	 93.462292 
778.000000	 93.447605 
777.000000	 93.476562 
776.000000	 93.542577 
775.000000	 93.649590 
774.000000	 93.793199 
773.000000	 93.950860 
772.000000	 94.099362 
771.000000	 94.230305 
770.000000	 94.343447 
769.000000	 94.438397 
768.000000	 94.518369 
767.000000	 94.588859 
766.000000	 94.646747 
765.000000	 94.683453 
764.000000	 94.704035 
763.000000	 94.728950 
762.000000	 94.769959 
761.000000	 94.817314 
760.000000	 94.857650 
759.000000	 94.891437 
758.000000	 94.925705 
757.000000	 94.963420 
756.000000	 95.009142 
755.000000	 95.072312 
754.000000	 95.153783 
753.000000	 95.237823 
752.000000	 95.306441 
751.000000	 95.355382 
750.000000	 95.392313 
749.000000	 95.428612 
748.000000	 95.476653 
747.000000	 95.543462 
746.000000	 95.620997 
745.000000	 95.693327 
744.000000	 95.759002 
743.000000	 95.835133 
742.000000	 95.933782 
741.000000	 96.046381 
740.000000	 96.157884 
739.000000	 96.264335 
738.000000	 96.368416 
737.000000	 96.467625 
736.000000	 96.556052 
735.000000	 96.632035 
734.000000	 96.698528 
733.000000	 96.760860 
732.000000	 96.825261 
731.000000	 96.891528 
730.000000	 96.947260 
729.000000	 96.979834 
728.000000	 96.993905 
727.000000	 97.006428 
726.000000	 97.026375 
725.000000	 97.052108 
724.000000	 97.085671 
723.000000	 97.131977 
722.000000	 97.183049 
721.000000	 97.221155 
720.000000	 97.241751 
719.000000	 97.256397 
718.000000	 97.268780 
717.000000	 97.268434 
716.000000	 97.254104 
715.000000	 97.242744 
714.000000	 97.246949 
713.000000	 97.260989 
712.000000	 97.278530 
711.000000	 97.306235 
710.000000	 97.348324 
709.000000	 97.393529 
708.000000	 97.428409 
707.000000	 97.449969 
706.000000	 97.456451 
705.000000	 97.439968 
704.000000	 97.398445 
703.000000	 97.342133 
702.000000	 97.276159 
701.000000	 97.187915 
700.000000	 97.062705 
699.000000	 96.901995 
698.000000	 96.720239 
697.000000	 96.536633 
696.000000	 96.377890 
695.000000	 96.275497 
694.000000	 96.246297 
693.000000	 96.281768 
692.000000	 96.361489 
691.000000	 96.466352 
690.000000	 96.577049 
689.000000	 96.675128 
688.000000	 96.754143 
687.000000	 96.819939 
686.000000	 96.874681 
685.000000	 96.915160 
684.000000	 96.948387 
683.000000	 96.988333 
682.000000	 97.034297 
681.000000	 97.072367 
680.000000	 97.101726 
679.000000	 97.138987 
678.000000	 97.190989 
677.000000	 97.246823 
676.000000	 97.303914 
675.000000	 97.371316 
674.000000	 97.442626 
673.000000	 97.493019 
672.000000	 97.510474 
671.000000	 97.505085 
670.000000	 97.489015 
669.000000	 97.467895 
668.000000	 97.468735 
667.000000	 97.539302 
666.000000	 97.651877 
665.000000	 97.735337 
664.000000	 97.775710 
663.000000	 97.796292 
662.000000	 97.824390 
661.000000	 97.861816 
660.000000	 97.898777 
659.000000	 97.937283 
658.000000	 97.979298 
657.000000	 98.008903 
656.000000	 98.010532 
655.000000	 97.988241 
654.000000	 97.954489 
653.000000	 97.914888 
652.000000	 97.878426 
651.000000	 97.867242 
650.000000	 97.890460 

