4000.000000	98.367455 
3999.000000	98.365988 
3998.000000	98.362330 
3997.000000	98.358221 
3996.000000	98.355331 
3995.000000	98.354207 
3994.000000	98.354461 
3993.000000	98.355286 
3992.000000	98.356005 
3991.000000	98.356352 
3990.000000	98.356457 
3989.000000	98.356589 
3988.000000	98.356763 
3987.000000	98.356765 
3986.000000	98.356656 
3985.000000	98.356882 
3984.000000	98.357639 
3983.000000	98.358523 
3982.000000	98.359270 
3981.000000	98.360355 
3980.000000	98.362168 
3979.000000	98.364015 
3978.000000	98.364755 
3977.000000	98.364264 
3976.000000	98.363581 
3975.000000	98.363456 
3974.000000	98.363435 
3973.000000	98.362621 
3972.000000	98.360693 
3971.000000	98.358054 
3970.000000	98.355461 
3969.000000	98.353901 
3968.000000	98.354233 
3967.000000	98.356374 
3966.000000	98.359064 
3965.000000	98.360691 
3964.000000	98.360312 
3963.000000	98.358060 
3962.000000	98.354995 
3961.000000	98.352509 
3960.000000	98.351371 
3959.000000	98.351367 
3958.000000	98.351819 
3957.000000	98.352381 
3956.000000	98.352909 
3955.000000	98.352730 
3954.000000	98.351042 
3953.000000	98.347793 
3952.000000	98.343944 
3951.000000	98.340628 
3950.000000	98.338252 
3949.000000	98.336611 
3948.000000	98.335276 
3947.000000	98.334087 
3946.000000	98.333428 
3945.000000	98.333845 
3944.000000	98.335244 
3943.000000	98.336734 
3942.000000	98.337857 
3941.000000	98.339182 
3940.000000	98.341217 
3939.000000	98.343369 
3938.000000	98.344262 
3937.000000	98.343130 
3936.000000	98.340366 
3935.000000	98.336606 
3934.000000	98.332478 
3933.000000	98.328908 
3932.000000	98.327020 
3931.000000	98.326824 
3930.000000	98.327083 
3929.000000	98.327262 
3928.000000	98.328224 
3927.000000	98.330646 
3926.000000	98.333279 
3925.000000	98.333794 
3924.000000	98.331683 
3923.000000	98.328488 
3922.000000	98.325410 
3921.000000	98.322771 
3920.000000	98.321223 
3919.000000	98.321900 
3918.000000	98.324553 
3917.000000	98.327220 
3916.000000	98.328595 
3915.000000	98.329317 
3914.000000	98.330285 
3913.000000	98.331267 
3912.000000	98.331599 
3911.000000	98.331490 
3910.000000	98.331246 
3909.000000	98.330566 
3908.000000	98.329165 
3907.000000	98.326928 
3906.000000	98.323856 
3905.000000	98.319370 
3904.000000	98.313374 
3903.000000	98.307628 
3902.000000	98.304477 
3901.000000	98.304743 
3900.000000	98.307303 
3899.000000	98.310352 
3898.000000	98.313069 
3897.000000	98.315147 
3896.000000	98.316009 
3895.000000	98.315736 
3894.000000	98.315289 
3893.000000	98.315610 
3892.000000	98.316121 
3891.000000	98.315305 
3890.000000	98.313080 
3889.000000	98.310735 
3888.000000	98.309366 
3887.000000	98.308896 
3886.000000	98.308820 
3885.000000	98.309002 
3884.000000	98.309293 
3883.000000	98.309037 
3882.000000	98.307960 
3881.000000	98.306823 
3880.000000	98.306566 
3879.000000	98.307047 
3878.000000	98.307501 
3877.000000	98.307614 
3876.000000	98.307637 
3875.000000	98.307641 
3874.000000	98.307415 
3873.000000	98.306937 
3872.000000	98.306417 
3871.000000	98.305927 
3870.000000	98.305476 
3869.000000	98.305289 
3868.000000	98.305447 
3867.000000	98.305704 
3866.000000	98.305779 
3865.000000	98.305695 
3864.000000	98.305728 
3863.000000	98.305993 
3862.000000	98.306269 
3861.000000	98.306409 
3860.000000	98.306528 
3859.000000	98.306735 
3858.000000	98.306931 
3857.000000	98.306945 
3856.000000	98.306791 
3855.000000	98.306553 
3854.000000	98.306020 
3853.000000	98.305178 
3852.000000	98.304569 
3851.000000	98.304530 
3850.000000	98.304836 
3849.000000	98.305241 
3848.000000	98.305830 
3847.000000	98.306773 
3846.000000	98.307754 
3845.000000	98.308214 
3844.000000	98.307943 
3843.000000	98.307116 
3842.000000	98.306067 
3841.000000	98.305260 
3840.000000	98.304992 
3839.000000	98.305360 
3838.000000	98.306271 
3837.000000	98.307188 
3836.000000	98.307616 
3835.000000	98.307555 
3834.000000	98.307437 
3833.000000	98.307732 
3832.000000	98.308481 
3831.000000	98.309435 
3830.000000	98.310361 
3829.000000	98.311176 
3828.000000	98.312120 
3827.000000	98.313383 
3826.000000	98.314496 
3825.000000	98.314938 
3824.000000	98.314544 
3823.000000	98.313510 
3822.000000	98.312141 
3821.000000	98.310619 
3820.000000	98.309451 
3819.000000	98.308837 
3818.000000	98.308464 
3817.000000	98.308277 
3816.000000	98.309113 
3815.000000	98.311956 
3814.000000	98.316067 
3813.000000	98.319119 
3812.000000	98.319962 
3811.000000	98.320267 
3810.000000	98.322239 
3809.000000	98.325477 
3808.000000	98.326998 
3807.000000	98.324938 
3806.000000	98.320833 
3805.000000	98.317287 
3804.000000	98.314610 
3803.000000	98.312522 
3802.000000	98.311473 
3801.000000	98.312313 
3800.000000	98.315191 
3799.000000	98.317760 
3798.000000	98.317861 
3797.000000	98.316902 
3796.000000	98.318247 
3795.000000	98.322892 
3794.000000	98.328144 
3793.000000	98.331055 
3792.000000	98.331914 
3791.000000	98.333395 
3790.000000	98.336143 
3789.000000	98.337699 
3788.000000	98.336403 
3787.000000	98.333674 
3786.000000	98.331846 
3785.000000	98.331259 
3784.000000	98.330690 
3783.000000	98.329761 
3782.000000	98.328697 
3781.000000	98.327425 
3780.000000	98.326279 
3779.000000	98.326712 
3778.000000	98.329339 
3777.000000	98.332571 
3776.000000	98.333762 
3775.000000	98.331710 
3774.000000	98.327880 
3773.000000	98.324911 
3772.000000	98.323984 
3771.000000	98.323646 
3770.000000	98.322127 
3769.000000	98.319858 
3768.000000	98.317851 
3767.000000	98.315748 
3766.000000	98.313227 
3765.000000	98.311094 
3764.000000	98.310874 
3763.000000	98.312323 
3762.000000	98.312356 
3761.000000	98.308570 
3760.000000	98.302648 
3759.000000	98.298921 
3758.000000	98.297009 
3757.000000	98.292529 
3756.000000	98.284472 
3755.000000	98.275017 
3754.000000	98.265457 
3753.000000	98.255535 
3752.000000	98.247597 
3751.000000	98.245385 
3750.000000	98.246020 
3749.000000	98.243480 
3748.000000	98.238892 
3747.000000	98.238317 
3746.000000	98.244492 
3745.000000	98.252181 
3744.000000	98.258929 
3743.000000	98.267321 
3742.000000	98.273248 
3741.000000	98.269365 
3740.000000	98.257094 
3739.000000	98.247888 
3738.000000	98.249951 
3737.000000	98.257116 
3736.000000	98.259387 
3735.000000	98.257222 
3734.000000	98.257269 
3733.000000	98.259482 
3732.000000	98.260207 
3731.000000	98.260956 
3730.000000	98.264525 
3729.000000	98.269264 
3728.000000	98.271559 
3727.000000	98.270452 
3726.000000	98.268887 
3725.000000	98.269051 
3724.000000	98.269344 
3723.000000	98.267907 
3722.000000	98.265896 
3721.000000	98.265480 
3720.000000	98.265503 
3719.000000	98.264757 
3718.000000	98.263581 
3717.000000	98.261880 
3716.000000	98.259435 
3715.000000	98.255054 
3714.000000	98.248545 
3713.000000	98.242919 
3712.000000	98.241293 
3711.000000	98.242327 
3710.000000	98.240727 
3709.000000	98.233953 
3708.000000	98.224002 
3707.000000	98.213235 
3706.000000	98.203122 
3705.000000	98.194608 
3704.000000	98.187889 
3703.000000	98.181946 
3702.000000	98.174073 
3701.000000	98.161947 
3700.000000	98.145939 
3699.000000	98.129066 
3698.000000	98.114692 
3697.000000	98.104068 
3696.000000	98.097446 
3695.000000	98.094113 
3694.000000	98.090639 
3693.000000	98.083036 
3692.000000	98.070427 
3691.000000	98.055135 
3690.000000	98.038874 
3689.000000	98.023119 
3688.000000	98.011575 
3687.000000	98.006996 
3686.000000	98.007748 
3685.000000	98.009600 
3684.000000	98.010413 
3683.000000	98.012160 
3682.000000	98.016463 
3681.000000	98.018664 
3680.000000	98.011409 
3679.000000	97.992859 
3678.000000	97.969612 
3677.000000	97.949639 
3676.000000	97.935345 
3675.000000	97.927489 
3674.000000	97.925117 
3673.000000	97.923312 
3672.000000	97.916978 
3671.000000	97.907895 
3670.000000	97.903335 
3669.000000	97.907449 
3668.000000	97.915678 
3667.000000	97.921044 
3666.000000	97.922711 
3665.000000	97.923597 
3664.000000	97.924698 
3663.000000	97.924987 
3662.000000	97.923150 
3661.000000	97.918600 
3660.000000	97.912720 
3659.000000	97.907751 
3658.000000	97.905789 
3657.000000	97.906311 
3656.000000	97.907085 
3655.000000	97.907654 
3654.000000	97.907949 
3653.000000	97.906513 
3652.000000	97.900935 
3651.000000	97.890679 
3650.000000	97.879272 
3649.000000	97.872198 
3648.000000	97.872665 
3647.000000	97.880840 
3646.000000	97.895411 
3645.000000	97.913870 
3644.000000	97.932882 
3643.000000	97.949837 
3642.000000	97.963220 
3641.000000	97.972211 
3640.000000	97.976783 
3639.000000	97.977414 
3638.000000	97.975898 
3637.000000	97.974643 
3636.000000	97.974781 
3635.000000	97.974907 
3634.000000	97.973055 
3633.000000	97.969727 
3632.000000	97.966512 
3631.000000	97.963032 
3630.000000	97.957070 
3629.000000	97.949366 
3628.000000	97.945179 
3627.000000	97.947710 
3626.000000	97.954419 
3625.000000	97.962298 
3624.000000	97.970859 
3623.000000	97.979969 
3622.000000	97.987581 
3621.000000	97.990399 
3620.000000	97.986986 
3619.000000	97.979918 
3618.000000	97.973548 
3617.000000	97.970714 
3616.000000	97.972766 
3615.000000	97.979734 
3614.000000	97.989717 
3613.000000	97.999726 
3612.000000	98.007263 
3611.000000	98.011062 
3610.000000	98.011882 
3609.000000	98.012563 
3608.000000	98.015831 
3607.000000	98.022046 
3606.000000	98.029281 
3605.000000	98.036099 
3604.000000	98.042949 
3603.000000	98.050417 
3602.000000	98.057475 
3601.000000	98.061726 
3600.000000	98.061827 
3599.000000	98.058849 
3598.000000	98.055342 
3597.000000	98.053493 
3596.000000	98.054710 
3595.000000	98.058226 
3594.000000	98.061395 
3593.000000	98.062318 
3592.000000	98.060894 
3591.000000	98.058017 
3590.000000	98.054709 
3589.000000	98.051756 
3588.000000	98.049888 
3587.000000	98.049797 
3586.000000	98.051798 
3585.000000	98.055902 
3584.000000	98.062330 
3583.000000	98.070819 
3582.000000	98.080107 
3581.000000	98.087752 
3580.000000	98.091629 
3579.000000	98.091435 
3578.000000	98.088797 
3577.000000	98.086021 
3576.000000	98.084413 
3575.000000	98.083986 
3574.000000	98.083887 
3573.000000	98.083369 
3572.000000	98.081704 
3571.000000	98.077878 
3570.000000	98.071081 
3569.000000	98.062037 
3568.000000	98.054012 
3567.000000	98.051044 
3566.000000	98.054032 
3565.000000	98.060034 
3564.000000	98.065519 
3563.000000	98.069323 
3562.000000	98.072193 
3561.000000	98.075041 
3560.000000	98.077863 
3559.000000	98.080112 
3558.000000	98.081592 
3557.000000	98.082751 
3556.000000	98.084026 
3555.000000	98.085254 
3554.000000	98.085744 
3553.000000	98.084833 
3552.000000	98.082594 
3551.000000	98.079645 
3550.000000	98.076689 
3549.000000	98.074428 
3548.000000	98.073507 
3547.000000	98.073809 
3546.000000	98.074120 
3545.000000	98.073316 
3544.000000	98.071997 
3543.000000	98.071894 
3542.000000	98.073695 
3541.000000	98.076440 
3540.000000	98.078876 
3539.000000	98.080459 
3538.000000	98.081075 
3537.000000	98.080522 
3536.000000	98.078934 
3535.000000	98.076777 
3534.000000	98.074444 
3533.000000	98.072186 
3532.000000	98.070477 
3531.000000	98.069824 
3530.000000	98.069777 
3529.000000	98.068861 
3528.000000	98.066076 
3527.000000	98.062232 
3526.000000	98.059239 
3525.000000	98.058339 
3524.000000	98.059491 
3523.000000	98.061807 
3522.000000	98.064271 
3521.000000	98.066245 
3520.000000	98.067712 
3519.000000	98.068949 
3518.000000	98.069935 
3517.000000	98.070018 
3516.000000	98.068554 
3515.000000	98.065737 
3514.000000	98.062731 
3513.000000	98.060751 
3512.000000	98.060003 
3511.000000	98.059722 
3510.000000	98.059116 
3509.000000	98.058184 
3508.000000	98.057530 
3507.000000	98.057554 
3506.000000	98.058028 
3505.000000	98.058334 
3504.000000	98.058061 
3503.000000	98.057244 
3502.000000	98.056199 
3501.000000	98.055256 
3500.000000	98.054664 
3499.000000	98.054532 
3498.000000	98.054728 
3497.000000	98.054920 
3496.000000	98.054787 
3495.000000	98.054273 
3494.000000	98.053657 
3493.000000	98.053297 
3492.000000	98.053275 
3491.000000	98.053300 
3490.000000	98.053066 
3489.000000	98.052602 
3488.000000	98.052145 
3487.000000	98.051770 
3486.000000	98.051357 
3485.000000	98.050886 
3484.000000	98.050512 
3483.000000	98.050292 
3482.000000	98.050064 
3481.000000	98.049666 
3480.000000	98.049183 
3479.000000	98.048824 
3478.000000	98.048599 
3477.000000	98.048258 
3476.000000	98.047559 
3475.000000	98.046524 
3474.000000	98.045440 
3473.000000	98.044677 
3472.000000	98.044448 
3471.000000	98.044641 
3470.000000	98.044831 
3469.000000	98.044631 
3468.000000	98.044047 
3467.000000	98.043444 
3466.000000	98.043189 
3465.000000	98.043289 
3464.000000	98.043339 
3463.000000	98.042830 
3462.000000	98.041576 
3461.000000	98.039903 
3460.000000	98.038417 
3459.000000	98.037407 
3458.000000	98.036587 
3457.000000	98.035457 
3456.000000	98.033904 
3455.000000	98.032378 
3454.000000	98.031480 
3453.000000	98.031421 
3452.000000	98.031913 
3451.000000	98.032477 
3450.000000	98.032760 
3449.000000	98.032593 
3448.000000	98.031908 
3447.000000	98.030747 
3446.000000	98.029252 
3445.000000	98.027637 
3444.000000	98.026175 
3443.000000	98.025139 
3442.000000	98.024663 
3441.000000	98.024595 
3440.000000	98.024579 
3439.000000	98.024342 
3438.000000	98.023850 
3437.000000	98.023210 
3436.000000	98.022543 
3435.000000	98.021959 
3434.000000	98.021550 
3433.000000	98.021306 
3432.000000	98.021102 
3431.000000	98.020842 
3430.000000	98.020532 
3429.000000	98.020200 
3428.000000	98.019783 
3427.000000	98.019190 
3426.000000	98.018457 
3425.000000	98.017761 
3424.000000	98.017218 
3423.000000	98.016766 
3422.000000	98.016261 
3421.000000	98.015650 
3420.000000	98.014998 
3419.000000	98.014409 
3418.000000	98.013931 
3417.000000	98.013544 
3416.000000	98.013195 
3415.000000	98.012830 
3414.000000	98.012410 
3413.000000	98.011914 
3412.000000	98.011364 
3411.000000	98.010815 
3410.000000	98.010312 
3409.000000	98.009866 
3408.000000	98.009455 
3407.000000	98.009039 
3406.000000	98.008588 
3405.000000	98.008096 
3404.000000	98.007593 
3403.000000	98.007119 
3402.000000	98.006685 
3401.000000	98.006267 
3400.000000	98.005832 
3399.000000	98.005369 
3398.000000	98.004891 
3397.000000	98.004422 
3396.000000	98.003980 
3395.000000	98.003576 
3394.000000	98.003199 
3393.000000	98.002793 
3392.000000	98.002283 
3391.000000	98.001643 
3390.000000	98.000947 
3389.000000	98.000364 
3388.000000	98.000078 
3387.000000	98.000181 
3386.000000	98.000579 
3385.000000	98.000949 
3384.000000	98.000880 
3383.000000	98.000151 
3382.000000	97.999026 
3381.000000	97.998186 
3380.000000	97.998117 
3379.000000	97.998665 
3378.000000	97.999297 
3377.000000	97.999882 
3376.000000	98.000807 
3375.000000	98.002162 
3374.000000	98.003236 
3373.000000	98.003232 
3372.000000	98.002264 
3371.000000	98.001335 
3370.000000	98.001279 
3369.000000	98.002036 
3368.000000	98.002981 
3367.000000	98.003604 
3366.000000	98.003753 
3365.000000	98.003496 
3364.000000	98.002979 
3363.000000	98.002303 
3362.000000	98.001388 
3361.000000	98.000123 
3360.000000	97.998792 
3359.000000	97.998168 
3358.000000	97.998933 
3357.000000	98.000999 
3356.000000	98.003452 
3355.000000	98.005258 
3354.000000	98.006115 
3353.000000	98.006679 
3352.000000	98.007973 
3351.000000	98.010472 
3350.000000	98.013663 
3349.000000	98.016485 
3348.000000	98.018245 
3347.000000	98.019049 
3346.000000	98.019425 
3345.000000	98.019642 
3344.000000	98.019405 
3343.000000	98.018186 
3342.000000	98.015965 
3341.000000	98.013693 
3340.000000	98.012555 
3339.000000	98.012686 
3338.000000	98.013060 
3337.000000	98.012752 
3336.000000	98.012030 
3335.000000	98.011831 
3334.000000	98.012438 
3333.000000	98.013126 
3332.000000	98.013115 
3331.000000	98.012461 
3330.000000	98.011807 
3329.000000	98.011529 
3328.000000	98.011458 
3327.000000	98.011372 
3326.000000	98.011416 
3325.000000	98.011853 
3324.000000	98.012566 
3323.000000	98.013066 
3322.000000	98.013047 
3321.000000	98.012726 
3320.000000	98.012556 
3319.000000	98.012733 
3318.000000	98.013110 
3317.000000	98.013467 
3316.000000	98.013697 
3315.000000	98.013789 
3314.000000	98.013776 
3313.000000	98.013732 
3312.000000	98.013740 
3311.000000	98.013825 
3310.000000	98.013948 
3309.000000	98.014050 
3308.000000	98.014082 
3307.000000	98.014011 
3306.000000	98.013850 
3305.000000	98.013669 
3304.000000	98.013548 
3303.000000	98.013524 
3302.000000	98.013586 
3301.000000	98.013703 
3300.000000	98.013817 
3299.000000	98.013871 
3298.000000	98.013835 
3297.000000	98.013731 
3296.000000	98.013645 
3295.000000	98.013661 
3294.000000	98.013813 
3293.000000	98.014069 
3292.000000	98.014357 
3291.000000	98.014611 
3290.000000	98.014794 
3289.000000	98.014902 
3288.000000	98.014957 
3287.000000	98.014982 
3286.000000	98.014960 
3285.000000	98.014842 
3284.000000	98.014606 
3283.000000	98.014316 
3282.000000	98.014109 
3281.000000	98.014087 
3280.000000	98.014224 
3279.000000	98.014358 
3278.000000	98.014349 
3277.000000	98.014212 
3276.000000	98.014077 
3275.000000	98.014023 
3274.000000	98.014016 
3273.000000	98.014029 
3272.000000	98.014116 
3271.000000	98.014326 
3270.000000	98.014613 
3269.000000	98.014851 
3268.000000	98.014935 
3267.000000	98.014864 
3266.000000	98.014743 
3265.000000	98.014720 
3264.000000	98.014874 
3263.000000	98.015154 
3262.000000	98.015405 
3261.000000	98.015513 
3260.000000	98.015486 
3259.000000	98.015396 
3258.000000	98.015292 
3257.000000	98.015217 
3256.000000	98.015266 
3255.000000	98.015485 
3254.000000	98.015759 
3253.000000	98.015898 
3252.000000	98.015863 
3251.000000	98.015805 
3250.000000	98.015868 
3249.000000	98.016011 
3248.000000	98.016089 
3247.000000	98.016057 
3246.000000	98.016026 
3245.000000	98.016138 
3244.000000	98.016422 
3243.000000	98.016786 
3242.000000	98.017102 
3241.000000	98.017291 
3240.000000	98.017364 
3239.000000	98.017414 
3238.000000	98.017596 
3237.000000	98.018046 
3236.000000	98.018768 
3235.000000	98.019546 
3234.000000	98.020037 
3233.000000	98.020019 
3232.000000	98.019552 
3231.000000	98.019040 
3230.000000	98.018941 
3229.000000	98.019424 
3228.000000	98.020291 
3227.000000	98.021207 
3226.000000	98.022067 
3225.000000	98.023000 
3224.000000	98.024058 
3223.000000	98.025065 
3222.000000	98.025807 
3221.000000	98.026306 
3220.000000	98.026770 
3219.000000	98.027291 
3218.000000	98.027740 
3217.000000	98.027992 
3216.000000	98.028132 
3215.000000	98.028408 
3214.000000	98.029018 
3213.000000	98.029943 
3212.000000	98.030925 
3211.000000	98.031654 
3210.000000	98.032019 
3209.000000	98.032205 
3208.000000	98.032520 
3207.000000	98.033092 
3206.000000	98.033789 
3205.000000	98.034433 
3204.000000	98.035034 
3203.000000	98.035749 
3202.000000	98.036635 
3201.000000	98.037526 
3200.000000	98.038191 
3199.000000	98.038614 
3198.000000	98.039063 
3197.000000	98.039810 
3196.000000	98.040823 
3195.000000	98.041827 
3194.000000	98.042681 
3193.000000	98.043556 
3192.000000	98.044671 
3191.000000	98.045964 
3190.000000	98.047103 
3189.000000	98.047839 
3188.000000	98.048193 
3187.000000	98.048424 
3186.000000	98.048876 
3185.000000	98.049754 
3184.000000	98.050999 
3183.000000	98.052309 
3182.000000	98.053438 
3181.000000	98.054381 
3180.000000	98.055228 
3179.000000	98.055949 
3178.000000	98.056485 
3177.000000	98.056964 
3176.000000	98.057664 
3175.000000	98.058749 
3174.000000	98.060165 
3173.000000	98.061731 
3172.000000	98.063226 
3171.000000	98.064430 
3170.000000	98.065257 
3169.000000	98.065887 
3168.000000	98.066584 
3167.000000	98.067368 
3166.000000	98.068029 
3165.000000	98.068461 
3164.000000	98.068780 
3163.000000	98.069144 
3162.000000	98.069633 
3161.000000	98.070279 
3160.000000	98.071073 
3159.000000	98.071927 
3158.000000	98.072760 
3157.000000	98.073605 
3156.000000	98.074534 
3155.000000	98.075497 
3154.000000	98.076349 
3153.000000	98.077046 
3152.000000	98.077696 
3151.000000	98.078398 
3150.000000	98.079116 
3149.000000	98.079765 
3148.000000	98.080351 
3147.000000	98.080990 
3146.000000	98.081805 
3145.000000	98.082832 
3144.000000	98.083984 
3143.000000	98.085074 
3142.000000	98.085936 
3141.000000	98.086553 
3140.000000	98.087085 
3139.000000	98.087747 
3138.000000	98.088613 
3137.000000	98.089582 
3136.000000	98.090478 
3135.000000	98.091183 
3134.000000	98.091701 
3133.000000	98.092162 
3132.000000	98.092724 
3131.000000	98.093414 
3130.000000	98.094132 
3129.000000	98.094847 
3128.000000	98.095718 
3127.000000	98.096909 
3126.000000	98.098387 
3125.000000	98.099917 
3124.000000	98.101237 
3123.000000	98.102189 
3122.000000	98.102729 
3121.000000	98.102969 
3120.000000	98.103196 
3119.000000	98.103714 
3118.000000	98.104612 
3117.000000	98.105713 
3116.000000	98.106763 
3115.000000	98.107641 
3114.000000	98.108412 
3113.000000	98.109253 
3112.000000	98.110385 
3111.000000	98.111947 
3110.000000	98.113816 
3109.000000	98.115555 
3108.000000	98.116732 
3107.000000	98.117377 
3106.000000	98.117975 
3105.000000	98.118857 
3104.000000	98.119682 
3103.000000	98.119819 
3102.000000	98.119156 
3101.000000	98.118269 
3100.000000	98.117737 
3099.000000	98.117643 
3098.000000	98.117976 
3097.000000	98.119121 
3096.000000	98.121435 
3095.000000	98.124426 
3094.000000	98.127023 
3093.000000	98.128656 
3092.000000	98.129616 
3091.000000	98.130121 
3090.000000	98.129674 
3089.000000	98.127758 
3088.000000	98.124743 
3087.000000	98.121875 
3086.000000	98.120559 
3085.000000	98.121563 
3084.000000	98.124282 
3083.000000	98.126777 
3082.000000	98.127504 
3081.000000	98.127160 
3080.000000	98.127758 
3079.000000	98.129575 
3078.000000	98.130663 
3077.000000	98.129978 
3076.000000	98.129146 
3075.000000	98.129835 
3074.000000	98.131065 
3073.000000	98.130859 
3072.000000	98.129289 
3071.000000	98.127931 
3070.000000	98.127061 
3069.000000	98.125591 
3068.000000	98.123472 
3067.000000	98.122073 
3066.000000	98.122051 
3065.000000	98.122581 
3064.000000	98.122871 
3063.000000	98.122857 
3062.000000	98.122120 
3061.000000	98.119638 
3060.000000	98.115202 
3059.000000	98.110242 
3058.000000	98.107077 
3057.000000	98.107670 
3056.000000	98.112259 
3055.000000	98.117922 
3054.000000	98.119494 
3053.000000	98.114154 
3052.000000	98.105234 
3051.000000	98.099651 
3050.000000	98.100701 
3049.000000	98.104853 
3048.000000	98.106132 
3047.000000	98.101955 
3046.000000	98.093879 
3045.000000	98.084714 
3044.000000	98.076734 
3043.000000	98.071759 
3042.000000	98.070599 
3041.000000	98.071628 
3040.000000	98.070980 
3039.000000	98.065325 
3038.000000	98.054649 
3037.000000	98.041988 
3036.000000	98.030244 
3035.000000	98.019531 
3034.000000	98.008042 
3033.000000	97.994855 
3032.000000	97.980784 
3031.000000	97.966805 
3030.000000	97.952965 
3029.000000	97.939008 
3028.000000	97.924616 
3027.000000	97.908354 
3026.000000	97.887976 
3025.000000	97.863238 
3024.000000	97.837444 
3023.000000	97.814629 
3022.000000	97.795610 
3021.000000	97.778225 
3020.000000	97.760584 
3019.000000	97.742206 
3018.000000	97.722276 
3017.000000	97.699150 
3016.000000	97.672355 
3015.000000	97.643650 
3014.000000	97.615554 
3013.000000	97.589720 
3012.000000	97.566548 
3011.000000	97.544836 
3010.000000	97.521596 
3009.000000	97.493980 
3008.000000	97.462153 
3007.000000	97.429283 
3006.000000	97.398211 
3005.000000	97.369155 
3004.000000	97.340994 
3003.000000	97.313349 
3002.000000	97.286615 
3001.000000	97.261088 
3000.000000	97.236899 
2999.000000	97.213941 
2998.000000	97.191354 
2997.000000	97.168275 
2996.000000	97.145470 
2995.000000	97.124256 
2994.000000	97.102411 
2993.000000	97.073069 
2992.000000	97.030874 
2991.000000	96.979631 
2990.000000	96.931864 
2989.000000	96.899785 
2988.000000	96.887498 
2987.000000	96.891200 
2986.000000	96.904213 
2985.000000	96.920712 
2984.000000	96.936273 
2983.000000	96.947903 
2982.000000	96.954832 
2981.000000	96.958272 
2980.000000	96.959275 
2979.000000	96.957132 
2978.000000	96.950665 
2977.000000	96.940824 
2976.000000	96.930886 
2975.000000	96.923735 
2974.000000	96.919848 
2973.000000	96.918517 
2972.000000	96.920096 
2971.000000	96.925826 
2970.000000	96.935865 
2969.000000	96.948910 
2968.000000	96.963912 
2967.000000	96.980889 
2966.000000	96.999557 
2965.000000	97.018278 
2964.000000	97.035322 
2963.000000	97.050584 
2962.000000	97.065254 
2961.000000	97.080160 
2960.000000	97.095300 
2959.000000	97.110828 
2958.000000	97.127542 
2957.000000	97.145862 
2956.000000	97.164484 
2955.000000	97.180625 
2954.000000	97.192332 
2953.000000	97.201054 
2952.000000	97.211410 
2951.000000	97.227126 
2950.000000	97.246654 
2949.000000	97.263706 
2948.000000	97.272895 
2947.000000	97.274317 
2946.000000	97.272531 
2945.000000	97.271993 
2944.000000	97.274076 
2943.000000	97.277785 
2942.000000	97.281533 
2941.000000	97.283698 
2940.000000	97.283036 
2939.000000	97.279853 
2938.000000	97.276136 
2937.000000	97.273757 
2936.000000	97.272719 
2935.000000	97.271439 
2934.000000	97.268374 
2933.000000	97.262992 
2932.000000	97.255700 
2931.000000	97.247600 
2930.000000	97.240289 
2929.000000	97.235235 
2928.000000	97.232763 
2927.000000	97.231589 
2926.000000	97.229626 
2925.000000	97.225774 
2924.000000	97.221276 
2923.000000	97.219052 
2922.000000	97.221070 
2921.000000	97.226235 
2920.000000	97.231423 
2919.000000	97.234673 
2918.000000	97.236500 
2917.000000	97.237540 
2916.000000	97.235972 
2915.000000	97.228917 
2914.000000	97.216534 
2913.000000	97.203331 
2912.000000	97.194461 
2911.000000	97.191170 
2910.000000	97.190621 
2909.000000	97.189660 
2908.000000	97.187765 
2907.000000	97.185941 
2906.000000	97.183470 
2905.000000	97.176749 
2904.000000	97.162501 
2903.000000	97.142756 
2902.000000	97.126900 
2901.000000	97.125752 
2900.000000	97.143381 
2899.000000	97.173971 
2898.000000	97.206061 
2897.000000	97.230799 
2896.000000	97.245781 
2895.000000	97.252937 
2894.000000	97.255805 
2893.000000	97.258883 
2892.000000	97.266293 
2891.000000	97.278583 
2890.000000	97.291827 
2889.000000	97.301760 
2888.000000	97.308276 
2887.000000	97.314263 
2886.000000	97.320893 
2885.000000	97.326724 
2884.000000	97.331829 
2883.000000	97.339988 
2882.000000	97.354908 
2881.000000	97.375755 
2880.000000	97.398426 
2879.000000	97.420426 
2878.000000	97.442239 
2877.000000	97.463992 
2876.000000	97.483312 
2875.000000	97.497777 
2874.000000	97.508019 
2873.000000	97.516864 
2872.000000	97.526133 
2871.000000	97.535615 
2870.000000	97.544933 
2869.000000	97.554870 
2868.000000	97.566471 
2867.000000	97.579879 
2866.000000	97.594614 
2865.000000	97.610321 
2864.000000	97.626795 
2863.000000	97.643916 
2862.000000	97.662003 
2861.000000	97.681555 
2860.000000	97.702033 
2859.000000	97.721624 
2858.000000	97.739199 
2857.000000	97.756083 
2856.000000	97.774633 
2855.000000	97.794980 
2854.000000	97.814503 
2853.000000	97.830835 
2852.000000	97.844248 
2851.000000	97.856668 
2850.000000	97.869333 
2849.000000	97.882153 
2848.000000	97.894755 
2847.000000	97.907174 
2846.000000	97.919528 
2845.000000	97.931601 
2844.000000	97.942895 
2843.000000	97.952982 
2842.000000	97.961807 
2841.000000	97.969620 
2840.000000	97.976558 
2839.000000	97.982529 
2838.000000	97.987841 
2837.000000	97.993654 
2836.000000	98.001277 
2835.000000	98.010991 
2834.000000	98.022023 
2833.000000	98.033571 
2832.000000	98.045000 
2831.000000	98.054897 
2830.000000	98.061054 
2829.000000	98.062392 
2828.000000	98.060608 
2827.000000	98.059272 
2826.000000	98.061237 
2825.000000	98.067015 
2824.000000	98.075075 
2823.000000	98.082963 
2822.000000	98.088585 
2821.000000	98.091371 
2820.000000	98.092484 
2819.000000	98.093593 
2818.000000	98.095436 
2817.000000	98.097796 
2816.000000	98.100432 
2815.000000	98.103318 
2814.000000	98.106006 
2813.000000	98.107511 
2812.000000	98.107200 
2811.000000	98.105565 
2810.000000	98.104032 
2809.000000	98.104145 
2808.000000	98.106812 
2807.000000	98.111899 
2806.000000	98.118296 
2805.000000	98.124517 
2804.000000	98.129420 
2803.000000	98.132526 
2802.000000	98.134050 
2801.000000	98.134939 
2800.000000	98.136489 
2799.000000	98.139302 
2798.000000	98.142535 
2797.000000	98.144665 
2796.000000	98.145150 
2795.000000	98.145032 
2794.000000	98.145841 
2793.000000	98.148146 
2792.000000	98.151332 
2791.000000	98.154376 
2790.000000	98.156527 
2789.000000	98.157493 
2788.000000	98.157519 
2787.000000	98.157403 
2786.000000	98.158107 
2785.000000	98.160066 
2784.000000	98.162873 
2783.000000	98.165689 
2782.000000	98.167954 
2781.000000	98.169714 
2780.000000	98.171303 
2779.000000	98.172913 
2778.000000	98.174497 
2777.000000	98.175943 
2776.000000	98.177229 
2775.000000	98.178446 
2774.000000	98.179712 
2773.000000	98.181066 
2772.000000	98.182459 
2771.000000	98.183836 
2770.000000	98.185218 
2769.000000	98.186673 
2768.000000	98.188216 
2767.000000	98.189751 
2766.000000	98.191152 
2765.000000	98.192410 
2764.000000	98.193620 
2763.000000	98.194838 
2762.000000	98.196019 
2761.000000	98.197120 
2760.000000	98.198199 
2759.000000	98.199377 
2758.000000	98.200710 
2757.000000	98.202126 
2756.000000	98.203464 
2755.000000	98.204635 
2754.000000	98.205690 
2753.000000	98.206784 
2752.000000	98.208013 
2751.000000	98.209327 
2750.000000	98.210614 
2749.000000	98.211855 
2748.000000	98.213102 
2747.000000	98.214308 
2746.000000	98.215313 
2745.000000	98.216061 
2744.000000	98.216724 
2743.000000	98.217558 
2742.000000	98.218633 
2741.000000	98.219815 
2740.000000	98.220959 
2739.000000	98.222037 
2738.000000	98.223048 
2737.000000	98.223968 
2736.000000	98.224841 
2735.000000	98.225822 
2734.000000	98.227017 
2733.000000	98.228361 
2732.000000	98.229702 
2731.000000	98.230979 
2730.000000	98.232256 
2729.000000	98.233584 
2728.000000	98.234879 
2727.000000	98.235958 
2726.000000	98.236719 
2725.000000	98.237264 
2724.000000	98.237842 
2723.000000	98.238611 
2722.000000	98.239496 
2721.000000	98.240334 
2720.000000	98.241100 
2719.000000	98.241932 
2718.000000	98.242910 
2717.000000	98.243913 
2716.000000	98.244754 
2715.000000	98.245418 
2714.000000	98.246062 
2713.000000	98.246812 
2712.000000	98.247635 
2711.000000	98.248432 
2710.000000	98.249173 
2709.000000	98.249900 
2708.000000	98.250641 
2707.000000	98.251385 
2706.000000	98.252121 
2705.000000	98.252851 
2704.000000	98.253572 
2703.000000	98.254267 
2702.000000	98.254941 
2701.000000	98.255622 
2700.000000	98.256330 
2699.000000	98.257052 
2698.000000	98.257760 
2697.000000	98.258428 
2696.000000	98.259055 
2695.000000	98.259656 
2694.000000	98.260247 
2693.000000	98.260834 
2692.000000	98.261407 
2691.000000	98.261964 
2690.000000	98.262503 
2689.000000	98.263033 
2688.000000	98.263557 
2687.000000	98.264080 
2686.000000	98.264603 
2685.000000	98.265128 
2684.000000	98.265651 
2683.000000	98.266168 
2682.000000	98.266674 
2681.000000	98.267165 
2680.000000	98.267636 
2679.000000	98.268096 
2678.000000	98.268570 
2677.000000	98.269072 
2676.000000	98.269578 
2675.000000	98.270020 
2674.000000	98.270329 
2673.000000	98.270515 
2672.000000	98.270707 
2671.000000	98.271027 
2670.000000	98.271457 
2669.000000	98.271893 
2668.000000	98.272350 
2667.000000	98.272957 
2666.000000	98.273682 
2665.000000	98.274236 
2664.000000	98.274414 
2663.000000	98.274445 
2662.000000	98.274829 
2661.000000	98.275753 
2660.000000	98.276843 
2659.000000	98.277555 
2658.000000	98.277753 
2657.000000	98.277811 
2656.000000	98.278213 
2655.000000	98.279077 
2654.000000	98.280003 
2653.000000	98.280405 
2652.000000	98.280105 
2651.000000	98.279605 
2650.000000	98.279667 
2649.000000	98.280537 
2648.000000	98.281705 
2647.000000	98.282414 
2646.000000	98.282297 
2645.000000	98.281444 
2644.000000	98.280157 
2643.000000	98.278877 
2642.000000	98.278158 
2641.000000	98.278317 
2640.000000	98.279114 
2639.000000	98.280024 
2638.000000	98.280850 
2637.000000	98.281792 
2636.000000	98.282948 
2635.000000	98.284172 
2634.000000	98.285425 
2633.000000	98.286810 
2632.000000	98.288108 
2631.000000	98.288710 
2630.000000	98.288363 
2629.000000	98.287694 
2628.000000	98.287661 
2627.000000	98.288560 
2626.000000	98.289974 
2625.000000	98.291509 
2624.000000	98.293209 
2623.000000	98.295157 
2622.000000	98.297005 
2621.000000	98.298129 
2620.000000	98.298154 
2619.000000	98.297203 
2618.000000	98.295908 
2617.000000	98.295155 
2616.000000	98.295531 
2615.000000	98.296959 
2614.000000	98.298790 
2613.000000	98.300353 
2612.000000	98.301468 
2611.000000	98.302422 
2610.000000	98.303602 
2609.000000	98.305166 
2608.000000	98.306865 
2607.000000	98.308184 
2606.000000	98.308836 
2605.000000	98.309055 
2604.000000	98.309227 
2603.000000	98.309364 
2602.000000	98.309293 
2601.000000	98.309220 
2600.000000	98.309632 
2599.000000	98.310578 
2598.000000	98.311491 
2597.000000	98.311914 
2596.000000	98.312045 
2595.000000	98.312340 
2594.000000	98.312857 
2593.000000	98.313352 
2592.000000	98.313853 
2591.000000	98.314646 
2590.000000	98.315678 
2589.000000	98.316445 
2588.000000	98.316701 
2587.000000	98.316914 
2586.000000	98.317722 
2585.000000	98.319150 
2584.000000	98.320579 
2583.000000	98.321430 
2582.000000	98.321700 
2581.000000	98.321866 
2580.000000	98.322436 
2579.000000	98.323588 
2578.000000	98.325118 
2577.000000	98.326608 
2576.000000	98.327658 
2575.000000	98.328065 
2574.000000	98.327895 
2573.000000	98.327456 
2572.000000	98.327046 
2571.000000	98.326691 
2570.000000	98.326275 
2569.000000	98.325904 
2568.000000	98.325960 
2567.000000	98.326666 
2566.000000	98.327766 
2565.000000	98.328754 
2564.000000	98.329364 
2563.000000	98.329690 
2562.000000	98.329942 
2561.000000	98.330276 
2560.000000	98.330823 
2559.000000	98.331665 
2558.000000	98.332683 
2557.000000	98.333530 
2556.000000	98.333949 
2555.000000	98.334031 
2554.000000	98.334082 
2553.000000	98.334249 
2552.000000	98.334400 
2551.000000	98.334434 
2550.000000	98.334475 
2549.000000	98.334649 
2548.000000	98.334849 
2547.000000	98.334879 
2546.000000	98.334773 
2545.000000	98.334773 
2544.000000	98.334980 
2543.000000	98.335211 
2542.000000	98.335249 
2541.000000	98.335120 
2540.000000	98.335034 
2539.000000	98.335106 
2538.000000	98.335244 
2537.000000	98.335305 
2536.000000	98.335291 
2535.000000	98.335327 
2534.000000	98.335475 
2533.000000	98.335661 
2532.000000	98.335765 
2531.000000	98.335750 
2530.000000	98.335649 
2529.000000	98.335497 
2528.000000	98.335309 
2527.000000	98.335131 
2526.000000	98.335079 
2525.000000	98.335249 
2524.000000	98.335631 
2523.000000	98.336093 
2522.000000	98.336481 
2521.000000	98.336703 
2520.000000	98.336750 
2519.000000	98.336672 
2518.000000	98.336557 
2517.000000	98.336465 
2516.000000	98.336350 
2515.000000	98.336077 
2514.000000	98.335635 
2513.000000	98.335305 
2512.000000	98.335432 
2511.000000	98.336068 
2510.000000	98.336932 
2509.000000	98.337673 
2508.000000	98.338117 
2507.000000	98.338244 
2506.000000	98.338197 
2505.000000	98.338327 
2504.000000	98.338938 
2503.000000	98.339885 
2502.000000	98.340592 
2501.000000	98.340680 
2500.000000	98.340369 
2499.000000	98.340168 
2498.000000	98.340226 
2497.000000	98.340334 
2496.000000	98.340475 
2495.000000	98.340935 
2494.000000	98.341806 
2493.000000	98.342734 
2492.000000	98.343390 
2491.000000	98.343943 
2490.000000	98.344799 
2489.000000	98.345963 
2488.000000	98.346884 
2487.000000	98.347059 
2486.000000	98.346613 
2485.000000	98.346193 
2484.000000	98.346329 
2483.000000	98.347048 
2482.000000	98.348072 
2481.000000	98.349134 
2480.000000	98.349972 
2479.000000	98.350301 
2478.000000	98.350186 
2477.000000	98.350251 
2476.000000	98.351000 
2475.000000	98.351944 
2474.000000	98.351965 
2473.000000	98.350629 
2472.000000	98.348679 
2471.000000	98.347115 
2470.000000	98.346237 
2469.000000	98.345941 
2468.000000	98.346284 
2467.000000	98.347143 
2466.000000	98.347734 
2465.000000	98.347226 
2464.000000	98.345884 
2463.000000	98.345028 
2462.000000	98.345726 
2461.000000	98.347863 
2460.000000	98.350439 
2459.000000	98.352446 
2458.000000	98.353289 
2457.000000	98.352667 
2456.000000	98.350497 
2455.000000	98.347241 
2454.000000	98.344041 
2453.000000	98.341971 
2452.000000	98.341006 
2451.000000	98.340140 
2450.000000	98.338855 
2449.000000	98.338007 
2448.000000	98.338619 
2447.000000	98.340258 
2446.000000	98.341370 
2445.000000	98.341064 
2444.000000	98.339774 
2443.000000	98.338274 
2442.000000	98.337019 
2441.000000	98.336459 
2440.000000	98.337043 
2439.000000	98.338602 
2438.000000	98.340476 
2437.000000	98.342486 
2436.000000	98.344983 
2435.000000	98.347715 
2434.000000	98.349541 
2433.000000	98.349694 
2432.000000	98.348643 
2431.000000	98.347437 
2430.000000	98.346833 
2429.000000	98.347215 
2428.000000	98.348419 
2427.000000	98.349299 
2426.000000	98.348419 
2425.000000	98.345623 
2424.000000	98.342401 
2423.000000	98.340365 
2422.000000	98.339905 
2421.000000	98.340673 
2420.000000	98.342311 
2419.000000	98.344147 
2418.000000	98.345114 
2417.000000	98.344852 
2416.000000	98.344236 
2415.000000	98.344103 
2414.000000	98.344194 
2413.000000	98.344122 
2412.000000	98.344446 
2411.000000	98.345681 
2410.000000	98.346954 
2409.000000	98.346955 
2408.000000	98.345897 
2407.000000	98.345182 
2406.000000	98.345382 
2405.000000	98.345687 
2404.000000	98.345288 
2403.000000	98.344302 
2402.000000	98.343362 
2401.000000	98.343171 
2400.000000	98.344421 
2399.000000	98.347215 
2398.000000	98.350625 
2397.000000	98.353449 
2396.000000	98.355252 
2395.000000	98.356186 
2394.000000	98.356239 
2393.000000	98.355436 
2392.000000	98.354416 
2391.000000	98.354173 
2390.000000	98.354934 
2389.000000	98.356089 
2388.000000	98.357079 
2387.000000	98.357828 
2386.000000	98.358445 
2385.000000	98.358961 
2384.000000	98.359425 
2383.000000	98.359869 
2382.000000	98.360135 
2381.000000	98.360020 
2380.000000	98.359617 
2379.000000	98.359257 
2378.000000	98.359075 
2377.000000	98.358891 
2376.000000	98.358580 
2375.000000	98.358283 
2374.000000	98.358169 
2373.000000	98.358163 
2372.000000	98.358074 
2371.000000	98.357869 
2370.000000	98.357671 
2369.000000	98.357486 
2368.000000	98.357148 
2367.000000	98.356570 
2366.000000	98.355859 
2365.000000	98.355190 
2364.000000	98.354627 
2363.000000	98.354129 
2362.000000	98.353656 
2361.000000	98.353209 
2360.000000	98.352776 
2359.000000	98.352310 
2358.000000	98.351733 
2357.000000	98.351006 
2356.000000	98.350164 
2355.000000	98.349283 
2354.000000	98.348429 
2353.000000	98.347650 
2352.000000	98.346973 
2351.000000	98.346391 
2350.000000	98.345865 
2349.000000	98.345352 
2348.000000	98.344837 
2347.000000	98.344336 
2346.000000	98.343888 
2345.000000	98.343522 
2344.000000	98.343231 
2343.000000	98.342977 
2342.000000	98.342731 
2341.000000	98.342502 
2340.000000	98.342331 
2339.000000	98.342226 
2338.000000	98.342104 
2337.000000	98.341855 
2336.000000	98.341528 
2335.000000	98.341301 
2334.000000	98.341183 
2333.000000	98.341003 
2332.000000	98.340837 
2331.000000	98.340991 
2330.000000	98.341401 
2329.000000	98.341610 
2328.000000	98.341501 
2327.000000	98.341482 
2326.000000	98.341848 
2325.000000	98.342521 
2324.000000	98.343519 
2323.000000	98.344940 
2322.000000	98.346280 
2321.000000	98.346589 
2320.000000	98.345876 
2319.000000	98.345495 
2318.000000	98.346401 
2317.000000	98.347742 
2316.000000	98.348014 
2315.000000	98.347138 
2314.000000	98.346544 
2313.000000	98.347491 
2312.000000	98.350066 
2311.000000	98.353568 
2310.000000	98.356674 
2309.000000	98.357709 
2308.000000	98.356134 
2307.000000	98.353473 
2306.000000	98.351718 
2305.000000	98.351358 
2304.000000	98.351559 
2303.000000	98.351950 
2302.000000	98.353107 
2301.000000	98.355143 
2300.000000	98.356917 
2299.000000	98.356912 
2298.000000	98.354210 
2297.000000	98.348805 
2296.000000	98.342047 
2295.000000	98.336328 
2294.000000	98.333324 
2293.000000	98.332323 
2292.000000	98.331133 
2291.000000	98.328638 
2290.000000	98.325788 
2289.000000	98.324127 
2288.000000	98.323914 
2287.000000	98.324163 
2286.000000	98.323978 
2285.000000	98.323332 
2284.000000	98.322774 
2283.000000	98.322585 
2282.000000	98.322344 
2281.000000	98.321332 
2280.000000	98.319168 
2279.000000	98.315976 
2278.000000	98.312250 
2277.000000	98.308739 
2276.000000	98.306169 
2275.000000	98.304685 
2274.000000	98.303748 
2273.000000	98.302910 
2272.000000	98.302368 
2271.000000	98.302358 
2270.000000	98.302358 
2269.000000	98.301575 
2268.000000	98.300043 
2267.000000	98.298524 
2266.000000	98.297396 
2265.000000	98.296268 
2264.000000	98.294686 
2263.000000	98.292646 
2262.000000	98.290342 
2261.000000	98.287897 
2260.000000	98.285502 
2259.000000	98.283418 
2258.000000	98.281706 
2257.000000	98.280211 
2256.000000	98.278886 
2255.000000	98.277844 
2254.000000	98.277037 
2253.000000	98.276067 
2252.000000	98.274548 
2251.000000	98.272479 
2250.000000	98.270120 
2249.000000	98.267713 
2248.000000	98.265466 
2247.000000	98.263576 
2246.000000	98.262069 
2245.000000	98.260753 
2244.000000	98.259327 
2243.000000	98.257675 
2242.000000	98.255873 
2241.000000	98.254085 
2240.000000	98.252468 
2239.000000	98.251072 
2238.000000	98.249832 
2237.000000	98.248618 
2236.000000	98.247345 
2235.000000	98.245996 
2234.000000	98.244588 
2233.000000	98.243136 
2232.000000	98.241654 
2231.000000	98.240159 
2230.000000	98.238661 
2229.000000	98.237162 
2228.000000	98.235671 
2227.000000	98.234197 
2226.000000	98.232739 
2225.000000	98.231275 
2224.000000	98.229788 
2223.000000	98.228284 
2222.000000	98.226782 
2221.000000	98.225307 
2220.000000	98.223865 
2219.000000	98.222442 
2218.000000	98.221024 
2217.000000	98.219604 
2216.000000	98.218184 
2215.000000	98.216762 
2214.000000	98.215329 
2213.000000	98.213887 
2212.000000	98.212451 
2211.000000	98.211054 
2210.000000	98.209717 
2209.000000	98.208441 
2208.000000	98.207199 
2207.000000	98.205957 
2206.000000	98.204683 
2205.000000	98.203356 
2204.000000	98.201964 
2203.000000	98.200507 
2202.000000	98.198993 
2201.000000	98.197430 
2200.000000	98.195823 
2199.000000	98.194175 
2198.000000	98.192479 
2197.000000	98.190714 
2196.000000	98.188909 
2195.000000	98.187144 
2194.000000	98.185466 
2193.000000	98.183842 
2192.000000	98.182294 
2191.000000	98.180931 
2190.000000	98.179725 
2189.000000	98.178428 
2188.000000	98.176892 
2187.000000	98.175291 
2186.000000	98.173748 
2185.000000	98.171976 
2184.000000	98.169755 
2183.000000	98.167638 
2182.000000	98.166526 
2181.000000	98.166591 
2180.000000	98.166816 
2179.000000	98.166026 
2178.000000	98.164017 
2177.000000	98.161565 
2176.000000	98.159582 
2175.000000	98.158341 
2174.000000	98.157492 
2173.000000	98.156662 
2172.000000	98.156204 
2171.000000	98.157115 
2170.000000	98.159592 
2169.000000	98.161798 
2168.000000	98.161128 
2167.000000	98.156814 
2166.000000	98.150698 
2165.000000	98.145155 
2164.000000	98.140933 
2163.000000	98.137863 
2162.000000	98.136602 
2161.000000	98.138363 
2160.000000	98.143156 
2159.000000	98.149112 
2158.000000	98.153701 
2157.000000	98.155510 
2156.000000	98.155115 
2155.000000	98.154512 
2154.000000	98.155603 
2153.000000	98.159015 
2152.000000	98.163901 
2151.000000	98.168295 
2150.000000	98.169920 
2149.000000	98.167855 
2148.000000	98.164001 
2147.000000	98.161826 
2146.000000	98.162873 
2145.000000	98.165659 
2144.000000	98.168554 
2143.000000	98.172184 
2142.000000	98.177564 
2141.000000	98.183477 
2140.000000	98.187868 
2139.000000	98.190971 
2138.000000	98.194847 
2137.000000	98.199825 
2136.000000	98.203422 
2135.000000	98.203135 
2134.000000	98.198743 
2133.000000	98.192383 
2132.000000	98.187498 
2131.000000	98.186712 
2130.000000	98.189789 
2129.000000	98.193751 
2128.000000	98.195779 
2127.000000	98.195878 
2126.000000	98.195979 
2125.000000	98.197177 
2124.000000	98.198904 
2123.000000	98.200163 
2122.000000	98.200224 
2121.000000	98.198495 
2120.000000	98.194978 
2119.000000	98.190943 
2118.000000	98.188336 
2117.000000	98.188184 
2116.000000	98.189803 
2115.000000	98.191344 
2114.000000	98.190992 
2113.000000	98.188153 
2112.000000	98.184063 
2111.000000	98.181072 
2110.000000	98.180529 
2109.000000	98.181577 
2108.000000	98.182434 
2107.000000	98.182436 
2106.000000	98.182128 
2105.000000	98.181971 
2104.000000	98.181993 
2103.000000	98.182164 
2102.000000	98.181965 
2101.000000	98.180061 
2100.000000	98.175747 
2099.000000	98.170683 
2098.000000	98.167950 
2097.000000	98.168950 
2096.000000	98.172361 
2095.000000	98.175804 
2094.000000	98.177901 
2093.000000	98.178353 
2092.000000	98.177111 
2091.000000	98.174548 
2090.000000	98.171892 
2089.000000	98.170485 
2088.000000	98.170476 
2087.000000	98.170534 
2086.000000	98.168933 
2085.000000	98.164963 
2084.000000	98.159614 
2083.000000	98.154842 
2082.000000	98.151844 
2081.000000	98.150246 
2080.000000	98.149102 
2079.000000	98.148066 
2078.000000	98.146985 
2077.000000	98.145049 
2076.000000	98.141630 
2075.000000	98.137678 
2074.000000	98.134704 
2073.000000	98.132197 
2072.000000	98.127845 
2071.000000	98.120669 
2070.000000	98.112443 
2069.000000	98.105691 
2068.000000	98.101393 
2067.000000	98.099053 
2066.000000	98.097663 
2065.000000	98.095886 
2064.000000	98.092342 
2063.000000	98.086788 
2062.000000	98.080751 
2061.000000	98.076330 
2060.000000	98.074383 
2059.000000	98.074301 
2058.000000	98.074683 
2057.000000	98.073892 
2056.000000	98.070662 
2055.000000	98.064779 
2054.000000	98.057450 
2053.000000	98.050517 
2052.000000	98.044993 
2051.000000	98.040496 
2050.000000	98.035937 
2049.000000	98.030594 
2048.000000	98.024725 
2047.000000	98.019285 
2046.000000	98.015063 
2045.000000	98.012101 
2044.000000	98.009874 
2043.000000	98.007822 
2042.000000	98.005596 
2041.000000	98.002994 
2040.000000	98.000088 
2039.000000	97.997375 
2038.000000	97.995318 
2037.000000	97.993578 
2036.000000	97.991171 
2035.000000	97.987666 
2034.000000	97.983921 
2033.000000	97.981342 
2032.000000	97.980448 
2031.000000	97.980342 
2030.000000	97.979396 
2029.000000	97.976576 
2028.000000	97.972142 
2027.000000	97.967421 
2026.000000	97.963642 
2025.000000	97.961140 
2024.000000	97.959776 
2023.000000	97.959676 
2022.000000	97.961027 
2021.000000	97.963101 
2020.000000	97.964110 
2019.000000	97.962553 
2018.000000	97.958325 
2017.000000	97.952857 
2016.000000	97.948196 
2015.000000	97.945500 
2014.000000	97.944238 
2013.000000	97.942606 
2012.000000	97.939581 
2011.000000	97.936678 
2010.000000	97.936433 
2009.000000	97.939157 
2008.000000	97.942324 
2007.000000	97.943711 
2006.000000	97.943794 
2005.000000	97.943963 
2004.000000	97.944129 
2003.000000	97.943671 
2002.000000	97.943504 
2001.000000	97.944920 
2000.000000	97.946811 
1999.000000	97.946074 
1998.000000	97.940897 
1997.000000	97.932701 
1996.000000	97.925033 
1995.000000	97.920772 
1994.000000	97.920226 
1993.000000	97.921056 
1992.000000	97.920095 
1991.000000	97.916588 
1990.000000	97.913297 
1989.000000	97.913415 
1988.000000	97.916785 
1987.000000	97.919790 
1986.000000	97.918956 
1985.000000	97.914104 
1984.000000	97.907855 
1983.000000	97.902907 
1982.000000	97.900208 
1981.000000	97.899293 
1980.000000	97.899653 
1979.000000	97.901276 
1978.000000	97.903619 
1977.000000	97.905043 
1976.000000	97.904249 
1975.000000	97.902214 
1974.000000	97.901809 
1973.000000	97.905224 
1972.000000	97.912006 
1971.000000	97.919429 
1970.000000	97.924425 
1969.000000	97.925259 
1968.000000	97.922168 
1967.000000	97.917417 
1966.000000	97.914497 
1965.000000	97.915967 
1964.000000	97.921987 
1963.000000	97.930705 
1962.000000	97.939778 
1961.000000	97.947459 
1960.000000	97.952626 
1959.000000	97.954743 
1958.000000	97.954602 
1957.000000	97.954602 
1956.000000	97.956990 
1955.000000	97.961732 
1954.000000	97.966723 
1953.000000	97.970178 
1952.000000	97.972099 
1951.000000	97.973422 
1950.000000	97.975023 
1949.000000	97.977845 
1948.000000	97.982787 
1947.000000	97.989510 
1946.000000	97.995859 
1945.000000	97.999684 
1944.000000	98.000890 
1943.000000	98.001098 
1942.000000	98.001716 
1941.000000	98.002950 
1940.000000	98.004753 
1939.000000	98.007412 
1938.000000	98.010987 
1937.000000	98.015189 
1936.000000	98.019778 
1935.000000	98.024410 
1934.000000	98.028392 
1933.000000	98.031609 
1932.000000	98.035188 
1931.000000	98.040260 
1930.000000	98.046394 
1929.000000	98.051795 
1928.000000	98.055710 
1927.000000	98.059309 
1926.000000	98.063689 
1925.000000	98.068181 
1924.000000	98.071361 
1923.000000	98.073017 
1922.000000	98.073931 
1921.000000	98.074535 
1920.000000	98.075131 
1919.000000	98.076573 
1918.000000	98.079338 
1917.000000	98.082289 
1916.000000	98.084152 
1915.000000	98.085828 
1914.000000	98.088894 
1913.000000	98.092926 
1912.000000	98.095973 
1911.000000	98.097314 
1910.000000	98.098262 
1909.000000	98.100151 
1908.000000	98.103066 
1907.000000	98.106424 
1906.000000	98.109481 
1905.000000	98.111283 
1904.000000	98.111327 
1903.000000	98.110646 
1902.000000	98.110994 
1901.000000	98.112714 
1900.000000	98.114853 
1899.000000	98.116769 
1898.000000	98.118625 
1897.000000	98.120592 
1896.000000	98.122371 
1895.000000	98.123729 
1894.000000	98.124820 
1893.000000	98.125888 
1892.000000	98.127067 
1891.000000	98.128408 
1890.000000	98.129891 
1889.000000	98.131397 
1888.000000	98.132818 
1887.000000	98.134160 
1886.000000	98.135456 
1885.000000	98.136712 
1884.000000	98.137956 
1883.000000	98.139206 
1882.000000	98.140473 
1881.000000	98.141779 
1880.000000	98.143128 
1879.000000	98.144517 
1878.000000	98.145932 
1877.000000	98.147365 
1876.000000	98.148812 
1875.000000	98.150270 
1874.000000	98.151738 
1873.000000	98.153205 
1872.000000	98.154656 
1871.000000	98.156085 
1870.000000	98.157496 
1869.000000	98.158903 
1868.000000	98.160319 
1867.000000	98.161753 
1866.000000	98.163207 
1865.000000	98.164677 
1864.000000	98.166160 
1863.000000	98.167665 
1862.000000	98.169202 
1861.000000	98.170776 
1860.000000	98.172372 
1859.000000	98.173974 
1858.000000	98.175572 
1857.000000	98.177164 
1856.000000	98.178749 
1855.000000	98.180328 
1854.000000	98.181912 
1853.000000	98.183509 
1852.000000	98.185122 
1851.000000	98.186753 
1850.000000	98.188400 
1849.000000	98.190055 
1848.000000	98.191705 
1847.000000	98.193343 
1846.000000	98.194975 
1845.000000	98.196606 
1844.000000	98.198236 
1843.000000	98.199865 
1842.000000	98.201504 
1841.000000	98.203160 
1840.000000	98.204825 
1839.000000	98.206489 
1838.000000	98.208133 
1837.000000	98.209702 
1836.000000	98.211148 
1835.000000	98.212500 
1834.000000	98.213850 
1833.000000	98.215221 
1832.000000	98.216566 
1831.000000	98.217835 
1830.000000	98.219035 
1829.000000	98.220249 
1828.000000	98.221544 
1827.000000	98.222941 
1826.000000	98.224422 
1825.000000	98.225911 
1824.000000	98.227279 
1823.000000	98.228451 
1822.000000	98.229503 
1821.000000	98.230588 
1820.000000	98.231762 
1819.000000	98.232977 
1818.000000	98.234232 
1817.000000	98.235559 
1816.000000	98.236810 
1815.000000	98.237866 
1814.000000	98.238888 
1813.000000	98.240108 
1812.000000	98.241387 
1811.000000	98.242286 
1810.000000	98.242777 
1809.000000	98.243296 
1808.000000	98.244061 
1807.000000	98.244944 
1806.000000	98.245884 
1805.000000	98.246906 
1804.000000	98.247825 
1803.000000	98.248418 
1802.000000	98.248717 
1801.000000	98.249048 
1800.000000	98.249607 
1799.000000	98.250265 
1798.000000	98.250957 
1797.000000	98.251697 
1796.000000	98.252367 
1795.000000	98.252899 
1794.000000	98.253393 
1793.000000	98.253989 
1792.000000	98.254603 
1791.000000	98.255071 
1790.000000	98.255579 
1789.000000	98.256377 
1788.000000	98.257379 
1787.000000	98.258306 
1786.000000	98.259050 
1785.000000	98.259682 
1784.000000	98.260233 
1783.000000	98.260752 
1782.000000	98.261312 
1781.000000	98.261948 
1780.000000	98.262661 
1779.000000	98.263411 
1778.000000	98.264194 
1777.000000	98.264957 
1776.000000	98.265609 
1775.000000	98.266146 
1774.000000	98.266636 
1773.000000	98.267189 
1772.000000	98.267854 
1771.000000	98.268551 
1770.000000	98.269207 
1769.000000	98.269859 
1768.000000	98.270567 
1767.000000	98.271337 
1766.000000	98.272122 
1765.000000	98.272906 
1764.000000	98.273721 
1763.000000	98.274554 
1762.000000	98.275337 
1761.000000	98.276091 
1760.000000	98.276908 
1759.000000	98.277761 
1758.000000	98.278526 
1757.000000	98.279123 
1756.000000	98.279730 
1755.000000	98.280448 
1754.000000	98.281035 
1753.000000	98.281243 
1752.000000	98.281243 
1751.000000	98.281627 
1750.000000	98.282663 
1749.000000	98.284027 
1748.000000	98.285218 
1747.000000	98.286136 
1746.000000	98.286802 
1745.000000	98.287387 
1744.000000	98.288248 
1743.000000	98.289355 
1742.000000	98.290248 
1741.000000	98.290784 
1740.000000	98.291345 
1739.000000	98.292221 
1738.000000	98.293115 
1737.000000	98.293749 
1736.000000	98.294113 
1735.000000	98.294192 
1734.000000	98.294103 
1733.000000	98.294124 
1732.000000	98.294679 
1731.000000	98.296109 
1730.000000	98.298174 
1729.000000	98.299818 
1728.000000	98.300485 
1727.000000	98.300559 
1726.000000	98.300625 
1725.000000	98.300821 
1724.000000	98.300993 
1723.000000	98.300996 
1722.000000	98.301032 
1721.000000	98.301194 
1720.000000	98.301270 
1719.000000	98.300848 
1718.000000	98.299958 
1717.000000	98.299256 
1716.000000	98.298742 
1715.000000	98.298157 
1714.000000	98.297852 
1713.000000	98.297860 
1712.000000	98.297725 
1711.000000	98.297315 
1710.000000	98.296875 
1709.000000	98.296480 
1708.000000	98.295999 
1707.000000	98.295396 
1706.000000	98.294775 
1705.000000	98.294094 
1704.000000	98.293101 
1703.000000	98.291861 
1702.000000	98.290620 
1701.000000	98.289570 
1700.000000	98.288622 
1699.000000	98.287573 
1698.000000	98.286525 
1697.000000	98.285573 
1696.000000	98.284644 
1695.000000	98.283634 
1694.000000	98.282538 
1693.000000	98.281382 
1692.000000	98.280170 
1691.000000	98.278887 
1690.000000	98.277529 
1689.000000	98.276095 
1688.000000	98.274597 
1687.000000	98.273058 
1686.000000	98.271510 
1685.000000	98.269990 
1684.000000	98.268490 
1683.000000	98.266936 
1682.000000	98.265313 
1681.000000	98.263658 
1680.000000	98.262073 
1679.000000	98.260604 
1678.000000	98.259197 
1677.000000	98.257727 
1676.000000	98.256201 
1675.000000	98.254641 
1674.000000	98.252683 
1673.000000	98.250120 
1672.000000	98.247492 
1671.000000	98.245434 
1670.000000	98.244040 
1669.000000	98.242536 
1668.000000	98.240757 
1667.000000	98.239438 
1666.000000	98.238532 
1665.000000	98.237614 
1664.000000	98.236723 
1663.000000	98.236227 
1662.000000	98.235535 
1661.000000	98.233037 
1660.000000	98.229625 
1659.000000	98.227652 
1658.000000	98.228018 
1657.000000	98.228486 
1656.000000	98.228082 
1655.000000	98.226395 
1654.000000	98.222933 
1653.000000	98.217262 
1652.000000	98.209104 
1651.000000	98.202213 
1650.000000	98.198097 
1649.000000	98.196716 
1648.000000	98.196048 
1647.000000	98.195912 
1646.000000	98.195628 
1645.000000	98.195309 
1644.000000	98.194202 
1643.000000	98.193305 
1642.000000	98.193598 
1641.000000	98.194924 
1640.000000	98.196208 
1639.000000	98.196255 
1638.000000	98.195275 
1637.000000	98.193975 
1636.000000	98.192753 
1635.000000	98.192300 
1634.000000	98.192113 
1633.000000	98.191324 
1632.000000	98.189325 
1631.000000	98.187112 
1630.000000	98.186870 
1629.000000	98.188602 
1628.000000	98.190477 
1627.000000	98.192006 
1626.000000	98.193781 
1625.000000	98.195569 
1624.000000	98.197199 
1623.000000	98.199425 
1622.000000	98.201926 
1621.000000	98.202397 
1620.000000	98.200990 
1619.000000	98.200182 
1618.000000	98.201247 
1617.000000	98.201748 
1616.000000	98.199467 
1615.000000	98.197808 
1614.000000	98.199283 
1613.000000	98.201671 
1612.000000	98.202307 
1611.000000	98.201891 
1610.000000	98.202361 
1609.000000	98.203745 
1608.000000	98.205783 
1607.000000	98.209274 
1606.000000	98.213289 
1605.000000	98.215551 
1604.000000	98.216523 
1603.000000	98.218359 
1602.000000	98.221426 
1601.000000	98.224226 
1600.000000	98.226263 
1599.000000	98.228502 
1598.000000	98.230962 
1597.000000	98.232702 
1596.000000	98.233718 
1595.000000	98.235179 
1594.000000	98.237518 
1593.000000	98.239605 
1592.000000	98.240761 
1591.000000	98.241975 
1590.000000	98.244109 
1589.000000	98.246401 
1588.000000	98.248195 
1587.000000	98.250312 
1586.000000	98.253264 
1585.000000	98.255651 
1584.000000	98.256887 
1583.000000	98.258655 
1582.000000	98.261522 
1581.000000	98.263937 
1580.000000	98.265186 
1579.000000	98.266776 
1578.000000	98.269867 
1577.000000	98.273680 
1576.000000	98.276587 
1575.000000	98.278745 
1574.000000	98.280699 
1573.000000	98.282288 
1572.000000	98.284349 
1571.000000	98.287526 
1570.000000	98.290391 
1569.000000	98.289837 
1568.000000	98.287127 
1567.000000	98.286115 
1566.000000	98.287407 
1565.000000	98.288621 
1564.000000	98.289258 
1563.000000	98.289829 
1562.000000	98.290590 
1561.000000	98.289830 
1560.000000	98.287813 
1559.000000	98.288004 
1558.000000	98.289590 
1557.000000	98.289876 
1556.000000	98.289272 
1555.000000	98.290870 
1554.000000	98.292509 
1553.000000	98.293284 
1552.000000	98.293061 
1551.000000	98.292409 
1550.000000	98.290875 
1549.000000	98.288961 
1548.000000	98.287683 
1547.000000	98.287681 
1546.000000	98.287900 
1545.000000	98.286891 
1544.000000	98.284629 
1543.000000	98.282060 
1542.000000	98.280104 
1541.000000	98.279285 
1540.000000	98.278193 
1539.000000	98.276047 
1538.000000	98.273700 
1537.000000	98.271360 
1536.000000	98.269150 
1535.000000	98.267484 
1534.000000	98.266858 
1533.000000	98.266775 
1532.000000	98.266091 
1531.000000	98.264169 
1530.000000	98.261813 
1529.000000	98.259785 
1528.000000	98.257745 
1527.000000	98.255272 
1526.000000	98.252563 
1525.000000	98.250073 
1524.000000	98.248116 
1523.000000	98.246766 
1522.000000	98.245900 
1521.000000	98.244528 
1520.000000	98.241352 
1519.000000	98.236750 
1518.000000	98.232134 
1517.000000	98.228351 
1516.000000	98.225155 
1515.000000	98.222427 
1514.000000	98.220699 
1513.000000	98.220356 
1512.000000	98.220174 
1511.000000	98.217724 
1510.000000	98.212273 
1509.000000	98.205442 
1508.000000	98.199704 
1507.000000	98.195836 
1506.000000	98.193357 
1505.000000	98.190876 
1504.000000	98.187329 
1503.000000	98.183444 
1502.000000	98.179374 
1501.000000	98.176099 
1500.000000	98.174110 
1499.000000	98.172316 
1498.000000	98.168262 
1497.000000	98.162747 
1496.000000	98.158491 
1495.000000	98.156031 
1494.000000	98.155160 
1493.000000	98.156447 
1492.000000	98.159870 
1491.000000	98.163444 
1490.000000	98.164561 
1489.000000	98.163020 
1488.000000	98.159086 
1487.000000	98.152766 
1486.000000	98.146724 
1485.000000	98.141211 
1484.000000	98.134926 
1483.000000	98.128735 
1482.000000	98.123825 
1481.000000	98.120264 
1480.000000	98.116404 
1479.000000	98.111695 
1478.000000	98.107373 
1477.000000	98.104417 
1476.000000	98.100723 
1475.000000	98.093896 
1474.000000	98.085590 
1473.000000	98.080497 
1472.000000	98.080710 
1471.000000	98.081994 
1470.000000	98.081383 
1469.000000	98.079953 
1468.000000	98.077976 
1467.000000	98.074213 
1466.000000	98.069291 
1465.000000	98.065804 
1464.000000	98.065075 
1463.000000	98.063786 
1462.000000	98.059620 
1461.000000	98.055019 
1460.000000	98.053226 
1459.000000	98.053813 
1458.000000	98.048447 
1457.000000	98.031713 
1456.000000	98.012002 
1455.000000	97.997306 
1454.000000	97.986306 
1453.000000	97.979162 
1452.000000	97.976844 
1451.000000	97.979412 
1450.000000	97.985832 
1449.000000	97.997073 
1448.000000	98.011192 
1447.000000	98.022050 
1446.000000	98.025612 
1445.000000	98.024805 
1444.000000	98.025894 
1443.000000	98.028570 
1442.000000	98.028791 
1441.000000	98.025735 
1440.000000	98.022785 
1439.000000	98.021565 
1438.000000	98.019221 
1437.000000	98.014644 
1436.000000	98.010952 
1435.000000	98.008291 
1434.000000	98.004970 
1433.000000	98.003708 
1432.000000	98.005822 
1431.000000	98.008415 
1430.000000	98.006778 
1429.000000	98.000693 
1428.000000	97.993034 
1427.000000	97.986111 
1426.000000	97.980244 
1425.000000	97.974254 
1424.000000	97.969621 
1423.000000	97.965678 
1422.000000	97.959270 
1421.000000	97.950166 
1420.000000	97.940582 
1419.000000	97.927797 
1418.000000	97.906191 
1417.000000	97.880920 
1416.000000	97.862082 
1415.000000	97.851155 
1414.000000	97.840741 
1413.000000	97.825341 
1412.000000	97.807804 
1411.000000	97.793067 
1410.000000	97.780922 
1409.000000	97.770564 
1408.000000	97.763693 
1407.000000	97.761647 
1406.000000	97.763129 
1405.000000	97.766937 
1404.000000	97.775676 
1403.000000	97.789020 
1402.000000	97.802637 
1401.000000	97.815486 
1400.000000	97.830149 
1399.000000	97.845244 
1398.000000	97.851229 
1397.000000	97.839801 
1396.000000	97.813664 
1395.000000	97.788410 
1394.000000	97.781343 
1393.000000	97.797348 
1392.000000	97.829413 
1391.000000	97.865028 
1390.000000	97.892884 
1389.000000	97.907547 
1388.000000	97.909612 
1387.000000	97.903416 
1386.000000	97.894672 
1385.000000	97.888748 
1384.000000	97.889442 
1383.000000	97.896284 
1382.000000	97.905048 
1381.000000	97.912813 
1380.000000	97.920249 
1379.000000	97.930004 
1378.000000	97.943341 
1377.000000	97.959188 
1376.000000	97.975671 
1375.000000	97.991758 
1374.000000	98.007226 
1373.000000	98.022753 
1372.000000	98.039374 
1371.000000	98.057633 
1370.000000	98.076603 
1369.000000	98.093482 
1368.000000	98.107853 
1367.000000	98.121815 
1366.000000	98.137130 
1365.000000	98.154117 
1364.000000	98.171118 
1363.000000	98.184869 
1362.000000	98.193710 
1361.000000	98.199826 
1360.000000	98.207251 
1359.000000	98.218572 
1358.000000	98.233035 
1357.000000	98.247600 
1356.000000	98.260037 
1355.000000	98.270062 
1354.000000	98.278619 
1353.000000	98.287860 
1352.000000	98.298765 
1351.000000	98.310787 
1350.000000	98.323007 
1349.000000	98.332484 
1348.000000	98.337590 
1347.000000	98.339850 
1346.000000	98.342698 
1345.000000	98.347617 
1344.000000	98.353500 
1343.000000	98.358939 
1342.000000	98.363617 
1341.000000	98.366990 
1340.000000	98.368124 
1339.000000	98.367457 
1338.000000	98.366395 
1337.000000	98.365516 
1336.000000	98.364384 
1335.000000	98.362494 
1334.000000	98.360390 
1333.000000	98.359592 
1332.000000	98.360932 
1331.000000	98.363822 
1330.000000	98.366801 
1329.000000	98.368513 
1328.000000	98.368555 
1327.000000	98.367984 
1326.000000	98.367997 
1325.000000	98.367661 
1324.000000	98.365793 
1323.000000	98.362292 
1322.000000	98.357891 
1321.000000	98.353881 
1320.000000	98.352293 
1319.000000	98.354465 
1318.000000	98.359184 
1317.000000	98.363592 
1316.000000	98.365587 
1315.000000	98.364624 
1314.000000	98.361275 
1313.000000	98.357789 
1312.000000	98.357285 
1311.000000	98.360477 
1310.000000	98.364169 
1309.000000	98.365073 
1308.000000	98.363821 
1307.000000	98.363713 
1306.000000	98.366074 
1305.000000	98.368581 
1304.000000	98.369342 
1303.000000	98.368682 
1302.000000	98.367438 
1301.000000	98.365792 
1300.000000	98.364607 
1299.000000	98.365278 
1298.000000	98.367497 
1297.000000	98.368837 
1296.000000	98.367438 
1295.000000	98.364300 
1294.000000	98.361927 
1293.000000	98.361896 
1292.000000	98.364049 
1291.000000	98.366956 
1290.000000	98.368983 
1289.000000	98.369513 
1288.000000	98.369038 
1287.000000	98.367788 
1286.000000	98.365031 
1285.000000	98.360688 
1284.000000	98.356684 
1283.000000	98.354801 
1282.000000	98.353684 
1281.000000	98.349990 
1280.000000	98.342871 
1279.000000	98.335510 
1278.000000	98.331383 
1277.000000	98.330711 
1276.000000	98.330825 
1275.000000	98.329052 
1274.000000	98.324493 
1273.000000	98.318023 
1272.000000	98.311150 
1271.000000	98.304391 
1270.000000	98.296627 
1269.000000	98.286570 
1268.000000	98.274666 
1267.000000	98.262465 
1266.000000	98.250408 
1265.000000	98.238123 
1264.000000	98.226533 
1263.000000	98.217499 
1262.000000	98.211047 
1261.000000	98.204860 
1260.000000	98.197585 
1259.000000	98.190967 
1258.000000	98.186889 
1257.000000	98.183926 
1256.000000	98.178582 
1255.000000	98.169659 
1254.000000	98.159797 
1253.000000	98.152241 
1252.000000	98.147271 
1251.000000	98.142912 
1250.000000	98.138606 
1249.000000	98.136947 
1248.000000	98.141126 
1247.000000	98.150764 
1246.000000	98.160415 
1245.000000	98.162904 
1244.000000	98.154876 
1243.000000	98.140438 
1242.000000	98.129909 
1241.000000	98.132731 
1240.000000	98.149171 
1239.000000	98.168559 
1238.000000	98.178018 
1237.000000	98.173548 
1236.000000	98.160995 
1235.000000	98.147488 
1234.000000	98.134909 
1233.000000	98.122185 
1232.000000	98.109806 
1231.000000	98.099176 
1230.000000	98.090265 
1229.000000	98.083085 
1228.000000	98.079440 
1227.000000	98.080109 
1226.000000	98.081825 
1225.000000	98.080170 
1224.000000	98.074584 
1223.000000	98.067935 
1222.000000	98.062085 
1221.000000	98.056519 
1220.000000	98.050664 
1219.000000	98.044881 
1218.000000	98.039197 
1217.000000	98.033105 
1216.000000	98.026149 
1215.000000	98.017191 
1214.000000	98.004519 
1213.000000	97.988847 
1212.000000	97.974477 
1211.000000	97.964185 
1210.000000	97.954175 
1209.000000	97.937712 
1208.000000	97.913260 
1207.000000	97.885763 
1206.000000	97.860017 
1205.000000	97.835659 
1204.000000	97.809387 
1203.000000	97.779673 
1202.000000	97.748261 
1201.000000	97.718346 
1200.000000	97.691661 
1199.000000	97.666648 
1198.000000	97.639785 
1197.000000	97.609573 
1196.000000	97.577994 
1195.000000	97.547297 
1194.000000	97.517152 
1193.000000	97.486132 
1192.000000	97.454267 
1191.000000	97.422090 
1190.000000	97.388653 
1189.000000	97.352763 
1188.000000	97.315040 
1187.000000	97.276718 
1186.000000	97.237685 
1185.000000	97.197594 
1184.000000	97.157193 
1183.000000	97.116540 
1182.000000	97.073960 
1181.000000	97.028987 
1180.000000	96.984112 
1179.000000	96.940863 
1178.000000	96.896394 
1177.000000	96.847226 
1176.000000	96.794210 
1175.000000	96.740288 
1174.000000	96.685648 
1173.000000	96.629304 
1172.000000	96.573673 
1171.000000	96.522293 
1170.000000	96.473956 
1169.000000	96.424449 
1168.000000	96.374111 
1167.000000	96.328747 
1166.000000	96.293081 
1165.000000	96.268424 
1164.000000	96.256827 
1163.000000	96.261501 
1162.000000	96.281086 
1161.000000	96.307608 
1160.000000	96.331891 
1159.000000	96.348015 
1158.000000	96.352017 
1157.000000	96.340660 
1156.000000	96.313477 
1155.000000	96.273500 
1154.000000	96.224848 
1153.000000	96.171560 
1152.000000	96.118628 
1151.000000	96.070590 
1150.000000	96.027947 
1149.000000	95.987843 
1148.000000	95.948790 
1147.000000	95.911514 
1146.000000	95.874797 
1145.000000	95.834437 
1144.000000	95.787963 
1143.000000	95.737648 
1142.000000	95.687627 
1141.000000	95.640254 
1140.000000	95.595891 
1139.000000	95.553644 
1138.000000	95.511531 
1137.000000	95.468151 
1136.000000	95.424305 
1135.000000	95.380959 
1134.000000	95.336451 
1133.000000	95.288673 
1132.000000	95.239062 
1131.000000	95.190760 
1130.000000	95.143488 
1129.000000	95.094235 
1128.000000	95.042508 
1127.000000	94.990566 
1126.000000	94.938707 
1125.000000	94.884848 
1124.000000	94.828969 
1123.000000	94.773664 
1122.000000	94.719885 
1121.000000	94.666139 
1120.000000	94.612090 
1119.000000	94.558710 
1118.000000	94.504875 
1117.000000	94.448411 
1116.000000	94.390820 
1115.000000	94.336499 
1114.000000	94.286741 
1113.000000	94.238552 
1112.000000	94.189444 
1111.000000	94.139358 
1110.000000	94.087835 
1109.000000	94.033795 
1108.000000	93.978375 
1107.000000	93.923413 
1106.000000	93.868039 
1105.000000	93.811071 
1104.000000	93.755319 
1103.000000	93.704755 
1102.000000	93.657915 
1101.000000	93.609942 
1100.000000	93.560243 
1099.000000	93.512422 
1098.000000	93.468704 
1097.000000	93.427311 
1096.000000	93.385991 
1095.000000	93.342437 
1094.000000	93.291588 
1093.000000	93.228187 
1092.000000	93.153591 
1091.000000	93.076252 
1090.000000	93.004118 
1089.000000	92.939093 
1088.000000	92.878434 
1087.000000	92.817314 
1086.000000	92.750493 
1085.000000	92.676529 
1084.000000	92.600729 
1083.000000	92.529467 
1082.000000	92.461884 
1081.000000	92.392565 
1080.000000	92.321901 
1079.000000	92.256934 
1078.000000	92.201153 
1077.000000	92.150418 
1076.000000	92.100594 
1075.000000	92.052355 
1074.000000	92.006640 
1073.000000	91.961886 
1072.000000	91.916415 
1071.000000	91.865317 
1070.000000	91.794159 
1069.000000	91.687422 
1068.000000	91.549429 
1067.000000	91.410262 
1066.000000	91.303070 
1065.000000	91.237812 
1064.000000	91.199884 
1063.000000	91.165427 
1062.000000	91.112569 
1061.000000	91.026501 
1060.000000	90.906135 
1059.000000	90.768035 
1058.000000	90.637305 
1057.000000	90.530291 
1056.000000	90.445750 
1055.000000	90.369959 
1054.000000	90.288684 
1053.000000	90.197452 
1052.000000	90.102943 
1051.000000	90.013834 
1050.000000	89.931140 
1049.000000	89.850241 
1048.000000	89.769804 
1047.000000	89.692888 
1046.000000	89.620937 
1045.000000	89.552818 
1044.000000	89.488643 
1043.000000	89.428882 
1042.000000	89.370405 
1041.000000	89.308622 
1040.000000	89.243514 
1039.000000	89.180226 
1038.000000	89.125462 
1037.000000	89.086116 
1036.000000	89.066953 
1035.000000	89.064374 
1034.000000	89.066570 
1033.000000	89.064721 
1032.000000	89.057784 
1031.000000	89.041286 
1030.000000	89.003090 
1029.000000	88.942965 
1028.000000	88.887699 
1027.000000	88.869552 
1026.000000	88.891767 
1025.000000	88.928271 
1024.000000	88.955199 
1023.000000	88.968595 
1022.000000	88.972440 
1021.000000	88.967413 
1020.000000	88.956111 
1019.000000	88.945897 
1018.000000	88.940525 
1017.000000	88.937274 
1016.000000	88.934943 
1015.000000	88.936247 
1014.000000	88.941023 
1013.000000	88.945787 
1012.000000	88.950820 
1011.000000	88.959203 
1010.000000	88.969181 
1009.000000	88.976641 
1008.000000	88.984509 
1007.000000	89.000099 
1006.000000	89.023970 
1005.000000	89.051065 
1004.000000	89.081273 
1003.000000	89.117787 
1002.000000	89.156200 
1001.000000	89.187618 
1000.000000	89.213260 
999.000000	 89.243999 
998.000000	 89.283862 
997.000000	 89.325020 
996.000000	 89.360992 
995.000000	 89.394703 
994.000000	 89.431472 
993.000000	 89.473307 
992.000000	 89.521332 
991.000000	 89.574665 
990.000000	 89.626372 
989.000000	 89.670032 
988.000000	 89.710528 
987.000000	 89.758524 
986.000000	 89.815072 
985.000000	 89.872940 
984.000000	 89.932223 
983.000000	 90.001224 
982.000000	 90.081161 
981.000000	 90.162573 
980.000000	 90.239112 
979.000000	 90.314114 
978.000000	 90.390789 
977.000000	 90.467345 
976.000000	 90.545150 
975.000000	 90.630742 
974.000000	 90.725433 
973.000000	 90.822211 
972.000000	 90.916870 
971.000000	 91.013749 
970.000000	 91.116750 
969.000000	 91.222606 
968.000000	 91.326625 
967.000000	 91.428277 
966.000000	 91.528291 
965.000000	 91.626501 
964.000000	 91.724696 
963.000000	 91.825633 
962.000000	 91.927791 
961.000000	 92.026788 
960.000000	 92.122211 
959.000000	 92.216816 
958.000000	 92.309286 
957.000000	 92.394850 
956.000000	 92.473384 
955.000000	 92.550265 
954.000000	 92.628990 
953.000000	 92.708936 
952.000000	 92.789510 
951.000000	 92.869455 
950.000000	 92.943348 
949.000000	 93.006691 
948.000000	 93.063634 
947.000000	 93.121804 
946.000000	 93.180218 
945.000000	 93.230944 
944.000000	 93.272221 
943.000000	 93.311017 
942.000000	 93.352124 
941.000000	 93.393593 
940.000000	 93.434335 
939.000000	 93.477314 
938.000000	 93.523115 
937.000000	 93.568199 
936.000000	 93.611690 
935.000000	 93.656732 
934.000000	 93.703459 
933.000000	 93.747877 
932.000000	 93.789551 
931.000000	 93.833429 
930.000000	 93.881759 
929.000000	 93.930215 
928.000000	 93.974364 
927.000000	 94.014999 
926.000000	 94.055304 
925.000000	 94.096535 
924.000000	 94.136884 
923.000000	 94.171394 
922.000000	 94.194712 
921.000000	 94.208516 
920.000000	 94.223661 
919.000000	 94.249007 
918.000000	 94.280183 
917.000000	 94.305535 
916.000000	 94.321289 
915.000000	 94.334368 
914.000000	 94.352412 
913.000000	 94.378299 
912.000000	 94.412724 
911.000000	 94.454333 
910.000000	 94.498117 
909.000000	 94.540926 
908.000000	 94.587580 
907.000000	 94.645071 
906.000000	 94.713155 
905.000000	 94.787240 
904.000000	 94.866813 
903.000000	 94.952464 
902.000000	 95.038035 
901.000000	 95.115701 
900.000000	 95.187259 
899.000000	 95.261538 
898.000000	 95.342339 
897.000000	 95.426589 
896.000000	 95.511339 
895.000000	 95.593549 
894.000000	 95.666287 
893.000000	 95.725793 
892.000000	 95.780808 
891.000000	 95.844915 
890.000000	 95.919981 
889.000000	 95.995735 
888.000000	 96.063741 
887.000000	 96.122179 
886.000000	 96.169729 
885.000000	 96.206358 
884.000000	 96.238964 
883.000000	 96.274526 
882.000000	 96.308658 
881.000000	 96.334219 
880.000000	 96.360783 
879.000000	 96.409277 
878.000000	 96.483536 
877.000000	 96.562090 
876.000000	 96.623964 
875.000000	 96.669537 
874.000000	 96.710403 
873.000000	 96.753375 
872.000000	 96.802725 
871.000000	 96.865123 
870.000000	 96.941167 
869.000000	 97.019773 
868.000000	 97.089555 
867.000000	 97.150338 
866.000000	 97.208469 
865.000000	 97.267687 
864.000000	 97.329811 
863.000000	 97.397569 
862.000000	 97.470333 
861.000000	 97.541734 
860.000000	 97.606611 
859.000000	 97.666423 
858.000000	 97.724543 
857.000000	 97.780584 
856.000000	 97.832245 
855.000000	 97.878245 
854.000000	 97.916935 
853.000000	 97.946665 
852.000000	 97.969975 
851.000000	 97.993273 
850.000000	 98.020854 
849.000000	 98.053294 
848.000000	 98.091014 
847.000000	 98.132591 
846.000000	 98.169790 
845.000000	 98.192948 
844.000000	 98.203036 
843.000000	 98.211061 
842.000000	 98.223873 
841.000000	 98.237582 
840.000000	 98.245932 
839.000000	 98.246654 
838.000000	 98.238297 
837.000000	 98.220428 
836.000000	 98.200380 
835.000000	 98.190976 
834.000000	 98.196487 
833.000000	 98.207624 
832.000000	 98.214253 
831.000000	 98.215800 
830.000000	 98.215665 
829.000000	 98.213966 
828.000000	 98.212347 
827.000000	 98.219166 
826.000000	 98.241938 
825.000000	 98.278086 
824.000000	 98.317998 
823.000000	 98.352643 
822.000000	 98.375562 
821.000000	 98.384673 
820.000000	 98.386033 
819.000000	 98.389538 
818.000000	 98.396901 
817.000000	 98.397893 
816.000000	 98.380655 
815.000000	 98.342361 
814.000000	 98.289258 
813.000000	 98.230322 
812.000000	 98.170754 
811.000000	 98.105571 
810.000000	 98.018073 
809.000000	 97.890635 
808.000000	 97.720092 
807.000000	 97.519964 
806.000000	 97.307938 
805.000000	 97.095592 
804.000000	 96.889403 
803.000000	 96.693706 
802.000000	 96.511095 
801.000000	 96.347671 
800.000000	 96.218670 
799.000000	 96.139393 
798.000000	 96.108117 
797.000000	 96.106727 
796.000000	 96.120316 
795.000000	 96.147335 
794.000000	 96.188806 
793.000000	 96.238117 
792.000000	 96.285423 
791.000000	 96.324370 
790.000000	 96.352152 
789.000000	 96.369541 
788.000000	 96.380709 
787.000000	 96.385326 
786.000000	 96.372127 
785.000000	 96.329418 
784.000000	 96.261183 
783.000000	 96.183461 
782.000000	 96.106386 
781.000000	 96.031439 
780.000000	 95.965149 
779.000000	 95.921152 
778.000000	 95.906466 
777.000000	 95.918202 
776.000000	 95.954937 
775.000000	 96.017351 
774.000000	 96.095784 
773.000000	 96.172750 
772.000000	 96.242520 
771.000000	 96.314518 
770.000000	 96.392893 
769.000000	 96.466718 
768.000000	 96.525510 
767.000000	 96.570835 
766.000000	 96.606781 
765.000000	 96.632514 
764.000000	 96.651429 
763.000000	 96.674649 
762.000000	 96.706746 
761.000000	 96.739020 
760.000000	 96.764898 
759.000000	 96.790980 
758.000000	 96.824527 
757.000000	 96.861890 
756.000000	 96.899928 
755.000000	 96.948160 
754.000000	 97.015672 
753.000000	 97.091379 
752.000000	 97.149890 
751.000000	 97.176514 
750.000000	 97.180194 
749.000000	 97.183988 
748.000000	 97.207096 
747.000000	 97.252492 
746.000000	 97.306405 
745.000000	 97.351811 
744.000000	 97.385874 
743.000000	 97.421569 
742.000000	 97.470853 
741.000000	 97.531087 
740.000000	 97.590096 
739.000000	 97.639253 
738.000000	 97.678931 
737.000000	 97.715680 
736.000000	 97.756383 
735.000000	 97.801103 
734.000000	 97.841232 
733.000000	 97.869400 
732.000000	 97.890203 
731.000000	 97.914223 
730.000000	 97.942236 
729.000000	 97.964660 
728.000000	 97.976391 
727.000000	 97.983219 
726.000000	 97.994216 
725.000000	 98.015932 
724.000000	 98.053042 
723.000000	 98.103754 
722.000000	 98.153147 
721.000000	 98.182546 
720.000000	 98.190151 
719.000000	 98.193483 
718.000000	 98.207148 
717.000000	 98.228948 
716.000000	 98.251150 
715.000000	 98.271535 
714.000000	 98.288857 
713.000000	 98.300049 
712.000000	 98.307974 
711.000000	 98.321510 
710.000000	 98.341062 
709.000000	 98.358260 
708.000000	 98.370102 
707.000000	 98.381951 
706.000000	 98.395445 
705.000000	 98.401420 
704.000000	 98.390533 
703.000000	 98.363888 
702.000000	 98.326378 
701.000000	 98.277189 
700.000000	 98.213240 
699.000000	 98.134306 
698.000000	 98.042437 
697.000000	 97.943921 
696.000000	 97.855381 
695.000000	 97.800155 
694.000000	 97.789744 
693.000000	 97.814159 
692.000000	 97.854889 
691.000000	 97.900444 
690.000000	 97.947687 
689.000000	 97.994443 
688.000000	 98.036392 
687.000000	 98.069204 
686.000000	 98.089958 
685.000000	 98.100803 
684.000000	 98.111417 
683.000000	 98.130363 
682.000000	 98.154821 
681.000000	 98.175407 
680.000000	 98.189854 
679.000000	 98.204115 
678.000000	 98.221498 
677.000000	 98.241237 
676.000000	 98.263405 
675.000000	 98.286851 
674.000000	 98.304814 
673.000000	 98.309504 
672.000000	 98.300120 
671.000000	 98.276509 
670.000000	 98.232723 
669.000000	 98.166226 
668.000000	 98.116304 
667.000000	 98.143750 
666.000000	 98.223273 
665.000000	 98.289068 
664.000000	 98.323964 
663.000000	 98.338052 
662.000000	 98.344051 
661.000000	 98.346411 
660.000000	 98.348027 
659.000000	 98.357981 
658.000000	 98.380612 
657.000000	 98.404370 
656.000000	 98.412721 
655.000000	 98.402500 
654.000000	 98.383533 
653.000000	 98.363925 
652.000000	 98.345502 
651.000000	 98.332753 
650.000000	 98.331751 

