4000.000000	97.337373 
3999.000000	97.336084 
3998.000000	97.333696 
3997.000000	97.331035 
3996.000000	97.329208 
3995.000000	97.328765 
3994.000000	97.329566 
3993.000000	97.330916 
3992.000000	97.331923 
3991.000000	97.332061 
3990.000000	97.331493 
3989.000000	97.330852 
3988.000000	97.330614 
3987.000000	97.330765 
3986.000000	97.331079 
3985.000000	97.331429 
3984.000000	97.331696 
3983.000000	97.331654 
3982.000000	97.331345 
3981.000000	97.331262 
3980.000000	97.331648 
3979.000000	97.331928 
3978.000000	97.331386 
3977.000000	97.330240 
3976.000000	97.329501 
3975.000000	97.329648 
3974.000000	97.329981 
3973.000000	97.329473 
3972.000000	97.327775 
3971.000000	97.325346 
3970.000000	97.322996 
3969.000000	97.321522 
3968.000000	97.321428 
3967.000000	97.322577 
3966.000000	97.324248 
3965.000000	97.325607 
3964.000000	97.326029 
3963.000000	97.325267 
3962.000000	97.323621 
3961.000000	97.321856 
3960.000000	97.320565 
3959.000000	97.319776 
3958.000000	97.319266 
3957.000000	97.319150 
3956.000000	97.319623 
3955.000000	97.320139 
3954.000000	97.319714 
3953.000000	97.317797 
3952.000000	97.314673 
3951.000000	97.311001 
3950.000000	97.307266 
3949.000000	97.303967 
3948.000000	97.301669 
3947.000000	97.300753 
3946.000000	97.301281 
3945.000000	97.302943 
3944.000000	97.304767 
3943.000000	97.305537 
3942.000000	97.305171 
3941.000000	97.304795 
3940.000000	97.305337 
3939.000000	97.306609 
3938.000000	97.307634 
3937.000000	97.307711 
3936.000000	97.306705 
3935.000000	97.304351 
3934.000000	97.300681 
3933.000000	97.296817 
3932.000000	97.294663 
3931.000000	97.294776 
3930.000000	97.295816 
3929.000000	97.296851 
3928.000000	97.298422 
3927.000000	97.300949 
3926.000000	97.302977 
3925.000000	97.302360 
3924.000000	97.299210 
3923.000000	97.295529 
3922.000000	97.292234 
3921.000000	97.288999 
3920.000000	97.286141 
3919.000000	97.285042 
3918.000000	97.286004 
3917.000000	97.287634 
3916.000000	97.289022 
3915.000000	97.290821 
3914.000000	97.293513 
3913.000000	97.296247 
3912.000000	97.297899 
3911.000000	97.298711 
3910.000000	97.299298 
3909.000000	97.299692 
3908.000000	97.299596 
3907.000000	97.298340 
3906.000000	97.294961 
3905.000000	97.288099 
3904.000000	97.278164 
3903.000000	97.268858 
3902.000000	97.264101 
3901.000000	97.264597 
3900.000000	97.267988 
3899.000000	97.271534 
3898.000000	97.274654 
3897.000000	97.277616 
3896.000000	97.279931 
3895.000000	97.281554 
3894.000000	97.283217 
3893.000000	97.285318 
3892.000000	97.286351 
3891.000000	97.284443 
3890.000000	97.280211 
3889.000000	97.276009 
3888.000000	97.273496 
3887.000000	97.272310 
3886.000000	97.271531 
3885.000000	97.271273 
3884.000000	97.271707 
3883.000000	97.271799 
3882.000000	97.270657 
3881.000000	97.268940 
3880.000000	97.268159 
3879.000000	97.268538 
3878.000000	97.269204 
3877.000000	97.269775 
3876.000000	97.270511 
3875.000000	97.271098 
3874.000000	97.270836 
3873.000000	97.269741 
3872.000000	97.268374 
3871.000000	97.266840 
3870.000000	97.265179 
3869.000000	97.264268 
3868.000000	97.264547 
3867.000000	97.265273 
3866.000000	97.265480 
3865.000000	97.265186 
3864.000000	97.265212 
3863.000000	97.265826 
3862.000000	97.266351 
3861.000000	97.266508 
3860.000000	97.266711 
3859.000000	97.267191 
3858.000000	97.267632 
3857.000000	97.267693 
3856.000000	97.267434 
3855.000000	97.266937 
3854.000000	97.265794 
3853.000000	97.264411 
3852.000000	97.263911 
3851.000000	97.264449 
3850.000000	97.265294 
3849.000000	97.266065 
3848.000000	97.267014 
3847.000000	97.268425 
3846.000000	97.269861 
3845.000000	97.270589 
3844.000000	97.270413 
3843.000000	97.269674 
3842.000000	97.268808 
3841.000000	97.268208 
3840.000000	97.268007 
3839.000000	97.268338 
3838.000000	97.269358 
3837.000000	97.270660 
3836.000000	97.271586 
3835.000000	97.271933 
3834.000000	97.272074 
3833.000000	97.272498 
3832.000000	97.273271 
3831.000000	97.274233 
3830.000000	97.275338 
3829.000000	97.276633 
3828.000000	97.278220 
3827.000000	97.279962 
3826.000000	97.281281 
3825.000000	97.281965 
3824.000000	97.282306 
3823.000000	97.282553 
3822.000000	97.282212 
3821.000000	97.280769 
3820.000000	97.279006 
3819.000000	97.277602 
3818.000000	97.276422 
3817.000000	97.275478 
3816.000000	97.275869 
3815.000000	97.278813 
3814.000000	97.283319 
3813.000000	97.286567 
3812.000000	97.287323 
3811.000000	97.287495 
3810.000000	97.289585 
3809.000000	97.293329 
3808.000000	97.295530 
3807.000000	97.294055 
3806.000000	97.290377 
3805.000000	97.287199 
3804.000000	97.284987 
3803.000000	97.283265 
3802.000000	97.281835 
3801.000000	97.281751 
3800.000000	97.283900 
3799.000000	97.286072 
3798.000000	97.286031 
3797.000000	97.285316 
3796.000000	97.287412 
3795.000000	97.292919 
3794.000000	97.298365 
3793.000000	97.300579 
3792.000000	97.300606 
3791.000000	97.302059 
3790.000000	97.305813 
3789.000000	97.309026 
3788.000000	97.309621 
3787.000000	97.308635 
3786.000000	97.307812 
3785.000000	97.306973 
3784.000000	97.305100 
3783.000000	97.302664 
3782.000000	97.300471 
3781.000000	97.298216 
3780.000000	97.295676 
3779.000000	97.294662 
3778.000000	97.296779 
3777.000000	97.300725 
3776.000000	97.303313 
3775.000000	97.303073 
3774.000000	97.301503 
3773.000000	97.300652 
3772.000000	97.300011 
3771.000000	97.296744 
3770.000000	97.290187 
3769.000000	97.284185 
3768.000000	97.281896 
3767.000000	97.281594 
3766.000000	97.280040 
3765.000000	97.276903 
3764.000000	97.275291 
3763.000000	97.277151 
3762.000000	97.279971 
3761.000000	97.279948 
3760.000000	97.276621 
3759.000000	97.273423 
3758.000000	97.270214 
3757.000000	97.263419 
3756.000000	97.253318 
3755.000000	97.242966 
3754.000000	97.232678 
3753.000000	97.219394 
3752.000000	97.204130 
3751.000000	97.193476 
3750.000000	97.188249 
3749.000000	97.182495 
3748.000000	97.176265 
3747.000000	97.175760 
3746.000000	97.182225 
3745.000000	97.186318 
3744.000000	97.188649 
3743.000000	97.196700 
3742.000000	97.202306 
3741.000000	97.193170 
3740.000000	97.173332 
3739.000000	97.161796 
3738.000000	97.169533 
3737.000000	97.183307 
3736.000000	97.185297 
3735.000000	97.177919 
3734.000000	97.175279 
3733.000000	97.179343 
3732.000000	97.183586 
3731.000000	97.187092 
3730.000000	97.190934 
3729.000000	97.191903 
3728.000000	97.186890 
3727.000000	97.178408 
3726.000000	97.173835 
3725.000000	97.176247 
3724.000000	97.180593 
3723.000000	97.181088 
3722.000000	97.177674 
3721.000000	97.173539 
3720.000000	97.168074 
3719.000000	97.160408 
3718.000000	97.151536 
3717.000000	97.142018 
3716.000000	97.131983 
3715.000000	97.119157 
3714.000000	97.100860 
3713.000000	97.078053 
3712.000000	97.054186 
3711.000000	97.032147 
3710.000000	97.010448 
3709.000000	96.986407 
3708.000000	96.959946 
3707.000000	96.931410 
3706.000000	96.901926 
3705.000000	96.873217 
3704.000000	96.845961 
3703.000000	96.818005 
3702.000000	96.784577 
3701.000000	96.743451 
3700.000000	96.698082 
3699.000000	96.655070 
3698.000000	96.619656 
3697.000000	96.592602 
3696.000000	96.573276 
3695.000000	96.561141 
3694.000000	96.553240 
3693.000000	96.546030 
3692.000000	96.537831 
3691.000000	96.528540 
3690.000000	96.516317 
3689.000000	96.502523 
3688.000000	96.494186 
3687.000000	96.493695 
3686.000000	96.494833 
3685.000000	96.489646 
3684.000000	96.476751 
3683.000000	96.462618 
3682.000000	96.452370 
3681.000000	96.439014 
3680.000000	96.410329 
3679.000000	96.363674 
3678.000000	96.310547 
3677.000000	96.262338 
3676.000000	96.218425 
3675.000000	96.178231 
3674.000000	96.141610 
3673.000000	96.103704 
3672.000000	96.061174 
3671.000000	96.019430 
3670.000000	95.985968 
3669.000000	95.960467 
3668.000000	95.932587 
3667.000000	95.894636 
3666.000000	95.851853 
3665.000000	95.813452 
3664.000000	95.780995 
3663.000000	95.749331 
3662.000000	95.711931 
3661.000000	95.664857 
3660.000000	95.609935 
3659.000000	95.552702 
3658.000000	95.499764 
3657.000000	95.452627 
3656.000000	95.407579 
3655.000000	95.360668 
3654.000000	95.308633 
3653.000000	95.250993 
3652.000000	95.190636 
3651.000000	95.132886 
3650.000000	95.083257 
3649.000000	95.043970 
3648.000000	95.012345 
3647.000000	94.984515 
3646.000000	94.959675 
3645.000000	94.938189 
3644.000000	94.919235 
3643.000000	94.901504 
3642.000000	94.882863 
3641.000000	94.860145 
3640.000000	94.830804 
3639.000000	94.793769 
3638.000000	94.751428 
3637.000000	94.708477 
3636.000000	94.667850 
3635.000000	94.626532 
3634.000000	94.577848 
3633.000000	94.519532 
3632.000000	94.457924 
3631.000000	94.405144 
3630.000000	94.371076 
3629.000000	94.356150 
3628.000000	94.348871 
3627.000000	94.333475 
3626.000000	94.303065 
3625.000000	94.264913 
3624.000000	94.231107 
3623.000000	94.208574 
3622.000000	94.197894 
3621.000000	94.197814 
3620.000000	94.207422 
3619.000000	94.224325 
3618.000000	94.243034 
3617.000000	94.260231 
3616.000000	94.281186 
3615.000000	94.313968 
3614.000000	94.358585 
3613.000000	94.405608 
3612.000000	94.444614 
3611.000000	94.472239 
3610.000000	94.494115 
3609.000000	94.519035 
3608.000000	94.549590 
3607.000000	94.580307 
3606.000000	94.604762 
3605.000000	94.624020 
3604.000000	94.645744 
3603.000000	94.674961 
3602.000000	94.708420 
3601.000000	94.737128 
3600.000000	94.754814 
3599.000000	94.762886 
3598.000000	94.768468 
3597.000000	94.778635 
3596.000000	94.797168 
3595.000000	94.820094 
3594.000000	94.837656 
3593.000000	94.842839 
3592.000000	94.836000 
3591.000000	94.823773 
3590.000000	94.815818 
3589.000000	94.820033 
3588.000000	94.837778 
3587.000000	94.862493 
3586.000000	94.884533 
3585.000000	94.898652 
3584.000000	94.907503 
3583.000000	94.916552 
3582.000000	94.928692 
3581.000000	94.941528 
3580.000000	94.950438 
3579.000000	94.953148 
3578.000000	94.951485 
3577.000000	94.949496 
3576.000000	94.949636 
3575.000000	94.951356 
3574.000000	94.951309 
3573.000000	94.946195 
3572.000000	94.934448 
3571.000000	94.917106 
3570.000000	94.897791 
3569.000000	94.882032 
3568.000000	94.875183 
3567.000000	94.879331 
3566.000000	94.890646 
3565.000000	94.902005 
3564.000000	94.909068 
3563.000000	94.912619 
3562.000000	94.915326 
3561.000000	94.918479 
3560.000000	94.921095 
3559.000000	94.921439 
3558.000000	94.918980 
3557.000000	94.915214 
3556.000000	94.912511 
3555.000000	94.912417 
3554.000000	94.914449 
3553.000000	94.916132 
3552.000000	94.914745 
3551.000000	94.908901 
3550.000000	94.899461 
3549.000000	94.889627 
3548.000000	94.883381 
3547.000000	94.882289 
3546.000000	94.883999 
3545.000000	94.884783 
3544.000000	94.883794 
3543.000000	94.883155 
3542.000000	94.884387 
3541.000000	94.886804 
3540.000000	94.888980 
3539.000000	94.890074 
3538.000000	94.889789 
3537.000000	94.887995 
3536.000000	94.885087 
3535.000000	94.881748 
3534.000000	94.878548 
3533.000000	94.875871 
3532.000000	94.874118 
3531.000000	94.873545 
3530.000000	94.873658 
3529.000000	94.873098 
3528.000000	94.870594 
3527.000000	94.866151 
3526.000000	94.861237 
3525.000000	94.857735 
3524.000000	94.856635 
3523.000000	94.857597 
3522.000000	94.859289 
3521.000000	94.860267 
3520.000000	94.860041 
3519.000000	94.859067 
3518.000000	94.857949 
3517.000000	94.856546 
3516.000000	94.854107 
3515.000000	94.850158 
3514.000000	94.845215 
3513.000000	94.840555 
3512.000000	94.837129 
3511.000000	94.834714 
3510.000000	94.832189 
3509.000000	94.828689 
3508.000000	94.824432 
3507.000000	94.820441 
3506.000000	94.817622 
3505.000000	94.816003 
3504.000000	94.814717 
3503.000000	94.812555 
3502.000000	94.808884 
3501.000000	94.804245 
3500.000000	94.800044 
3499.000000	94.797312 
3498.000000	94.795643 
3497.000000	94.793506 
3496.000000	94.789597 
3495.000000	94.783944 
3494.000000	94.777886 
3493.000000	94.772958 
3492.000000	94.769555 
3491.000000	94.766596 
3490.000000	94.762836 
3489.000000	94.758292 
3488.000000	94.753717 
3487.000000	94.748936 
3486.000000	94.742799 
3485.000000	94.735170 
3484.000000	94.727837 
3483.000000	94.722612 
3482.000000	94.719259 
3481.000000	94.716118 
3480.000000	94.712188 
3479.000000	94.707519 
3478.000000	94.702030 
3477.000000	94.695196 
3476.000000	94.686939 
3475.000000	94.678218 
3474.000000	94.670442 
3473.000000	94.664440 
3472.000000	94.659930 
3471.000000	94.655696 
3470.000000	94.650399 
3469.000000	94.643651 
3468.000000	94.636244 
3467.000000	94.629385 
3466.000000	94.623812 
3465.000000	94.619399 
3464.000000	94.615078 
3463.000000	94.609173 
3462.000000	94.600602 
3461.000000	94.590097 
3460.000000	94.579901 
3459.000000	94.571680 
3458.000000	94.564968 
3457.000000	94.557900 
3456.000000	94.549404 
3455.000000	94.540143 
3454.000000	94.531663 
3453.000000	94.524881 
3452.000000	94.519579 
3451.000000	94.514986 
3450.000000	94.510382 
3449.000000	94.505338 
3448.000000	94.499621 
3447.000000	94.493112 
3446.000000	94.485755 
3445.000000	94.477741 
3444.000000	94.469630 
3443.000000	94.461878 
3442.000000	94.454176 
3441.000000	94.445679 
3440.000000	94.436285 
3439.000000	94.427118 
3438.000000	94.419383 
3437.000000	94.413051 
3436.000000	94.407453 
3435.000000	94.402699 
3434.000000	94.399646 
3433.000000	94.398181 
3432.000000	94.396561 
3431.000000	94.393096 
3430.000000	94.387664 
3429.000000	94.381178 
3428.000000	94.374021 
3427.000000	94.365930 
3426.000000	94.357480 
3425.000000	94.350787 
3424.000000	94.347860 
3423.000000	94.348112 
3422.000000	94.348119 
3421.000000	94.344649 
3420.000000	94.337747 
3419.000000	94.330216 
3418.000000	94.324537 
3417.000000	94.321139 
3416.000000	94.319235 
3415.000000	94.317874 
3414.000000	94.315851 
3413.000000	94.311798 
3412.000000	94.305401 
3411.000000	94.298200 
3410.000000	94.292449 
3409.000000	94.289282 
3408.000000	94.288094 
3407.000000	94.287239 
3406.000000	94.285267 
3405.000000	94.282024 
3404.000000	94.278900 
3403.000000	94.277399 
3402.000000	94.277423 
3401.000000	94.277413 
3400.000000	94.276206 
3399.000000	94.274003 
3398.000000	94.271375 
3397.000000	94.268393 
3396.000000	94.265251 
3395.000000	94.263033 
3394.000000	94.262906 
3393.000000	94.264676 
3392.000000	94.266664 
3391.000000	94.267141 
3390.000000	94.265788 
3389.000000	94.263816 
3388.000000	94.262892 
3387.000000	94.263799 
3386.000000	94.265769 
3385.000000	94.266915 
3384.000000	94.265754 
3383.000000	94.262714 
3382.000000	94.260277 
3381.000000	94.261038 
3380.000000	94.265174 
3379.000000	94.270023 
3378.000000	94.272694 
3377.000000	94.273140 
3376.000000	94.273706 
3375.000000	94.275779 
3374.000000	94.278114 
3373.000000	94.278904 
3372.000000	94.278479 
3371.000000	94.278967 
3370.000000	94.281815 
3369.000000	94.286572 
3368.000000	94.291800 
3367.000000	94.296285 
3366.000000	94.299334 
3365.000000	94.300688 
3364.000000	94.300642 
3363.000000	94.300026 
3362.000000	94.299805 
3361.000000	94.300700 
3360.000000	94.303100 
3359.000000	94.306932 
3358.000000	94.311505 
3357.000000	94.315743 
3356.000000	94.318903 
3355.000000	94.321181 
3354.000000	94.323586 
3353.000000	94.327231 
3352.000000	94.332538 
3351.000000	94.338917 
3350.000000	94.345092 
3349.000000	94.349918 
3348.000000	94.353087 
3347.000000	94.355190 
3346.000000	94.357227 
3345.000000	94.359863 
3344.000000	94.362945 
3343.000000	94.365745 
3342.000000	94.367827 
3341.000000	94.369665 
3340.000000	94.372097 
3339.000000	94.375196 
3338.000000	94.378138 
3337.000000	94.380285 
3336.000000	94.382038 
3335.000000	94.384383 
3334.000000	94.387778 
3333.000000	94.391842 
3332.000000	94.395936 
3331.000000	94.399742 
3330.000000	94.403262 
3329.000000	94.406584 
3328.000000	94.409844 
3327.000000	94.413257 
3326.000000	94.416977 
3325.000000	94.420882 
3324.000000	94.424599 
3323.000000	94.427845 
3322.000000	94.430689 
3321.000000	94.433463 
3320.000000	94.436424 
3319.000000	94.439564 
3318.000000	94.442750 
3317.000000	94.445911 
3316.000000	94.449052 
3315.000000	94.452165 
3314.000000	94.455241 
3313.000000	94.458367 
3312.000000	94.461720 
3311.000000	94.465416 
3310.000000	94.469415 
3309.000000	94.473526 
3308.000000	94.477458 
3307.000000	94.480907 
3306.000000	94.483702 
3305.000000	94.485960 
3304.000000	94.488093 
3303.000000	94.490596 
3302.000000	94.493762 
3301.000000	94.497553 
3300.000000	94.501580 
3299.000000	94.505264 
3298.000000	94.508237 
3297.000000	94.510652 
3296.000000	94.513114 
3295.000000	94.516172 
3294.000000	94.519948 
3293.000000	94.524243 
3292.000000	94.528809 
3291.000000	94.533403 
3290.000000	94.537735 
3289.000000	94.541578 
3288.000000	94.544915 
3287.000000	94.547885 
3286.000000	94.550581 
3285.000000	94.552994 
3284.000000	94.555191 
3283.000000	94.557466 
3282.000000	94.560186 
3281.000000	94.563450 
3280.000000	94.566903 
3279.000000	94.570028 
3278.000000	94.572789 
3277.000000	94.575814 
3276.000000	94.579694 
3275.000000	94.584247 
3274.000000	94.588732 
3273.000000	94.592767 
3272.000000	94.596635 
3271.000000	94.600674 
3270.000000	94.604761 
3269.000000	94.608543 
3268.000000	94.611900 
3267.000000	94.615040 
3266.000000	94.618288 
3265.000000	94.621935 
3264.000000	94.626119 
3263.000000	94.630648 
3262.000000	94.635054 
3261.000000	94.638988 
3260.000000	94.642462 
3259.000000	94.645680 
3258.000000	94.648903 
3257.000000	94.652555 
3256.000000	94.657088 
3255.000000	94.662397 
3254.000000	94.667623 
3253.000000	94.671987 
3252.000000	94.675717 
3251.000000	94.679774 
3250.000000	94.684601 
3249.000000	94.689518 
3248.000000	94.693500 
3247.000000	94.696327 
3246.000000	94.698851 
3245.000000	94.702219 
3244.000000	94.706881 
3243.000000	94.712388 
3242.000000	94.717907 
3241.000000	94.722927 
3240.000000	94.727461 
3239.000000	94.731820 
3238.000000	94.736429 
3237.000000	94.741762 
3236.000000	94.748088 
3235.000000	94.755066 
3234.000000	94.761735 
3233.000000	94.767169 
3232.000000	94.771166 
3231.000000	94.774334 
3230.000000	94.777572 
3229.000000	94.781497 
3228.000000	94.786321 
3227.000000	94.792068 
3226.000000	94.798768 
3225.000000	94.806301 
3224.000000	94.814148 
3223.000000	94.821567 
3222.000000	94.828206 
3221.000000	94.834369 
3220.000000	94.840470 
3219.000000	94.846365 
3218.000000	94.851566 
3217.000000	94.856049 
3216.000000	94.860496 
3215.000000	94.865720 
3214.000000	94.872094 
3213.000000	94.879445 
3212.000000	94.887143 
3211.000000	94.894348 
3210.000000	94.900562 
3209.000000	94.906127 
3208.000000	94.911947 
3207.000000	94.918525 
3206.000000	94.925468 
3205.000000	94.932082 
3204.000000	94.938261 
3203.000000	94.944603 
3202.000000	94.951735 
3201.000000	94.959657 
3200.000000	94.967755 
3199.000000	94.975428 
3198.000000	94.982632 
3197.000000	94.989681 
3196.000000	94.996600 
3195.000000	95.003064 
3194.000000	95.009171 
3193.000000	95.015851 
3192.000000	95.023969 
3191.000000	95.033207 
3190.000000	95.042182 
3189.000000	95.049859 
3188.000000	95.056484 
3187.000000	95.063184 
3186.000000	95.070926 
3185.000000	95.079867 
3184.000000	95.089324 
3183.000000	95.098273 
3182.000000	95.106170 
3181.000000	95.113212 
3180.000000	95.119848 
3179.000000	95.126276 
3178.000000	95.132640 
3177.000000	95.139453 
3176.000000	95.147347 
3175.000000	95.156490 
3174.000000	95.166540 
3173.000000	95.176998 
3172.000000	95.187305 
3171.000000	95.196785 
3170.000000	95.205058 
3169.000000	95.212494 
3168.000000	95.219833 
3167.000000	95.227300 
3166.000000	95.234524 
3165.000000	95.241295 
3164.000000	95.247917 
3163.000000	95.254802 
3162.000000	95.262147 
3161.000000	95.270004 
3160.000000	95.278289 
3159.000000	95.286700 
3158.000000	95.294957 
3157.000000	95.303198 
3156.000000	95.311795 
3155.000000	95.320749 
3154.000000	95.329605 
3153.000000	95.338043 
3152.000000	95.346223 
3151.000000	95.354395 
3150.000000	95.362429 
3149.000000	95.369970 
3148.000000	95.376909 
3147.000000	95.383569 
3146.000000	95.390567 
3145.000000	95.398394 
3144.000000	95.407076 
3143.000000	95.416090 
3142.000000	95.424703 
3141.000000	95.432642 
3140.000000	95.440249 
3139.000000	95.448043 
3138.000000	95.456205 
3137.000000	95.464540 
3136.000000	95.472761 
3135.000000	95.480711 
3134.000000	95.488441 
3133.000000	95.496153 
3132.000000	95.503993 
3131.000000	95.511844 
3130.000000	95.519482 
3129.000000	95.526946 
3128.000000	95.534597 
3127.000000	95.542719 
3126.000000	95.551250 
3125.000000	95.559960 
3124.000000	95.568674 
3123.000000	95.577217 
3122.000000	95.585314 
3121.000000	95.592840 
3120.000000	95.600025 
3119.000000	95.607200 
3118.000000	95.614437 
3117.000000	95.621697 
3116.000000	95.629177 
3115.000000	95.637200 
3114.000000	95.645832 
3113.000000	95.654824 
3112.000000	95.663905 
3111.000000	95.672938 
3110.000000	95.681774 
3109.000000	95.690135 
3108.000000	95.697769 
3107.000000	95.704721 
3106.000000	95.711384 
3105.000000	95.718222 
3104.000000	95.725359 
3103.000000	95.732530 
3102.000000	95.739413 
3101.000000	95.745882 
3100.000000	95.751935 
3099.000000	95.757705 
3098.000000	95.763913 
3097.000000	95.771829 
3096.000000	95.782062 
3095.000000	95.793340 
3094.000000	95.803381 
3093.000000	95.811208 
3092.000000	95.817868 
3091.000000	95.824695 
3090.000000	95.831686 
3089.000000	95.838036 
3088.000000	95.843492 
3087.000000	95.848665 
3086.000000	95.854522 
3085.000000	95.861778 
3084.000000	95.870077 
3083.000000	95.877658 
3082.000000	95.882862 
3081.000000	95.886380 
3080.000000	95.890922 
3079.000000	95.897889 
3078.000000	95.905680 
3077.000000	95.912150 
3076.000000	95.917443 
3075.000000	95.923054 
3074.000000	95.929374 
3073.000000	95.935822 
3072.000000	95.942448 
3071.000000	95.949559 
3070.000000	95.956325 
3069.000000	95.961715 
3068.000000	95.966495 
3067.000000	95.972396 
3066.000000	95.979336 
3065.000000	95.985306 
3064.000000	95.989063 
3063.000000	95.991276 
3062.000000	95.992932 
3061.000000	95.994391 
3060.000000	95.996340 
3059.000000	96.000098 
3058.000000	96.006433 
3057.000000	96.014839 
3056.000000	96.023943 
3055.000000	96.031619 
3054.000000	96.035296 
3053.000000	96.034121 
3052.000000	96.031084 
3051.000000	96.031276 
3050.000000	96.037052 
3049.000000	96.045981 
3048.000000	96.053800 
3047.000000	96.058102 
3046.000000	96.058799 
3045.000000	96.056973 
3044.000000	96.054697 
3043.000000	96.054937 
3042.000000	96.059696 
3041.000000	96.067744 
3040.000000	96.074980 
3039.000000	96.077767 
3038.000000	96.076024 
3037.000000	96.072738 
3036.000000	96.070185 
3035.000000	96.067093 
3034.000000	96.060535 
3033.000000	96.050321 
3032.000000	96.039969 
3031.000000	96.033078 
3030.000000	96.030120 
3029.000000	96.029323 
3028.000000	96.028719 
3027.000000	96.026075 
3026.000000	96.018897 
3025.000000	96.006856 
3024.000000	95.993351 
3023.000000	95.982458 
3022.000000	95.974609 
3021.000000	95.967358 
3020.000000	95.959707 
3019.000000	95.953026 
3018.000000	95.947506 
3017.000000	95.940468 
3016.000000	95.929431 
3015.000000	95.915129 
3014.000000	95.900468 
3013.000000	95.887613 
3012.000000	95.876582 
3011.000000	95.865442 
3010.000000	95.851418 
3009.000000	95.833099 
3008.000000	95.812078 
3007.000000	95.791567 
3006.000000	95.773248 
3005.000000	95.756679 
3004.000000	95.741673 
3003.000000	95.729314 
3002.000000	95.720062 
3001.000000	95.712546 
3000.000000	95.704973 
2999.000000	95.696307 
2998.000000	95.685561 
2997.000000	95.671915 
2996.000000	95.656529 
2995.000000	95.642155 
2994.000000	95.629127 
2993.000000	95.613190 
2992.000000	95.589764 
2991.000000	95.560284 
2990.000000	95.532659 
2989.000000	95.515255 
2988.000000	95.511372 
2987.000000	95.518726 
2986.000000	95.532289 
2985.000000	95.547397 
2984.000000	95.561440 
2983.000000	95.573814 
2982.000000	95.584560 
2981.000000	95.593067 
2980.000000	95.598042 
2979.000000	95.598488 
2978.000000	95.594602 
2977.000000	95.588077 
2976.000000	95.581681 
2975.000000	95.577968 
2974.000000	95.578001 
2973.000000	95.581534 
2972.000000	95.588392 
2971.000000	95.598998 
2970.000000	95.613270 
2969.000000	95.629839 
2968.000000	95.646949 
2967.000000	95.663591 
2966.000000	95.679387 
2965.000000	95.694145 
2964.000000	95.708190 
2963.000000	95.722420 
2962.000000	95.737199 
2961.000000	95.751716 
2960.000000	95.765283 
2959.000000	95.778805 
2958.000000	95.793863 
2957.000000	95.810391 
2956.000000	95.826096 
2955.000000	95.838423 
2954.000000	95.846850 
2953.000000	95.853555 
2952.000000	95.862208 
2951.000000	95.875398 
2950.000000	95.892087 
2949.000000	95.907726 
2948.000000	95.917887 
2947.000000	95.921924 
2946.000000	95.922813 
2945.000000	95.923858 
2944.000000	95.926312 
2943.000000	95.929966 
2942.000000	95.934373 
2941.000000	95.938703 
2940.000000	95.941758 
2939.000000	95.943468 
2938.000000	95.945764 
2937.000000	95.950774 
2936.000000	95.958121 
2935.000000	95.964761 
2934.000000	95.967617 
2933.000000	95.965919 
2932.000000	95.961273 
2931.000000	95.956224 
2930.000000	95.952834 
2929.000000	95.951912 
2928.000000	95.952912 
2927.000000	95.954538 
2926.000000	95.955850 
2925.000000	95.957141 
2924.000000	95.959759 
2923.000000	95.964776 
2922.000000	95.971616 
2921.000000	95.978189 
2920.000000	95.982861 
2919.000000	95.986164 
2918.000000	95.989791 
2917.000000	95.993708 
2916.000000	95.995241 
2915.000000	95.992021 
2914.000000	95.985437 
2913.000000	95.979935 
2912.000000	95.978585 
2911.000000	95.980150 
2910.000000	95.981031 
2909.000000	95.979419 
2908.000000	95.976844 
2907.000000	95.975722 
2906.000000	95.976089 
2905.000000	95.974981 
2904.000000	95.969475 
2903.000000	95.960470 
2902.000000	95.954369 
2901.000000	95.958331 
2900.000000	95.974553 
2899.000000	95.998606 
2898.000000	96.022758 
2897.000000	96.041623 
2896.000000	96.053964 
2895.000000	96.060895 
2894.000000	96.064602 
2893.000000	96.068515 
2892.000000	96.076010 
2891.000000	96.087400 
2890.000000	96.099333 
2889.000000	96.108454 
2888.000000	96.114854 
2887.000000	96.120684 
2886.000000	96.126512 
2885.000000	96.131260 
2884.000000	96.135606 
2883.000000	96.142836 
2882.000000	96.155069 
2881.000000	96.170371 
2880.000000	96.185296 
2879.000000	96.199449 
2878.000000	96.215327 
2877.000000	96.233793 
2876.000000	96.251849 
2875.000000	96.265771 
2874.000000	96.275002 
2873.000000	96.281893 
2872.000000	96.288697 
2871.000000	96.296143 
2870.000000	96.304384 
2869.000000	96.313609 
2868.000000	96.323454 
2867.000000	96.333141 
2866.000000	96.342831 
2865.000000	96.354026 
2864.000000	96.367985 
2863.000000	96.384338 
2862.000000	96.401633 
2861.000000	96.418504 
2860.000000	96.433869 
2859.000000	96.446923 
2858.000000	96.458094 
2857.000000	96.469544 
2856.000000	96.483360 
2855.000000	96.499202 
2854.000000	96.514674 
2853.000000	96.527967 
2852.000000	96.539220 
2851.000000	96.549390 
2850.000000	96.558935 
2849.000000	96.568001 
2848.000000	96.576985 
2847.000000	96.586139 
2846.000000	96.595031 
2845.000000	96.603016 
2844.000000	96.610176 
2843.000000	96.617566 
2842.000000	96.626472 
2841.000000	96.637194 
2840.000000	96.648269 
2839.000000	96.657216 
2838.000000	96.662645 
2837.000000	96.665664 
2836.000000	96.668886 
2835.000000	96.674085 
2834.000000	96.681278 
2833.000000	96.689853 
2832.000000	96.699471 
2831.000000	96.709461 
2830.000000	96.718165 
2829.000000	96.723831 
2828.000000	96.726228 
2827.000000	96.727119 
2826.000000	96.729174 
2825.000000	96.734201 
2824.000000	96.741938 
2823.000000	96.750204 
2822.000000	96.756616 
2821.000000	96.760564 
2820.000000	96.763437 
2819.000000	96.766829 
2818.000000	96.770818 
2817.000000	96.774213 
2816.000000	96.776138 
2815.000000	96.776919 
2814.000000	96.777511 
2813.000000	96.778451 
2812.000000	96.779569 
2811.000000	96.780657 
2810.000000	96.782211 
2809.000000	96.785205 
2808.000000	96.790041 
2807.000000	96.795989 
2806.000000	96.801852 
2805.000000	96.806916 
2804.000000	96.810974 
2803.000000	96.813843 
2802.000000	96.815586 
2801.000000	96.817169 
2800.000000	96.820097 
2799.000000	96.824976 
2798.000000	96.830701 
2797.000000	96.835382 
2796.000000	96.838012 
2795.000000	96.839161 
2794.000000	96.840346 
2793.000000	96.842780 
2792.000000	96.846508 
2791.000000	96.850499 
2790.000000	96.853549 
2789.000000	96.855195 
2788.000000	96.855887 
2787.000000	96.856552 
2786.000000	96.858015 
2785.000000	96.860630 
2784.000000	96.864126 
2783.000000	96.867797 
2782.000000	96.870999 
2781.000000	96.873614 
2780.000000	96.875944 
2779.000000	96.878268 
2778.000000	96.880630 
2777.000000	96.882969 
2776.000000	96.885273 
2775.000000	96.887579 
2774.000000	96.889889 
2773.000000	96.892160 
2772.000000	96.894332 
2771.000000	96.896405 
2770.000000	96.898554 
2769.000000	96.901096 
2768.000000	96.904173 
2767.000000	96.907489 
2766.000000	96.910518 
2765.000000	96.913066 
2764.000000	96.915423 
2763.000000	96.917877 
2762.000000	96.920239 
2761.000000	96.922087 
2760.000000	96.923379 
2759.000000	96.924608 
2758.000000	96.926293 
2757.000000	96.928378 
2756.000000	96.930270 
2755.000000	96.931545 
2754.000000	96.932539 
2753.000000	96.934062 
2752.000000	96.936460 
2751.000000	96.939269 
2750.000000	96.941900 
2749.000000	96.944387 
2748.000000	96.947016 
2747.000000	96.949429 
2746.000000	96.950826 
2745.000000	96.951049 
2744.000000	96.950967 
2743.000000	96.951596 
2742.000000	96.953107 
2741.000000	96.955027 
2740.000000	96.956983 
2739.000000	96.958941 
2738.000000	96.960877 
2737.000000	96.962669 
2736.000000	96.964303 
2735.000000	96.965906 
2734.000000	96.967591 
2733.000000	96.969395 
2732.000000	96.971319 
2731.000000	96.973316 
2730.000000	96.975331 
2729.000000	96.977369 
2728.000000	96.979446 
2727.000000	96.981447 
2726.000000	96.983186 
2725.000000	96.984663 
2724.000000	96.986084 
2723.000000	96.987606 
2722.000000	96.989170 
2721.000000	96.990673 
2720.000000	96.992143 
2719.000000	96.993678 
2718.000000	96.995303 
2717.000000	96.996961 
2716.000000	96.998599 
2715.000000	97.000206 
2714.000000	97.001806 
2713.000000	97.003415 
2712.000000	97.005026 
2711.000000	97.006623 
2710.000000	97.008199 
2709.000000	97.009760 
2708.000000	97.011314 
2707.000000	97.012868 
2706.000000	97.014421 
2705.000000	97.015971 
2704.000000	97.017514 
2703.000000	97.019047 
2702.000000	97.020565 
2701.000000	97.022066 
2700.000000	97.023549 
2699.000000	97.025014 
2698.000000	97.026458 
2697.000000	97.027874 
2696.000000	97.029252 
2695.000000	97.030589 
2694.000000	97.031889 
2693.000000	97.033160 
2692.000000	97.034405 
2691.000000	97.035625 
2690.000000	97.036817 
2689.000000	97.037983 
2688.000000	97.039125 
2687.000000	97.040247 
2686.000000	97.041351 
2685.000000	97.042443 
2684.000000	97.043523 
2683.000000	97.044592 
2682.000000	97.045643 
2681.000000	97.046670 
2680.000000	97.047669 
2679.000000	97.048643 
2678.000000	97.049597 
2677.000000	97.050534 
2676.000000	97.051450 
2675.000000	97.052332 
2674.000000	97.053163 
2673.000000	97.053942 
2672.000000	97.054695 
2671.000000	97.055444 
2670.000000	97.056182 
2669.000000	97.056888 
2668.000000	97.057556 
2667.000000	97.058192 
2666.000000	97.058802 
2665.000000	97.059376 
2664.000000	97.059907 
2663.000000	97.060410 
2662.000000	97.060907 
2661.000000	97.061401 
2660.000000	97.061881 
2659.000000	97.062338 
2658.000000	97.062773 
2657.000000	97.063194 
2656.000000	97.063601 
2655.000000	97.063985 
2654.000000	97.064337 
2653.000000	97.064655 
2652.000000	97.064955 
2651.000000	97.065266 
2650.000000	97.065617 
2649.000000	97.066015 
2648.000000	97.066431 
2647.000000	97.066818 
2646.000000	97.067140 
2645.000000	97.067383 
2644.000000	97.067556 
2643.000000	97.067697 
2642.000000	97.067877 
2641.000000	97.068152 
2640.000000	97.068508 
2639.000000	97.068884 
2638.000000	97.069245 
2637.000000	97.069611 
2636.000000	97.069999 
2635.000000	97.070409 
2634.000000	97.070843 
2633.000000	97.071302 
2632.000000	97.071721 
2631.000000	97.071967 
2630.000000	97.071978 
2629.000000	97.071864 
2628.000000	97.071872 
2627.000000	97.072155 
2626.000000	97.072673 
2625.000000	97.073276 
2624.000000	97.073862 
2623.000000	97.074442 
2622.000000	97.075070 
2621.000000	97.075719 
2620.000000	97.076238 
2619.000000	97.076480 
2618.000000	97.076473 
2617.000000	97.076465 
2616.000000	97.076692 
2615.000000	97.077150 
2614.000000	97.077690 
2613.000000	97.078278 
2612.000000	97.078996 
2611.000000	97.079844 
2610.000000	97.080713 
2609.000000	97.081549 
2608.000000	97.082349 
2607.000000	97.083014 
2606.000000	97.083440 
2605.000000	97.083700 
2604.000000	97.084002 
2603.000000	97.084427 
2602.000000	97.084885 
2601.000000	97.085341 
2600.000000	97.085906 
2599.000000	97.086621 
2598.000000	97.087295 
2597.000000	97.087734 
2596.000000	97.087955 
2595.000000	97.088080 
2594.000000	97.088164 
2593.000000	97.088288 
2592.000000	97.088696 
2591.000000	97.089563 
2590.000000	97.090673 
2589.000000	97.091521 
2588.000000	97.091854 
2587.000000	97.091928 
2586.000000	97.092213 
2585.000000	97.092915 
2584.000000	97.093878 
2583.000000	97.094816 
2582.000000	97.095524 
2581.000000	97.095974 
2580.000000	97.096301 
2579.000000	97.096678 
2578.000000	97.097202 
2577.000000	97.097860 
2576.000000	97.098511 
2575.000000	97.098894 
2574.000000	97.098811 
2573.000000	97.098414 
2572.000000	97.098105 
2571.000000	97.098032 
2570.000000	97.097951 
2569.000000	97.097812 
2568.000000	97.098121 
2567.000000	97.099250 
2566.000000	97.100647 
2565.000000	97.101279 
2564.000000	97.100881 
2563.000000	97.100224 
2562.000000	97.100122 
2561.000000	97.100726 
2560.000000	97.101903 
2559.000000	97.103680 
2558.000000	97.105925 
2557.000000	97.108007 
2556.000000	97.109327 
2555.000000	97.109998 
2554.000000	97.110592 
2553.000000	97.111301 
2552.000000	97.111737 
2551.000000	97.111709 
2550.000000	97.111757 
2549.000000	97.112539 
2548.000000	97.113884 
2547.000000	97.114881 
2546.000000	97.115003 
2545.000000	97.114720 
2544.000000	97.114737 
2543.000000	97.115030 
2542.000000	97.115098 
2541.000000	97.114917 
2540.000000	97.115094 
2539.000000	97.116036 
2538.000000	97.117434 
2537.000000	97.118669 
2536.000000	97.119534 
2535.000000	97.120266 
2534.000000	97.121019 
2533.000000	97.121622 
2532.000000	97.121871 
2531.000000	97.121812 
2530.000000	97.121650 
2529.000000	97.121554 
2528.000000	97.121616 
2527.000000	97.121916 
2526.000000	97.122533 
2525.000000	97.123462 
2524.000000	97.124552 
2523.000000	97.125550 
2522.000000	97.126262 
2521.000000	97.126689 
2520.000000	97.126997 
2519.000000	97.127355 
2518.000000	97.127805 
2517.000000	97.128278 
2516.000000	97.128676 
2515.000000	97.128950 
2514.000000	97.129154 
2513.000000	97.129434 
2512.000000	97.129898 
2511.000000	97.130518 
2510.000000	97.131156 
2509.000000	97.131687 
2508.000000	97.132090 
2507.000000	97.132420 
2506.000000	97.132766 
2505.000000	97.133236 
2504.000000	97.133913 
2503.000000	97.134770 
2502.000000	97.135638 
2501.000000	97.136335 
2500.000000	97.136826 
2499.000000	97.137215 
2498.000000	97.137622 
2497.000000	97.138051 
2496.000000	97.138464 
2495.000000	97.138864 
2494.000000	97.139265 
2493.000000	97.139641 
2492.000000	97.139970 
2491.000000	97.140307 
2490.000000	97.140756 
2489.000000	97.141369 
2488.000000	97.142077 
2487.000000	97.142732 
2486.000000	97.143235 
2485.000000	97.143597 
2484.000000	97.143907 
2483.000000	97.144243 
2482.000000	97.144621 
2481.000000	97.145021 
2480.000000	97.145428 
2479.000000	97.145848 
2478.000000	97.146295 
2477.000000	97.146770 
2476.000000	97.147251 
2475.000000	97.147650 
2474.000000	97.147849 
2473.000000	97.147792 
2472.000000	97.147515 
2471.000000	97.147051 
2470.000000	97.146478 
2469.000000	97.146145 
2468.000000	97.146594 
2467.000000	97.148025 
2466.000000	97.149845 
2465.000000	97.151029 
2464.000000	97.151135 
2463.000000	97.150694 
2462.000000	97.150690 
2461.000000	97.151661 
2460.000000	97.153402 
2459.000000	97.155272 
2458.000000	97.156604 
2457.000000	97.156946 
2456.000000	97.156188 
2455.000000	97.154661 
2454.000000	97.153094 
2453.000000	97.152144 
2452.000000	97.151883 
2451.000000	97.151886 
2450.000000	97.151915 
2449.000000	97.152307 
2448.000000	97.153376 
2447.000000	97.154646 
2446.000000	97.155170 
2445.000000	97.154611 
2444.000000	97.153550 
2443.000000	97.152645 
2442.000000	97.151952 
2441.000000	97.151308 
2440.000000	97.150969 
2439.000000	97.151530 
2438.000000	97.153459 
2437.000000	97.156811 
2436.000000	97.160983 
2435.000000	97.164680 
2434.000000	97.166697 
2433.000000	97.166934 
2432.000000	97.166445 
2431.000000	97.166325 
2430.000000	97.166898 
2429.000000	97.168094 
2428.000000	97.169784 
2427.000000	97.171292 
2426.000000	97.171376 
2425.000000	97.169422 
2424.000000	97.166325 
2423.000000	97.163707 
2422.000000	97.162627 
2421.000000	97.163302 
2420.000000	97.165227 
2419.000000	97.167143 
2418.000000	97.167735 
2417.000000	97.167145 
2416.000000	97.167011 
2415.000000	97.168430 
2414.000000	97.170760 
2413.000000	97.173050 
2412.000000	97.175361 
2411.000000	97.177630 
2410.000000	97.178501 
2409.000000	97.176954 
2408.000000	97.174209 
2407.000000	97.172284 
2406.000000	97.171444 
2405.000000	97.170442 
2404.000000	97.168772 
2403.000000	97.167314 
2402.000000	97.166983 
2401.000000	97.167912 
2400.000000	97.169779 
2399.000000	97.172018 
2398.000000	97.174002 
2397.000000	97.175757 
2396.000000	97.178034 
2395.000000	97.180767 
2394.000000	97.182174 
2393.000000	97.180845 
2392.000000	97.177862 
2391.000000	97.175665 
2390.000000	97.175115 
2389.000000	97.174806 
2388.000000	97.173323 
2387.000000	97.170653 
2386.000000	97.167377 
2385.000000	97.163975 
2384.000000	97.160960 
2383.000000	97.158635 
2382.000000	97.156642 
2381.000000	97.154443 
2380.000000	97.152299 
2379.000000	97.151035 
2378.000000	97.150762 
2377.000000	97.150549 
2376.000000	97.149649 
2375.000000	97.148357 
2374.000000	97.147219 
2373.000000	97.146032 
2372.000000	97.144287 
2371.000000	97.142211 
2370.000000	97.140575 
2369.000000	97.139586 
2368.000000	97.138632 
2367.000000	97.137098 
2366.000000	97.135019 
2365.000000	97.132899 
2364.000000	97.131142 
2363.000000	97.129770 
2362.000000	97.128650 
2361.000000	97.127775 
2360.000000	97.127078 
2359.000000	97.126280 
2358.000000	97.125214 
2357.000000	97.123953 
2356.000000	97.122669 
2355.000000	97.121379 
2354.000000	97.119963 
2353.000000	97.118474 
2352.000000	97.117195 
2351.000000	97.116363 
2350.000000	97.115818 
2349.000000	97.115072 
2348.000000	97.113857 
2347.000000	97.112425 
2346.000000	97.111459 
2345.000000	97.111297 
2344.000000	97.111720 
2343.000000	97.112264 
2342.000000	97.112589 
2341.000000	97.112876 
2340.000000	97.113426 
2339.000000	97.114107 
2338.000000	97.114174 
2337.000000	97.113159 
2336.000000	97.111574 
2335.000000	97.110363 
2334.000000	97.109685 
2333.000000	97.109286 
2332.000000	97.109344 
2331.000000	97.110384 
2330.000000	97.111654 
2329.000000	97.111545 
2328.000000	97.109977 
2327.000000	97.107876 
2326.000000	97.106103 
2325.000000	97.104775 
2324.000000	97.105113 
2323.000000	97.108545 
2322.000000	97.113819 
2321.000000	97.117862 
2320.000000	97.119148 
2319.000000	97.119655 
2318.000000	97.121010 
2317.000000	97.122435 
2316.000000	97.122528 
2315.000000	97.122112 
2314.000000	97.123162 
2313.000000	97.126237 
2312.000000	97.130522 
2311.000000	97.135270 
2310.000000	97.139868 
2309.000000	97.142860 
2308.000000	97.143367 
2307.000000	97.142544 
2306.000000	97.142452 
2305.000000	97.143541 
2304.000000	97.144848 
2303.000000	97.146229 
2302.000000	97.148744 
2301.000000	97.152730 
2300.000000	97.156547 
2299.000000	97.157841 
2298.000000	97.155446 
2297.000000	97.150035 
2296.000000	97.143999 
2295.000000	97.139961 
2294.000000	97.139096 
2293.000000	97.140195 
2292.000000	97.141262 
2291.000000	97.141491 
2290.000000	97.141688 
2289.000000	97.142761 
2288.000000	97.144401 
2287.000000	97.145257 
2286.000000	97.144336 
2285.000000	97.142239 
2284.000000	97.140724 
2283.000000	97.140876 
2282.000000	97.141984 
2281.000000	97.142596 
2280.000000	97.142203 
2279.000000	97.141348 
2278.000000	97.140496 
2277.000000	97.139840 
2276.000000	97.139815 
2275.000000	97.140793 
2274.000000	97.142316 
2273.000000	97.143644 
2272.000000	97.144925 
2271.000000	97.146733 
2270.000000	97.148777 
2269.000000	97.150250 
2268.000000	97.151326 
2267.000000	97.152986 
2266.000000	97.155260 
2265.000000	97.156904 
2264.000000	97.157012 
2263.000000	97.155793 
2262.000000	97.153721 
2261.000000	97.151078 
2260.000000	97.148554 
2259.000000	97.147123 
2258.000000	97.146961 
2257.000000	97.147407 
2256.000000	97.148167 
2255.000000	97.149685 
2254.000000	97.151953 
2253.000000	97.153786 
2252.000000	97.154017 
2251.000000	97.152714 
2250.000000	97.150692 
2249.000000	97.148533 
2248.000000	97.146611 
2247.000000	97.145490 
2246.000000	97.145458 
2245.000000	97.146053 
2244.000000	97.146362 
2243.000000	97.145915 
2242.000000	97.144924 
2241.000000	97.143893 
2240.000000	97.143212 
2239.000000	97.142988 
2238.000000	97.143071 
2237.000000	97.143151 
2236.000000	97.143012 
2235.000000	97.142675 
2234.000000	97.142261 
2233.000000	97.141821 
2232.000000	97.141355 
2231.000000	97.140895 
2230.000000	97.140441 
2229.000000	97.139908 
2228.000000	97.139243 
2227.000000	97.138534 
2226.000000	97.137912 
2225.000000	97.137354 
2224.000000	97.136715 
2223.000000	97.135953 
2222.000000	97.135187 
2221.000000	97.134535 
2220.000000	97.133967 
2219.000000	97.133400 
2218.000000	97.132815 
2217.000000	97.132246 
2216.000000	97.131717 
2215.000000	97.131211 
2214.000000	97.130683 
2213.000000	97.130095 
2212.000000	97.129478 
2211.000000	97.128952 
2210.000000	97.128597 
2209.000000	97.128380 
2208.000000	97.128205 
2207.000000	97.128014 
2206.000000	97.127823 
2205.000000	97.127671 
2204.000000	97.127581 
2203.000000	97.127551 
2202.000000	97.127564 
2201.000000	97.127546 
2200.000000	97.127343 
2199.000000	97.126845 
2198.000000	97.126111 
2197.000000	97.125390 
2196.000000	97.124967 
2195.000000	97.124946 
2194.000000	97.125179 
2193.000000	97.125484 
2192.000000	97.125888 
2191.000000	97.126461 
2190.000000	97.127015 
2189.000000	97.127242 
2188.000000	97.127198 
2187.000000	97.127265 
2186.000000	97.127494 
2185.000000	97.127455 
2184.000000	97.127133 
2183.000000	97.127522 
2182.000000	97.129597 
2181.000000	97.133076 
2180.000000	97.136271 
2179.000000	97.137783 
2178.000000	97.137563 
2177.000000	97.136621 
2176.000000	97.136024 
2175.000000	97.136086 
2174.000000	97.136610 
2173.000000	97.137591 
2172.000000	97.139577 
2171.000000	97.143123 
2170.000000	97.147764 
2169.000000	97.151810 
2168.000000	97.153762 
2167.000000	97.153751 
2166.000000	97.153187 
2165.000000	97.152941 
2164.000000	97.152538 
2163.000000	97.151543 
2162.000000	97.151153 
2161.000000	97.153508 
2160.000000	97.159573 
2159.000000	97.168110 
2158.000000	97.176615 
2157.000000	97.183269 
2156.000000	97.187710 
2155.000000	97.190274 
2154.000000	97.191351 
2153.000000	97.191730 
2152.000000	97.192693 
2151.000000	97.194688 
2150.000000	97.196322 
2149.000000	97.195892 
2148.000000	97.193897 
2147.000000	97.192875 
2146.000000	97.194439 
2145.000000	97.197839 
2144.000000	97.201768 
2143.000000	97.205965 
2142.000000	97.209989 
2141.000000	97.212128 
2140.000000	97.211417 
2139.000000	97.210010 
2138.000000	97.211568 
2137.000000	97.217154 
2136.000000	97.223961 
2135.000000	97.228073 
2134.000000	97.227544 
2133.000000	97.222942 
2132.000000	97.216766 
2131.000000	97.212082 
2130.000000	97.210700 
2129.000000	97.212316 
2128.000000	97.215248 
2127.000000	97.217978 
2126.000000	97.220006 
2125.000000	97.221598 
2124.000000	97.223134 
2123.000000	97.224439 
2122.000000	97.224535 
2121.000000	97.222430 
2120.000000	97.218257 
2119.000000	97.213322 
2118.000000	97.209079 
2117.000000	97.206359 
2116.000000	97.205301 
2115.000000	97.205166 
2114.000000	97.204232 
2113.000000	97.201133 
2112.000000	97.196859 
2111.000000	97.194317 
2110.000000	97.195297 
2109.000000	97.198883 
2108.000000	97.202955 
2107.000000	97.206177 
2106.000000	97.208050 
2105.000000	97.208543 
2104.000000	97.208649 
2103.000000	97.209931 
2102.000000	97.212317 
2101.000000	97.213487 
2100.000000	97.211682 
2099.000000	97.208275 
2098.000000	97.206527 
2097.000000	97.208022 
2096.000000	97.211709 
2095.000000	97.215625 
2094.000000	97.218387 
2093.000000	97.219511 
2092.000000	97.219315 
2091.000000	97.218886 
2090.000000	97.219431 
2089.000000	97.221245 
2088.000000	97.223522 
2087.000000	97.225129 
2086.000000	97.225471 
2085.000000	97.224738 
2084.000000	97.223702 
2083.000000	97.223189 
2082.000000	97.223478 
2081.000000	97.224309 
2080.000000	97.225535 
2079.000000	97.227423 
2078.000000	97.230004 
2077.000000	97.232511 
2076.000000	97.234066 
2075.000000	97.234725 
2074.000000	97.235209 
2073.000000	97.235698 
2072.000000	97.235600 
2071.000000	97.234614 
2070.000000	97.233431 
2069.000000	97.233160 
2068.000000	97.234366 
2067.000000	97.236848 
2066.000000	97.239910 
2065.000000	97.242580 
2064.000000	97.244030 
2063.000000	97.244188 
2062.000000	97.243877 
2061.000000	97.244347 
2060.000000	97.246515 
2059.000000	97.250637 
2058.000000	97.255984 
2057.000000	97.260825 
2056.000000	97.263469 
2055.000000	97.263375 
2054.000000	97.261575 
2053.000000	97.260122 
2052.000000	97.260614 
2051.000000	97.263032 
2050.000000	97.265838 
2049.000000	97.267461 
2048.000000	97.268048 
2047.000000	97.269259 
2046.000000	97.272212 
2045.000000	97.276387 
2044.000000	97.280644 
2043.000000	97.284492 
2042.000000	97.287875 
2041.000000	97.290564 
2040.000000	97.292667 
2039.000000	97.295217 
2038.000000	97.299212 
2037.000000	97.304165 
2036.000000	97.308460 
2035.000000	97.311226 
2034.000000	97.313177 
2033.000000	97.315674 
2032.000000	97.319324 
2031.000000	97.323335 
2030.000000	97.325884 
2029.000000	97.325539 
2028.000000	97.322765 
2027.000000	97.319731 
2026.000000	97.318207 
2025.000000	97.318351 
2024.000000	97.319936 
2023.000000	97.323661 
2022.000000	97.330194 
2021.000000	97.338031 
2020.000000	97.343588 
2019.000000	97.344322 
2018.000000	97.340640 
2017.000000	97.335431 
2016.000000	97.331802 
2015.000000	97.330837 
2014.000000	97.331367 
2013.000000	97.331207 
2012.000000	97.329361 
2011.000000	97.327262 
2010.000000	97.327156 
2009.000000	97.329414 
2008.000000	97.332172 
2007.000000	97.333623 
2006.000000	97.333800 
2005.000000	97.333729 
2004.000000	97.333985 
2003.000000	97.334705 
2002.000000	97.336125 
2001.000000	97.338095 
2000.000000	97.339376 
1999.000000	97.338326 
1998.000000	97.334376 
1997.000000	97.328627 
1996.000000	97.323288 
1995.000000	97.320184 
1994.000000	97.319622 
1993.000000	97.320421 
1992.000000	97.320840 
1991.000000	97.320163 
1990.000000	97.319138 
1989.000000	97.318802 
1988.000000	97.319289 
1987.000000	97.319773 
1986.000000	97.319343 
1985.000000	97.317839 
1984.000000	97.315866 
1983.000000	97.314122 
1982.000000	97.312815 
1981.000000	97.311831 
1980.000000	97.311306 
1979.000000	97.311579 
1978.000000	97.312520 
1977.000000	97.313375 
1976.000000	97.313430 
1975.000000	97.312641 
1974.000000	97.311458 
1973.000000	97.310385 
1972.000000	97.309703 
1971.000000	97.309344 
1970.000000	97.308906 
1969.000000	97.307904 
1968.000000	97.306185 
1967.000000	97.304093 
1966.000000	97.302289 
1965.000000	97.301274 
1964.000000	97.301164 
1963.000000	97.301720 
1962.000000	97.302429 
1961.000000	97.302646 
1960.000000	97.301888 
1959.000000	97.300086 
1958.000000	97.297695 
1957.000000	97.295526 
1956.000000	97.294189 
1955.000000	97.293659 
1954.000000	97.293267 
1953.000000	97.292345 
1952.000000	97.290827 
1951.000000	97.289045 
1950.000000	97.287257 
1949.000000	97.285691 
1948.000000	97.284726 
1947.000000	97.284464 
1946.000000	97.284160 
1945.000000	97.282748 
1944.000000	97.280015 
1943.000000	97.276782 
1942.000000	97.273785 
1941.000000	97.270875 
1940.000000	97.267790 
1939.000000	97.264870 
1938.000000	97.262559 
1937.000000	97.260960 
1936.000000	97.260050 
1935.000000	97.259583 
1934.000000	97.258799 
1933.000000	97.257195 
1932.000000	97.255504 
1931.000000	97.254966 
1930.000000	97.255604 
1929.000000	97.255857 
1928.000000	97.254597 
1927.000000	97.252431 
1926.000000	97.250418 
1925.000000	97.248541 
1924.000000	97.246256 
1923.000000	97.243971 
1922.000000	97.242465 
1921.000000	97.241238 
1920.000000	97.239156 
1919.000000	97.236056 
1918.000000	97.232510 
1917.000000	97.228528 
1916.000000	97.223949 
1915.000000	97.220029 
1914.000000	97.218420 
1913.000000	97.218794 
1912.000000	97.219025 
1911.000000	97.218070 
1910.000000	97.216895 
1909.000000	97.216269 
1908.000000	97.215631 
1907.000000	97.214254 
1906.000000	97.212000 
1905.000000	97.208651 
1904.000000	97.204037 
1903.000000	97.199509 
1902.000000	97.197253 
1901.000000	97.197455 
1900.000000	97.198101 
1899.000000	97.197608 
1898.000000	97.196162 
1897.000000	97.194234 
1896.000000	97.191259 
1895.000000	97.186830 
1894.000000	97.181893 
1893.000000	97.177579 
1892.000000	97.174212 
1891.000000	97.172095 
1890.000000	97.171813 
1889.000000	97.172886 
1888.000000	97.173533 
1887.000000	97.173095 
1886.000000	97.172468 
1885.000000	97.171491 
1884.000000	97.168524 
1883.000000	97.163550 
1882.000000	97.159534 
1881.000000	97.158884 
1880.000000	97.160732 
1879.000000	97.162317 
1878.000000	97.162138 
1877.000000	97.161062 
1876.000000	97.160595 
1875.000000	97.161301 
1874.000000	97.162885 
1873.000000	97.164501 
1872.000000	97.165302 
1871.000000	97.165048 
1870.000000	97.163962 
1869.000000	97.162316 
1868.000000	97.160353 
1867.000000	97.159153 
1866.000000	97.159959 
1865.000000	97.161766 
1864.000000	97.162426 
1863.000000	97.162300 
1862.000000	97.163978 
1861.000000	97.168164 
1860.000000	97.172366 
1859.000000	97.174561 
1858.000000	97.175657 
1857.000000	97.177035 
1856.000000	97.178750 
1855.000000	97.180960 
1854.000000	97.184074 
1853.000000	97.187020 
1852.000000	97.188534 
1851.000000	97.189496 
1850.000000	97.191546 
1849.000000	97.194548 
1848.000000	97.196910 
1847.000000	97.198163 
1846.000000	97.199294 
1845.000000	97.200818 
1844.000000	97.202148 
1843.000000	97.203093 
1842.000000	97.204240 
1841.000000	97.205842 
1840.000000	97.207947 
1839.000000	97.210601 
1838.000000	97.213320 
1837.000000	97.215008 
1836.000000	97.215180 
1835.000000	97.215000 
1834.000000	97.215967 
1833.000000	97.218075 
1832.000000	97.220281 
1831.000000	97.221631 
1830.000000	97.221983 
1829.000000	97.222052 
1828.000000	97.222572 
1827.000000	97.223770 
1826.000000	97.225387 
1825.000000	97.226755 
1824.000000	97.227225 
1823.000000	97.226767 
1822.000000	97.226100 
1821.000000	97.225799 
1820.000000	97.225672 
1819.000000	97.225359 
1818.000000	97.225332 
1817.000000	97.226308 
1816.000000	97.227706 
1815.000000	97.228410 
1814.000000	97.228525 
1813.000000	97.229073 
1812.000000	97.230006 
1811.000000	97.229818 
1810.000000	97.228186 
1809.000000	97.226663 
1808.000000	97.226112 
1807.000000	97.226035 
1806.000000	97.226286 
1805.000000	97.227212 
1804.000000	97.228297 
1803.000000	97.228383 
1802.000000	97.227226 
1801.000000	97.226041 
1800.000000	97.225313 
1799.000000	97.224020 
1798.000000	97.222530 
1797.000000	97.222208 
1796.000000	97.222666 
1795.000000	97.222683 
1794.000000	97.222388 
1793.000000	97.222904 
1792.000000	97.223647 
1791.000000	97.222765 
1790.000000	97.221169 
1789.000000	97.221284 
1788.000000	97.223262 
1787.000000	97.225307 
1786.000000	97.226563 
1785.000000	97.227575 
1784.000000	97.228306 
1783.000000	97.228360 
1782.000000	97.227876 
1781.000000	97.227684 
1780.000000	97.228535 
1779.000000	97.230353 
1778.000000	97.233176 
1777.000000	97.236651 
1776.000000	97.239373 
1775.000000	97.240101 
1774.000000	97.238550 
1773.000000	97.236434 
1772.000000	97.236712 
1771.000000	97.239087 
1770.000000	97.240606 
1769.000000	97.240739 
1768.000000	97.241217 
1767.000000	97.242685 
1766.000000	97.244266 
1765.000000	97.245964 
1764.000000	97.248789 
1763.000000	97.251815 
1762.000000	97.252184 
1761.000000	97.249806 
1760.000000	97.247725 
1759.000000	97.247332 
1758.000000	97.247091 
1757.000000	97.245376 
1756.000000	97.244010 
1755.000000	97.243762 
1754.000000	97.240982 
1753.000000	97.232699 
1752.000000	97.222102 
1751.000000	97.217067 
1750.000000	97.220126 
1749.000000	97.225506 
1748.000000	97.228698 
1747.000000	97.230776 
1746.000000	97.232067 
1745.000000	97.232274 
1744.000000	97.233661 
1743.000000	97.237103 
1742.000000	97.238970 
1741.000000	97.236355 
1740.000000	97.231884 
1739.000000	97.230232 
1738.000000	97.229830 
1737.000000	97.226460 
1736.000000	97.218597 
1735.000000	97.206873 
1734.000000	97.195027 
1733.000000	97.186934 
1732.000000	97.183735 
1731.000000	97.186960 
1730.000000	97.196014 
1729.000000	97.203364 
1728.000000	97.204447 
1727.000000	97.201294 
1726.000000	97.197577 
1725.000000	97.193386 
1724.000000	97.187507 
1723.000000	97.180881 
1722.000000	97.176546 
1721.000000	97.173739 
1720.000000	97.167773 
1719.000000	97.153143 
1718.000000	97.131989 
1717.000000	97.116597 
1716.000000	97.107267 
1715.000000	97.096236 
1714.000000	97.087651 
1713.000000	97.084570 
1712.000000	97.080786 
1711.000000	97.072871 
1710.000000	97.064166 
1709.000000	97.056743 
1708.000000	97.048233 
1707.000000	97.036991 
1706.000000	97.026944 
1705.000000	97.021338 
1704.000000	97.011260 
1703.000000	96.990389 
1702.000000	96.963232 
1701.000000	96.940561 
1700.000000	96.923812 
1699.000000	96.899852 
1698.000000	96.871723 
1697.000000	96.853714 
1696.000000	96.846740 
1695.000000	96.839121 
1694.000000	96.825632 
1693.000000	96.810230 
1692.000000	96.794700 
1691.000000	96.777802 
1690.000000	96.758868 
1689.000000	96.737838 
1688.000000	96.714736 
1687.000000	96.690763 
1686.000000	96.668993 
1685.000000	96.653004 
1684.000000	96.641469 
1683.000000	96.628941 
1682.000000	96.611072 
1681.000000	96.588028 
1680.000000	96.567955 
1679.000000	96.553643 
1678.000000	96.541344 
1677.000000	96.524753 
1676.000000	96.504696 
1675.000000	96.485150 
1674.000000	96.462964 
1673.000000	96.435411 
1672.000000	96.409298 
1671.000000	96.392531 
1670.000000	96.384087 
1669.000000	96.372394 
1668.000000	96.353216 
1667.000000	96.333237 
1666.000000	96.314264 
1665.000000	96.294345 
1664.000000	96.274192 
1663.000000	96.257103 
1662.000000	96.240899 
1661.000000	96.216930 
1660.000000	96.188250 
1659.000000	96.165941 
1658.000000	96.155076 
1657.000000	96.144699 
1656.000000	96.128176 
1655.000000	96.106245 
1654.000000	96.086336 
1653.000000	96.072323 
1652.000000	96.053207 
1651.000000	96.029069 
1650.000000	96.004518 
1649.000000	95.983167 
1648.000000	95.963385 
1647.000000	95.952179 
1646.000000	95.949068 
1645.000000	95.946973 
1644.000000	95.938775 
1643.000000	95.929258 
1642.000000	95.923512 
1641.000000	95.922439 
1640.000000	95.920962 
1639.000000	95.913862 
1638.000000	95.903680 
1637.000000	95.898399 
1636.000000	95.905075 
1635.000000	95.922999 
1634.000000	95.939911 
1633.000000	95.947202 
1632.000000	95.947418 
1631.000000	95.948880 
1630.000000	95.959737 
1629.000000	95.978543 
1628.000000	95.998329 
1627.000000	96.017119 
1626.000000	96.037099 
1625.000000	96.058933 
1624.000000	96.083154 
1623.000000	96.112478 
1622.000000	96.144280 
1621.000000	96.167964 
1620.000000	96.180835 
1619.000000	96.191854 
1618.000000	96.211908 
1617.000000	96.240954 
1616.000000	96.269251 
1615.000000	96.295136 
1614.000000	96.320763 
1613.000000	96.343530 
1612.000000	96.361791 
1611.000000	96.380005 
1610.000000	96.402158 
1609.000000	96.425874 
1608.000000	96.449403 
1607.000000	96.475745 
1606.000000	96.503084 
1605.000000	96.524757 
1604.000000	96.541418 
1603.000000	96.560155 
1602.000000	96.583253 
1601.000000	96.605769 
1600.000000	96.625093 
1599.000000	96.644024 
1598.000000	96.662933 
1597.000000	96.678420 
1596.000000	96.689983 
1595.000000	96.702221 
1594.000000	96.717777 
1593.000000	96.732634 
1592.000000	96.743517 
1591.000000	96.754094 
1590.000000	96.768612 
1589.000000	96.784696 
1588.000000	96.798614 
1587.000000	96.812150 
1586.000000	96.827107 
1585.000000	96.839213 
1584.000000	96.846551 
1583.000000	96.854896 
1582.000000	96.868062 
1581.000000	96.881769 
1580.000000	96.890861 
1579.000000	96.896531 
1578.000000	96.903066 
1577.000000	96.912263 
1576.000000	96.923528 
1575.000000	96.937841 
1574.000000	96.952103 
1573.000000	96.961817 
1572.000000	96.969954 
1571.000000	96.981373 
1570.000000	96.994272 
1569.000000	96.998978 
1568.000000	96.996208 
1567.000000	96.995444 
1566.000000	97.000363 
1565.000000	97.006600 
1564.000000	97.013759 
1563.000000	97.022162 
1562.000000	97.031296 
1561.000000	97.036978 
1560.000000	97.035385 
1559.000000	97.036714 
1558.000000	97.049158 
1557.000000	97.057386 
1556.000000	97.055155 
1555.000000	97.056611 
1554.000000	97.059526 
1553.000000	97.063859 
1552.000000	97.066994 
1551.000000	97.069231 
1550.000000	97.069342 
1549.000000	97.069066 
1548.000000	97.071179 
1547.000000	97.077407 
1546.000000	97.085230 
1545.000000	97.090904 
1544.000000	97.093702 
1543.000000	97.094543 
1542.000000	97.094274 
1541.000000	97.094038 
1540.000000	97.092539 
1539.000000	97.090651 
1538.000000	97.090185 
1537.000000	97.089635 
1536.000000	97.088745 
1535.000000	97.088563 
1534.000000	97.091022 
1533.000000	97.095507 
1532.000000	97.098489 
1531.000000	97.097425 
1530.000000	97.095064 
1529.000000	97.094082 
1528.000000	97.093588 
1527.000000	97.092196 
1526.000000	97.090352 
1525.000000	97.089371 
1524.000000	97.089468 
1523.000000	97.089965 
1522.000000	97.091120 
1521.000000	97.093151 
1520.000000	97.093813 
1519.000000	97.091293 
1518.000000	97.086715 
1517.000000	97.082817 
1516.000000	97.080957 
1515.000000	97.080354 
1514.000000	97.080255 
1513.000000	97.081455 
1512.000000	97.083438 
1511.000000	97.083065 
1510.000000	97.078400 
1509.000000	97.071210 
1508.000000	97.065198 
1507.000000	97.062206 
1506.000000	97.062204 
1505.000000	97.062422 
1504.000000	97.060640 
1503.000000	97.058106 
1502.000000	97.054855 
1501.000000	97.052454 
1500.000000	97.051467 
1499.000000	97.049739 
1498.000000	97.043621 
1497.000000	97.036225 
1496.000000	97.033778 
1495.000000	97.035676 
1494.000000	97.038243 
1493.000000	97.041180 
1492.000000	97.045411 
1491.000000	97.049276 
1490.000000	97.050122 
1489.000000	97.049101 
1488.000000	97.046209 
1487.000000	97.039497 
1486.000000	97.031609 
1485.000000	97.023338 
1484.000000	97.013926 
1483.000000	97.005075 
1482.000000	96.998724 
1481.000000	96.995110 
1480.000000	96.991820 
1479.000000	96.987226 
1478.000000	96.982199 
1477.000000	96.977853 
1476.000000	96.971992 
1475.000000	96.962092 
1474.000000	96.950482 
1473.000000	96.943644 
1472.000000	96.943847 
1471.000000	96.943913 
1470.000000	96.939206 
1469.000000	96.932378 
1468.000000	96.925616 
1467.000000	96.917889 
1466.000000	96.908766 
1465.000000	96.900785 
1464.000000	96.895729 
1463.000000	96.889924 
1462.000000	96.880865 
1461.000000	96.871363 
1460.000000	96.864719 
1459.000000	96.860035 
1458.000000	96.849551 
1457.000000	96.830497 
1456.000000	96.812147 
1455.000000	96.798440 
1454.000000	96.785368 
1453.000000	96.774388 
1452.000000	96.768465 
1451.000000	96.767519 
1450.000000	96.768001 
1449.000000	96.769589 
1448.000000	96.772970 
1447.000000	96.774865 
1446.000000	96.770465 
1445.000000	96.761152 
1444.000000	96.752770 
1443.000000	96.745966 
1442.000000	96.737742 
1441.000000	96.728257 
1440.000000	96.721430 
1439.000000	96.718057 
1438.000000	96.712904 
1437.000000	96.703205 
1436.000000	96.693982 
1435.000000	96.685916 
1434.000000	96.674832 
1433.000000	96.663968 
1432.000000	96.658654 
1431.000000	96.659227 
1430.000000	96.660607 
1429.000000	96.660272 
1428.000000	96.659629 
1427.000000	96.659266 
1426.000000	96.657682 
1425.000000	96.654475 
1424.000000	96.654285 
1423.000000	96.657217 
1422.000000	96.656966 
1421.000000	96.652194 
1420.000000	96.648341 
1419.000000	96.644611 
1418.000000	96.632018 
1417.000000	96.613468 
1416.000000	96.601927 
1415.000000	96.600699 
1414.000000	96.599876 
1413.000000	96.591942 
1412.000000	96.581981 
1411.000000	96.577471 
1410.000000	96.576412 
1409.000000	96.575338 
1408.000000	96.576591 
1407.000000	96.583024 
1406.000000	96.592501 
1405.000000	96.602891 
1404.000000	96.618271 
1403.000000	96.638681 
1402.000000	96.657477 
1401.000000	96.673037 
1400.000000	96.691233 
1399.000000	96.714389 
1398.000000	96.732551 
1397.000000	96.735275 
1396.000000	96.725643 
1395.000000	96.718540 
1394.000000	96.725308 
1393.000000	96.745933 
1392.000000	96.776254 
1391.000000	96.809927 
1390.000000	96.838573 
1389.000000	96.856243 
1388.000000	96.862774 
1387.000000	96.862763 
1386.000000	96.860973 
1385.000000	96.860522 
1384.000000	96.864577 
1383.000000	96.874129 
1382.000000	96.886288 
1381.000000	96.897925 
1380.000000	96.908659 
1379.000000	96.920845 
1378.000000	96.936347 
1377.000000	96.954287 
1376.000000	96.971999 
1375.000000	96.987404 
1374.000000	97.000141 
1373.000000	97.011899 
1372.000000	97.025063 
1371.000000	97.041251 
1370.000000	97.059691 
1369.000000	97.076594 
1368.000000	97.090754 
1367.000000	97.104428 
1366.000000	97.119622 
1365.000000	97.136368 
1364.000000	97.152475 
1363.000000	97.164990 
1362.000000	97.173616 
1361.000000	97.181017 
1360.000000	97.190053 
1359.000000	97.202048 
1358.000000	97.215765 
1357.000000	97.228216 
1356.000000	97.237630 
1355.000000	97.244452 
1354.000000	97.250275 
1353.000000	97.257321 
1352.000000	97.265673 
1351.000000	97.274320 
1350.000000	97.283588 
1349.000000	97.292195 
1348.000000	97.299133 
1347.000000	97.305153 
1346.000000	97.312015 
1345.000000	97.319703 
1344.000000	97.326635 
1343.000000	97.331900 
1342.000000	97.335990 
1341.000000	97.338741 
1340.000000	97.339103 
1339.000000	97.337434 
1338.000000	97.335308 
1337.000000	97.333969 
1336.000000	97.334010 
1335.000000	97.335073 
1334.000000	97.336260 
1333.000000	97.337039 
1332.000000	97.337150 
1331.000000	97.336690 
1330.000000	97.336142 
1329.000000	97.336082 
1328.000000	97.336979 
1327.000000	97.339446 
1326.000000	97.343109 
1325.000000	97.345134 
1324.000000	97.343497 
1323.000000	97.338637 
1322.000000	97.332285 
1321.000000	97.326425 
1320.000000	97.323451 
1319.000000	97.324777 
1318.000000	97.328983 
1317.000000	97.333130 
1316.000000	97.335375 
1315.000000	97.335137 
1314.000000	97.332331 
1313.000000	97.328840 
1312.000000	97.328383 
1311.000000	97.332223 
1310.000000	97.336534 
1309.000000	97.337005 
1308.000000	97.334333 
1307.000000	97.333058 
1306.000000	97.335730 
1305.000000	97.340314 
1304.000000	97.344290 
1303.000000	97.346422 
1302.000000	97.345543 
1301.000000	97.341111 
1300.000000	97.335697 
1299.000000	97.333475 
1298.000000	97.335505 
1297.000000	97.338691 
1296.000000	97.339754 
1295.000000	97.338469 
1294.000000	97.336426 
1293.000000	97.335157 
1292.000000	97.335767 
1291.000000	97.338298 
1290.000000	97.341265 
1289.000000	97.343101 
1288.000000	97.343590 
1287.000000	97.342812 
1286.000000	97.339891 
1285.000000	97.334891 
1284.000000	97.330764 
1283.000000	97.330335 
1282.000000	97.332111 
1281.000000	97.331960 
1280.000000	97.328753 
1279.000000	97.325791 
1278.000000	97.326384 
1277.000000	97.330689 
1276.000000	97.336723 
1275.000000	97.342310 
1274.000000	97.345501 
1273.000000	97.345491 
1272.000000	97.343689 
1271.000000	97.342106 
1270.000000	97.340592 
1269.000000	97.337761 
1268.000000	97.334507 
1267.000000	97.333374 
1266.000000	97.334221 
1265.000000	97.334429 
1264.000000	97.333531 
1263.000000	97.333720 
1262.000000	97.335361 
1261.000000	97.335849 
1260.000000	97.334449 
1259.000000	97.334486 
1258.000000	97.337991 
1257.000000	97.341834 
1256.000000	97.341608 
1255.000000	97.337402 
1254.000000	97.333421 
1253.000000	97.332670 
1252.000000	97.333445 
1251.000000	97.331304 
1250.000000	97.324277 
1249.000000	97.316356 
1248.000000	97.314946 
1247.000000	97.323017 
1246.000000	97.334121 
1245.000000	97.337877 
1244.000000	97.330424 
1243.000000	97.318253 
1242.000000	97.312554 
1241.000000	97.320629 
1240.000000	97.340617 
1239.000000	97.361905 
1238.000000	97.372301 
1237.000000	97.367840 
1236.000000	97.355003 
1235.000000	97.342304 
1234.000000	97.331980 
1233.000000	97.322051 
1232.000000	97.312871 
1231.000000	97.306675 
1230.000000	97.302742 
1229.000000	97.298238 
1228.000000	97.292599 
1227.000000	97.286401 
1226.000000	97.277135 
1225.000000	97.261103 
1224.000000	97.238929 
1223.000000	97.214328 
1222.000000	97.187625 
1221.000000	97.155327 
1220.000000	97.116429 
1219.000000	97.074439 
1218.000000	97.032133 
1217.000000	96.988329 
1216.000000	96.940504 
1215.000000	96.886950 
1214.000000	96.826418 
1213.000000	96.759832 
1212.000000	96.692046 
1211.000000	96.626831 
1210.000000	96.560222 
1209.000000	96.484230 
1208.000000	96.397547 
1207.000000	96.307312 
1206.000000	96.219619 
1205.000000	96.133475 
1204.000000	96.045243 
1203.000000	95.953744 
1202.000000	95.859456 
1201.000000	95.763023 
1200.000000	95.666140 
1199.000000	95.570425 
1198.000000	95.474579 
1197.000000	95.376415 
1196.000000	95.277486 
1195.000000	95.181358 
1194.000000	95.087511 
1193.000000	94.991403 
1192.000000	94.890557 
1191.000000	94.785979 
1190.000000	94.678007 
1189.000000	94.565930 
1188.000000	94.451581 
1187.000000	94.337955 
1186.000000	94.224242 
1185.000000	94.107429 
1184.000000	93.988294 
1183.000000	93.870240 
1182.000000	93.752976 
1181.000000	93.633314 
1180.000000	93.511291 
1179.000000	93.388661 
1178.000000	93.261901 
1177.000000	93.124548 
1176.000000	92.976875 
1175.000000	92.825783 
1174.000000	92.674609 
1173.000000	92.520537 
1172.000000	92.362716 
1171.000000	92.204187 
1170.000000	92.044463 
1169.000000	91.879438 
1168.000000	91.711387 
1167.000000	91.551287 
1166.000000	91.409648 
1165.000000	91.293959 
1164.000000	91.216388 
1163.000000	91.192190 
1162.000000	91.224381 
1161.000000	91.296073 
1160.000000	91.380417 
1159.000000	91.452087 
1158.000000	91.489874 
1157.000000	91.479748 
1156.000000	91.421009 
1155.000000	91.324366 
1154.000000	91.201666 
1153.000000	91.061688 
1152.000000	90.914503 
1151.000000	90.770114 
1150.000000	90.630176 
1149.000000	90.489187 
1148.000000	90.345738 
1147.000000	90.204292 
1146.000000	90.064955 
1145.000000	89.921562 
1144.000000	89.772190 
1143.000000	89.621850 
1142.000000	89.472143 
1141.000000	89.318033 
1140.000000	89.157672 
1139.000000	88.995639 
1138.000000	88.833677 
1137.000000	88.667846 
1136.000000	88.497216 
1135.000000	88.325375 
1134.000000	88.151136 
1133.000000	87.968504 
1132.000000	87.778224 
1131.000000	87.588296 
1130.000000	87.400551 
1129.000000	87.208196 
1128.000000	87.009193 
1127.000000	86.809699 
1126.000000	86.611027 
1125.000000	86.405755 
1124.000000	86.190646 
1123.000000	85.971471 
1122.000000	85.751584 
1121.000000	85.528408 
1120.000000	85.304818 
1119.000000	85.090424 
1118.000000	84.887290 
1117.000000	84.688006 
1116.000000	84.491525 
1115.000000	84.306883 
1114.000000	84.137496 
1113.000000	83.976144 
1112.000000	83.818821 
1111.000000	83.668258 
1110.000000	83.520592 
1109.000000	83.364952 
1108.000000	83.199952 
1107.000000	83.034767 
1106.000000	82.871650 
1105.000000	82.703702 
1104.000000	82.531834 
1103.000000	82.366228 
1102.000000	82.207121 
1101.000000	82.043365 
1100.000000	81.873042 
1099.000000	81.706138 
1098.000000	81.546654 
1097.000000	81.387112 
1096.000000	81.225383 
1095.000000	81.066570 
1094.000000	80.905792 
1093.000000	80.729882 
1092.000000	80.540964 
1091.000000	80.358321 
1090.000000	80.192027 
1089.000000	80.033644 
1088.000000	79.875862 
1087.000000	79.720350 
1086.000000	79.563396 
1085.000000	79.396533 
1084.000000	79.225583 
1083.000000	79.066594 
1082.000000	78.918564 
1081.000000	78.763142 
1080.000000	78.595494 
1079.000000	78.431005 
1078.000000	78.276183 
1077.000000	78.117491 
1076.000000	77.945495 
1075.000000	77.765470 
1074.000000	77.577618 
1073.000000	77.370829 
1072.000000	77.141491 
1071.000000	76.893373 
1070.000000	76.614078 
1069.000000	76.280371 
1068.000000	75.896449 
1067.000000	75.501601 
1066.000000	75.128897 
1065.000000	74.778370 
1064.000000	74.438754 
1063.000000	74.106100 
1062.000000	73.768577 
1061.000000	73.402214 
1060.000000	72.999668 
1059.000000	72.582625 
1058.000000	72.172389 
1057.000000	71.767155 
1056.000000	71.357694 
1055.000000	70.942300 
1054.000000	70.515397 
1053.000000	70.064714 
1052.000000	69.592285 
1051.000000	69.116276 
1050.000000	68.640989 
1049.000000	68.150388 
1048.000000	67.640431 
1047.000000	67.128220 
1046.000000	66.621481 
1045.000000	66.109250 
1044.000000	65.588905 
1043.000000	65.072925 
1042.000000	64.562815 
1041.000000	64.045535 
1040.000000	63.523198 
1039.000000	63.017574 
1038.000000	62.537803 
1037.000000	62.072562 
1036.000000	61.619899 
1035.000000	61.193626 
1034.000000	60.794153 
1033.000000	60.405333 
1032.000000	60.025921 
1031.000000	59.671261 
1030.000000	59.339997 
1029.000000	59.015702 
1028.000000	58.706256 
1027.000000	58.441661 
1026.000000	58.224440 
1025.000000	58.020651 
1024.000000	57.808900 
1023.000000	57.599873 
1022.000000	57.398639 
1021.000000	57.189221 
1020.000000	56.968621 
1019.000000	56.757116 
1018.000000	56.561594 
1017.000000	56.364502 
1016.000000	56.159615 
1015.000000	55.962264 
1014.000000	55.774501 
1013.000000	55.578223 
1012.000000	55.373115 
1011.000000	55.183465 
1010.000000	55.016841 
1009.000000	54.853843 
1008.000000	54.688962 
1007.000000	54.543216 
1006.000000	54.425589 
1005.000000	54.320363 
1004.000000	54.223290 
1003.000000	54.151896 
1002.000000	54.108830 
1001.000000	54.073339 
1000.000000	54.040449 
999.000000	 54.030891 
998.000000	 54.050859 
997.000000	 54.079310 
996.000000	 54.105913 
995.000000	 54.144873 
994.000000	 54.200860 
993.000000	 54.258342 
992.000000	 54.314707 
991.000000	 54.387086 
990.000000	 54.476914 
989.000000	 54.564980 
988.000000	 54.650578 
987.000000	 54.757682 
986.000000	 54.893148 
985.000000	 55.037281 
984.000000	 55.184959 
983.000000	 55.357154 
982.000000	 55.561409 
981.000000	 55.779610 
980.000000	 56.005396 
979.000000	 56.255736 
978.000000	 56.534537 
977.000000	 56.823116 
976.000000	 57.118244 
975.000000	 57.442116 
974.000000	 57.802187 
973.000000	 58.176867 
972.000000	 58.552769 
971.000000	 58.941972 
970.000000	 59.351097 
969.000000	 59.767085 
968.000000	 60.184401 
967.000000	 60.614045 
966.000000	 61.056003 
965.000000	 61.494317 
964.000000	 61.927254 
963.000000	 62.370448 
962.000000	 62.823298 
961.000000	 63.264960 
960.000000	 63.690274 
959.000000	 64.116327 
958.000000	 64.546344 
957.000000	 64.960777 
956.000000	 65.352591 
955.000000	 65.738458 
954.000000	 66.126181 
953.000000	 66.502382 
952.000000	 66.860499 
951.000000	 67.209243 
950.000000	 67.545638 
949.000000	 67.851673 
948.000000	 68.126313 
947.000000	 68.389866 
946.000000	 68.648097 
945.000000	 68.882570 
944.000000	 69.085311 
943.000000	 69.272182 
942.000000	 69.452752 
941.000000	 69.617380 
940.000000	 69.764883 
939.000000	 69.913119 
938.000000	 70.070523 
937.000000	 70.224866 
936.000000	 70.371009 
935.000000	 70.522304 
934.000000	 70.684457 
933.000000	 70.845294 
932.000000	 70.999950 
931.000000	 71.159036 
930.000000	 71.323010 
929.000000	 71.475891 
928.000000	 71.613516 
927.000000	 71.750901 
926.000000	 71.892694 
925.000000	 72.022896 
924.000000	 72.132209 
923.000000	 72.229109 
922.000000	 72.316606 
921.000000	 72.385628 
920.000000	 72.439144 
919.000000	 72.494774 
918.000000	 72.555058 
917.000000	 72.603225 
916.000000	 72.637501 
915.000000	 72.682166 
914.000000	 72.755895 
913.000000	 72.856887 
912.000000	 72.987339 
911.000000	 73.163339 
910.000000	 73.390249 
909.000000	 73.655735 
908.000000	 73.956066 
907.000000	 74.302484 
906.000000	 74.694664 
905.000000	 75.115589 
904.000000	 75.558270 
903.000000	 76.029069 
902.000000	 76.520236 
901.000000	 77.009512 
900.000000	 77.492262 
899.000000	 77.984370 
898.000000	 78.488455 
897.000000	 78.985842 
896.000000	 79.465739 
895.000000	 79.932798 
894.000000	 80.382992 
893.000000	 80.803130 
892.000000	 81.198881 
891.000000	 81.592674 
890.000000	 81.987646 
889.000000	 82.362565 
888.000000	 82.708069 
887.000000	 83.038931 
886.000000	 83.364710 
885.000000	 83.677257 
884.000000	 83.973825 
883.000000	 84.263781 
882.000000	 84.546662 
881.000000	 84.813953 
880.000000	 85.079066 
879.000000	 85.372825 
878.000000	 85.699549 
877.000000	 86.029395 
876.000000	 86.343565 
875.000000	 86.654502 
874.000000	 86.973249 
873.000000	 87.292546 
872.000000	 87.614011 
871.000000	 87.957300 
870.000000	 88.327139 
869.000000	 88.700353 
868.000000	 89.058571 
867.000000	 89.407246 
866.000000	 89.752372 
865.000000	 90.085469 
864.000000	 90.403698 
863.000000	 90.720292 
862.000000	 91.041764 
861.000000	 91.355325 
860.000000	 91.650341 
859.000000	 91.932896 
858.000000	 92.209405 
857.000000	 92.474324 
856.000000	 92.722982 
855.000000	 92.958462 
854.000000	 93.177815 
853.000000	 93.369505 
852.000000	 93.532652 
851.000000	 93.682301 
850.000000	 93.829082 
849.000000	 93.969564 
848.000000	 94.100428 
847.000000	 94.222921 
846.000000	 94.328932 
845.000000	 94.403422 
844.000000	 94.446490 
843.000000	 94.473302 
842.000000	 94.487129 
841.000000	 94.473131 
840.000000	 94.424258 
839.000000	 94.351469 
838.000000	 94.262262 
837.000000	 94.151877 
836.000000	 94.024513 
835.000000	 93.901180 
834.000000	 93.795388 
833.000000	 93.700713 
832.000000	 93.612933 
831.000000	 93.544443 
830.000000	 93.505665 
829.000000	 93.492392 
828.000000	 93.504085 
827.000000	 93.554360 
826.000000	 93.648971 
825.000000	 93.772059 
824.000000	 93.906159 
823.000000	 94.045319 
822.000000	 94.180239 
821.000000	 94.295604 
820.000000	 94.390626 
819.000000	 94.478768 
818.000000	 94.560532 
817.000000	 94.616876 
816.000000	 94.634080 
815.000000	 94.615250 
814.000000	 94.561933 
813.000000	 94.462971 
812.000000	 94.306713 
811.000000	 94.084941 
810.000000	 93.778999 
809.000000	 93.362848 
808.000000	 92.829490 
807.000000	 92.198667 
806.000000	 91.493301 
805.000000	 90.728332 
804.000000	 89.930520 
803.000000	 89.146006 
802.000000	 88.415381 
801.000000	 87.761948 
800.000000	 87.213637 
799.000000	 86.809429 
798.000000	 86.569273 
797.000000	 86.479320 
796.000000	 86.515087 
795.000000	 86.653895 
794.000000	 86.859208 
793.000000	 87.084769 
792.000000	 87.306120 
791.000000	 87.523186 
790.000000	 87.726234 
789.000000	 87.887017 
788.000000	 87.988612 
787.000000	 88.034008 
786.000000	 88.017765 
785.000000	 87.918585 
784.000000	 87.730689 
783.000000	 87.477730 
782.000000	 87.188938 
781.000000	 86.889664 
780.000000	 86.622008 
779.000000	 86.440206 
778.000000	 86.369869 
777.000000	 86.398349 
776.000000	 86.513846 
775.000000	 86.721083 
774.000000	 87.006601 
773.000000	 87.324008 
772.000000	 87.632454 
771.000000	 87.922984 
770.000000	 88.193729 
769.000000	 88.428643 
768.000000	 88.616582 
767.000000	 88.764948 
766.000000	 88.879227 
765.000000	 88.953780 
764.000000	 88.996863 
763.000000	 89.038555 
762.000000	 89.096962 
761.000000	 89.159442 
760.000000	 89.212291 
759.000000	 89.265371 
758.000000	 89.331990 
757.000000	 89.408600 
756.000000	 89.491558 
755.000000	 89.591578 
754.000000	 89.713489 
753.000000	 89.840382 
752.000000	 89.953757 
751.000000	 90.054069 
750.000000	 90.151722 
749.000000	 90.255683 
748.000000	 90.378943 
747.000000	 90.533432 
746.000000	 90.709495 
745.000000	 90.882328 
744.000000	 91.048857 
743.000000	 91.235252 
742.000000	 91.457894 
741.000000	 91.701438 
740.000000	 91.946161 
739.000000	 92.191644 
738.000000	 92.440576 
737.000000	 92.682876 
736.000000	 92.910164 
735.000000	 93.125503 
734.000000	 93.326981 
733.000000	 93.501657 
732.000000	 93.645220 
731.000000	 93.767302 
730.000000	 93.870398 
729.000000	 93.946099 
728.000000	 93.999469 
727.000000	 94.053699 
726.000000	 94.123100 
725.000000	 94.203947 
724.000000	 94.297088 
723.000000	 94.413539 
722.000000	 94.550261 
721.000000	 94.685960 
720.000000	 94.810233 
719.000000	 94.932617 
718.000000	 95.055206 
717.000000	 95.165271 
716.000000	 95.262293 
715.000000	 95.361272 
714.000000	 95.459779 
713.000000	 95.532305 
712.000000	 95.570103 
711.000000	 95.596975 
710.000000	 95.631185 
709.000000	 95.660013 
708.000000	 95.668006 
707.000000	 95.661184 
706.000000	 95.645505 
705.000000	 95.608255 
704.000000	 95.538131 
703.000000	 95.438797 
702.000000	 95.304571 
701.000000	 95.106766 
700.000000	 94.822174 
699.000000	 94.456448 
698.000000	 94.032703 
697.000000	 93.586717 
696.000000	 93.185546 
695.000000	 92.915313 
694.000000	 92.823608 
693.000000	 92.890055 
692.000000	 93.061225 
691.000000	 93.289982 
690.000000	 93.535048 
689.000000	 93.758286 
688.000000	 93.946649 
687.000000	 94.113954 
686.000000	 94.264201 
685.000000	 94.381907 
684.000000	 94.469241 
683.000000	 94.555486 
682.000000	 94.656403 
681.000000	 94.758344 
680.000000	 94.854904 
679.000000	 94.964721 
678.000000	 95.096787 
677.000000	 95.234423 
676.000000	 95.370535 
675.000000	 95.518083 
674.000000	 95.667805 
673.000000	 95.777003 
672.000000	 95.822000 
671.000000	 95.829190 
670.000000	 95.850849 
669.000000	 95.945195 
668.000000	 96.143703 
667.000000	 96.385146 
666.000000	 96.572384 
665.000000	 96.674213 
664.000000	 96.731174 
663.000000	 96.798910 
662.000000	 96.904781 
661.000000	 97.027807 
660.000000	 97.145752 
659.000000	 97.262621 
658.000000	 97.372775 
657.000000	 97.443403 
656.000000	 97.457763 
655.000000	 97.435377 
654.000000	 97.393068 
653.000000	 97.326769 
652.000000	 97.255161 
651.000000	 97.234683 
650.000000	 97.287676 

