4000.000000	97.430822 
3999.000000	97.430646 
3998.000000	97.430450 
3997.000000	97.430287 
3996.000000	97.430166 
3995.000000	97.430094 
3994.000000	97.430114 
3993.000000	97.430265 
3992.000000	97.430514 
3991.000000	97.430733 
3990.000000	97.430804 
3989.000000	97.430698 
3988.000000	97.430479 
3987.000000	97.430308 
3986.000000	97.430350 
3985.000000	97.430664 
3984.000000	97.431110 
3983.000000	97.431387 
3982.000000	97.431318 
3981.000000	97.431025 
3980.000000	97.430828 
3979.000000	97.430875 
3978.000000	97.431028 
3977.000000	97.431072 
3976.000000	97.430911 
3975.000000	97.430546 
3974.000000	97.430037 
3973.000000	97.429504 
3972.000000	97.429066 
3971.000000	97.428732 
3970.000000	97.428370 
3969.000000	97.427896 
3968.000000	97.427423 
3967.000000	97.427152 
3966.000000	97.427154 
3965.000000	97.427308 
3964.000000	97.427330 
3963.000000	97.426981 
3962.000000	97.426273 
3961.000000	97.425494 
3960.000000	97.424943 
3959.000000	97.424673 
3958.000000	97.424522 
3957.000000	97.424302 
3956.000000	97.423914 
3955.000000	97.423333 
3954.000000	97.422603 
3953.000000	97.421825 
3952.000000	97.421093 
3951.000000	97.420423 
3950.000000	97.419758 
3949.000000	97.419057 
3948.000000	97.418355 
3947.000000	97.417758 
3946.000000	97.417325 
3945.000000	97.416992 
3944.000000	97.416617 
3943.000000	97.416090 
3942.000000	97.415461 
3941.000000	97.414874 
3940.000000	97.414394 
3939.000000	97.413920 
3938.000000	97.413311 
3937.000000	97.412559 
3936.000000	97.411778 
3935.000000	97.411047 
3934.000000	97.410344 
3933.000000	97.409623 
3932.000000	97.408895 
3931.000000	97.408181 
3930.000000	97.407499 
3929.000000	97.406934 
3928.000000	97.406589 
3927.000000	97.406439 
3926.000000	97.406216 
3925.000000	97.405637 
3924.000000	97.404695 
3923.000000	97.403634 
3922.000000	97.402667 
3921.000000	97.401841 
3920.000000	97.401169 
3919.000000	97.400665 
3918.000000	97.400212 
3917.000000	97.399614 
3916.000000	97.398855 
3915.000000	97.398137 
3914.000000	97.397604 
3913.000000	97.397191 
3912.000000	97.396730 
3911.000000	97.396148 
3910.000000	97.395449 
3909.000000	97.394666 
3908.000000	97.393866 
3907.000000	97.393072 
3906.000000	97.392188 
3905.000000	97.391040 
3904.000000	97.389604 
3903.000000	97.388137 
3902.000000	97.386978 
3901.000000	97.386234 
3900.000000	97.385766 
3899.000000	97.385350 
3898.000000	97.384857 
3897.000000	97.384254 
3896.000000	97.383552 
3895.000000	97.382815 
3894.000000	97.382096 
3893.000000	97.381392 
3892.000000	97.380673 
3891.000000	97.379941 
3890.000000	97.379206 
3889.000000	97.378480 
3888.000000	97.377779 
3887.000000	97.377103 
3886.000000	97.376444 
3885.000000	97.375796 
3884.000000	97.375156 
3883.000000	97.374524 
3882.000000	97.373900 
3881.000000	97.373289 
3880.000000	97.372703 
3879.000000	97.372148 
3878.000000	97.371615 
3877.000000	97.371091 
3876.000000	97.370566 
3875.000000	97.370034 
3874.000000	97.369498 
3873.000000	97.368968 
3872.000000	97.368457 
3871.000000	97.367971 
3870.000000	97.367516 
3869.000000	97.367106 
3868.000000	97.366748 
3867.000000	97.366434 
3866.000000	97.366151 
3865.000000	97.365897 
3864.000000	97.365682 
3863.000000	97.365505 
3862.000000	97.365349 
3861.000000	97.365195 
3860.000000	97.365038 
3859.000000	97.364874 
3858.000000	97.364703 
3857.000000	97.364530 
3856.000000	97.364375 
3855.000000	97.364248 
3854.000000	97.364147 
3853.000000	97.364073 
3852.000000	97.364040 
3851.000000	97.364059 
3850.000000	97.364127 
3849.000000	97.364233 
3848.000000	97.364360 
3847.000000	97.364489 
3846.000000	97.364600 
3845.000000	97.364682 
3844.000000	97.364742 
3843.000000	97.364782 
3842.000000	97.364792 
3841.000000	97.364793 
3840.000000	97.364804 
3839.000000	97.364849 
3838.000000	97.365011 
3837.000000	97.365283 
3836.000000	97.365516 
3835.000000	97.365633 
3834.000000	97.365788 
3833.000000	97.366202 
3832.000000	97.366936 
3831.000000	97.367931 
3830.000000	97.369069 
3829.000000	97.370272 
3828.000000	97.371528 
3827.000000	97.372626 
3826.000000	97.373035 
3825.000000	97.372539 
3824.000000	97.371393 
3823.000000	97.370176 
3822.000000	97.369350 
3821.000000	97.369392 
3820.000000	97.370966 
3819.000000	97.373745 
3818.000000	97.376411 
3817.000000	97.377732 
3816.000000	97.378370 
3815.000000	97.380487 
3814.000000	97.384309 
3813.000000	97.387302 
3812.000000	97.387580 
3811.000000	97.386129 
3810.000000	97.385476 
3809.000000	97.386551 
3808.000000	97.387524 
3807.000000	97.386532 
3806.000000	97.384301 
3805.000000	97.382797 
3804.000000	97.382642 
3803.000000	97.383302 
3802.000000	97.383979 
3801.000000	97.385333 
3800.000000	97.388102 
3799.000000	97.390803 
3798.000000	97.391995 
3797.000000	97.392415 
3796.000000	97.394081 
3795.000000	97.397544 
3794.000000	97.401031 
3793.000000	97.402836 
3792.000000	97.403690 
3791.000000	97.405662 
3790.000000	97.408863 
3789.000000	97.410929 
3788.000000	97.410129 
3787.000000	97.407353 
3786.000000	97.404761 
3785.000000	97.403443 
3784.000000	97.403096 
3783.000000	97.403079 
3782.000000	97.402468 
3781.000000	97.400568 
3780.000000	97.398248 
3779.000000	97.398268 
3778.000000	97.402220 
3777.000000	97.407986 
3776.000000	97.411052 
3775.000000	97.408719 
3774.000000	97.402296 
3773.000000	97.395872 
3772.000000	97.392406 
3771.000000	97.391509 
3770.000000	97.391444 
3769.000000	97.391512 
3768.000000	97.391168 
3767.000000	97.389175 
3766.000000	97.385120 
3765.000000	97.381055 
3764.000000	97.380615 
3763.000000	97.384999 
3762.000000	97.390503 
3761.000000	97.392214 
3760.000000	97.389433 
3759.000000	97.385669 
3758.000000	97.381272 
3757.000000	97.373787 
3756.000000	97.364406 
3755.000000	97.356181 
3754.000000	97.348321 
3753.000000	97.337104 
3752.000000	97.324645 
3751.000000	97.318455 
3750.000000	97.318032 
3749.000000	97.315756 
3748.000000	97.312373 
3747.000000	97.315278 
3746.000000	97.323910 
3745.000000	97.328108 
3744.000000	97.330914 
3743.000000	97.341920 
3742.000000	97.354108 
3741.000000	97.354834 
3740.000000	97.344239 
3739.000000	97.336014 
3738.000000	97.338332 
3737.000000	97.340409 
3736.000000	97.330808 
3735.000000	97.317868 
3734.000000	97.316956 
3733.000000	97.326167 
3732.000000	97.333823 
3731.000000	97.336820 
3730.000000	97.339672 
3729.000000	97.345217 
3728.000000	97.352071 
3727.000000	97.357711 
3726.000000	97.361581 
3725.000000	97.361583 
3724.000000	97.353584 
3723.000000	97.338631 
3722.000000	97.325224 
3721.000000	97.320509 
3720.000000	97.321703 
3719.000000	97.321690 
3718.000000	97.314991 
3717.000000	97.300555 
3716.000000	97.282203 
3715.000000	97.263715 
3714.000000	97.247662 
3713.000000	97.236651 
3712.000000	97.230401 
3711.000000	97.223397 
3710.000000	97.209081 
3709.000000	97.187836 
3708.000000	97.165203 
3707.000000	97.145328 
3706.000000	97.129336 
3705.000000	97.115605 
3704.000000	97.099967 
3703.000000	97.077501 
3702.000000	97.046326 
3701.000000	97.011011 
3700.000000	96.980075 
3699.000000	96.959427 
3698.000000	96.947909 
3697.000000	96.938591 
3696.000000	96.926815 
3695.000000	96.912815 
3694.000000	96.898297 
3693.000000	96.886205 
3692.000000	96.880645 
3691.000000	96.881797 
3690.000000	96.880870 
3689.000000	96.870519 
3688.000000	96.855488 
3687.000000	96.845110 
3686.000000	96.842017 
3685.000000	96.841121 
3684.000000	96.837087 
3683.000000	96.830557 
3682.000000	96.823631 
3681.000000	96.810512 
3680.000000	96.783182 
3679.000000	96.744059 
3678.000000	96.706075 
3677.000000	96.674397 
3676.000000	96.640209 
3675.000000	96.602163 
3674.000000	96.567534 
3673.000000	96.538010 
3672.000000	96.509967 
3671.000000	96.483499 
3670.000000	96.464681 
3669.000000	96.456069 
3668.000000	96.447654 
3667.000000	96.429011 
3666.000000	96.402375 
3665.000000	96.376681 
3664.000000	96.356915 
3663.000000	96.340995 
3662.000000	96.321698 
3661.000000	96.292028 
3660.000000	96.251864 
3659.000000	96.207375 
3658.000000	96.166452 
3657.000000	96.131227 
3656.000000	96.099361 
3655.000000	96.068855 
3654.000000	96.037338 
3653.000000	96.001538 
3652.000000	95.958100 
3651.000000	95.908033 
3650.000000	95.860162 
3649.000000	95.824398 
3648.000000	95.801171 
3647.000000	95.784917 
3646.000000	95.773055 
3645.000000	95.765138 
3644.000000	95.759280 
3643.000000	95.753397 
3642.000000	95.746485 
3641.000000	95.737784 
3640.000000	95.724246 
3639.000000	95.700716 
3638.000000	95.666451 
3637.000000	95.627783 
3636.000000	95.592157 
3635.000000	95.560581 
3634.000000	95.530170 
3633.000000	95.501566 
3632.000000	95.476884 
3631.000000	95.450818 
3630.000000	95.410268 
3629.000000	95.355499 
3628.000000	95.310495 
3627.000000	95.291274 
3626.000000	95.289682 
3625.000000	95.292020 
3624.000000	95.291726 
3623.000000	95.288778 
3622.000000	95.284815 
3621.000000	95.280724 
3620.000000	95.278387 
3619.000000	95.281348 
3618.000000	95.290035 
3617.000000	95.301478 
3616.000000	95.315801 
3615.000000	95.336187 
3614.000000	95.364902 
3613.000000	95.401697 
3612.000000	95.442340 
3611.000000	95.477499 
3610.000000	95.497769 
3609.000000	95.501654 
3608.000000	95.498509 
3607.000000	95.501856 
3606.000000	95.518234 
3605.000000	95.545248 
3604.000000	95.576387 
3603.000000	95.604183 
3602.000000	95.623103 
3601.000000	95.632533 
3600.000000	95.638933 
3599.000000	95.649999 
3598.000000	95.667062 
3597.000000	95.684110 
3596.000000	95.694613 
3595.000000	95.695396 
3594.000000	95.689583 
3593.000000	95.685231 
3592.000000	95.689150 
3591.000000	95.702197 
3590.000000	95.718258 
3589.000000	95.726834 
3588.000000	95.721471 
3587.000000	95.708453 
3586.000000	95.701509 
3585.000000	95.708289 
3584.000000	95.726824 
3583.000000	95.749607 
3582.000000	95.768769 
3581.000000	95.779243 
3580.000000	95.781251 
3579.000000	95.779351 
3578.000000	95.778759 
3577.000000	95.781691 
3576.000000	95.786469 
3575.000000	95.789741 
3574.000000	95.789191 
3573.000000	95.785467 
3572.000000	95.781344 
3571.000000	95.779720 
3570.000000	95.781453 
3569.000000	95.784250 
3568.000000	95.784201 
3567.000000	95.780034 
3566.000000	95.774615 
3565.000000	95.771602 
3564.000000	95.772753 
3563.000000	95.777917 
3562.000000	95.785171 
3561.000000	95.791451 
3560.000000	95.794229 
3559.000000	95.793457 
3558.000000	95.791574 
3557.000000	95.791528 
3556.000000	95.794450 
3555.000000	95.799018 
3554.000000	95.802628 
3553.000000	95.803513 
3552.000000	95.802041 
3551.000000	95.800048 
3550.000000	95.799197 
3549.000000	95.800007 
3548.000000	95.801879 
3547.000000	95.803594 
3546.000000	95.804153 
3545.000000	95.803576 
3544.000000	95.802851 
3543.000000	95.802970 
3542.000000	95.803998 
3541.000000	95.805234 
3540.000000	95.806070 
3539.000000	95.806480 
3538.000000	95.806758 
3537.000000	95.807095 
3536.000000	95.807459 
3535.000000	95.807818 
3534.000000	95.808168 
3533.000000	95.808508 
3532.000000	95.808838 
3531.000000	95.809158 
3530.000000	95.809458 
3529.000000	95.809725 
3528.000000	95.809945 
3527.000000	95.810113 
3526.000000	95.810238 
3525.000000	95.810330 
3524.000000	95.810392 
3523.000000	95.810417 
3522.000000	95.810394 
3521.000000	95.810315 
3520.000000	95.810179 
3519.000000	95.809991 
3518.000000	95.809755 
3517.000000	95.809472 
3516.000000	95.809135 
3515.000000	95.808740 
3514.000000	95.808287 
3513.000000	95.807784 
3512.000000	95.807234 
3511.000000	95.806633 
3510.000000	95.805974 
3509.000000	95.805250 
3508.000000	95.804458 
3507.000000	95.803601 
3506.000000	95.802678 
3505.000000	95.801687 
3504.000000	95.800621 
3503.000000	95.799480 
3502.000000	95.798262 
3501.000000	95.796971 
3500.000000	95.795611 
3499.000000	95.794185 
3498.000000	95.792696 
3497.000000	95.791136 
3496.000000	95.789492 
3495.000000	95.787754 
3494.000000	95.785925 
3493.000000	95.784016 
3492.000000	95.782039 
3491.000000	95.780001 
3490.000000	95.777900 
3489.000000	95.775730 
3488.000000	95.773482 
3487.000000	95.771154 
3486.000000	95.768750 
3485.000000	95.766279 
3484.000000	95.763748 
3483.000000	95.761155 
3482.000000	95.758491 
3481.000000	95.755752 
3480.000000	95.752942 
3479.000000	95.750069 
3478.000000	95.747141 
3477.000000	95.744154 
3476.000000	95.741104 
3475.000000	95.737989 
3474.000000	95.734818 
3473.000000	95.731600 
3472.000000	95.728336 
3471.000000	95.725032 
3470.000000	95.721700 
3469.000000	95.718345 
3468.000000	95.714958 
3467.000000	95.711527 
3466.000000	95.708067 
3465.000000	95.704625 
3464.000000	95.701239 
3463.000000	95.697884 
3462.000000	95.694480 
3461.000000	95.690972 
3460.000000	95.687380 
3459.000000	95.683758 
3458.000000	95.680095 
3457.000000	95.676305 
3456.000000	95.672384 
3455.000000	95.668513 
3454.000000	95.664904 
3453.000000	95.661545 
3452.000000	95.658223 
3451.000000	95.654829 
3450.000000	95.651522 
3449.000000	95.648432 
3448.000000	95.645304 
3447.000000	95.641643 
3446.000000	95.637129 
3445.000000	95.631884 
3444.000000	95.626539 
3443.000000	95.622035 
3442.000000	95.619109 
3441.000000	95.617646 
3440.000000	95.616589 
3439.000000	95.614763 
3438.000000	95.611684 
3437.000000	95.607622 
3436.000000	95.603398 
3435.000000	95.600034 
3434.000000	95.598112 
3433.000000	95.597125 
3432.000000	95.595676 
3431.000000	95.592828 
3430.000000	95.589040 
3429.000000	95.585560 
3428.000000	95.583072 
3427.000000	95.581334 
3426.000000	95.580006 
3425.000000	95.579178 
3424.000000	95.578820 
3423.000000	95.578141 
3422.000000	95.576117 
3421.000000	95.572715 
3420.000000	95.569203 
3419.000000	95.566872 
3418.000000	95.565691 
3417.000000	95.564647 
3416.000000	95.563123 
3415.000000	95.561422 
3414.000000	95.559967 
3413.000000	95.558593 
3412.000000	95.556916 
3411.000000	95.555002 
3410.000000	95.553272 
3409.000000	95.552003 
3408.000000	95.551216 
3407.000000	95.550853 
3406.000000	95.550775 
3405.000000	95.550656 
3404.000000	95.550145 
3403.000000	95.549089 
3402.000000	95.547663 
3401.000000	95.546298 
3400.000000	95.545423 
3399.000000	95.545147 
3398.000000	95.545162 
3397.000000	95.545076 
3396.000000	95.544801 
3395.000000	95.544557 
3394.000000	95.544553 
3393.000000	95.544796 
3392.000000	95.545196 
3391.000000	95.545705 
3390.000000	95.546305 
3389.000000	95.546929 
3388.000000	95.547458 
3387.000000	95.547817 
3386.000000	95.548048 
3385.000000	95.548276 
3384.000000	95.548615 
3383.000000	95.549099 
3382.000000	95.549688 
3381.000000	95.550326 
3380.000000	95.550962 
3379.000000	95.551630 
3378.000000	95.552513 
3377.000000	95.553829 
3376.000000	95.555538 
3375.000000	95.557239 
3374.000000	95.558479 
3373.000000	95.559185 
3372.000000	95.559742 
3371.000000	95.560721 
3370.000000	95.562352 
3369.000000	95.564443 
3368.000000	95.566522 
3367.000000	95.568229 
3366.000000	95.569527 
3365.000000	95.570642 
3364.000000	95.571869 
3363.000000	95.573352 
3362.000000	95.575010 
3361.000000	95.576660 
3360.000000	95.578194 
3359.000000	95.579666 
3358.000000	95.581258 
3357.000000	95.583180 
3356.000000	95.585520 
3355.000000	95.588144 
3354.000000	95.590774 
3353.000000	95.593225 
3352.000000	95.595527 
3351.000000	95.597822 
3350.000000	95.600178 
3349.000000	95.602549 
3348.000000	95.604875 
3347.000000	95.607146 
3346.000000	95.609361 
3345.000000	95.611498 
3344.000000	95.613561 
3343.000000	95.615624 
3342.000000	95.617782 
3341.000000	95.620074 
3340.000000	95.622453 
3339.000000	95.624820 
3338.000000	95.627099 
3337.000000	95.629297 
3336.000000	95.631493 
3335.000000	95.633765 
3334.000000	95.636127 
3333.000000	95.638532 
3332.000000	95.640920 
3331.000000	95.643276 
3330.000000	95.645633 
3329.000000	95.648032 
3328.000000	95.650478 
3327.000000	95.652943 
3326.000000	95.655401 
3325.000000	95.657848 
3324.000000	95.660289 
3323.000000	95.662728 
3322.000000	95.665174 
3321.000000	95.667632 
3320.000000	95.670105 
3319.000000	95.672587 
3318.000000	95.675072 
3317.000000	95.677553 
3316.000000	95.680027 
3315.000000	95.682490 
3314.000000	95.684938 
3313.000000	95.687369 
3312.000000	95.689784 
3311.000000	95.692188 
3310.000000	95.694584 
3309.000000	95.696974 
3308.000000	95.699357 
3307.000000	95.701730 
3306.000000	95.704096 
3305.000000	95.706459 
3304.000000	95.708828 
3303.000000	95.711213 
3302.000000	95.713620 
3301.000000	95.716047 
3300.000000	95.718483 
3299.000000	95.720912 
3298.000000	95.723322 
3297.000000	95.725714 
3296.000000	95.728103 
3295.000000	95.730507 
3294.000000	95.732934 
3293.000000	95.735384 
3292.000000	95.737850 
3291.000000	95.740325 
3290.000000	95.742806 
3289.000000	95.745293 
3288.000000	95.747779 
3287.000000	95.750261 
3286.000000	95.752733 
3285.000000	95.755197 
3284.000000	95.757661 
3283.000000	95.760139 
3282.000000	95.762641 
3281.000000	95.765172 
3280.000000	95.767724 
3279.000000	95.770287 
3278.000000	95.772857 
3277.000000	95.775441 
3276.000000	95.778043 
3275.000000	95.780666 
3274.000000	95.783304 
3273.000000	95.785956 
3272.000000	95.788626 
3271.000000	95.791321 
3270.000000	95.794049 
3269.000000	95.796807 
3268.000000	95.799591 
3267.000000	95.802395 
3266.000000	95.805224 
3265.000000	95.808089 
3264.000000	95.810998 
3263.000000	95.813946 
3262.000000	95.816915 
3261.000000	95.819890 
3260.000000	95.822858 
3259.000000	95.825825 
3258.000000	95.828802 
3257.000000	95.831806 
3256.000000	95.834855 
3255.000000	95.837956 
3254.000000	95.841107 
3253.000000	95.844299 
3252.000000	95.847524 
3251.000000	95.850777 
3250.000000	95.854059 
3249.000000	95.857363 
3248.000000	95.860683 
3247.000000	95.864013 
3246.000000	95.867357 
3245.000000	95.870728 
3244.000000	95.874139 
3243.000000	95.877594 
3242.000000	95.881089 
3241.000000	95.884614 
3240.000000	95.888161 
3239.000000	95.891728 
3238.000000	95.895323 
3237.000000	95.898954 
3236.000000	95.902622 
3235.000000	95.906318 
3234.000000	95.910033 
3233.000000	95.913763 
3232.000000	95.917513 
3231.000000	95.921291 
3230.000000	95.925099 
3229.000000	95.928933 
3228.000000	95.932785 
3227.000000	95.936657 
3226.000000	95.940550 
3225.000000	95.944470 
3224.000000	95.948412 
3223.000000	95.952369 
3222.000000	95.956337 
3221.000000	95.960322 
3220.000000	95.964338 
3219.000000	95.968396 
3218.000000	95.972496 
3217.000000	95.976634 
3216.000000	95.980803 
3215.000000	95.985001 
3214.000000	95.989225 
3213.000000	95.993472 
3212.000000	95.997732 
3211.000000	96.001995 
3210.000000	96.006260 
3209.000000	96.010529 
3208.000000	96.014814 
3207.000000	96.019123 
3206.000000	96.023464 
3205.000000	96.027842 
3204.000000	96.032255 
3203.000000	96.036696 
3202.000000	96.041157 
3201.000000	96.045630 
3200.000000	96.050114 
3199.000000	96.054612 
3198.000000	96.059132 
3197.000000	96.063678 
3196.000000	96.068246 
3195.000000	96.072829 
3194.000000	96.077426 
3193.000000	96.082041 
3192.000000	96.086679 
3191.000000	96.091340 
3190.000000	96.096012 
3189.000000	96.100684 
3188.000000	96.105355 
3187.000000	96.110034 
3186.000000	96.114734 
3185.000000	96.119464 
3184.000000	96.124219 
3183.000000	96.128990 
3182.000000	96.133771 
3181.000000	96.138564 
3180.000000	96.143370 
3179.000000	96.148192 
3178.000000	96.153024 
3177.000000	96.157861 
3176.000000	96.162702 
3175.000000	96.167545 
3174.000000	96.172387 
3173.000000	96.177216 
3172.000000	96.182022 
3171.000000	96.186799 
3170.000000	96.191554 
3169.000000	96.196298 
3168.000000	96.201043 
3167.000000	96.205792 
3166.000000	96.210540 
3165.000000	96.215285 
3164.000000	96.220028 
3163.000000	96.224773 
3162.000000	96.229523 
3161.000000	96.234278 
3160.000000	96.239036 
3159.000000	96.243793 
3158.000000	96.248549 
3157.000000	96.253305 
3156.000000	96.258060 
3155.000000	96.262807 
3154.000000	96.267536 
3153.000000	96.272240 
3152.000000	96.276919 
3151.000000	96.281579 
3150.000000	96.286228 
3149.000000	96.290865 
3148.000000	96.295504 
3147.000000	96.300170 
3146.000000	96.304864 
3145.000000	96.309550 
3144.000000	96.314194 
3143.000000	96.318788 
3142.000000	96.323363 
3141.000000	96.327954 
3140.000000	96.332575 
3139.000000	96.337186 
3138.000000	96.341710 
3137.000000	96.346117 
3136.000000	96.350471 
3135.000000	96.354866 
3134.000000	96.359320 
3133.000000	96.363755 
3132.000000	96.368071 
3131.000000	96.372244 
3130.000000	96.376405 
3129.000000	96.380773 
3128.000000	96.385467 
3127.000000	96.390403 
3126.000000	96.395343 
3125.000000	96.400112 
3124.000000	96.404675 
3123.000000	96.409072 
3122.000000	96.413359 
3121.000000	96.417598 
3120.000000	96.421851 
3119.000000	96.426125 
3118.000000	96.430380 
3117.000000	96.434591 
3116.000000	96.438773 
3115.000000	96.442946 
3114.000000	96.447108 
3113.000000	96.451266 
3112.000000	96.455433 
3111.000000	96.459605 
3110.000000	96.463765 
3109.000000	96.467901 
3108.000000	96.472015 
3107.000000	96.476099 
3106.000000	96.480143 
3105.000000	96.484145 
3104.000000	96.488106 
3103.000000	96.492025 
3102.000000	96.495903 
3101.000000	96.499743 
3100.000000	96.503550 
3099.000000	96.507330 
3098.000000	96.511090 
3097.000000	96.514834 
3096.000000	96.518556 
3095.000000	96.522241 
3094.000000	96.525879 
3093.000000	96.529469 
3092.000000	96.533024 
3091.000000	96.536557 
3090.000000	96.540075 
3089.000000	96.543571 
3088.000000	96.547030 
3087.000000	96.550441 
3086.000000	96.553803 
3085.000000	96.557118 
3084.000000	96.560392 
3083.000000	96.563625 
3082.000000	96.566818 
3081.000000	96.569971 
3080.000000	96.573090 
3079.000000	96.576177 
3078.000000	96.579230 
3077.000000	96.582251 
3076.000000	96.585290 
3075.000000	96.588410 
3074.000000	96.591514 
3073.000000	96.594282 
3072.000000	96.596512 
3071.000000	96.598507 
3070.000000	96.600938 
3069.000000	96.604325 
3068.000000	96.608550 
3067.000000	96.612641 
3066.000000	96.615207 
3065.000000	96.615646 
3064.000000	96.615157 
3063.000000	96.615890 
3062.000000	96.618795 
3061.000000	96.622770 
3060.000000	96.625974 
3059.000000	96.627555 
3058.000000	96.628196 
3057.000000	96.629659 
3056.000000	96.633592 
3055.000000	96.639597 
3054.000000	96.644567 
3053.000000	96.645428 
3052.000000	96.642874 
3051.000000	96.641233 
3050.000000	96.643770 
3049.000000	96.649364 
3048.000000	96.654584 
3047.000000	96.657599 
3046.000000	96.658540 
3045.000000	96.657382 
3044.000000	96.653862 
3043.000000	96.649532 
3042.000000	96.647820 
3041.000000	96.650786 
3040.000000	96.656318 
3039.000000	96.659622 
3038.000000	96.657610 
3037.000000	96.651316 
3036.000000	96.644303 
3035.000000	96.639412 
3034.000000	96.637230 
3033.000000	96.636859 
3032.000000	96.636984 
3031.000000	96.636350 
3030.000000	96.634413 
3029.000000	96.631764 
3028.000000	96.629019 
3027.000000	96.625138 
3026.000000	96.618172 
3025.000000	96.608190 
3024.000000	96.598128 
3023.000000	96.590686 
3022.000000	96.585561 
3021.000000	96.581259 
3020.000000	96.578239 
3019.000000	96.577893 
3018.000000	96.578732 
3017.000000	96.576126 
3016.000000	96.566701 
3015.000000	96.551614 
3014.000000	96.535442 
3013.000000	96.522929 
3012.000000	96.516423 
3011.000000	96.514481 
3010.000000	96.512412 
3009.000000	96.505928 
3008.000000	96.494951 
3007.000000	96.482840 
3006.000000	96.471884 
3005.000000	96.461390 
3004.000000	96.450615 
3003.000000	96.441086 
3002.000000	96.434398 
3001.000000	96.429320 
3000.000000	96.423058 
2999.000000	96.414657 
2998.000000	96.405729 
2997.000000	96.398361 
2996.000000	96.393362 
2995.000000	96.389680 
2994.000000	96.384200 
2993.000000	96.372975 
2992.000000	96.354715 
2991.000000	96.333428 
2990.000000	96.316201 
2989.000000	96.307624 
2988.000000	96.306785 
2987.000000	96.309447 
2986.000000	96.312568 
2985.000000	96.316703 
2984.000000	96.324445 
2983.000000	96.336916 
2982.000000	96.351536 
2981.000000	96.362983 
2980.000000	96.366723 
2979.000000	96.362140 
2978.000000	96.352834 
2977.000000	96.344248 
2976.000000	96.340450 
2975.000000	96.342070 
2974.000000	96.346691 
2973.000000	96.351548 
2972.000000	96.356245 
2971.000000	96.362676 
2970.000000	96.372346 
2969.000000	96.384475 
2968.000000	96.396823 
2967.000000	96.407534 
2966.000000	96.415769 
2965.000000	96.421551 
2964.000000	96.426010 
2963.000000	96.431321 
2962.000000	96.439359 
2961.000000	96.450113 
2960.000000	96.461829 
2959.000000	96.472742 
2958.000000	96.482479 
2957.000000	96.491817 
2956.000000	96.501326 
2955.000000	96.510395 
2954.000000	96.517778 
2953.000000	96.523235 
2952.000000	96.528226 
2951.000000	96.534407 
2950.000000	96.541647 
2949.000000	96.548381 
2948.000000	96.553872 
2947.000000	96.558997 
2946.000000	96.564466 
2945.000000	96.569381 
2944.000000	96.572291 
2943.000000	96.572998 
2942.000000	96.572595 
2941.000000	96.572377 
2940.000000	96.573615 
2939.000000	96.577577 
2938.000000	96.584283 
2937.000000	96.591331 
2936.000000	96.595524 
2935.000000	96.596154 
2934.000000	96.595749 
2933.000000	96.597105 
2932.000000	96.600037 
2931.000000	96.601723 
2930.000000	96.600010 
2929.000000	96.595903 
2928.000000	96.592825 
2927.000000	96.593421 
2926.000000	96.597103 
2925.000000	96.600751 
2924.000000	96.601842 
2923.000000	96.600636 
2922.000000	96.599260 
2921.000000	96.599364 
2920.000000	96.601226 
2919.000000	96.604565 
2918.000000	96.608867 
2917.000000	96.612529 
2916.000000	96.612887 
2915.000000	96.608412 
2914.000000	96.600976 
2913.000000	96.595030 
2912.000000	96.593897 
2911.000000	96.596976 
2910.000000	96.600704 
2909.000000	96.602014 
2908.000000	96.600687 
2907.000000	96.598508 
2906.000000	96.596874 
2905.000000	96.595432 
2904.000000	96.592988 
2903.000000	96.589260 
2902.000000	96.586471 
2901.000000	96.587790 
2900.000000	96.594688 
2899.000000	96.605653 
2898.000000	96.617399 
2897.000000	96.627607 
2896.000000	96.635862 
2895.000000	96.642402 
2894.000000	96.647137 
2893.000000	96.650464 
2892.000000	96.653923 
2891.000000	96.658925 
2890.000000	96.665299 
2889.000000	96.671992 
2888.000000	96.678640 
2887.000000	96.685195 
2886.000000	96.690403 
2885.000000	96.692652 
2884.000000	96.692994 
2883.000000	96.695657 
2882.000000	96.703954 
2881.000000	96.716449 
2880.000000	96.728187 
2879.000000	96.735828 
2878.000000	96.740483 
2877.000000	96.745554 
2876.000000	96.753077 
2875.000000	96.762531 
2874.000000	96.772083 
2873.000000	96.780030 
2872.000000	96.785570 
2871.000000	96.789345 
2870.000000	96.793391 
2869.000000	96.799812 
2868.000000	96.808989 
2867.000000	96.819144 
2866.000000	96.827815 
2865.000000	96.833869 
2864.000000	96.838238 
2863.000000	96.843127 
2862.000000	96.850446 
2861.000000	96.860573 
2860.000000	96.872074 
2859.000000	96.882570 
2858.000000	96.890490 
2857.000000	96.896202 
2856.000000	96.901656 
2855.000000	96.908638 
2854.000000	96.917131 
2853.000000	96.925412 
2852.000000	96.931733 
2851.000000	96.935802 
2850.000000	96.938792 
2849.000000	96.942296 
2848.000000	96.947242 
2847.000000	96.953563 
2846.000000	96.960476 
2845.000000	96.966970 
2844.000000	96.972342 
2843.000000	96.976589 
2842.000000	96.980416 
2841.000000	96.984695 
2840.000000	96.989741 
2839.000000	96.995049 
2838.000000	96.999748 
2837.000000	97.003327 
2836.000000	97.006006 
2835.000000	97.008589 
2834.000000	97.011999 
2833.000000	97.016830 
2832.000000	97.022918 
2831.000000	97.029173 
2830.000000	97.034097 
2829.000000	97.036879 
2828.000000	97.038017 
2827.000000	97.038946 
2826.000000	97.041012 
2825.000000	97.044638 
2824.000000	97.049264 
2823.000000	97.053754 
2822.000000	97.057149 
2821.000000	97.059371 
2820.000000	97.061204 
2819.000000	97.063520 
2818.000000	97.066443 
2817.000000	97.069417 
2816.000000	97.071946 
2815.000000	97.074015 
2814.000000	97.075852 
2813.000000	97.077621 
2812.000000	97.079436 
2811.000000	97.081446 
2810.000000	97.083685 
2809.000000	97.086003 
2808.000000	97.088250 
2807.000000	97.090408 
2806.000000	97.092533 
2805.000000	97.094648 
2804.000000	97.096735 
2803.000000	97.098791 
2802.000000	97.100813 
2801.000000	97.102803 
2800.000000	97.104766 
2799.000000	97.106712 
2798.000000	97.108647 
2797.000000	97.110575 
2796.000000	97.112494 
2795.000000	97.114403 
2794.000000	97.116301 
2793.000000	97.118188 
2792.000000	97.120065 
2791.000000	97.121930 
2790.000000	97.123788 
2789.000000	97.125640 
2788.000000	97.127494 
2787.000000	97.129356 
2786.000000	97.131228 
2785.000000	97.133107 
2784.000000	97.134984 
2783.000000	97.136852 
2782.000000	97.138709 
2781.000000	97.140555 
2780.000000	97.142395 
2779.000000	97.144229 
2778.000000	97.146052 
2777.000000	97.147859 
2776.000000	97.149647 
2775.000000	97.151422 
2774.000000	97.153185 
2773.000000	97.154935 
2772.000000	97.156665 
2771.000000	97.158377 
2770.000000	97.160084 
2769.000000	97.161796 
2768.000000	97.163518 
2767.000000	97.165238 
2766.000000	97.166938 
2765.000000	97.168603 
2764.000000	97.170232 
2763.000000	97.171830 
2762.000000	97.173404 
2761.000000	97.174958 
2760.000000	97.176493 
2759.000000	97.178012 
2758.000000	97.179514 
2757.000000	97.180999 
2756.000000	97.182463 
2755.000000	97.183907 
2754.000000	97.185329 
2753.000000	97.186729 
2752.000000	97.188101 
2751.000000	97.189443 
2750.000000	97.190755 
2749.000000	97.192045 
2748.000000	97.193318 
2747.000000	97.194573 
2746.000000	97.195806 
2745.000000	97.197013 
2744.000000	97.198195 
2743.000000	97.199358 
2742.000000	97.200506 
2741.000000	97.201639 
2740.000000	97.202757 
2739.000000	97.203856 
2738.000000	97.204933 
2737.000000	97.205992 
2736.000000	97.207041 
2735.000000	97.208090 
2734.000000	97.209142 
2733.000000	97.210196 
2732.000000	97.211249 
2731.000000	97.212302 
2730.000000	97.213360 
2729.000000	97.214421 
2728.000000	97.215476 
2727.000000	97.216507 
2726.000000	97.217499 
2725.000000	97.218454 
2724.000000	97.219384 
2723.000000	97.220306 
2722.000000	97.221232 
2721.000000	97.222163 
2720.000000	97.223096 
2719.000000	97.224034 
2718.000000	97.224982 
2717.000000	97.225943 
2716.000000	97.226919 
2715.000000	97.227902 
2714.000000	97.228889 
2713.000000	97.229875 
2712.000000	97.230863 
2711.000000	97.231855 
2710.000000	97.232857 
2709.000000	97.233872 
2708.000000	97.234899 
2707.000000	97.235927 
2706.000000	97.236944 
2705.000000	97.237939 
2704.000000	97.238913 
2703.000000	97.239872 
2702.000000	97.240822 
2701.000000	97.241764 
2700.000000	97.242695 
2699.000000	97.243615 
2698.000000	97.244529 
2697.000000	97.245443 
2696.000000	97.246363 
2695.000000	97.247286 
2694.000000	97.248204 
2693.000000	97.249109 
2692.000000	97.249999 
2691.000000	97.250880 
2690.000000	97.251757 
2689.000000	97.252631 
2688.000000	97.253499 
2687.000000	97.254354 
2686.000000	97.255194 
2685.000000	97.256021 
2684.000000	97.256841 
2683.000000	97.257662 
2682.000000	97.258481 
2681.000000	97.259293 
2680.000000	97.260091 
2679.000000	97.260872 
2678.000000	97.261635 
2677.000000	97.262376 
2676.000000	97.263090 
2675.000000	97.263773 
2674.000000	97.264424 
2673.000000	97.265050 
2672.000000	97.265654 
2671.000000	97.266234 
2670.000000	97.266786 
2669.000000	97.267308 
2668.000000	97.267806 
2667.000000	97.268289 
2666.000000	97.268760 
2665.000000	97.269218 
2664.000000	97.269664 
2663.000000	97.270103 
2662.000000	97.270546 
2661.000000	97.270997 
2660.000000	97.271452 
2659.000000	97.271899 
2658.000000	97.272331 
2657.000000	97.272740 
2656.000000	97.273121 
2655.000000	97.273472 
2654.000000	97.273797 
2653.000000	97.274101 
2652.000000	97.274390 
2651.000000	97.274663 
2650.000000	97.274915 
2649.000000	97.275138 
2648.000000	97.275328 
2647.000000	97.275490 
2646.000000	97.275630 
2645.000000	97.275753 
2644.000000	97.275858 
2643.000000	97.275949 
2642.000000	97.276033 
2641.000000	97.276127 
2640.000000	97.276240 
2639.000000	97.276375 
2638.000000	97.276522 
2637.000000	97.276666 
2636.000000	97.276794 
2635.000000	97.276904 
2634.000000	97.277002 
2633.000000	97.277101 
2632.000000	97.277203 
2631.000000	97.277296 
2630.000000	97.277370 
2629.000000	97.277423 
2628.000000	97.277468 
2627.000000	97.277519 
2626.000000	97.277581 
2625.000000	97.277644 
2624.000000	97.277694 
2623.000000	97.277719 
2622.000000	97.277717 
2621.000000	97.277692 
2620.000000	97.277655 
2619.000000	97.277616 
2618.000000	97.277591 
2617.000000	97.277588 
2616.000000	97.277610 
2615.000000	97.277652 
2614.000000	97.277712 
2613.000000	97.277791 
2612.000000	97.277891 
2611.000000	97.278004 
2610.000000	97.278113 
2609.000000	97.278203 
2608.000000	97.278273 
2607.000000	97.278336 
2606.000000	97.278408 
2605.000000	97.278498 
2604.000000	97.278601 
2603.000000	97.278706 
2602.000000	97.278802 
2601.000000	97.278885 
2600.000000	97.278956 
2599.000000	97.279015 
2598.000000	97.279057 
2597.000000	97.279080 
2596.000000	97.279086 
2595.000000	97.279085 
2594.000000	97.279090 
2593.000000	97.279115 
2592.000000	97.279177 
2591.000000	97.279288 
2590.000000	97.279449 
2589.000000	97.279649 
2588.000000	97.279868 
2587.000000	97.280088 
2586.000000	97.280299 
2585.000000	97.280504 
2584.000000	97.280710 
2583.000000	97.280920 
2582.000000	97.281130 
2581.000000	97.281335 
2580.000000	97.281539 
2579.000000	97.281751 
2578.000000	97.281985 
2577.000000	97.282241 
2576.000000	97.282501 
2575.000000	97.282735 
2574.000000	97.282916 
2573.000000	97.283041 
2572.000000	97.283128 
2571.000000	97.283205 
2570.000000	97.283291 
2569.000000	97.283392 
2568.000000	97.283509 
2567.000000	97.283646 
2566.000000	97.283812 
2565.000000	97.284013 
2564.000000	97.284250 
2563.000000	97.284521 
2562.000000	97.284819 
2561.000000	97.285133 
2560.000000	97.285456 
2559.000000	97.285790 
2558.000000	97.286137 
2557.000000	97.286499 
2556.000000	97.286867 
2555.000000	97.287230 
2554.000000	97.287573 
2553.000000	97.287889 
2552.000000	97.288175 
2551.000000	97.288438 
2550.000000	97.288682 
2549.000000	97.288903 
2548.000000	97.289072 
2547.000000	97.289164 
2546.000000	97.289192 
2545.000000	97.289209 
2544.000000	97.289270 
2543.000000	97.289395 
2542.000000	97.289566 
2541.000000	97.289746 
2540.000000	97.289928 
2539.000000	97.290137 
2538.000000	97.290390 
2537.000000	97.290674 
2536.000000	97.290963 
2535.000000	97.291231 
2534.000000	97.291461 
2533.000000	97.291664 
2532.000000	97.291870 
2531.000000	97.292111 
2530.000000	97.292397 
2529.000000	97.292712 
2528.000000	97.293032 
2527.000000	97.293345 
2526.000000	97.293656 
2525.000000	97.293972 
2524.000000	97.294292 
2523.000000	97.294609 
2522.000000	97.294914 
2521.000000	97.295201 
2520.000000	97.295470 
2519.000000	97.295729 
2518.000000	97.295986 
2517.000000	97.296250 
2516.000000	97.296526 
2515.000000	97.296816 
2514.000000	97.297127 
2513.000000	97.297464 
2512.000000	97.297830 
2511.000000	97.298223 
2510.000000	97.298641 
2509.000000	97.299080 
2508.000000	97.299528 
2507.000000	97.299977 
2506.000000	97.300423 
2505.000000	97.300883 
2504.000000	97.301367 
2503.000000	97.301872 
2502.000000	97.302374 
2501.000000	97.302862 
2500.000000	97.303342 
2499.000000	97.303824 
2498.000000	97.304303 
2497.000000	97.304756 
2496.000000	97.305171 
2495.000000	97.305559 
2494.000000	97.305942 
2493.000000	97.306331 
2492.000000	97.306724 
2491.000000	97.307111 
2490.000000	97.307488 
2489.000000	97.307862 
2488.000000	97.308240 
2487.000000	97.308625 
2486.000000	97.309007 
2485.000000	97.309367 
2484.000000	97.309683 
2483.000000	97.309948 
2482.000000	97.310175 
2481.000000	97.310391 
2480.000000	97.310611 
2479.000000	97.310835 
2478.000000	97.311049 
2477.000000	97.311244 
2476.000000	97.311425 
2475.000000	97.311606 
2474.000000	97.311792 
2473.000000	97.311981 
2472.000000	97.312155 
2471.000000	97.312303 
2470.000000	97.312431 
2469.000000	97.312559 
2468.000000	97.312709 
2467.000000	97.312889 
2466.000000	97.313094 
2465.000000	97.313316 
2464.000000	97.313552 
2463.000000	97.313800 
2462.000000	97.314053 
2461.000000	97.314311 
2460.000000	97.314577 
2459.000000	97.314841 
2458.000000	97.315053 
2457.000000	97.315171 
2456.000000	97.315202 
2455.000000	97.315215 
2454.000000	97.315293 
2453.000000	97.315474 
2452.000000	97.315737 
2451.000000	97.316029 
2450.000000	97.316336 
2449.000000	97.316693 
2448.000000	97.317116 
2447.000000	97.317576 
2446.000000	97.318022 
2445.000000	97.318433 
2444.000000	97.318815 
2443.000000	97.319201 
2442.000000	97.319630 
2441.000000	97.320124 
2440.000000	97.320679 
2439.000000	97.321259 
2438.000000	97.321836 
2437.000000	97.322412 
2436.000000	97.323016 
2435.000000	97.323659 
2434.000000	97.324311 
2433.000000	97.324936 
2432.000000	97.325536 
2431.000000	97.326141 
2430.000000	97.326788 
2429.000000	97.327488 
2428.000000	97.328239 
2427.000000	97.329020 
2426.000000	97.329806 
2425.000000	97.330589 
2424.000000	97.331371 
2423.000000	97.332165 
2422.000000	97.332989 
2421.000000	97.333852 
2420.000000	97.334757 
2419.000000	97.335695 
2418.000000	97.336620 
2417.000000	97.337475 
2416.000000	97.338278 
2415.000000	97.339182 
2414.000000	97.340366 
2413.000000	97.341834 
2412.000000	97.343386 
2411.000000	97.344766 
2410.000000	97.345802 
2409.000000	97.346555 
2408.000000	97.347225 
2407.000000	97.347913 
2406.000000	97.348424 
2405.000000	97.348553 
2404.000000	97.348524 
2403.000000	97.348825 
2402.000000	97.349639 
2401.000000	97.350799 
2400.000000	97.352254 
2399.000000	97.354131 
2398.000000	97.356341 
2397.000000	97.358631 
2396.000000	97.360934 
2395.000000	97.363102 
2394.000000	97.364500 
2393.000000	97.364863 
2392.000000	97.364924 
2391.000000	97.365764 
2390.000000	97.367481 
2389.000000	97.369290 
2388.000000	97.370633 
2387.000000	97.371636 
2386.000000	97.372632 
2385.000000	97.373706 
2384.000000	97.374765 
2383.000000	97.375737 
2382.000000	97.376636 
2381.000000	97.377516 
2380.000000	97.378397 
2379.000000	97.379254 
2378.000000	97.380083 
2377.000000	97.380896 
2376.000000	97.381706 
2375.000000	97.382528 
2374.000000	97.383374 
2373.000000	97.384242 
2372.000000	97.385122 
2371.000000	97.386000 
2370.000000	97.386855 
2369.000000	97.387666 
2368.000000	97.388413 
2367.000000	97.389096 
2366.000000	97.389735 
2365.000000	97.390357 
2364.000000	97.390980 
2363.000000	97.391598 
2362.000000	97.392199 
2361.000000	97.392772 
2360.000000	97.393308 
2359.000000	97.393801 
2358.000000	97.394240 
2357.000000	97.394613 
2356.000000	97.394915 
2355.000000	97.395155 
2354.000000	97.395367 
2353.000000	97.395600 
2352.000000	97.395900 
2351.000000	97.396274 
2350.000000	97.396674 
2349.000000	97.397027 
2348.000000	97.397300 
2347.000000	97.397511 
2346.000000	97.397707 
2345.000000	97.397910 
2344.000000	97.398111 
2343.000000	97.398291 
2342.000000	97.398455 
2341.000000	97.398624 
2340.000000	97.398818 
2339.000000	97.399035 
2338.000000	97.399257 
2337.000000	97.399466 
2336.000000	97.399662 
2335.000000	97.399848 
2334.000000	97.400022 
2333.000000	97.400168 
2332.000000	97.400271 
2331.000000	97.400324 
2330.000000	97.400326 
2329.000000	97.400291 
2328.000000	97.400238 
2327.000000	97.400188 
2326.000000	97.400149 
2325.000000	97.400118 
2324.000000	97.400085 
2323.000000	97.400037 
2322.000000	97.399961 
2321.000000	97.399845 
2320.000000	97.399680 
2319.000000	97.399464 
2318.000000	97.399195 
2317.000000	97.398868 
2316.000000	97.398488 
2315.000000	97.398066 
2314.000000	97.397614 
2313.000000	97.397142 
2312.000000	97.396645 
2311.000000	97.396103 
2310.000000	97.395488 
2309.000000	97.394784 
2308.000000	97.394029 
2307.000000	97.393271 
2306.000000	97.392541 
2305.000000	97.391696 
2304.000000	97.390627 
2303.000000	97.389416 
2302.000000	97.388331 
2301.000000	97.387465 
2300.000000	97.386647 
2299.000000	97.385614 
2298.000000	97.384270 
2297.000000	97.382691 
2296.000000	97.381086 
2295.000000	97.379638 
2294.000000	97.378382 
2293.000000	97.377176 
2292.000000	97.375835 
2291.000000	97.374322 
2290.000000	97.372783 
2289.000000	97.371358 
2288.000000	97.370045 
2287.000000	97.368713 
2286.000000	97.367249 
2285.000000	97.365639 
2284.000000	97.363964 
2283.000000	97.362310 
2282.000000	97.360681 
2281.000000	97.359019 
2280.000000	97.357289 
2279.000000	97.355529 
2278.000000	97.353799 
2277.000000	97.352149 
2276.000000	97.350586 
2275.000000	97.349092 
2274.000000	97.347634 
2273.000000	97.346192 
2272.000000	97.344788 
2271.000000	97.343429 
2270.000000	97.342103 
2269.000000	97.340790 
2268.000000	97.339474 
2267.000000	97.338152 
2266.000000	97.336840 
2265.000000	97.335555 
2264.000000	97.334308 
2263.000000	97.333098 
2262.000000	97.331909 
2261.000000	97.330726 
2260.000000	97.329546 
2259.000000	97.328388 
2258.000000	97.327275 
2257.000000	97.326221 
2256.000000	97.325218 
2255.000000	97.324241 
2254.000000	97.323262 
2253.000000	97.322258 
2252.000000	97.321224 
2251.000000	97.320163 
2250.000000	97.319083 
2249.000000	97.317988 
2248.000000	97.316891 
2247.000000	97.315830 
2246.000000	97.314846 
2245.000000	97.313956 
2244.000000	97.313142 
2243.000000	97.312367 
2242.000000	97.311606 
2241.000000	97.310856 
2240.000000	97.310137 
2239.000000	97.309468 
2238.000000	97.308845 
2237.000000	97.308234 
2236.000000	97.307597 
2235.000000	97.306919 
2234.000000	97.306218 
2233.000000	97.305518 
2232.000000	97.304824 
2231.000000	97.304112 
2230.000000	97.303347 
2229.000000	97.302511 
2228.000000	97.301615 
2227.000000	97.300692 
2226.000000	97.299772 
2225.000000	97.298857 
2224.000000	97.297931 
2223.000000	97.296988 
2222.000000	97.296042 
2221.000000	97.295116 
2220.000000	97.294223 
2219.000000	97.293353 
2218.000000	97.292480 
2217.000000	97.291570 
2216.000000	97.290599 
2215.000000	97.289573 
2214.000000	97.288520 
2213.000000	97.287476 
2212.000000	97.286475 
2211.000000	97.285536 
2210.000000	97.284669 
2209.000000	97.283878 
2208.000000	97.283168 
2207.000000	97.282536 
2206.000000	97.281954 
2205.000000	97.281360 
2204.000000	97.280678 
2203.000000	97.279872 
2202.000000	97.278961 
2201.000000	97.278000 
2200.000000	97.277031 
2199.000000	97.276060 
2198.000000	97.275066 
2197.000000	97.274034 
2196.000000	97.272984 
2195.000000	97.271970 
2194.000000	97.271043 
2193.000000	97.270207 
2192.000000	97.269418 
2191.000000	97.268619 
2190.000000	97.267797 
2189.000000	97.266998 
2188.000000	97.266294 
2187.000000	97.265728 
2186.000000	97.265280 
2185.000000	97.264896 
2184.000000	97.264547 
2183.000000	97.264262 
2182.000000	97.264099 
2181.000000	97.264080 
2180.000000	97.264159 
2179.000000	97.264261 
2178.000000	97.264337 
2177.000000	97.264405 
2176.000000	97.264529 
2175.000000	97.264773 
2174.000000	97.265164 
2173.000000	97.265687 
2172.000000	97.266304 
2171.000000	97.266984 
2170.000000	97.267711 
2169.000000	97.268482 
2168.000000	97.269292 
2167.000000	97.270129 
2166.000000	97.270978 
2165.000000	97.271828 
2164.000000	97.272700 
2163.000000	97.273649 
2162.000000	97.274751 
2161.000000	97.276048 
2160.000000	97.277534 
2159.000000	97.279163 
2158.000000	97.280893 
2157.000000	97.282715 
2156.000000	97.284632 
2155.000000	97.286633 
2154.000000	97.288684 
2153.000000	97.290732 
2152.000000	97.292749 
2151.000000	97.294742 
2150.000000	97.296756 
2149.000000	97.298834 
2148.000000	97.300984 
2147.000000	97.303178 
2146.000000	97.305369 
2145.000000	97.307540 
2144.000000	97.309712 
2143.000000	97.311929 
2142.000000	97.314204 
2141.000000	97.316496 
2140.000000	97.318738 
2139.000000	97.320899 
2138.000000	97.323012 
2137.000000	97.325139 
2136.000000	97.327317 
2135.000000	97.329531 
2134.000000	97.331732 
2133.000000	97.333883 
2132.000000	97.335984 
2131.000000	97.338061 
2130.000000	97.340134 
2129.000000	97.342200 
2128.000000	97.344228 
2127.000000	97.346188 
2126.000000	97.348069 
2125.000000	97.349886 
2124.000000	97.351661 
2123.000000	97.353406 
2122.000000	97.355115 
2121.000000	97.356764 
2120.000000	97.358330 
2119.000000	97.359810 
2118.000000	97.361217 
2117.000000	97.362570 
2116.000000	97.363874 
2115.000000	97.365121 
2114.000000	97.366301 
2113.000000	97.367425 
2112.000000	97.368531 
2111.000000	97.369663 
2110.000000	97.370837 
2109.000000	97.372031 
2108.000000	97.373198 
2107.000000	97.374310 
2106.000000	97.375366 
2105.000000	97.376384 
2104.000000	97.377367 
2103.000000	97.378295 
2102.000000	97.379138 
2101.000000	97.379883 
2100.000000	97.380554 
2099.000000	97.381207 
2098.000000	97.381896 
2097.000000	97.382627 
2096.000000	97.383362 
2095.000000	97.384054 
2094.000000	97.384694 
2093.000000	97.385311 
2092.000000	97.385941 
2091.000000	97.386586 
2090.000000	97.387213 
2089.000000	97.387784 
2088.000000	97.388290 
2087.000000	97.388753 
2086.000000	97.389207 
2085.000000	97.389669 
2084.000000	97.390134 
2083.000000	97.390592 
2082.000000	97.391044 
2081.000000	97.391513 
2080.000000	97.392023 
2079.000000	97.392581 
2078.000000	97.393156 
2077.000000	97.393693 
2076.000000	97.394155 
2075.000000	97.394549 
2074.000000	97.394922 
2073.000000	97.395316 
2072.000000	97.395747 
2071.000000	97.396194 
2070.000000	97.396632 
2069.000000	97.397047 
2068.000000	97.397455 
2067.000000	97.397878 
2066.000000	97.398323 
2065.000000	97.398773 
2064.000000	97.399208 
2063.000000	97.399647 
2062.000000	97.400147 
2061.000000	97.400776 
2060.000000	97.401559 
2059.000000	97.402457 
2058.000000	97.403388 
2057.000000	97.404274 
2056.000000	97.405084 
2055.000000	97.405834 
2054.000000	97.406566 
2053.000000	97.407302 
2052.000000	97.408025 
2051.000000	97.408695 
2050.000000	97.409286 
2049.000000	97.409821 
2048.000000	97.410359 
2047.000000	97.410957 
2046.000000	97.411626 
2045.000000	97.412327 
2044.000000	97.413022 
2043.000000	97.413719 
2042.000000	97.414459 
2041.000000	97.415269 
2040.000000	97.416120 
2039.000000	97.416939 
2038.000000	97.417657 
2037.000000	97.418246 
2036.000000	97.418738 
2035.000000	97.419199 
2034.000000	97.419684 
2033.000000	97.420191 
2032.000000	97.420670 
2031.000000	97.421068 
2030.000000	97.421375 
2029.000000	97.421614 
2028.000000	97.421807 
2027.000000	97.421943 
2026.000000	97.421989 
2025.000000	97.421926 
2024.000000	97.421781 
2023.000000	97.421620 
2022.000000	97.421496 
2021.000000	97.421390 
2020.000000	97.421218 
2019.000000	97.420879 
2018.000000	97.420340 
2017.000000	97.419651 
2016.000000	97.418909 
2015.000000	97.418187 
2014.000000	97.417494 
2013.000000	97.416793 
2012.000000	97.416054 
2011.000000	97.415295 
2010.000000	97.414563 
2009.000000	97.413891 
2008.000000	97.413256 
2007.000000	97.412597 
2006.000000	97.411850 
2005.000000	97.410983 
2004.000000	97.410016 
2003.000000	97.409002 
2002.000000	97.407984 
2001.000000	97.406948 
2000.000000	97.405837 
1999.000000	97.404610 
1998.000000	97.403304 
1997.000000	97.402016 
1996.000000	97.400836 
1995.000000	97.399795 
1994.000000	97.398867 
1993.000000	97.398001 
1992.000000	97.397157 
1991.000000	97.396320 
1990.000000	97.395497 
1989.000000	97.394696 
1988.000000	97.393910 
1987.000000	97.393122 
1986.000000	97.392335 
1985.000000	97.391582 
1984.000000	97.390907 
1983.000000	97.390317 
1982.000000	97.389775 
1981.000000	97.389229 
1980.000000	97.388655 
1979.000000	97.388075 
1978.000000	97.387530 
1977.000000	97.387038 
1976.000000	97.386580 
1975.000000	97.386124 
1974.000000	97.385652 
1973.000000	97.385174 
1972.000000	97.384727 
1971.000000	97.384342 
1970.000000	97.384009 
1969.000000	97.383684 
1968.000000	97.383320 
1967.000000	97.382925 
1966.000000	97.382569 
1965.000000	97.382341 
1964.000000	97.382286 
1963.000000	97.382381 
1962.000000	97.382551 
1961.000000	97.382717 
1960.000000	97.382846 
1959.000000	97.382956 
1958.000000	97.383100 
1957.000000	97.383305 
1956.000000	97.383548 
1955.000000	97.383762 
1954.000000	97.383888 
1953.000000	97.383916 
1952.000000	97.383875 
1951.000000	97.383798 
1950.000000	97.383695 
1949.000000	97.383568 
1948.000000	97.383438 
1947.000000	97.383342 
1946.000000	97.383304 
1945.000000	97.383323 
1944.000000	97.383370 
1943.000000	97.383411 
1942.000000	97.383425 
1941.000000	97.383418 
1940.000000	97.383416 
1939.000000	97.383442 
1938.000000	97.383483 
1937.000000	97.383497 
1936.000000	97.383448 
1935.000000	97.383339 
1934.000000	97.383206 
1933.000000	97.383088 
1932.000000	97.382991 
1931.000000	97.382886 
1930.000000	97.382725 
1929.000000	97.382476 
1928.000000	97.382149 
1927.000000	97.381782 
1926.000000	97.381404 
1925.000000	97.381002 
1924.000000	97.380524 
1923.000000	97.379919 
1922.000000	97.379178 
1921.000000	97.378330 
1920.000000	97.377420 
1919.000000	97.376483 
1918.000000	97.375526 
1917.000000	97.374534 
1916.000000	97.373498 
1915.000000	97.372426 
1914.000000	97.371343 
1913.000000	97.370267 
1912.000000	97.369196 
1911.000000	97.368115 
1910.000000	97.367010 
1909.000000	97.365884 
1908.000000	97.364755 
1907.000000	97.363643 
1906.000000	97.362540 
1905.000000	97.361409 
1904.000000	97.360216 
1903.000000	97.358965 
1902.000000	97.357695 
1901.000000	97.356441 
1900.000000	97.355208 
1899.000000	97.353978 
1898.000000	97.352729 
1897.000000	97.351456 
1896.000000	97.350171 
1895.000000	97.348906 
1894.000000	97.347690 
1893.000000	97.346544 
1892.000000	97.345469 
1891.000000	97.344456 
1890.000000	97.343505 
1889.000000	97.342621 
1888.000000	97.341816 
1887.000000	97.341094 
1886.000000	97.340444 
1885.000000	97.339844 
1884.000000	97.339284 
1883.000000	97.338772 
1882.000000	97.338338 
1881.000000	97.338005 
1880.000000	97.337781 
1879.000000	97.337655 
1878.000000	97.337614 
1877.000000	97.337658 
1876.000000	97.337805 
1875.000000	97.338075 
1874.000000	97.338466 
1873.000000	97.338951 
1872.000000	97.339498 
1871.000000	97.340094 
1870.000000	97.340754 
1869.000000	97.341491 
1868.000000	97.342320 
1867.000000	97.343237 
1866.000000	97.344232 
1865.000000	97.345276 
1864.000000	97.346316 
1863.000000	97.347371 
1862.000000	97.348555 
1861.000000	97.349899 
1860.000000	97.351221 
1859.000000	97.352391 
1858.000000	97.353575 
1857.000000	97.354998 
1856.000000	97.356660 
1855.000000	97.358404 
1854.000000	97.360098 
1853.000000	97.361661 
1852.000000	97.363168 
1851.000000	97.364884 
1850.000000	97.366961 
1849.000000	97.369238 
1848.000000	97.371296 
1847.000000	97.372930 
1846.000000	97.374281 
1845.000000	97.375644 
1844.000000	97.377212 
1843.000000	97.379005 
1842.000000	97.380831 
1841.000000	97.382435 
1840.000000	97.383861 
1839.000000	97.385403 
1838.000000	97.387269 
1837.000000	97.389199 
1836.000000	97.390686 
1835.000000	97.391644 
1834.000000	97.392385 
1833.000000	97.393138 
1832.000000	97.393936 
1831.000000	97.394753 
1830.000000	97.395596 
1829.000000	97.396524 
1828.000000	97.397467 
1827.000000	97.398313 
1826.000000	97.399046 
1825.000000	97.399740 
1824.000000	97.400450 
1823.000000	97.401131 
1822.000000	97.401720 
1821.000000	97.402208 
1820.000000	97.402632 
1819.000000	97.403042 
1818.000000	97.403467 
1817.000000	97.403901 
1816.000000	97.404321 
1815.000000	97.404717 
1814.000000	97.405086 
1813.000000	97.405431 
1812.000000	97.405750 
1811.000000	97.406037 
1810.000000	97.406291 
1809.000000	97.406516 
1808.000000	97.406715 
1807.000000	97.406899 
1806.000000	97.407084 
1805.000000	97.407284 
1804.000000	97.407493 
1803.000000	97.407700 
1802.000000	97.407906 
1801.000000	97.408128 
1800.000000	97.408385 
1799.000000	97.408679 
1798.000000	97.409001 
1797.000000	97.409339 
1796.000000	97.409689 
1795.000000	97.410045 
1794.000000	97.410412 
1793.000000	97.410817 
1792.000000	97.411242 
1791.000000	97.411598 
1790.000000	97.411890 
1789.000000	97.412293 
1788.000000	97.412933 
1787.000000	97.413754 
1786.000000	97.414589 
1785.000000	97.415327 
1784.000000	97.415893 
1783.000000	97.416298 
1782.000000	97.416613 
1781.000000	97.416974 
1780.000000	97.417607 
1779.000000	97.418586 
1778.000000	97.419818 
1777.000000	97.421001 
1776.000000	97.421914 
1775.000000	97.422699 
1774.000000	97.423524 
1773.000000	97.424312 
1772.000000	97.424990 
1771.000000	97.425418 
1770.000000	97.425406 
1769.000000	97.425151 
1768.000000	97.425109 
1767.000000	97.425601 
1766.000000	97.426553 
1765.000000	97.427736 
1764.000000	97.429038 
1763.000000	97.430093 
1762.000000	97.430482 
1761.000000	97.430659 
1760.000000	97.431269 
1759.000000	97.432029 
1758.000000	97.432241 
1757.000000	97.431440 
1756.000000	97.430700 
1755.000000	97.430562 
1754.000000	97.429739 
1753.000000	97.427100 
1752.000000	97.423457 
1751.000000	97.421441 
1750.000000	97.422521 
1749.000000	97.424856 
1748.000000	97.425503 
1747.000000	97.423871 
1746.000000	97.420542 
1745.000000	97.417022 
1744.000000	97.415331 
1743.000000	97.415586 
1742.000000	97.415657 
1741.000000	97.413917 
1740.000000	97.410903 
1739.000000	97.408616 
1738.000000	97.407665 
1737.000000	97.407410 
1736.000000	97.407085 
1735.000000	97.403348 
1734.000000	97.394540 
1733.000000	97.385728 
1732.000000	97.380739 
1731.000000	97.379722 
1730.000000	97.382285 
1729.000000	97.384901 
1728.000000	97.385111 
1727.000000	97.382753 
1726.000000	97.378691 
1725.000000	97.373871 
1724.000000	97.369107 
1723.000000	97.364373 
1722.000000	97.359965 
1721.000000	97.355521 
1720.000000	97.350612 
1719.000000	97.343288 
1718.000000	97.333064 
1717.000000	97.324217 
1716.000000	97.315917 
1715.000000	97.304980 
1714.000000	97.295572 
1713.000000	97.290877 
1712.000000	97.288154 
1711.000000	97.284871 
1710.000000	97.280994 
1709.000000	97.275518 
1708.000000	97.266982 
1707.000000	97.256153 
1706.000000	97.246184 
1705.000000	97.238671 
1704.000000	97.228758 
1703.000000	97.213754 
1702.000000	97.196295 
1701.000000	97.180897 
1700.000000	97.170630 
1699.000000	97.162706 
1698.000000	97.154853 
1697.000000	97.147401 
1696.000000	97.138441 
1695.000000	97.127598 
1694.000000	97.117107 
1693.000000	97.107731 
1692.000000	97.099203 
1691.000000	97.090033 
1690.000000	97.078836 
1689.000000	97.065163 
1688.000000	97.050600 
1687.000000	97.037740 
1686.000000	97.028262 
1685.000000	97.020340 
1684.000000	97.009092 
1683.000000	96.994939 
1682.000000	96.980547 
1681.000000	96.966176 
1680.000000	96.953901 
1679.000000	96.944358 
1678.000000	96.936160 
1677.000000	96.925622 
1676.000000	96.910991 
1675.000000	96.895062 
1674.000000	96.881357 
1673.000000	96.869809 
1672.000000	96.859844 
1671.000000	96.849616 
1670.000000	96.835393 
1669.000000	96.816824 
1668.000000	96.801050 
1667.000000	96.792387 
1666.000000	96.786456 
1665.000000	96.778034 
1664.000000	96.764775 
1663.000000	96.749162 
1662.000000	96.735501 
1661.000000	96.722217 
1660.000000	96.709095 
1659.000000	96.698056 
1658.000000	96.688916 
1657.000000	96.676805 
1656.000000	96.664244 
1655.000000	96.654926 
1654.000000	96.636278 
1653.000000	96.603624 
1652.000000	96.578144 
1651.000000	96.562388 
1650.000000	96.547905 
1649.000000	96.540602 
1648.000000	96.534789 
1647.000000	96.527523 
1646.000000	96.517125 
1645.000000	96.505671 
1644.000000	96.490634 
1643.000000	96.479346 
1642.000000	96.478138 
1641.000000	96.484752 
1640.000000	96.491086 
1639.000000	96.490152 
1638.000000	96.481974 
1637.000000	96.467030 
1636.000000	96.448838 
1635.000000	96.442010 
1634.000000	96.447863 
1633.000000	96.451655 
1632.000000	96.447372 
1631.000000	96.442007 
1630.000000	96.444931 
1629.000000	96.456481 
1628.000000	96.469293 
1627.000000	96.479692 
1626.000000	96.488448 
1625.000000	96.496199 
1624.000000	96.503854 
1623.000000	96.515218 
1622.000000	96.531048 
1621.000000	96.542921 
1620.000000	96.547453 
1619.000000	96.551461 
1618.000000	96.561950 
1617.000000	96.576394 
1616.000000	96.588155 
1615.000000	96.596729 
1614.000000	96.602863 
1613.000000	96.606847 
1612.000000	96.610984 
1611.000000	96.620973 
1610.000000	96.638353 
1609.000000	96.656196 
1608.000000	96.668039 
1607.000000	96.675456 
1606.000000	96.682873 
1605.000000	96.692508 
1604.000000	96.706041 
1603.000000	96.722176 
1602.000000	96.735681 
1601.000000	96.742767 
1600.000000	96.746307 
1599.000000	96.752658 
1598.000000	96.764047 
1597.000000	96.777212 
1596.000000	96.787958 
1595.000000	96.795360 
1594.000000	96.801458 
1593.000000	96.808551 
1592.000000	96.817383 
1591.000000	96.827033 
1590.000000	96.836376 
1589.000000	96.845441 
1588.000000	96.854582 
1587.000000	96.863660 
1586.000000	96.872684 
1585.000000	96.881652 
1584.000000	96.890548 
1583.000000	96.899359 
1582.000000	96.908082 
1581.000000	96.916725 
1580.000000	96.925300 
1579.000000	96.933815 
1578.000000	96.942260 
1577.000000	96.950604 
1576.000000	96.958820 
1575.000000	96.966914 
1574.000000	96.974912 
1573.000000	96.982837 
1572.000000	96.990686 
1571.000000	96.998440 
1570.000000	97.006069 
1569.000000	97.013557 
1568.000000	97.020919 
1567.000000	97.028185 
1566.000000	97.035372 
1565.000000	97.042471 
1564.000000	97.049465 
1563.000000	97.056343 
1562.000000	97.063113 
1561.000000	97.069787 
1560.000000	97.076372 
1559.000000	97.082859 
1558.000000	97.089226 
1557.000000	97.095448 
1556.000000	97.101524 
1555.000000	97.107494 
1554.000000	97.113390 
1553.000000	97.119216 
1552.000000	97.124940 
1551.000000	97.130521 
1550.000000	97.135938 
1549.000000	97.141202 
1548.000000	97.146331 
1547.000000	97.151333 
1546.000000	97.156192 
1545.000000	97.160876 
1544.000000	97.165365 
1543.000000	97.169669 
1542.000000	97.173821 
1541.000000	97.177842 
1540.000000	97.181717 
1539.000000	97.185408 
1538.000000	97.188892 
1537.000000	97.192184 
1536.000000	97.195324 
1535.000000	97.198356 
1534.000000	97.201307 
1533.000000	97.204168 
1532.000000	97.206906 
1531.000000	97.209501 
1530.000000	97.211961 
1529.000000	97.214304 
1528.000000	97.216535 
1527.000000	97.218644 
1526.000000	97.220613 
1525.000000	97.222423 
1524.000000	97.224077 
1523.000000	97.225594 
1522.000000	97.226993 
1521.000000	97.228272 
1520.000000	97.229407 
1519.000000	97.230378 
1518.000000	97.231192 
1517.000000	97.231885 
1516.000000	97.232494 
1515.000000	97.233028 
1514.000000	97.233468 
1513.000000	97.233782 
1512.000000	97.233941 
1511.000000	97.233941 
1510.000000	97.233807 
1509.000000	97.233569 
1508.000000	97.233238 
1507.000000	97.232798 
1506.000000	97.232245 
1505.000000	97.231592 
1504.000000	97.230849 
1503.000000	97.230033 
1502.000000	97.229145 
1501.000000	97.228170 
1500.000000	97.227079 
1499.000000	97.225851 
1498.000000	97.224498 
1497.000000	97.223063 
1496.000000	97.221572 
1495.000000	97.220000 
1494.000000	97.218294 
1493.000000	97.216420 
1492.000000	97.214371 
1491.000000	97.212163 
1490.000000	97.209807 
1489.000000	97.207300 
1488.000000	97.204616 
1487.000000	97.201739 
1486.000000	97.198690 
1485.000000	97.195511 
1484.000000	97.192233 
1483.000000	97.188858 
1482.000000	97.185363 
1481.000000	97.181718 
1480.000000	97.177914 
1479.000000	97.173965 
1478.000000	97.169899 
1477.000000	97.165732 
1476.000000	97.161450 
1475.000000	97.157020 
1474.000000	97.152426 
1473.000000	97.147692 
1472.000000	97.142871 
1471.000000	97.137998 
1470.000000	97.133064 
1469.000000	97.128044 
1468.000000	97.122919 
1467.000000	97.117695 
1466.000000	97.112402 
1465.000000	97.107077 
1464.000000	97.101734 
1463.000000	97.096340 
1462.000000	97.090864 
1461.000000	97.085305 
1460.000000	97.079691 
1459.000000	97.074051 
1458.000000	97.068406 
1457.000000	97.062766 
1456.000000	97.057138 
1455.000000	97.051513 
1454.000000	97.045896 
1453.000000	97.040320 
1452.000000	97.034822 
1451.000000	97.029414 
1450.000000	97.024074 
1449.000000	97.018777 
1448.000000	97.013527 
1447.000000	97.008354 
1446.000000	97.003301 
1445.000000	96.998392 
1444.000000	96.993619 
1443.000000	96.988959 
1442.000000	96.984403 
1441.000000	96.979927 
1440.000000	96.975571 
1439.000000	96.971508 
1438.000000	96.967798 
1437.000000	96.964150 
1436.000000	96.960216 
1435.000000	96.956093 
1434.000000	96.952264 
1433.000000	96.949369 
1432.000000	96.947761 
1431.000000	96.946881 
1430.000000	96.945365 
1429.000000	96.942609 
1428.000000	96.939563 
1427.000000	96.937781 
1426.000000	96.937916 
1425.000000	96.939209 
1424.000000	96.940256 
1423.000000	96.939751 
1422.000000	96.937567 
1421.000000	96.935458 
1420.000000	96.935951 
1419.000000	96.939157 
1418.000000	96.941657 
1417.000000	96.941287 
1416.000000	96.939559 
1415.000000	96.939194 
1414.000000	96.941339 
1413.000000	96.945479 
1412.000000	96.950227 
1411.000000	96.953722 
1410.000000	96.954853 
1409.000000	96.955247 
1408.000000	96.957965 
1407.000000	96.964338 
1406.000000	96.972768 
1405.000000	96.980456 
1404.000000	96.986690 
1403.000000	96.992429 
1402.000000	96.998759 
1401.000000	97.006514 
1400.000000	97.015761 
1399.000000	97.025144 
1398.000000	97.032860 
1397.000000	97.038766 
1396.000000	97.044394 
1395.000000	97.051494 
1394.000000	97.060268 
1393.000000	97.069552 
1392.000000	97.078346 
1391.000000	97.086558 
1390.000000	97.094573 
1389.000000	97.102754 
1388.000000	97.111174 
1387.000000	97.119632 
1386.000000	97.127980 
1385.000000	97.136311 
1384.000000	97.144774 
1383.000000	97.153398 
1382.000000	97.162122 
1381.000000	97.170892 
1380.000000	97.179672 
1379.000000	97.188431 
1378.000000	97.197163 
1377.000000	97.205885 
1376.000000	97.214615 
1375.000000	97.223340 
1374.000000	97.232014 
1373.000000	97.240588 
1372.000000	97.249046 
1371.000000	97.257406 
1370.000000	97.265690 
1369.000000	97.273895 
1368.000000	97.281983 
1367.000000	97.289904 
1366.000000	97.297619 
1365.000000	97.305119 
1364.000000	97.312424 
1363.000000	97.319554 
1362.000000	97.326506 
1361.000000	97.333253 
1360.000000	97.339769 
1359.000000	97.346058 
1358.000000	97.352150 
1357.000000	97.358071 
1356.000000	97.363819 
1355.000000	97.369360 
1354.000000	97.374657 
1353.000000	97.379691 
1352.000000	97.384475 
1351.000000	97.389039 
1350.000000	97.393399 
1349.000000	97.397543 
1348.000000	97.401443 
1347.000000	97.405089 
1346.000000	97.408502 
1345.000000	97.411718 
1344.000000	97.414752 
1343.000000	97.417582 
1342.000000	97.420154 
1341.000000	97.422422 
1340.000000	97.424385 
1339.000000	97.426088 
1338.000000	97.427586 
1337.000000	97.428899 
1336.000000	97.430006 
1335.000000	97.430870 
1334.000000	97.431492 
1333.000000	97.431921 
1332.000000	97.432229 
1331.000000	97.432468 
1330.000000	97.432650 
1329.000000	97.432755 
1328.000000	97.432774 
1327.000000	97.432732 
1326.000000	97.432681 
1325.000000	97.432662 
1324.000000	97.432677 
1323.000000	97.432693 
1322.000000	97.432674 
1321.000000	97.432616 
1320.000000	97.432550 
1319.000000	97.432518 
1318.000000	97.432533 
1317.000000	97.432568 
1316.000000	97.432574 
1315.000000	97.432526 
1314.000000	97.432450 
1313.000000	97.432399 
1312.000000	97.432411 
1311.000000	97.432474 
1310.000000	97.432536 
1309.000000	97.432554 
1308.000000	97.432528 
1307.000000	97.432501 
1306.000000	97.432514 
1305.000000	97.432571 
1304.000000	97.432629 
1303.000000	97.432643 
1302.000000	97.432596 
1301.000000	97.432523 
1300.000000	97.432478 
1299.000000	97.432494 
1298.000000	97.432554 
1297.000000	97.432608 
1296.000000	97.432617 
1295.000000	97.432586 
1294.000000	97.432557 
1293.000000	97.432568 
1292.000000	97.432614 
1291.000000	97.432651 
1290.000000	97.432637 
1289.000000	97.432574 
1288.000000	97.432502 
1287.000000	97.432465 
1286.000000	97.432473 
1285.000000	97.432493 
1284.000000	97.432482 
1283.000000	97.432424 
1282.000000	97.432341 
1281.000000	97.432272 
1280.000000	97.432238 
1279.000000	97.432212 
1278.000000	97.432144 
1277.000000	97.431993 
1276.000000	97.431766 
1275.000000	97.431470 
1274.000000	97.431424 
1273.000000	97.432436 
1272.000000	97.434260 
1271.000000	97.434915 
1270.000000	97.432507 
1269.000000	97.428128 
1268.000000	97.426415 
1267.000000	97.431276 
1266.000000	97.439994 
1265.000000	97.443755 
1264.000000	97.436645 
1263.000000	97.423323 
1262.000000	97.416242 
1261.000000	97.423728 
1260.000000	97.441206 
1259.000000	97.454080 
1258.000000	97.450300 
1257.000000	97.431534 
1256.000000	97.413356 
1255.000000	97.412642 
1254.000000	97.431813 
1253.000000	97.454928 
1252.000000	97.460823 
1251.000000	97.441974 
1250.000000	97.412449 
1249.000000	97.397529 
1248.000000	97.412057 
1247.000000	97.445861 
1246.000000	97.470324 
1245.000000	97.463502 
1244.000000	97.430498 
1243.000000	97.399683 
1242.000000	97.397298 
1241.000000	97.424514 
1240.000000	97.457676 
1239.000000	97.469225 
1238.000000	97.450423 
1237.000000	97.417523 
1236.000000	97.396476 
1235.000000	97.398733 
1234.000000	97.411088 
1233.000000	97.410100 
1232.000000	97.385588 
1231.000000	97.349213 
1230.000000	97.322241 
1229.000000	97.315989 
1228.000000	97.322261 
1227.000000	97.320188 
1226.000000	97.293792 
1225.000000	97.246431 
1224.000000	97.198215 
1223.000000	97.165776 
1222.000000	97.144213 
1221.000000	97.112438 
1220.000000	97.056058 
1219.000000	96.982023 
1218.000000	96.911559 
1217.000000	96.860350 
1216.000000	96.824017 
1215.000000	96.780292 
1214.000000	96.707397 
1213.000000	96.605636 
1212.000000	96.501531 
1211.000000	96.424719 
1210.000000	96.377221 
1209.000000	96.329869 
1208.000000	96.251181 
1207.000000	96.136532 
1206.000000	96.010179 
1205.000000	95.903228 
1204.000000	95.828435 
1203.000000	95.770349 
1202.000000	95.697420 
1201.000000	95.588770 
1200.000000	95.453619 
1199.000000	95.324471 
1198.000000	95.227882 
1197.000000	95.161406 
1196.000000	95.098056 
1195.000000	95.009556 
1194.000000	94.887327 
1193.000000	94.748328 
1192.000000	94.622839 
1191.000000	94.529271 
1190.000000	94.455963 
1189.000000	94.370738 
1188.000000	94.251275 
1187.000000	94.104927 
1186.000000	93.960000 
1185.000000	93.839959 
1184.000000	93.745257 
1183.000000	93.654762 
1182.000000	93.543060 
1181.000000	93.401801 
1180.000000	93.247563 
1179.000000	93.106016 
1178.000000	92.985947 
1177.000000	92.871536 
1176.000000	92.739901 
1175.000000	92.582342 
1174.000000	92.409568 
1173.000000	92.241654 
1172.000000	92.092488 
1171.000000	91.957209 
1170.000000	91.813780 
1169.000000	91.644786 
1168.000000	91.460177 
1167.000000	91.291511 
1166.000000	91.162440 
1165.000000	91.072870 
1164.000000	91.012160 
1163.000000	90.977251 
1162.000000	90.973365 
1161.000000	91.004164 
1160.000000	91.064041 
1159.000000	91.131399 
1158.000000	91.167831 
1157.000000	91.137122 
1156.000000	91.033634 
1155.000000	90.889351 
1154.000000	90.747708 
1153.000000	90.628297 
1152.000000	90.517491 
1151.000000	90.387699 
1150.000000	90.223498 
1149.000000	90.037406 
1148.000000	89.864810 
1147.000000	89.734418 
1146.000000	89.636969 
1145.000000	89.529894 
1144.000000	89.378546 
1143.000000	89.188766 
1142.000000	88.998243 
1141.000000	88.840796 
1140.000000	88.719919 
1139.000000	88.609079 
1138.000000	88.472934 
1137.000000	88.295857 
1136.000000	88.096830 
1135.000000	87.913628 
1134.000000	87.766364 
1133.000000	87.639041 
1132.000000	87.498106 
1131.000000	87.323274 
1130.000000	87.120655 
1129.000000	86.915457 
1128.000000	86.733666 
1127.000000	86.581199 
1126.000000	86.436221 
1125.000000	86.268466 
1124.000000	86.069952 
1123.000000	85.862035 
1122.000000	85.671012 
1121.000000	85.502811 
1120.000000	85.343070 
1119.000000	85.173577 
1118.000000	84.986489 
1117.000000	84.790684 
1116.000000	84.607762 
1115.000000	84.454098 
1114.000000	84.321888 
1113.000000	84.183855 
1112.000000	84.022082 
1111.000000	83.846804 
1110.000000	83.683307 
1109.000000	83.545852 
1108.000000	83.425642 
1107.000000	83.296628 
1106.000000	83.134786 
1105.000000	82.942533 
1104.000000	82.754497 
1103.000000	82.606529 
1102.000000	82.495299 
1101.000000	82.380001 
1100.000000	82.226133 
1099.000000	82.036501 
1098.000000	81.842595 
1097.000000	81.677456 
1096.000000	81.555730 
1095.000000	81.459882 
1094.000000	81.343317 
1093.000000	81.168579 
1092.000000	80.951451 
1091.000000	80.752846 
1090.000000	80.617714 
1089.000000	80.531900 
1088.000000	80.442238 
1087.000000	80.305834 
1086.000000	80.119434 
1085.000000	79.919497 
1084.000000	79.757504 
1083.000000	79.655568 
1082.000000	79.578683 
1081.000000	79.466289 
1080.000000	79.295437 
1079.000000	79.099439 
1078.000000	78.925444 
1077.000000	78.789572 
1076.000000	78.673327 
1075.000000	78.541605 
1074.000000	78.360727 
1073.000000	78.122953 
1072.000000	77.861489 
1071.000000	77.619576 
1070.000000	77.394241 
1069.000000	77.132996 
1068.000000	76.796306 
1067.000000	76.403262 
1066.000000	76.009111 
1065.000000	75.654503 
1064.000000	75.342776 
1063.000000	75.045439 
1062.000000	74.718790 
1061.000000	74.336237 
1060.000000	73.918837 
1059.000000	73.519749 
1058.000000	73.167069 
1057.000000	72.835572 
1056.000000	72.480398 
1055.000000	72.080816 
1054.000000	71.648459 
1053.000000	71.214162 
1052.000000	70.810417 
1051.000000	70.441253 
1050.000000	70.062926 
1049.000000	69.623220 
1048.000000	69.127893 
1047.000000	68.640650 
1046.000000	68.210487 
1045.000000	67.825140 
1044.000000	67.437868 
1043.000000	67.011678 
1042.000000	66.536861 
1041.000000	66.036793 
1040.000000	65.563680 
1039.000000	65.158784 
1038.000000	64.805163 
1037.000000	64.443156 
1036.000000	64.041251 
1035.000000	63.629051 
1034.000000	63.256832 
1033.000000	62.949608 
1032.000000	62.701058 
1031.000000	62.478846 
1030.000000	62.233751 
1029.000000	61.942204 
1028.000000	61.648690 
1027.000000	61.429484 
1026.000000	61.303078 
1025.000000	61.207185 
1024.000000	61.073040 
1023.000000	60.891347 
1022.000000	60.695851 
1021.000000	60.518806 
1020.000000	60.376343 
1019.000000	60.262886 
1018.000000	60.143931 
1017.000000	59.983837 
1016.000000	59.793630 
1015.000000	59.623622 
1014.000000	59.499720 
1013.000000	59.395913 
1012.000000	59.276257 
1011.000000	59.133036 
1010.000000	58.977480 
1009.000000	58.827313 
1008.000000	58.711365 
1007.000000	58.649669 
1006.000000	58.617110 
1005.000000	58.562132 
1004.000000	58.475620 
1003.000000	58.407807 
1002.000000	58.402857 
1001.000000	58.448469 
1000.000000	58.501700 
999.000000	 58.533846 
998.000000	 58.539993 
997.000000	 58.537542 
996.000000	 58.567917 
995.000000	 58.666176 
994.000000	 58.812521 
993.000000	 58.941381 
992.000000	 59.013390 
991.000000	 59.055547 
990.000000	 59.122489 
989.000000	 59.244946 
988.000000	 59.420134 
987.000000	 59.618501 
986.000000	 59.792102 
985.000000	 59.913054 
984.000000	 60.018317 
983.000000	 60.184640 
982.000000	 60.444440 
981.000000	 60.751433 
980.000000	 61.037322 
979.000000	 61.277235 
978.000000	 61.493504 
977.000000	 61.728520 
976.000000	 62.024974 
975.000000	 62.397726 
974.000000	 62.806644 
973.000000	 63.184365 
972.000000	 63.508386 
971.000000	 63.824693 
970.000000	 64.190175 
969.000000	 64.613828 
968.000000	 65.060811 
967.000000	 65.489292 
966.000000	 65.876316 
965.000000	 66.232965 
964.000000	 66.603444 
963.000000	 67.025428 
962.000000	 67.482149 
961.000000	 67.916218 
960.000000	 68.297117 
959.000000	 68.650851 
958.000000	 69.017815 
957.000000	 69.406693 
956.000000	 69.798380 
955.000000	 70.170427 
954.000000	 70.507097 
953.000000	 70.808306 
952.000000	 71.100143 
951.000000	 71.415705 
950.000000	 71.752486 
949.000000	 72.067006 
948.000000	 72.322519 
947.000000	 72.527009 
946.000000	 72.719955 
945.000000	 72.935505 
944.000000	 73.178808 
943.000000	 73.419972 
942.000000	 73.610271 
941.000000	 73.727632 
940.000000	 73.813554 
939.000000	 73.944476 
938.000000	 74.153327 
937.000000	 74.395736 
936.000000	 74.601180 
935.000000	 74.739745 
934.000000	 74.837218 
933.000000	 74.948089 
932.000000	 75.118970 
931.000000	 75.353449 
930.000000	 75.598982 
929.000000	 75.786253 
928.000000	 75.895580 
927.000000	 75.977045 
926.000000	 76.099433 
925.000000	 76.286004 
924.000000	 76.499900 
923.000000	 76.676638 
922.000000	 76.772062 
921.000000	 76.800353 
920.000000	 76.830901 
919.000000	 76.928071 
918.000000	 77.085856 
917.000000	 77.235472 
916.000000	 77.320772 
915.000000	 77.353027 
914.000000	 77.392985 
913.000000	 77.498812 
912.000000	 77.691470 
911.000000	 77.944513 
910.000000	 78.201558 
909.000000	 78.429083 
908.000000	 78.659173 
907.000000	 78.958166 
906.000000	 79.348670 
905.000000	 79.782484 
904.000000	 80.193941 
903.000000	 80.561819 
902.000000	 80.914025 
901.000000	 81.292079 
900.000000	 81.717507 
899.000000	 82.172792 
898.000000	 82.608040 
897.000000	 82.984388 
896.000000	 83.316400 
895.000000	 83.657625 
894.000000	 84.040748 
893.000000	 84.444342 
892.000000	 84.819145 
891.000000	 85.132252 
890.000000	 85.388422 
889.000000	 85.628839 
888.000000	 85.907777 
887.000000	 86.244518 
886.000000	 86.591403 
885.000000	 86.871285 
884.000000	 87.056429 
883.000000	 87.199976 
882.000000	 87.386327 
881.000000	 87.656276 
880.000000	 87.979639 
879.000000	 88.284622 
878.000000	 88.514988 
877.000000	 88.681039 
876.000000	 88.860498 
875.000000	 89.127962 
874.000000	 89.475290 
873.000000	 89.818769 
872.000000	 90.087231 
871.000000	 90.285590 
870.000000	 90.476038 
869.000000	 90.719803 
868.000000	 91.036137 
867.000000	 91.389767 
866.000000	 91.708391 
865.000000	 91.937114 
864.000000	 92.094181 
863.000000	 92.264642 
862.000000	 92.519999 
861.000000	 92.845304 
860.000000	 93.155021 
859.000000	 93.375759 
858.000000	 93.511242 
857.000000	 93.637005 
856.000000	 93.831572 
855.000000	 94.100628 
854.000000	 94.367153 
853.000000	 94.544895 
852.000000	 94.621422 
851.000000	 94.666484 
850.000000	 94.762957 
849.000000	 94.934095 
848.000000	 95.131836 
847.000000	 95.279158 
846.000000	 95.329121 
845.000000	 95.307305 
844.000000	 95.299708 
843.000000	 95.372946 
842.000000	 95.496783 
841.000000	 95.567869 
840.000000	 95.518147 
839.000000	 95.382850 
838.000000	 95.258863 
837.000000	 95.210030 
836.000000	 95.219965 
835.000000	 95.219709 
834.000000	 95.148553 
833.000000	 95.005663 
832.000000	 94.861543 
831.000000	 94.807545 
830.000000	 94.871450 
829.000000	 94.983670 
828.000000	 95.038876 
827.000000	 94.994534 
826.000000	 94.913103 
825.000000	 94.912010 
824.000000	 95.058726 
823.000000	 95.295315 
822.000000	 95.475686 
821.000000	 95.501804 
820.000000	 95.418623 
819.000000	 95.364240 
818.000000	 95.428465 
817.000000	 95.569669 
816.000000	 95.665933 
815.000000	 95.625701 
814.000000	 95.450119 
813.000000	 95.217261 
812.000000	 95.015024 
811.000000	 94.862716 
810.000000	 94.678627 
809.000000	 94.337923 
808.000000	 93.779838 
807.000000	 93.064262 
806.000000	 92.324311 
805.000000	 91.659589 
804.000000	 91.070614 
803.000000	 90.482382 
802.000000	 89.830808 
801.000000	 89.149880 
800.000000	 88.578502 
799.000000	 88.253213 
798.000000	 88.181619 
797.000000	 88.237695 
796.000000	 88.288173 
795.000000	 88.306786 
794.000000	 88.360852 
793.000000	 88.517139 
792.000000	 88.773044 
791.000000	 89.049334 
790.000000	 89.236680 
789.000000	 89.277594 
788.000000	 89.219986 
787.000000	 89.171187 
786.000000	 89.180453 
785.000000	 89.180272 
784.000000	 89.057644 
783.000000	 88.772304 
782.000000	 88.400734 
781.000000	 88.081046 
780.000000	 87.917162 
779.000000	 87.911650 
778.000000	 87.973246 
777.000000	 88.007105 
776.000000	 88.014815 
775.000000	 88.092313 
774.000000	 88.321391 
773.000000	 88.678387 
772.000000	 89.049798 
771.000000	 89.321080 
770.000000	 89.454293 
769.000000	 89.506865 
768.000000	 89.586435 
767.000000	 89.759943 
766.000000	 89.985636 
765.000000	 90.148461 
764.000000	 90.176688 
763.000000	 90.114795 
762.000000	 90.080450 
761.000000	 90.158260 
760.000000	 90.335152 
759.000000	 90.520749 
758.000000	 90.625566 
757.000000	 90.638235 
756.000000	 90.638126 
755.000000	 90.722283 
754.000000	 90.910664 
753.000000	 91.130181 
752.000000	 91.288327 
751.000000	 91.355152 
750.000000	 91.377022 
749.000000	 91.430005 
748.000000	 91.560076 
747.000000	 91.750447 
746.000000	 91.934270 
745.000000	 92.053341 
744.000000	 92.115638 
743.000000	 92.190272 
742.000000	 92.337848 
741.000000	 92.550838 
740.000000	 92.765201 
739.000000	 92.922855 
738.000000	 93.019543 
737.000000	 93.101603 
736.000000	 93.225655 
735.000000	 93.408716 
734.000000	 93.606811 
733.000000	 93.750437 
732.000000	 93.811496 
731.000000	 93.834176 
730.000000	 93.894978 
729.000000	 94.025827 
728.000000	 94.183463 
727.000000	 94.292057 
726.000000	 94.312819 
725.000000	 94.279974 
724.000000	 94.279190 
723.000000	 94.376669 
722.000000	 94.555660 
721.000000	 94.724530 
720.000000	 94.798769 
719.000000	 94.779579 
718.000000	 94.752741 
717.000000	 94.810887 
716.000000	 94.972053 
715.000000	 95.160204 
714.000000	 95.264676 
713.000000	 95.237451 
712.000000	 95.141296 
711.000000	 95.098595 
710.000000	 95.172606 
709.000000	 95.309773 
708.000000	 95.399581 
707.000000	 95.372555 
706.000000	 95.249274 
705.000000	 95.122324 
704.000000	 95.083649 
703.000000	 95.141850 
702.000000	 95.200518 
701.000000	 95.136917 
700.000000	 94.914906 
699.000000	 94.622462 
698.000000	 94.393502 
697.000000	 94.289094 
696.000000	 94.267945 
695.000000	 94.250342 
694.000000	 94.202322 
693.000000	 94.165813 
692.000000	 94.213283 
691.000000	 94.373812 
690.000000	 94.598352 
689.000000	 94.789882 
688.000000	 94.883205 
687.000000	 94.896672 
686.000000	 94.906527 
685.000000	 94.976312 
684.000000	 95.107569 
683.000000	 95.244040 
682.000000	 95.323954 
681.000000	 95.338574 
680.000000	 95.341404 
679.000000	 95.394408 
678.000000	 95.503654 
677.000000	 95.619755 
676.000000	 95.694351 
675.000000	 95.726349 
674.000000	 95.751542 
673.000000	 95.803445 
672.000000	 95.884625 
671.000000	 95.972631 
670.000000	 96.043450 
669.000000	 96.087025 
668.000000	 96.121825 
667.000000	 96.184991 
666.000000	 96.273064 
665.000000	 96.362588 
664.000000	 96.442266 
663.000000	 96.511318 
662.000000	 96.574431 
661.000000	 96.639878 
660.000000	 96.713462 
659.000000	 96.794006 
658.000000	 96.875486 
657.000000	 96.952186 
656.000000	 97.025518 
655.000000	 97.099966 
654.000000	 97.177967 
653.000000	 97.257110 
652.000000	 97.336633 
651.000000	 97.416277 
650.000000	 97.495792 

