4000.000000	96.927014 
3999.000000	96.924864 
3998.000000	96.920849 
3997.000000	96.916949 
3996.000000	96.914571 
3995.000000	96.914018 
3994.000000	96.915080 
3993.000000	96.917074 
3992.000000	96.918748 
3991.000000	96.919077 
3990.000000	96.918134 
3989.000000	96.916780 
3988.000000	96.915531 
3987.000000	96.914300 
3986.000000	96.913321 
3985.000000	96.913376 
3984.000000	96.914654 
3983.000000	96.916205 
3982.000000	96.917159 
3981.000000	96.917761 
3980.000000	96.918559 
3979.000000	96.919229 
3978.000000	96.919076 
3977.000000	96.918406 
3976.000000	96.918247 
3975.000000	96.918725 
3974.000000	96.918733 
3973.000000	96.917500 
3972.000000	96.915582 
3971.000000	96.914005 
3970.000000	96.913332 
3969.000000	96.913589 
3968.000000	96.914512 
3967.000000	96.915551 
3966.000000	96.916033 
3965.000000	96.915532 
3964.000000	96.913937 
3963.000000	96.911490 
3962.000000	96.908862 
3961.000000	96.907062 
3960.000000	96.906520 
3959.000000	96.906439 
3958.000000	96.905971 
3957.000000	96.905218 
3956.000000	96.904687 
3955.000000	96.904111 
3954.000000	96.902621 
3953.000000	96.899914 
3952.000000	96.896662 
3951.000000	96.894055 
3950.000000	96.892833 
3949.000000	96.892673 
3948.000000	96.892480 
3947.000000	96.891589 
3946.000000	96.890284 
3945.000000	96.889073 
3944.000000	96.888087 
3943.000000	96.887482 
3942.000000	96.887932 
3941.000000	96.890126 
3940.000000	96.893396 
3939.000000	96.895360 
3938.000000	96.894574 
3937.000000	96.891913 
3936.000000	96.889080 
3935.000000	96.886471 
3934.000000	96.883756 
3933.000000	96.882006 
3932.000000	96.882574 
3931.000000	96.884613 
3930.000000	96.885506 
3929.000000	96.884044 
3928.000000	96.881983 
3927.000000	96.881055 
3926.000000	96.880421 
3925.000000	96.878691 
3924.000000	96.876902 
3923.000000	96.876673 
3922.000000	96.876799 
3921.000000	96.875299 
3920.000000	96.873447 
3919.000000	96.874090 
3918.000000	96.877193 
3917.000000	96.880080 
3916.000000	96.881498 
3915.000000	96.882438 
3914.000000	96.883275 
3913.000000	96.882948 
3912.000000	96.881456 
3911.000000	96.879482 
3910.000000	96.877566 
3909.000000	96.875584 
3908.000000	96.873607 
3907.000000	96.872029 
3906.000000	96.871001 
3905.000000	96.870405 
3904.000000	96.870145 
3903.000000	96.870222 
3902.000000	96.870402 
3901.000000	96.870404 
3900.000000	96.870261 
3899.000000	96.870103 
3898.000000	96.869918 
3897.000000	96.869705 
3896.000000	96.869471 
3895.000000	96.869212 
3894.000000	96.868917 
3893.000000	96.868587 
3892.000000	96.868236 
3891.000000	96.867868 
3890.000000	96.867504 
3889.000000	96.867173 
3888.000000	96.866885 
3887.000000	96.866626 
3886.000000	96.866383 
3885.000000	96.866158 
3884.000000	96.865961 
3883.000000	96.865785 
3882.000000	96.865608 
3881.000000	96.865423 
3880.000000	96.865249 
3879.000000	96.865105 
3878.000000	96.864989 
3877.000000	96.864877 
3876.000000	96.864750 
3875.000000	96.864617 
3874.000000	96.864514 
3873.000000	96.864479 
3872.000000	96.864517 
3871.000000	96.864614 
3870.000000	96.864761 
3869.000000	96.864983 
3868.000000	96.865301 
3867.000000	96.865685 
3866.000000	96.866081 
3865.000000	96.866474 
3864.000000	96.866882 
3863.000000	96.867300 
3862.000000	96.867689 
3861.000000	96.868024 
3860.000000	96.868318 
3859.000000	96.868594 
3858.000000	96.868866 
3857.000000	96.869158 
3856.000000	96.869518 
3855.000000	96.869997 
3854.000000	96.870588 
3853.000000	96.871255 
3852.000000	96.872016 
3851.000000	96.872922 
3850.000000	96.873953 
3849.000000	96.875044 
3848.000000	96.876146 
3847.000000	96.877231 
3846.000000	96.878292 
3845.000000	96.879333 
3844.000000	96.880361 
3843.000000	96.881376 
3842.000000	96.882382 
3841.000000	96.883399 
3840.000000	96.884448 
3839.000000	96.885530 
3838.000000	96.886625 
3837.000000	96.887717 
3836.000000	96.888813 
3835.000000	96.889932 
3834.000000	96.891078 
3833.000000	96.892242 
3832.000000	96.893412 
3831.000000	96.894575 
3830.000000	96.895725 
3829.000000	96.896859 
3828.000000	96.897971 
3827.000000	96.899050 
3826.000000	96.900087 
3825.000000	96.901095 
3824.000000	96.902103 
3823.000000	96.903122 
3822.000000	96.904136 
3821.000000	96.905135 
3820.000000	96.906154 
3819.000000	96.907240 
3818.000000	96.908377 
3817.000000	96.909508 
3816.000000	96.910600 
3815.000000	96.911671 
3814.000000	96.912735 
3813.000000	96.913759 
3812.000000	96.914695 
3811.000000	96.915542 
3810.000000	96.916328 
3809.000000	96.917046 
3808.000000	96.917661 
3807.000000	96.918174 
3806.000000	96.918639 
3805.000000	96.919121 
3804.000000	96.919635 
3803.000000	96.920148 
3802.000000	96.920634 
3801.000000	96.921107 
3800.000000	96.921604 
3799.000000	96.922128 
3798.000000	96.922629 
3797.000000	96.923062 
3796.000000	96.923427 
3795.000000	96.923743 
3794.000000	96.924015 
3793.000000	96.924233 
3792.000000	96.924385 
3791.000000	96.924459 
3790.000000	96.924450 
3789.000000	96.924363 
3788.000000	96.924208 
3787.000000	96.923993 
3786.000000	96.923715 
3785.000000	96.923369 
3784.000000	96.922980 
3783.000000	96.922569 
3782.000000	96.922121 
3781.000000	96.921601 
3780.000000	96.920994 
3779.000000	96.920311 
3778.000000	96.919557 
3777.000000	96.918719 
3776.000000	96.917790 
3775.000000	96.916797 
3774.000000	96.915776 
3773.000000	96.914739 
3772.000000	96.913671 
3771.000000	96.912560 
3770.000000	96.911417 
3769.000000	96.910264 
3768.000000	96.909110 
3767.000000	96.907943 
3766.000000	96.906759 
3765.000000	96.905569 
3764.000000	96.904383 
3763.000000	96.903180 
3762.000000	96.901923 
3761.000000	96.900596 
3760.000000	96.899216 
3759.000000	96.897792 
3758.000000	96.896306 
3757.000000	96.894733 
3756.000000	96.893083 
3755.000000	96.891396 
3754.000000	96.889662 
3753.000000	96.887838 
3752.000000	96.886118 
3751.000000	96.884678 
3750.000000	96.882675 
3749.000000	96.879298 
3748.000000	96.876087 
3747.000000	96.874753 
3746.000000	96.874569 
3745.000000	96.873135 
3744.000000	96.868187 
3743.000000	96.864174 
3742.000000	96.866786 
3741.000000	96.868644 
3740.000000	96.862170 
3739.000000	96.852232 
3738.000000	96.846662 
3737.000000	96.845413 
3736.000000	96.844151 
3735.000000	96.844762 
3734.000000	96.850770 
3733.000000	96.855974 
3732.000000	96.851833 
3731.000000	96.842382 
3730.000000	96.838007 
3729.000000	96.838211 
3728.000000	96.834155 
3727.000000	96.824527 
3726.000000	96.817662 
3725.000000	96.819692 
3724.000000	96.824895 
3723.000000	96.824256 
3722.000000	96.817692 
3721.000000	96.810314 
3720.000000	96.804401 
3719.000000	96.796496 
3718.000000	96.783149 
3717.000000	96.767203 
3716.000000	96.754862 
3715.000000	96.747410 
3714.000000	96.741862 
3713.000000	96.739303 
3712.000000	96.739906 
3711.000000	96.735250 
3710.000000	96.719759 
3709.000000	96.696155 
3708.000000	96.667809 
3707.000000	96.637457 
3706.000000	96.608969 
3705.000000	96.584658 
3704.000000	96.562505 
3703.000000	96.538324 
3702.000000	96.508357 
3701.000000	96.473335 
3700.000000	96.442471 
3699.000000	96.422537 
3698.000000	96.407239 
3697.000000	96.389366 
3696.000000	96.372619 
3695.000000	96.363168 
3694.000000	96.356600 
3693.000000	96.344299 
3692.000000	96.328460 
3691.000000	96.317882 
3690.000000	96.311322 
3689.000000	96.295525 
3688.000000	96.270069 
3687.000000	96.256143 
3686.000000	96.261868 
3685.000000	96.267482 
3684.000000	96.258554 
3683.000000	96.242564 
3682.000000	96.228427 
3681.000000	96.208614 
3680.000000	96.171570 
3679.000000	96.126813 
3678.000000	96.093362 
3677.000000	96.071715 
3676.000000	96.038138 
3675.000000	95.979055 
3674.000000	95.929820 
3673.000000	95.915102 
3672.000000	95.901205 
3671.000000	95.865110 
3670.000000	95.818977 
3669.000000	95.778390 
3668.000000	95.752058 
3667.000000	95.731871 
3666.000000	95.704725 
3665.000000	95.671348 
3664.000000	95.638141 
3663.000000	95.604321 
3662.000000	95.563905 
3661.000000	95.515517 
3660.000000	95.465892 
3659.000000	95.423394 
3658.000000	95.386972 
3657.000000	95.345400 
3656.000000	95.289113 
3655.000000	95.230200 
3654.000000	95.184162 
3653.000000	95.139862 
3652.000000	95.083907 
3651.000000	95.030217 
3650.000000	94.993932 
3649.000000	94.961367 
3648.000000	94.917893 
3647.000000	94.875852 
3646.000000	94.853519 
3645.000000	94.848770 
3644.000000	94.844925 
3643.000000	94.829713 
3642.000000	94.804611 
3641.000000	94.776774 
3640.000000	94.747615 
3639.000000	94.712418 
3638.000000	94.670696 
3637.000000	94.630594 
3636.000000	94.594112 
3635.000000	94.550256 
3634.000000	94.491280 
3633.000000	94.428456 
3632.000000	94.378545 
3631.000000	94.345019 
3630.000000	94.323971 
3629.000000	94.299971 
3628.000000	94.266067 
3627.000000	94.249577 
3626.000000	94.251520 
3625.000000	94.238548 
3624.000000	94.205287 
3623.000000	94.171452 
3622.000000	94.149087 
3621.000000	94.137805 
3620.000000	94.137520 
3619.000000	94.149037 
3618.000000	94.172192 
3617.000000	94.208920 
3616.000000	94.255617 
3615.000000	94.303700 
3614.000000	94.348764 
3613.000000	94.391044 
3612.000000	94.432284 
3611.000000	94.472245 
3610.000000	94.507621 
3609.000000	94.536653 
3608.000000	94.560993 
3607.000000	94.583346 
3606.000000	94.605508 
3605.000000	94.627808 
3604.000000	94.652724 
3603.000000	94.684120 
3602.000000	94.718472 
3601.000000	94.744823 
3600.000000	94.757580 
3599.000000	94.761697 
3598.000000	94.764512 
3597.000000	94.773295 
3596.000000	94.792792 
3595.000000	94.820038 
3594.000000	94.844484 
3593.000000	94.857334 
3592.000000	94.856864 
3591.000000	94.846369 
3590.000000	94.833387 
3589.000000	94.828838 
3588.000000	94.838817 
3587.000000	94.858743 
3586.000000	94.882737 
3585.000000	94.906988 
3584.000000	94.926256 
3583.000000	94.939098 
3582.000000	94.948982 
3581.000000	94.958048 
3580.000000	94.964488 
3579.000000	94.966291 
3578.000000	94.963510 
3577.000000	94.958458 
3576.000000	94.954209 
3575.000000	94.951770 
3574.000000	94.949148 
3573.000000	94.942362 
3572.000000	94.928596 
3571.000000	94.908783 
3570.000000	94.888263 
3569.000000	94.874792 
3568.000000	94.874125 
3567.000000	94.884577 
3566.000000	94.899371 
3565.000000	94.913219 
3564.000000	94.921589 
3563.000000	94.922747 
3562.000000	94.920987 
3561.000000	94.922033 
3560.000000	94.926714 
3559.000000	94.930882 
3558.000000	94.930208 
3557.000000	94.924042 
3556.000000	94.916089 
3555.000000	94.910892 
3554.000000	94.909698 
3553.000000	94.909829 
3552.000000	94.908038 
3551.000000	94.903682 
3550.000000	94.897790 
3549.000000	94.891343 
3548.000000	94.886466 
3547.000000	94.886012 
3546.000000	94.889871 
3545.000000	94.894822 
3544.000000	94.898653 
3543.000000	94.901651 
3542.000000	94.904508 
3541.000000	94.906897 
3540.000000	94.908441 
3539.000000	94.909184 
3538.000000	94.909185 
3537.000000	94.908578 
3536.000000	94.907806 
3535.000000	94.907352 
3534.000000	94.906993 
3533.000000	94.906243 
3532.000000	94.905332 
3531.000000	94.905249 
3530.000000	94.906198 
3529.000000	94.906690 
3528.000000	94.905001 
3527.000000	94.901447 
3526.000000	94.898403 
3525.000000	94.898064 
3524.000000	94.901021 
3523.000000	94.906377 
3522.000000	94.912252 
3521.000000	94.916580 
3520.000000	94.918418 
3519.000000	94.918503 
3518.000000	94.918324 
3517.000000	94.918432 
3516.000000	94.917775 
3515.000000	94.915247 
3514.000000	94.911596 
3513.000000	94.909069 
3512.000000	94.908938 
3511.000000	94.910296 
3510.000000	94.911328 
3509.000000	94.911323 
3508.000000	94.911144 
3507.000000	94.911782 
3506.000000	94.912910 
3505.000000	94.913300 
3504.000000	94.912120 
3503.000000	94.909529 
3502.000000	94.906601 
3501.000000	94.904791 
3500.000000	94.905100 
3499.000000	94.907506 
3498.000000	94.911011 
3497.000000	94.914078 
3496.000000	94.915225 
3495.000000	94.913584 
3494.000000	94.909524 
3493.000000	94.904754 
3492.000000	94.900985 
3491.000000	94.898424 
3490.000000	94.895987 
3489.000000	94.892814 
3488.000000	94.889066 
3487.000000	94.885234 
3486.000000	94.881376 
3485.000000	94.877404 
3484.000000	94.873554 
3483.000000	94.870145 
3482.000000	94.867251 
3481.000000	94.865196 
3480.000000	94.864679 
3479.000000	94.865625 
3478.000000	94.866324 
3477.000000	94.864612 
3476.000000	94.859950 
3475.000000	94.853783 
3474.000000	94.848125 
3473.000000	94.843971 
3472.000000	94.840844 
3471.000000	94.837551 
3470.000000	94.833436 
3469.000000	94.829006 
3468.000000	94.825384 
3467.000000	94.823201 
3466.000000	94.822054 
3465.000000	94.820769 
3464.000000	94.818020 
3463.000000	94.813040 
3462.000000	94.806163 
3461.000000	94.798801 
3460.000000	94.792520 
3459.000000	94.787737 
3458.000000	94.783527 
3457.000000	94.778669 
3456.000000	94.772806 
3455.000000	94.766794 
3454.000000	94.761780 
3453.000000	94.758128 
3452.000000	94.755369 
3451.000000	94.752955 
3450.000000	94.750522 
3449.000000	94.747455 
3448.000000	94.742888 
3447.000000	94.736486 
3446.000000	94.729116 
3445.000000	94.722342 
3444.000000	94.717163 
3443.000000	94.713462 
3442.000000	94.710267 
3441.000000	94.706234 
3440.000000	94.700373 
3439.000000	94.692667 
3438.000000	94.684186 
3437.000000	94.676404 
3436.000000	94.670314 
3435.000000	94.666407 
3434.000000	94.664652 
3433.000000	94.664109 
3432.000000	94.663055 
3431.000000	94.660177 
3430.000000	94.655593 
3429.000000	94.650468 
3428.000000	94.645636 
3427.000000	94.640832 
3426.000000	94.635689 
3425.000000	94.631070 
3424.000000	94.628499 
3423.000000	94.627963 
3422.000000	94.627315 
3421.000000	94.624709 
3420.000000	94.620840 
3419.000000	94.617824 
3418.000000	94.616463 
3417.000000	94.615840 
3416.000000	94.615082 
3415.000000	94.614040 
3414.000000	94.612239 
3413.000000	94.608691 
3412.000000	94.603393 
3411.000000	94.598144 
3410.000000	94.595194 
3409.000000	94.595424 
3408.000000	94.597815 
3407.000000	94.599928 
3406.000000	94.599215 
3405.000000	94.594906 
3404.000000	94.588847 
3403.000000	94.583954 
3402.000000	94.581730 
3401.000000	94.581732 
3400.000000	94.582795 
3399.000000	94.583918 
3398.000000	94.584357 
3397.000000	94.583941 
3396.000000	94.583377 
3395.000000	94.583490 
3394.000000	94.584204 
3393.000000	94.584739 
3392.000000	94.584739 
3391.000000	94.584670 
3390.000000	94.585257 
3389.000000	94.587121 
3388.000000	94.590854 
3387.000000	94.596587 
3386.000000	94.603175 
3385.000000	94.608334 
3384.000000	94.610124 
3383.000000	94.608543 
3382.000000	94.605838 
3381.000000	94.604957 
3380.000000	94.607027 
3379.000000	94.610457 
3378.000000	94.613061 
3377.000000	94.614979 
3376.000000	94.618305 
3375.000000	94.623712 
3374.000000	94.628961 
3373.000000	94.631505 
3372.000000	94.631677 
3371.000000	94.632207 
3370.000000	94.635160 
3369.000000	94.640321 
3368.000000	94.646178 
3367.000000	94.651458 
3366.000000	94.655619 
3365.000000	94.658673 
3364.000000	94.661008 
3363.000000	94.663131 
3362.000000	94.665341 
3361.000000	94.667700 
3360.000000	94.670227 
3359.000000	94.672979 
3358.000000	94.676048 
3357.000000	94.679646 
3356.000000	94.683959 
3355.000000	94.688722 
3354.000000	94.693230 
3353.000000	94.697046 
3352.000000	94.700501 
3351.000000	94.704228 
3350.000000	94.708422 
3349.000000	94.712784 
3348.000000	94.717040 
3347.000000	94.721232 
3346.000000	94.725461 
3345.000000	94.729608 
3344.000000	94.733358 
3343.000000	94.736419 
3342.000000	94.738765 
3341.000000	94.740821 
3340.000000	94.743222 
3339.000000	94.746226 
3338.000000	94.749649 
3337.000000	94.753240 
3336.000000	94.756941 
3335.000000	94.760794 
3334.000000	94.764745 
3333.000000	94.768679 
3332.000000	94.772549 
3331.000000	94.776345 
3330.000000	94.780010 
3329.000000	94.783494 
3328.000000	94.786893 
3327.000000	94.790434 
3326.000000	94.794255 
3325.000000	94.798279 
3324.000000	94.802272 
3323.000000	94.806037 
3322.000000	94.809563 
3321.000000	94.812999 
3320.000000	94.816523 
3319.000000	94.820201 
3318.000000	94.824004 
3317.000000	94.827887 
3316.000000	94.831814 
3315.000000	94.835719 
3314.000000	94.839514 
3313.000000	94.843180 
3312.000000	94.846817 
3311.000000	94.850562 
3310.000000	94.854451 
3309.000000	94.858423 
3308.000000	94.862394 
3307.000000	94.866275 
3306.000000	94.869976 
3305.000000	94.873497 
3304.000000	94.877020 
3303.000000	94.880823 
3302.000000	94.885047 
3301.000000	94.889566 
3300.000000	94.894017 
3299.000000	94.898012 
3298.000000	94.901354 
3297.000000	94.904220 
3296.000000	94.907148 
3295.000000	94.910689 
3294.000000	94.915055 
3293.000000	94.920076 
3292.000000	94.925413 
3291.000000	94.930785 
3290.000000	94.936027 
3289.000000	94.941032 
3288.000000	94.945687 
3287.000000	94.949841 
3286.000000	94.953375 
3285.000000	94.956380 
3284.000000	94.959245 
3283.000000	94.962460 
3282.000000	94.966343 
3281.000000	94.970919 
3280.000000	94.975793 
3279.000000	94.980225 
3278.000000	94.983724 
3277.000000	94.986701 
3276.000000	94.990178 
3275.000000	94.994631 
3274.000000	94.999528 
3273.000000	95.004255 
3272.000000	95.009090 
3271.000000	95.014777 
3270.000000	95.021382 
3269.000000	95.028003 
3268.000000	95.033615 
3267.000000	95.037917 
3266.000000	95.041434 
3265.000000	95.045124 
3264.000000	95.049720 
3263.000000	95.055190 
3262.000000	95.060921 
3261.000000	95.066444 
3260.000000	95.071630 
3259.000000	95.076193 
3258.000000	95.079659 
3257.000000	95.082182 
3256.000000	95.084989 
3255.000000	95.089313 
3254.000000	95.095004 
3253.000000	95.100754 
3252.000000	95.105524 
3251.000000	95.109269 
3250.000000	95.112377 
3249.000000	95.115082 
3248.000000	95.117672 
3247.000000	95.120794 
3246.000000	95.125109 
3245.000000	95.130743 
3244.000000	95.137175 
3243.000000	95.143544 
3242.000000	95.149103 
3241.000000	95.153578 
3240.000000	95.157287 
3239.000000	95.160984 
3238.000000	95.165467 
3237.000000	95.171142 
3236.000000	95.177766 
3235.000000	95.184470 
3234.000000	95.190244 
3233.000000	95.194741 
3232.000000	95.198623 
3231.000000	95.203009 
3230.000000	95.208444 
3229.000000	95.214521 
3228.000000	95.220488 
3227.000000	95.226145 
3226.000000	95.231959 
3225.000000	95.238309 
3224.000000	95.244880 
3223.000000	95.250959 
3222.000000	95.256262 
3221.000000	95.261238 
3220.000000	95.266525 
3219.000000	95.272270 
3218.000000	95.278164 
3217.000000	95.283911 
3216.000000	95.289456 
3215.000000	95.294935 
3214.000000	95.300565 
3213.000000	95.306487 
3212.000000	95.312552 
3211.000000	95.318362 
3210.000000	95.323693 
3209.000000	95.328815 
3208.000000	95.334284 
3207.000000	95.340353 
3206.000000	95.346764 
3205.000000	95.353107 
3204.000000	95.359245 
3203.000000	95.365334 
3202.000000	95.371536 
3201.000000	95.377781 
3200.000000	95.383777 
3199.000000	95.389294 
3198.000000	95.394502 
3197.000000	95.399857 
3196.000000	95.405521 
3195.000000	95.411146 
3194.000000	95.416473 
3193.000000	95.421958 
3192.000000	95.428343 
3191.000000	95.435660 
3190.000000	95.442960 
3189.000000	95.449279 
3188.000000	95.454557 
3187.000000	95.459540 
3186.000000	95.465077 
3185.000000	95.471470 
3184.000000	95.478318 
3183.000000	95.484959 
3182.000000	95.491216 
3181.000000	95.497544 
3180.000000	95.504289 
3179.000000	95.511061 
3178.000000	95.517239 
3177.000000	95.522905 
3176.000000	95.528782 
3175.000000	95.535279 
3174.000000	95.542099 
3173.000000	95.548871 
3172.000000	95.555600 
3171.000000	95.562320 
3170.000000	95.568790 
3169.000000	95.574795 
3168.000000	95.580398 
3167.000000	95.585746 
3166.000000	95.590916 
3165.000000	95.596007 
3164.000000	95.601106 
3163.000000	95.606128 
3162.000000	95.610933 
3161.000000	95.615664 
3160.000000	95.620715 
3159.000000	95.626360 
3158.000000	95.632577 
3157.000000	95.639170 
3156.000000	95.645803 
3155.000000	95.651975 
3154.000000	95.657351 
3153.000000	95.662200 
3152.000000	95.667264 
3151.000000	95.672972 
3150.000000	95.679000 
3149.000000	95.684733 
3148.000000	95.690013 
3147.000000	95.695240 
3146.000000	95.700885 
3145.000000	95.707076 
3144.000000	95.713552 
3143.000000	95.719801 
3142.000000	95.725342 
3141.000000	95.730087 
3140.000000	95.734438 
3139.000000	95.738980 
3138.000000	95.744065 
3137.000000	95.749718 
3136.000000	95.755673 
3135.000000	95.761402 
3134.000000	95.766393 
3133.000000	95.770596 
3132.000000	95.774581 
3131.000000	95.779070 
3130.000000	95.784339 
3129.000000	95.790210 
3128.000000	95.796359 
3127.000000	95.802442 
3126.000000	95.808020 
3125.000000	95.812689 
3124.000000	95.816408 
3123.000000	95.819560 
3122.000000	95.822619 
3121.000000	95.825925 
3120.000000	95.829759 
3119.000000	95.834304 
3118.000000	95.839430 
3117.000000	95.844746 
3116.000000	95.849994 
3115.000000	95.855227 
3114.000000	95.860554 
3113.000000	95.865892 
3112.000000	95.871107 
3111.000000	95.876249 
3110.000000	95.881451 
3109.000000	95.886663 
3108.000000	95.891727 
3107.000000	95.896712 
3106.000000	95.901796 
3105.000000	95.906738 
3104.000000	95.910863 
3103.000000	95.913768 
3102.000000	95.915863 
3101.000000	95.918025 
3100.000000	95.920783 
3099.000000	95.924149 
3098.000000	95.928293 
3097.000000	95.933842 
3096.000000	95.940985 
3095.000000	95.948506 
3094.000000	95.954523 
3093.000000	95.958298 
3092.000000	95.960762 
3091.000000	95.963193 
3090.000000	95.965870 
3089.000000	95.968386 
3088.000000	95.970665 
3087.000000	95.973173 
3086.000000	95.976393 
3085.000000	95.980393 
3084.000000	95.984755 
3083.000000	95.988769 
3082.000000	95.991996 
3081.000000	95.994784 
3080.000000	95.997853 
3079.000000	96.001307 
3078.000000	96.004598 
3077.000000	96.007655 
3076.000000	96.011256 
3075.000000	96.015813 
3074.000000	96.020493 
3073.000000	96.024298 
3072.000000	96.027462 
3071.000000	96.030766 
3070.000000	96.033964 
3069.000000	96.036158 
3068.000000	96.037578 
3067.000000	96.039613 
3066.000000	96.042841 
3065.000000	96.046179 
3064.000000	96.048349 
3063.000000	96.049110 
3062.000000	96.048813 
3061.000000	96.047867 
3060.000000	96.047139 
3059.000000	96.048017 
3058.000000	96.051476 
3057.000000	96.057344 
3056.000000	96.064319 
3055.000000	96.070177 
3054.000000	96.072494 
3053.000000	96.070491 
3052.000000	96.066656 
3051.000000	96.065292 
3050.000000	96.068443 
3049.000000	96.074014 
3048.000000	96.078256 
3047.000000	96.079338 
3046.000000	96.077925 
3045.000000	96.075498 
3044.000000	96.073390 
3043.000000	96.073022 
3042.000000	96.075647 
3041.000000	96.081015 
3040.000000	96.086686 
3039.000000	96.089562 
3038.000000	96.088412 
3037.000000	96.084782 
3036.000000	96.081265 
3035.000000	96.078930 
3034.000000	96.077012 
3033.000000	96.074807 
3032.000000	96.072765 
3031.000000	96.071450 
3030.000000	96.070502 
3029.000000	96.069246 
3028.000000	96.067409 
3027.000000	96.064600 
3026.000000	96.060022 
3025.000000	96.053725 
3024.000000	96.047435 
3023.000000	96.042878 
3022.000000	96.039743 
3021.000000	96.036677 
3020.000000	96.033730 
3019.000000	96.032019 
3018.000000	96.030928 
3017.000000	96.027614 
3016.000000	96.020103 
3015.000000	96.009760 
3014.000000	96.000207 
3013.000000	95.994399 
3012.000000	95.992628 
3011.000000	95.992299 
3010.000000	95.989657 
3009.000000	95.982914 
3008.000000	95.973775 
3007.000000	95.965235 
3006.000000	95.958116 
3005.000000	95.951019 
3004.000000	95.943360 
3003.000000	95.936646 
3002.000000	95.932361 
3001.000000	95.930128 
3000.000000	95.928526 
2999.000000	95.926315 
2998.000000	95.922491 
2997.000000	95.916541 
2996.000000	95.909286 
2995.000000	95.902335 
2994.000000	95.895907 
2993.000000	95.888192 
2992.000000	95.877630 
2991.000000	95.865016 
2990.000000	95.852776 
2989.000000	95.843061 
2988.000000	95.837292 
2987.000000	95.836514 
2986.000000	95.840950 
2985.000000	95.849225 
2984.000000	95.858633 
2983.000000	95.866590 
2982.000000	95.872097 
2981.000000	95.876028 
2980.000000	95.879758 
2979.000000	95.883083 
2978.000000	95.883932 
2977.000000	95.880965 
2976.000000	95.876094 
2975.000000	95.873245 
2974.000000	95.874624 
2973.000000	95.879391 
2972.000000	95.885812 
2971.000000	95.893227 
2970.000000	95.901490 
2969.000000	95.910005 
2968.000000	95.918337 
2967.000000	95.926758 
2966.000000	95.935343 
2965.000000	95.943379 
2964.000000	95.950491 
2963.000000	95.957610 
2962.000000	95.965862 
2961.000000	95.975010 
2960.000000	95.983930 
2959.000000	95.992307 
2958.000000	96.000940 
2957.000000	96.010294 
2956.000000	96.019271 
2955.000000	96.025696 
2954.000000	96.028257 
2953.000000	96.028383 
2952.000000	96.030034 
2951.000000	96.036523 
2950.000000	96.046927 
2949.000000	96.056379 
2948.000000	96.060616 
2947.000000	96.059705 
2946.000000	96.057186 
2945.000000	96.056416 
2944.000000	96.058362 
2943.000000	96.062150 
2942.000000	96.066233 
2941.000000	96.069050 
2940.000000	96.069865 
2939.000000	96.069706 
2938.000000	96.070824 
2937.000000	96.074635 
2936.000000	96.080311 
2935.000000	96.085454 
2934.000000	96.087929 
2933.000000	96.087118 
2932.000000	96.084189 
2931.000000	96.081620 
2930.000000	96.081883 
2929.000000	96.085816 
2928.000000	96.092015 
2927.000000	96.097928 
2926.000000	96.101709 
2925.000000	96.103202 
2924.000000	96.103531 
2923.000000	96.104071 
2922.000000	96.105610 
2921.000000	96.108059 
2920.000000	96.110836 
2919.000000	96.113606 
2918.000000	96.116419 
2917.000000	96.118882 
2916.000000	96.119646 
2915.000000	96.117617 
2914.000000	96.113852 
2913.000000	96.111394 
2912.000000	96.112441 
2911.000000	96.116044 
2910.000000	96.119189 
2909.000000	96.120087 
2908.000000	96.119712 
2907.000000	96.119977 
2906.000000	96.121222 
2905.000000	96.121865 
2904.000000	96.120211 
2903.000000	96.116551 
2902.000000	96.113624 
2901.000000	96.114852 
2900.000000	96.121585 
2899.000000	96.131997 
2898.000000	96.142610 
2897.000000	96.151090 
2896.000000	96.157257 
2895.000000	96.161692 
2894.000000	96.164794 
2893.000000	96.167477 
2892.000000	96.171388 
2891.000000	96.177310 
2890.000000	96.184038 
2889.000000	96.189837 
2888.000000	96.194426 
2887.000000	96.198399 
2886.000000	96.201418 
2885.000000	96.202738 
2884.000000	96.203588 
2883.000000	96.207062 
2882.000000	96.214738 
2881.000000	96.224654 
2880.000000	96.233590 
2879.000000	96.240685 
2878.000000	96.247411 
2877.000000	96.254564 
2876.000000	96.261024 
2875.000000	96.265780 
2874.000000	96.269791 
2873.000000	96.274919 
2872.000000	96.281682 
2871.000000	96.288884 
2870.000000	96.295153 
2869.000000	96.300032 
2868.000000	96.303740 
2867.000000	96.306808 
2866.000000	96.310173 
2865.000000	96.314891 
2864.000000	96.321306 
2863.000000	96.328916 
2862.000000	96.337330 
2861.000000	96.346720 
2860.000000	96.356858 
2859.000000	96.366421 
2858.000000	96.374224 
2857.000000	96.380875 
2856.000000	96.388191 
2855.000000	96.396784 
2854.000000	96.405102 
2853.000000	96.411186 
2852.000000	96.414603 
2851.000000	96.416482 
2850.000000	96.418475 
2849.000000	96.421947 
2848.000000	96.427431 
2847.000000	96.434133 
2846.000000	96.440342 
2845.000000	96.444965 
2844.000000	96.448525 
2843.000000	96.452359 
2842.000000	96.457145 
2841.000000	96.462483 
2840.000000	96.467438 
2839.000000	96.471111 
2838.000000	96.473191 
2837.000000	96.474530 
2836.000000	96.476890 
2835.000000	96.481410 
2834.000000	96.487526 
2833.000000	96.493862 
2832.000000	96.499836 
2831.000000	96.505626 
2830.000000	96.510795 
2829.000000	96.514086 
2828.000000	96.514983 
2827.000000	96.514830 
2826.000000	96.515901 
2825.000000	96.519367 
2824.000000	96.524379 
2823.000000	96.528900 
2822.000000	96.531326 
2821.000000	96.531577 
2820.000000	96.530993 
2819.000000	96.531187 
2818.000000	96.532812 
2817.000000	96.535401 
2816.000000	96.538205 
2815.000000	96.540924 
2814.000000	96.543562 
2813.000000	96.545888 
2812.000000	96.547421 
2811.000000	96.548060 
2810.000000	96.548502 
2809.000000	96.549779 
2808.000000	96.552333 
2807.000000	96.555763 
2806.000000	96.559467 
2805.000000	96.563227 
2804.000000	96.566932 
2803.000000	96.570069 
2802.000000	96.572081 
2801.000000	96.573235 
2800.000000	96.574625 
2799.000000	96.577008 
2798.000000	96.579931 
2797.000000	96.582305 
2796.000000	96.583611 
2795.000000	96.584243 
2794.000000	96.584983 
2793.000000	96.586352 
2792.000000	96.588378 
2791.000000	96.590695 
2790.000000	96.592810 
2789.000000	96.594487 
2788.000000	96.595925 
2787.000000	96.597504 
2786.000000	96.599405 
2785.000000	96.601517 
2784.000000	96.603639 
2783.000000	96.605699 
2782.000000	96.607727 
2781.000000	96.609748 
2780.000000	96.611778 
2779.000000	96.613840 
2778.000000	96.615937 
2777.000000	96.618002 
2776.000000	96.619928 
2775.000000	96.621669 
2774.000000	96.623289 
2773.000000	96.624895 
2772.000000	96.626547 
2771.000000	96.628253 
2770.000000	96.630020 
2769.000000	96.631865 
2768.000000	96.633768 
2767.000000	96.635644 
2766.000000	96.637412 
2765.000000	96.639063 
2764.000000	96.640657 
2763.000000	96.642241 
2762.000000	96.643798 
2761.000000	96.645302 
2760.000000	96.646766 
2759.000000	96.648240 
2758.000000	96.649745 
2757.000000	96.651256 
2756.000000	96.652729 
2755.000000	96.654156 
2754.000000	96.655565 
2753.000000	96.656989 
2752.000000	96.658438 
2751.000000	96.659898 
2750.000000	96.661351 
2749.000000	96.662788 
2748.000000	96.664199 
2747.000000	96.665577 
2746.000000	96.666923 
2745.000000	96.668244 
2744.000000	96.669545 
2743.000000	96.670832 
2742.000000	96.672104 
2741.000000	96.673360 
2740.000000	96.674595 
2739.000000	96.675814 
2738.000000	96.677021 
2737.000000	96.678221 
2736.000000	96.679415 
2735.000000	96.680606 
2734.000000	96.681796 
2733.000000	96.682986 
2732.000000	96.684177 
2731.000000	96.685365 
2730.000000	96.686545 
2729.000000	96.687715 
2728.000000	96.688870 
2727.000000	96.690011 
2726.000000	96.691136 
2725.000000	96.692250 
2724.000000	96.693360 
2723.000000	96.694473 
2722.000000	96.695592 
2721.000000	96.696716 
2720.000000	96.697848 
2719.000000	96.698989 
2718.000000	96.700137 
2717.000000	96.701292 
2716.000000	96.702448 
2715.000000	96.703605 
2714.000000	96.704764 
2713.000000	96.705926 
2712.000000	96.707094 
2711.000000	96.708263 
2710.000000	96.709429 
2709.000000	96.710589 
2708.000000	96.711741 
2707.000000	96.712893 
2706.000000	96.714061 
2705.000000	96.715259 
2704.000000	96.716479 
2703.000000	96.717657 
2702.000000	96.718681 
2701.000000	96.719490 
2700.000000	96.720254 
2699.000000	96.721275 
2698.000000	96.722712 
2697.000000	96.724398 
2696.000000	96.725918 
2695.000000	96.727008 
2694.000000	96.727773 
2693.000000	96.728578 
2692.000000	96.729629 
2691.000000	96.730728 
2690.000000	96.731521 
2689.000000	96.731944 
2688.000000	96.732243 
2687.000000	96.732561 
2686.000000	96.732788 
2685.000000	96.732966 
2684.000000	96.733518 
2683.000000	96.734761 
2682.000000	96.736377 
2681.000000	96.737675 
2680.000000	96.738361 
2679.000000	96.738788 
2678.000000	96.739498 
2677.000000	96.740735 
2676.000000	96.742276 
2675.000000	96.743437 
2674.000000	96.743495 
2673.000000	96.742555 
2672.000000	96.741821 
2671.000000	96.742341 
2670.000000	96.743675 
2669.000000	96.744517 
2668.000000	96.744528 
2667.000000	96.744618 
2666.000000	96.745260 
2665.000000	96.745507 
2664.000000	96.744366 
2663.000000	96.742356 
2662.000000	96.741013 
2661.000000	96.741040 
2660.000000	96.741585 
2659.000000	96.741261 
2658.000000	96.739530 
2657.000000	96.737118 
2656.000000	96.735336 
2655.000000	96.734800 
2654.000000	96.734810 
2653.000000	96.734169 
2652.000000	96.732707 
2651.000000	96.731574 
2650.000000	96.731852 
2649.000000	96.733343 
2648.000000	96.734958 
2647.000000	96.735889 
2646.000000	96.735896 
2645.000000	96.734834 
2644.000000	96.732650 
2643.000000	96.729913 
2642.000000	96.727697 
2641.000000	96.726659 
2640.000000	96.726599 
2639.000000	96.727037 
2638.000000	96.727836 
2637.000000	96.728985 
2636.000000	96.730235 
2635.000000	96.731374 
2634.000000	96.732561 
2633.000000	96.733932 
2632.000000	96.735026 
2631.000000	96.735075 
2630.000000	96.733933 
2629.000000	96.732318 
2628.000000	96.731103 
2627.000000	96.730573 
2626.000000	96.730619 
2625.000000	96.731266 
2624.000000	96.732617 
2623.000000	96.734442 
2622.000000	96.736153 
2621.000000	96.737213 
2620.000000	96.737397 
2619.000000	96.736717 
2618.000000	96.735430 
2617.000000	96.734153 
2616.000000	96.733593 
2615.000000	96.734005 
2614.000000	96.735045 
2613.000000	96.736210 
2612.000000	96.737313 
2611.000000	96.738445 
2610.000000	96.739671 
2609.000000	96.740897 
2608.000000	96.741917 
2607.000000	96.742506 
2606.000000	96.742628 
2605.000000	96.742566 
2604.000000	96.742695 
2603.000000	96.743112 
2602.000000	96.743648 
2601.000000	96.744219 
2600.000000	96.744894 
2599.000000	96.745582 
2598.000000	96.746018 
2597.000000	96.746150 
2596.000000	96.746232 
2595.000000	96.746446 
2594.000000	96.746642 
2593.000000	96.746730 
2592.000000	96.747072 
2591.000000	96.748044 
2590.000000	96.749390 
2589.000000	96.750373 
2588.000000	96.750713 
2587.000000	96.750902 
2586.000000	96.751507 
2585.000000	96.752510 
2584.000000	96.753520 
2583.000000	96.754281 
2582.000000	96.754724 
2581.000000	96.754865 
2580.000000	96.754946 
2579.000000	96.755435 
2578.000000	96.756597 
2577.000000	96.758200 
2576.000000	96.759784 
2575.000000	96.761074 
2574.000000	96.761964 
2573.000000	96.762404 
2572.000000	96.762517 
2571.000000	96.762562 
2570.000000	96.762611 
2569.000000	96.762526 
2568.000000	96.762352 
2567.000000	96.762361 
2566.000000	96.762545 
2565.000000	96.762507 
2564.000000	96.762121 
2563.000000	96.761907 
2562.000000	96.762385 
2561.000000	96.763539 
2560.000000	96.765221 
2559.000000	96.767574 
2558.000000	96.770469 
2557.000000	96.772897 
2556.000000	96.773778 
2555.000000	96.773178 
2554.000000	96.772366 
2553.000000	96.772443 
2552.000000	96.773224 
2551.000000	96.773940 
2550.000000	96.774428 
2549.000000	96.775042 
2548.000000	96.775680 
2547.000000	96.775669 
2546.000000	96.774751 
2545.000000	96.773622 
2544.000000	96.773113 
2543.000000	96.773237 
2542.000000	96.773446 
2541.000000	96.773657 
2540.000000	96.774389 
2539.000000	96.775829 
2538.000000	96.777322 
2537.000000	96.778082 
2536.000000	96.778143 
2535.000000	96.778240 
2534.000000	96.778869 
2533.000000	96.779804 
2532.000000	96.780548 
2531.000000	96.780910 
2530.000000	96.780972 
2529.000000	96.780752 
2528.000000	96.780185 
2527.000000	96.779444 
2526.000000	96.779057 
2525.000000	96.779522 
2524.000000	96.780808 
2523.000000	96.782319 
2522.000000	96.783425 
2521.000000	96.784030 
2520.000000	96.784489 
2519.000000	96.785053 
2518.000000	96.785553 
2517.000000	96.785647 
2516.000000	96.785233 
2515.000000	96.784532 
2514.000000	96.783941 
2513.000000	96.783893 
2512.000000	96.784709 
2511.000000	96.786460 
2510.000000	96.788920 
2509.000000	96.791602 
2508.000000	96.793875 
2507.000000	96.795202 
2506.000000	96.795549 
2505.000000	96.795592 
2504.000000	96.796225 
2503.000000	96.797544 
2502.000000	96.798674 
2501.000000	96.798828 
2500.000000	96.798152 
2499.000000	96.797471 
2498.000000	96.797413 
2497.000000	96.797988 
2496.000000	96.798928 
2495.000000	96.800021 
2494.000000	96.801099 
2493.000000	96.801986 
2492.000000	96.802644 
2491.000000	96.803268 
2490.000000	96.804085 
2489.000000	96.805064 
2488.000000	96.805905 
2487.000000	96.806361 
2486.000000	96.806516 
2485.000000	96.806739 
2484.000000	96.807340 
2483.000000	96.808275 
2482.000000	96.809191 
2481.000000	96.809769 
2480.000000	96.810037 
2479.000000	96.810315 
2478.000000	96.810900 
2477.000000	96.811823 
2476.000000	96.812843 
2475.000000	96.813619 
2474.000000	96.813904 
2473.000000	96.813702 
2472.000000	96.813277 
2471.000000	96.812963 
2470.000000	96.812983 
2469.000000	96.813469 
2468.000000	96.814447 
2467.000000	96.815635 
2466.000000	96.816435 
2465.000000	96.816388 
2464.000000	96.815701 
2463.000000	96.815178 
2462.000000	96.815552 
2461.000000	96.817005 
2460.000000	96.819173 
2459.000000	96.821401 
2458.000000	96.822945 
2457.000000	96.823215 
2456.000000	96.821977 
2455.000000	96.819506 
2454.000000	96.816650 
2453.000000	96.814482 
2452.000000	96.813616 
2451.000000	96.813829 
2450.000000	96.814547 
2449.000000	96.815683 
2448.000000	96.817540 
2447.000000	96.819840 
2446.000000	96.821541 
2445.000000	96.821976 
2444.000000	96.821633 
2443.000000	96.821445 
2442.000000	96.821761 
2441.000000	96.822370 
2440.000000	96.823120 
2439.000000	96.824134 
2438.000000	96.825725 
2437.000000	96.828368 
2436.000000	96.832293 
2435.000000	96.836745 
2434.000000	96.840121 
2433.000000	96.841376 
2432.000000	96.840988 
2431.000000	96.840328 
2430.000000	96.840513 
2429.000000	96.841949 
2428.000000	96.844335 
2427.000000	96.846570 
2426.000000	96.847278 
2425.000000	96.845952 
2424.000000	96.843513 
2423.000000	96.841488 
2422.000000	96.840702 
2421.000000	96.841324 
2420.000000	96.843466 
2419.000000	96.846796 
2418.000000	96.850118 
2417.000000	96.852361 
2416.000000	96.853736 
2415.000000	96.855133 
2414.000000	96.856851 
2413.000000	96.858763 
2412.000000	96.861059 
2411.000000	96.863787 
2410.000000	96.866237 
2409.000000	96.867902 
2408.000000	96.869465 
2407.000000	96.871641 
2406.000000	96.873664 
2405.000000	96.874109 
2404.000000	96.872834 
2403.000000	96.870994 
2402.000000	96.869551 
2401.000000	96.868925 
2400.000000	96.869792 
2399.000000	96.872800 
2398.000000	96.877502 
2397.000000	96.882515 
2396.000000	96.886654 
2395.000000	96.889219 
2394.000000	96.889672 
2393.000000	96.888359 
2392.000000	96.887233 
2391.000000	96.888520 
2390.000000	96.892374 
2389.000000	96.896892 
2388.000000	96.900491 
2387.000000	96.903391 
2386.000000	96.906628 
2385.000000	96.910594 
2384.000000	96.914779 
2383.000000	96.917971 
2382.000000	96.918462 
2381.000000	96.915155 
2380.000000	96.908868 
2379.000000	96.901943 
2378.000000	96.896043 
2377.000000	96.891207 
2376.000000	96.887673 
2375.000000	96.887187 
2374.000000	96.890937 
2373.000000	96.897199 
2372.000000	96.902620 
2371.000000	96.905941 
2370.000000	96.908384 
2369.000000	96.910424 
2368.000000	96.910489 
2367.000000	96.907638 
2366.000000	96.903540 
2365.000000	96.900840 
2364.000000	96.900349 
2363.000000	96.901064 
2362.000000	96.902052 
2361.000000	96.903267 
2360.000000	96.904864 
2359.000000	96.906460 
2358.000000	96.906981 
2357.000000	96.905939 
2356.000000	96.903977 
2355.000000	96.902210 
2354.000000	96.900687 
2353.000000	96.899370 
2352.000000	96.899038 
2351.000000	96.899928 
2350.000000	96.901110 
2349.000000	96.901507 
2348.000000	96.901099 
2347.000000	96.900555 
2346.000000	96.900461 
2345.000000	96.900949 
2344.000000	96.901658 
2343.000000	96.902157 
2342.000000	96.902154 
2341.000000	96.901714 
2340.000000	96.901189 
2339.000000	96.900841 
2338.000000	96.900542 
2337.000000	96.899942 
2336.000000	96.899393 
2335.000000	96.899544 
2334.000000	96.900366 
2333.000000	96.900864 
2332.000000	96.901118 
2331.000000	96.901847 
2330.000000	96.903459 
2329.000000	96.904825 
2328.000000	96.905547 
2327.000000	96.905730 
2326.000000	96.905348 
2325.000000	96.904306 
2324.000000	96.903764 
2323.000000	96.905179 
2322.000000	96.907383 
2321.000000	96.907015 
2320.000000	96.903623 
2319.000000	96.900301 
2318.000000	96.900291 
2317.000000	96.901899 
2316.000000	96.902366 
2315.000000	96.900573 
2314.000000	96.899142 
2313.000000	96.899584 
2312.000000	96.902878 
2311.000000	96.908107 
2310.000000	96.913925 
2309.000000	96.917392 
2308.000000	96.917635 
2307.000000	96.915682 
2306.000000	96.913558 
2305.000000	96.911399 
2304.000000	96.909611 
2303.000000	96.909193 
2302.000000	96.912039 
2301.000000	96.917193 
2300.000000	96.921574 
2299.000000	96.920704 
2298.000000	96.912963 
2297.000000	96.899704 
2296.000000	96.885708 
2295.000000	96.875086 
2294.000000	96.868917 
2293.000000	96.864959 
2292.000000	96.861194 
2291.000000	96.857395 
2290.000000	96.853973 
2289.000000	96.850857 
2288.000000	96.847632 
2287.000000	96.843983 
2286.000000	96.839250 
2285.000000	96.833522 
2284.000000	96.828633 
2283.000000	96.827036 
2282.000000	96.828672 
2281.000000	96.830895 
2280.000000	96.831243 
2279.000000	96.829209 
2278.000000	96.825314 
2277.000000	96.820454 
2276.000000	96.816538 
2275.000000	96.815466 
2274.000000	96.817164 
2273.000000	96.819934 
2272.000000	96.822819 
2271.000000	96.825753 
2270.000000	96.827917 
2269.000000	96.828093 
2268.000000	96.826804 
2267.000000	96.825871 
2266.000000	96.825753 
2265.000000	96.825167 
2264.000000	96.823419 
2263.000000	96.821264 
2262.000000	96.819305 
2261.000000	96.817220 
2260.000000	96.814782 
2259.000000	96.812431 
2258.000000	96.810576 
2257.000000	96.809384 
2256.000000	96.809215 
2255.000000	96.810317 
2254.000000	96.812095 
2253.000000	96.813234 
2252.000000	96.812978 
2251.000000	96.811627 
2250.000000	96.809768 
2249.000000	96.807715 
2248.000000	96.805850 
2247.000000	96.804667 
2246.000000	96.804199 
2245.000000	96.803976 
2244.000000	96.803527 
2243.000000	96.802851 
2242.000000	96.802181 
2241.000000	96.801649 
2240.000000	96.801219 
2239.000000	96.800810 
2238.000000	96.800362 
2237.000000	96.799856 
2236.000000	96.799306 
2235.000000	96.798726 
2234.000000	96.798124 
2233.000000	96.797493 
2232.000000	96.796829 
2231.000000	96.796132 
2230.000000	96.795404 
2229.000000	96.794651 
2228.000000	96.793884 
2227.000000	96.793113 
2226.000000	96.792342 
2225.000000	96.791566 
2224.000000	96.790783 
2223.000000	96.790007 
2222.000000	96.789265 
2221.000000	96.788574 
2220.000000	96.787920 
2219.000000	96.787277 
2218.000000	96.786630 
2217.000000	96.785980 
2216.000000	96.785340 
2215.000000	96.784718 
2214.000000	96.784115 
2213.000000	96.783528 
2212.000000	96.782968 
2211.000000	96.782456 
2210.000000	96.782008 
2209.000000	96.781622 
2208.000000	96.781273 
2207.000000	96.780933 
2206.000000	96.780579 
2205.000000	96.780190 
2204.000000	96.779748 
2203.000000	96.779257 
2202.000000	96.778818 
2201.000000	96.778530 
2200.000000	96.778228 
2199.000000	96.777626 
2198.000000	96.776641 
2197.000000	96.775517 
2196.000000	96.774591 
2195.000000	96.773985 
2194.000000	96.773537 
2193.000000	96.773127 
2192.000000	96.773001 
2191.000000	96.773415 
2190.000000	96.774060 
2189.000000	96.774336 
2188.000000	96.774223 
2187.000000	96.774144 
2186.000000	96.773850 
2185.000000	96.772499 
2184.000000	96.770474 
2183.000000	96.770055 
2182.000000	96.773043 
2181.000000	96.778446 
2180.000000	96.782881 
2179.000000	96.783930 
2178.000000	96.781821 
2177.000000	96.778784 
2176.000000	96.777317 
2175.000000	96.778604 
2174.000000	96.781926 
2173.000000	96.785476 
2172.000000	96.788395 
2171.000000	96.791375 
2170.000000	96.794472 
2169.000000	96.795589 
2168.000000	96.792873 
2167.000000	96.788063 
2166.000000	96.785239 
2165.000000	96.785735 
2164.000000	96.786415 
2163.000000	96.784070 
2162.000000	96.780319 
2161.000000	96.780647 
2160.000000	96.789133 
2159.000000	96.805033 
2158.000000	96.823524 
2157.000000	96.839356 
2156.000000	96.849919 
2155.000000	96.855271 
2154.000000	96.857081 
2153.000000	96.858233 
2152.000000	96.861273 
2151.000000	96.865339 
2150.000000	96.866245 
2149.000000	96.861871 
2148.000000	96.856434 
2147.000000	96.856386 
2146.000000	96.862436 
2145.000000	96.869049 
2144.000000	96.872122 
2143.000000	96.873415 
2142.000000	96.876086 
2141.000000	96.879757 
2140.000000	96.882559 
2139.000000	96.885271 
2138.000000	96.890363 
2137.000000	96.898265 
2136.000000	96.906605 
2135.000000	96.912079 
2134.000000	96.911994 
2133.000000	96.906227 
2132.000000	96.899162 
2131.000000	96.897041 
2130.000000	96.901818 
2129.000000	96.909230 
2128.000000	96.913697 
2127.000000	96.913738 
2126.000000	96.911608 
2125.000000	96.909661 
2124.000000	96.908555 
2123.000000	96.907740 
2122.000000	96.906157 
2121.000000	96.902810 
2120.000000	96.897650 
2119.000000	96.891713 
2118.000000	96.886252 
2117.000000	96.882231 
2116.000000	96.880019 
2115.000000	96.878414 
2114.000000	96.874681 
2113.000000	96.867618 
2112.000000	96.860556 
2111.000000	96.858696 
2110.000000	96.863157 
2109.000000	96.869617 
2108.000000	96.873191 
2107.000000	96.873050 
2106.000000	96.871198 
2105.000000	96.869506 
2104.000000	96.869263 
2103.000000	96.871138 
2102.000000	96.873575 
2101.000000	96.872956 
2100.000000	96.867622 
2099.000000	96.860878 
2098.000000	96.858254 
2097.000000	96.862069 
2096.000000	96.870160 
2095.000000	96.878405 
2094.000000	96.883655 
2093.000000	96.884894 
2092.000000	96.883071 
2091.000000	96.880438 
2090.000000	96.879083 
2089.000000	96.879551 
2088.000000	96.880924 
2087.000000	96.881815 
2086.000000	96.881175 
2085.000000	96.878894 
2084.000000	96.876217 
2083.000000	96.874913 
2082.000000	96.875509 
2081.000000	96.876926 
2080.000000	96.878198 
2079.000000	96.879500 
2078.000000	96.880843 
2077.000000	96.881078 
2076.000000	96.879533 
2075.000000	96.877666 
2074.000000	96.877370 
2073.000000	96.878280 
2072.000000	96.878200 
2071.000000	96.875850 
2070.000000	96.871934 
2069.000000	96.867862 
2068.000000	96.864834 
2067.000000	96.863685 
2066.000000	96.864413 
2065.000000	96.865692 
2064.000000	96.865764 
2063.000000	96.864360 
2062.000000	96.863005 
2061.000000	96.863442 
2060.000000	96.866190 
2059.000000	96.870415 
2058.000000	96.874411 
2057.000000	96.876639 
2056.000000	96.876686 
2055.000000	96.874976 
2054.000000	96.872130 
2053.000000	96.868973 
2052.000000	96.866775 
2051.000000	96.866394 
2050.000000	96.867272 
2049.000000	96.868067 
2048.000000	96.868513 
2047.000000	96.869637 
2046.000000	96.871953 
2045.000000	96.874618 
2044.000000	96.876665 
2043.000000	96.878095 
2042.000000	96.879340 
2041.000000	96.880491 
2040.000000	96.881685 
2039.000000	96.883562 
2038.000000	96.886457 
2037.000000	96.889511 
2036.000000	96.891408 
2035.000000	96.891807 
2034.000000	96.891586 
2033.000000	96.892062 
2032.000000	96.894129 
2031.000000	96.897609 
2030.000000	96.900815 
2029.000000	96.901705 
2028.000000	96.900027 
2027.000000	96.897830 
2026.000000	96.897003 
2025.000000	96.897387 
2024.000000	96.898343 
2023.000000	96.900852 
2022.000000	96.906451 
2021.000000	96.914284 
2020.000000	96.920800 
2019.000000	96.923021 
2018.000000	96.920647 
2017.000000	96.915713 
2016.000000	96.911354 
2015.000000	96.909859 
2014.000000	96.910588 
2013.000000	96.910155 
2012.000000	96.906508 
2011.000000	96.902495 
2010.000000	96.903012 
2009.000000	96.908926 
2008.000000	96.916155 
2007.000000	96.921031 
2006.000000	96.923764 
2005.000000	96.925774 
2004.000000	96.926982 
2003.000000	96.927170 
2002.000000	96.927660 
2001.000000	96.928986 
2000.000000	96.928897 
1999.000000	96.924049 
1998.000000	96.913323 
1997.000000	96.899732 
1996.000000	96.888630 
1995.000000	96.883806 
1994.000000	96.885082 
1993.000000	96.888950 
1992.000000	96.891263 
1991.000000	96.890381 
1990.000000	96.887856 
1989.000000	96.886507 
1988.000000	96.887694 
1987.000000	96.889561 
1986.000000	96.888224 
1985.000000	96.881981 
1984.000000	96.873823 
1983.000000	96.868262 
1982.000000	96.866507 
1981.000000	96.866624 
1980.000000	96.868163 
1979.000000	96.872786 
1978.000000	96.879750 
1977.000000	96.885096 
1976.000000	96.886701 
1975.000000	96.887131 
1974.000000	96.889513 
1973.000000	96.893705 
1972.000000	96.897824 
1971.000000	96.901112 
1970.000000	96.903402 
1969.000000	96.903482 
1968.000000	96.900051 
1967.000000	96.893992 
1966.000000	96.888630 
1965.000000	96.887155 
1964.000000	96.890382 
1963.000000	96.896916 
1962.000000	96.904295 
1961.000000	96.910135 
1960.000000	96.912846 
1959.000000	96.911848 
1958.000000	96.907995 
1957.000000	96.903797 
1956.000000	96.901874 
1955.000000	96.902612 
1954.000000	96.904031 
1953.000000	96.904240 
1952.000000	96.903241 
1951.000000	96.902073 
1950.000000	96.901312 
1949.000000	96.901112 
1948.000000	96.902054 
1947.000000	96.904454 
1946.000000	96.907135 
1945.000000	96.908183 
1944.000000	96.907015 
1943.000000	96.904713 
1942.000000	96.902629 
1941.000000	96.901169 
1940.000000	96.900129 
1939.000000	96.899265 
1938.000000	96.898379 
1937.000000	96.897436 
1936.000000	96.896697 
1935.000000	96.896292 
1934.000000	96.895756 
1933.000000	96.894666 
1932.000000	96.893489 
1931.000000	96.893177 
1930.000000	96.893793 
1929.000000	96.894047 
1928.000000	96.893091 
1927.000000	96.891371 
1926.000000	96.889707 
1925.000000	96.888165 
1924.000000	96.886530 
1923.000000	96.885383 
1922.000000	96.884897 
1921.000000	96.883795 
1920.000000	96.880997 
1919.000000	96.877259 
1918.000000	96.874141 
1917.000000	96.871868 
1916.000000	96.869713 
1915.000000	96.867563 
1914.000000	96.865682 
1913.000000	96.863831 
1912.000000	96.861425 
1911.000000	96.858753 
1910.000000	96.856648 
1909.000000	96.855139 
1908.000000	96.853964 
1907.000000	96.853017 
1906.000000	96.852005 
1905.000000	96.849921 
1904.000000	96.846029 
1903.000000	96.841781 
1902.000000	96.839052 
1901.000000	96.837677 
1900.000000	96.836460 
1899.000000	96.835207 
1898.000000	96.834440 
1897.000000	96.833795 
1896.000000	96.832124 
1895.000000	96.829472 
1894.000000	96.826520 
1893.000000	96.822922 
1892.000000	96.818211 
1891.000000	96.813791 
1890.000000	96.811795 
1889.000000	96.812220 
1888.000000	96.813392 
1887.000000	96.814470 
1886.000000	96.815174 
1885.000000	96.814338 
1884.000000	96.810803 
1883.000000	96.805771 
1882.000000	96.802037 
1881.000000	96.800968 
1880.000000	96.802400 
1879.000000	96.805486 
1878.000000	96.808927 
1877.000000	96.811558 
1876.000000	96.812844 
1875.000000	96.813317 
1874.000000	96.813790 
1873.000000	96.814202 
1872.000000	96.814474 
1871.000000	96.815213 
1870.000000	96.815993 
1869.000000	96.814483 
1868.000000	96.810641 
1867.000000	96.808845 
1866.000000	96.810754 
1865.000000	96.812243 
1864.000000	96.809940 
1863.000000	96.806486 
1862.000000	96.806726 
1861.000000	96.811011 
1860.000000	96.815826 
1859.000000	96.819492 
1858.000000	96.823030 
1857.000000	96.826568 
1856.000000	96.829245 
1855.000000	96.831664 
1854.000000	96.834792 
1853.000000	96.836945 
1852.000000	96.837227 
1851.000000	96.837651 
1850.000000	96.839894 
1849.000000	96.843563 
1848.000000	96.847189 
1847.000000	96.850839 
1846.000000	96.855113 
1845.000000	96.859328 
1844.000000	96.861922 
1843.000000	96.863686 
1842.000000	96.866024 
1841.000000	96.867291 
1840.000000	96.866821 
1839.000000	96.866256 
1838.000000	96.866795 
1837.000000	96.867131 
1836.000000	96.865857 
1835.000000	96.864662 
1834.000000	96.865723 
1833.000000	96.868388 
1832.000000	96.870447 
1831.000000	96.870468 
1830.000000	96.868814 
1829.000000	96.867601 
1828.000000	96.868367 
1827.000000	96.870618 
1826.000000	96.873203 
1825.000000	96.875346 
1824.000000	96.876459 
1823.000000	96.876709 
1822.000000	96.876599 
1821.000000	96.876222 
1820.000000	96.875597 
1819.000000	96.875170 
1818.000000	96.875881 
1817.000000	96.877561 
1816.000000	96.878595 
1815.000000	96.878378 
1814.000000	96.877838 
1813.000000	96.877956 
1812.000000	96.878189 
1811.000000	96.877581 
1810.000000	96.876803 
1809.000000	96.876669 
1808.000000	96.876814 
1807.000000	96.876777 
1806.000000	96.876645 
1805.000000	96.876345 
1804.000000	96.875556 
1803.000000	96.874876 
1802.000000	96.875063 
1801.000000	96.875867 
1800.000000	96.876055 
1799.000000	96.875290 
1798.000000	96.875077 
1797.000000	96.876093 
1796.000000	96.877483 
1795.000000	96.878484 
1794.000000	96.879303 
1793.000000	96.880197 
1792.000000	96.880562 
1791.000000	96.880801 
1790.000000	96.882365 
1789.000000	96.884507 
1788.000000	96.885812 
1787.000000	96.886452 
1786.000000	96.887671 
1785.000000	96.889484 
1784.000000	96.890709 
1783.000000	96.891290 
1782.000000	96.891487 
1781.000000	96.891958 
1780.000000	96.893328 
1779.000000	96.895290 
1778.000000	96.897463 
1777.000000	96.899360 
1776.000000	96.901190 
1775.000000	96.903037 
1774.000000	96.904448 
1773.000000	96.905145 
1772.000000	96.905393 
1771.000000	96.906034 
1770.000000	96.907768 
1769.000000	96.910300 
1768.000000	96.912978 
1767.000000	96.915162 
1766.000000	96.916401 
1765.000000	96.916840 
1764.000000	96.916958 
1763.000000	96.917311 
1762.000000	96.918025 
1761.000000	96.919248 
1760.000000	96.920998 
1759.000000	96.922624 
1758.000000	96.923675 
1757.000000	96.924184 
1756.000000	96.925064 
1755.000000	96.925912 
1754.000000	96.925143 
1753.000000	96.922809 
1752.000000	96.921947 
1751.000000	96.924200 
1750.000000	96.927396 
1749.000000	96.928245 
1748.000000	96.925886 
1747.000000	96.922370 
1746.000000	96.918633 
1745.000000	96.916571 
1744.000000	96.918194 
1743.000000	96.922147 
1742.000000	96.924872 
1741.000000	96.924113 
1740.000000	96.920728 
1739.000000	96.919139 
1738.000000	96.922936 
1737.000000	96.927450 
1736.000000	96.927508 
1735.000000	96.926676 
1734.000000	96.926366 
1733.000000	96.923439 
1732.000000	96.921819 
1731.000000	96.920095 
1730.000000	96.918786 
1729.000000	96.918741 
1728.000000	96.918258 
1727.000000	96.915381 
1726.000000	96.909884 
1725.000000	96.905515 
1724.000000	96.902909 
1723.000000	96.900417 
1722.000000	96.899452 
1721.000000	96.898479 
1720.000000	96.893800 
1719.000000	96.885969 
1718.000000	96.880995 
1717.000000	96.878185 
1716.000000	96.871318 
1715.000000	96.862220 
1714.000000	96.857334 
1713.000000	96.855519 
1712.000000	96.849651 
1711.000000	96.839873 
1710.000000	96.831876 
1709.000000	96.826308 
1708.000000	96.818292 
1707.000000	96.805258 
1706.000000	96.791966 
1705.000000	96.782717 
1704.000000	96.775888 
1703.000000	96.767821 
1702.000000	96.759552 
1701.000000	96.755484 
1700.000000	96.747332 
1699.000000	96.734152 
1698.000000	96.726265 
1697.000000	96.717039 
1696.000000	96.703264 
1695.000000	96.689587 
1694.000000	96.681779 
1693.000000	96.674940 
1692.000000	96.662913 
1691.000000	96.648289 
1690.000000	96.635457 
1689.000000	96.625005 
1688.000000	96.616019 
1687.000000	96.605951 
1686.000000	96.594459 
1685.000000	96.582654 
1684.000000	96.567705 
1683.000000	96.553205 
1682.000000	96.544049 
1681.000000	96.533592 
1680.000000	96.522567 
1679.000000	96.514397 
1678.000000	96.506768 
1677.000000	96.495706 
1676.000000	96.482636 
1675.000000	96.470430 
1674.000000	96.457791 
1673.000000	96.444032 
1672.000000	96.427990 
1671.000000	96.411424 
1670.000000	96.396138 
1669.000000	96.380146 
1668.000000	96.369385 
1667.000000	96.366331 
1666.000000	96.362934 
1665.000000	96.353101 
1664.000000	96.337832 
1663.000000	96.323086 
1662.000000	96.309769 
1661.000000	96.295261 
1660.000000	96.281481 
1659.000000	96.269008 
1658.000000	96.255783 
1657.000000	96.241848 
1656.000000	96.230529 
1655.000000	96.226182 
1654.000000	96.229927 
1653.000000	96.210329 
1652.000000	96.168467 
1651.000000	96.158216 
1650.000000	96.153866 
1649.000000	96.136606 
1648.000000	96.117401 
1647.000000	96.107228 
1646.000000	96.103609 
1645.000000	96.104560 
1644.000000	96.103734 
1643.000000	96.098862 
1642.000000	96.092556 
1641.000000	96.086478 
1640.000000	96.082897 
1639.000000	96.080658 
1638.000000	96.078573 
1637.000000	96.076918 
1636.000000	96.075016 
1635.000000	96.070196 
1634.000000	96.072039 
1633.000000	96.081839 
1632.000000	96.087313 
1631.000000	96.091199 
1630.000000	96.097647 
1629.000000	96.103881 
1628.000000	96.108200 
1627.000000	96.116913 
1626.000000	96.130850 
1625.000000	96.143818 
1624.000000	96.154524 
1623.000000	96.167496 
1622.000000	96.184506 
1621.000000	96.202489 
1620.000000	96.219487 
1619.000000	96.236251 
1618.000000	96.254630 
1617.000000	96.266433 
1616.000000	96.269882 
1615.000000	96.281525 
1614.000000	96.301342 
1613.000000	96.315897 
1612.000000	96.325865 
1611.000000	96.340297 
1610.000000	96.357968 
1609.000000	96.373055 
1608.000000	96.389787 
1607.000000	96.413966 
1606.000000	96.437314 
1605.000000	96.451353 
1604.000000	96.462917 
1603.000000	96.478268 
1602.000000	96.494258 
1601.000000	96.506518 
1600.000000	96.518035 
1599.000000	96.531550 
1598.000000	96.543246 
1597.000000	96.550678 
1596.000000	96.557742 
1595.000000	96.568737 
1594.000000	96.581579 
1593.000000	96.592090 
1592.000000	96.601048 
1591.000000	96.611059 
1590.000000	96.620785 
1589.000000	96.628269 
1588.000000	96.636048 
1587.000000	96.647202 
1586.000000	96.659285 
1585.000000	96.667158 
1584.000000	96.673886 
1583.000000	96.683968 
1582.000000	96.693246 
1581.000000	96.698307 
1580.000000	96.703884 
1579.000000	96.713851 
1578.000000	96.725515 
1577.000000	96.735848 
1576.000000	96.742668 
1575.000000	96.750080 
1574.000000	96.760586 
1573.000000	96.768138 
1572.000000	96.772495 
1571.000000	96.778899 
1570.000000	96.785518 
1569.000000	96.786747 
1568.000000	96.790038 
1567.000000	96.797363 
1566.000000	96.800449 
1565.000000	96.797815 
1564.000000	96.797111 
1563.000000	96.801080 
1562.000000	96.802859 
1561.000000	96.800957 
1560.000000	96.814964 
1559.000000	96.836431 
1558.000000	96.833347 
1557.000000	96.828967 
1556.000000	96.828598 
1555.000000	96.829890 
1554.000000	96.831725 
1553.000000	96.832753 
1552.000000	96.832661 
1551.000000	96.831306 
1550.000000	96.831357 
1549.000000	96.831752 
1548.000000	96.829629 
1547.000000	96.825113 
1546.000000	96.819650 
1545.000000	96.816138 
1544.000000	96.815292 
1543.000000	96.814565 
1542.000000	96.812916 
1541.000000	96.808785 
1540.000000	96.794627 
1539.000000	96.776311 
1538.000000	96.768849 
1537.000000	96.765851 
1536.000000	96.756921 
1535.000000	96.745579 
1534.000000	96.737892 
1533.000000	96.734293 
1532.000000	96.731626 
1531.000000	96.725894 
1530.000000	96.716180 
1529.000000	96.704271 
1528.000000	96.692772 
1527.000000	96.684592 
1526.000000	96.679494 
1525.000000	96.674028 
1524.000000	96.665291 
1523.000000	96.654088 
1522.000000	96.644474 
1521.000000	96.637078 
1520.000000	96.629019 
1519.000000	96.617137 
1518.000000	96.601157 
1517.000000	96.586707 
1516.000000	96.577580 
1515.000000	96.571924 
1514.000000	96.565639 
1513.000000	96.557534 
1512.000000	96.547561 
1511.000000	96.535281 
1510.000000	96.522007 
1509.000000	96.510222 
1508.000000	96.503024 
1507.000000	96.497898 
1506.000000	96.487781 
1505.000000	96.473855 
1504.000000	96.459779 
1503.000000	96.444697 
1502.000000	96.429119 
1501.000000	96.414981 
1500.000000	96.402840 
1499.000000	96.391398 
1498.000000	96.380184 
1497.000000	96.370344 
1496.000000	96.361087 
1495.000000	96.352245 
1494.000000	96.344554 
1493.000000	96.337070 
1492.000000	96.328917 
1491.000000	96.320792 
1490.000000	96.313798 
1489.000000	96.306450 
1488.000000	96.295194 
1487.000000	96.280559 
1486.000000	96.266328 
1485.000000	96.251802 
1484.000000	96.236267 
1483.000000	96.221297 
1482.000000	96.208921 
1481.000000	96.198862 
1480.000000	96.187613 
1479.000000	96.173775 
1478.000000	96.159584 
1477.000000	96.147818 
1476.000000	96.137365 
1475.000000	96.127028 
1474.000000	96.117225 
1473.000000	96.108587 
1472.000000	96.100039 
1471.000000	96.090095 
1470.000000	96.078647 
1469.000000	96.064426 
1468.000000	96.047048 
1467.000000	96.028973 
1466.000000	96.013760 
1465.000000	96.002582 
1464.000000	95.993998 
1463.000000	95.983370 
1462.000000	95.967693 
1461.000000	95.947473 
1460.000000	95.926530 
1459.000000	95.909650 
1458.000000	95.901345 
1457.000000	95.901029 
1456.000000	95.900306 
1455.000000	95.892189 
1454.000000	95.872284 
1453.000000	95.847300 
1452.000000	95.828212 
1451.000000	95.818010 
1450.000000	95.813787 
1449.000000	95.813158 
1448.000000	95.813148 
1447.000000	95.810402 
1446.000000	95.801391 
1445.000000	95.788331 
1444.000000	95.776993 
1443.000000	95.766369 
1442.000000	95.754820 
1441.000000	95.743419 
1440.000000	95.733612 
1439.000000	95.722721 
1438.000000	95.713599 
1437.000000	95.714439 
1436.000000	95.721708 
1435.000000	95.721587 
1434.000000	95.709408 
1433.000000	95.693609 
1432.000000	95.684017 
1431.000000	95.681786 
1430.000000	95.682492 
1429.000000	95.685731 
1428.000000	95.690204 
1427.000000	95.693126 
1426.000000	95.692164 
1425.000000	95.693931 
1424.000000	95.706063 
1423.000000	95.718731 
1422.000000	95.720016 
1421.000000	95.714934 
1420.000000	95.720396 
1419.000000	95.736721 
1418.000000	95.748921 
1417.000000	95.754227 
1416.000000	95.757387 
1415.000000	95.759612 
1414.000000	95.758622 
1413.000000	95.756278 
1412.000000	95.758558 
1411.000000	95.765840 
1410.000000	95.774002 
1409.000000	95.781743 
1408.000000	95.789521 
1407.000000	95.800064 
1406.000000	95.816118 
1405.000000	95.840655 
1404.000000	95.873016 
1403.000000	95.902014 
1402.000000	95.919953 
1401.000000	95.933827 
1400.000000	95.957770 
1399.000000	95.992898 
1398.000000	96.024598 
1397.000000	96.042917 
1396.000000	96.053699 
1395.000000	96.069620 
1394.000000	96.093995 
1393.000000	96.123176 
1392.000000	96.153401 
1391.000000	96.180170 
1390.000000	96.201304 
1389.000000	96.218923 
1388.000000	96.236779 
1387.000000	96.255160 
1386.000000	96.270781 
1385.000000	96.283457 
1384.000000	96.297932 
1383.000000	96.315917 
1382.000000	96.334051 
1381.000000	96.348495 
1380.000000	96.360425 
1379.000000	96.374400 
1378.000000	96.391290 
1377.000000	96.407900 
1376.000000	96.422817 
1375.000000	96.439041 
1374.000000	96.459129 
1373.000000	96.482341 
1372.000000	96.505378 
1371.000000	96.525826 
1370.000000	96.543207 
1369.000000	96.559256 
1368.000000	96.576628 
1367.000000	96.593572 
1366.000000	96.606318 
1365.000000	96.615098 
1364.000000	96.625486 
1363.000000	96.642106 
1362.000000	96.662762 
1361.000000	96.681560 
1360.000000	96.696486 
1359.000000	96.709648 
1358.000000	96.722123 
1357.000000	96.732962 
1356.000000	96.742296 
1355.000000	96.751540 
1354.000000	96.761998 
1353.000000	96.773995 
1352.000000	96.786284 
1351.000000	96.798718 
1350.000000	96.810704 
1349.000000	96.820720 
1348.000000	96.828649 
1347.000000	96.835047 
1346.000000	96.841398 
1345.000000	96.848377 
1344.000000	96.854772 
1343.000000	96.858192 
1342.000000	96.858948 
1341.000000	96.861599 
1340.000000	96.870720 
1339.000000	96.884506 
1338.000000	96.896474 
1337.000000	96.903584 
1336.000000	96.907737 
1335.000000	96.910565 
1334.000000	96.911696 
1333.000000	96.911582 
1332.000000	96.912247 
1331.000000	96.914591 
1330.000000	96.917512 
1329.000000	96.920407 
1328.000000	96.923949 
1327.000000	96.928082 
1326.000000	96.930956 
1325.000000	96.931230 
1324.000000	96.929232 
1323.000000	96.924879 
1322.000000	96.918423 
1321.000000	96.912758 
1320.000000	96.911983 
1319.000000	96.916682 
1318.000000	96.923336 
1317.000000	96.928396 
1316.000000	96.930336 
1315.000000	96.928416 
1314.000000	96.923428 
1313.000000	96.919564 
1312.000000	96.921060 
1311.000000	96.926326 
1310.000000	96.929292 
1309.000000	96.927292 
1308.000000	96.923743 
1307.000000	96.922882 
1306.000000	96.924629 
1305.000000	96.926802 
1304.000000	96.928869 
1303.000000	96.930507 
1302.000000	96.930152 
1301.000000	96.927281 
1300.000000	96.924377 
1299.000000	96.924179 
1298.000000	96.926525 
1297.000000	96.929148 
1296.000000	96.930375 
1295.000000	96.929828 
1294.000000	96.928043 
1293.000000	96.926472 
1292.000000	96.926284 
1291.000000	96.926777 
1290.000000	96.926518 
1289.000000	96.925975 
1288.000000	96.926728 
1287.000000	96.927969 
1286.000000	96.926799 
1285.000000	96.922854 
1284.000000	96.919560 
1283.000000	96.919324 
1282.000000	96.920117 
1281.000000	96.918546 
1280.000000	96.914585 
1279.000000	96.911200 
1278.000000	96.910802 
1277.000000	96.913739 
1276.000000	96.918633 
1275.000000	96.923000 
1274.000000	96.924909 
1273.000000	96.925277 
1272.000000	96.926795 
1271.000000	96.929856 
1270.000000	96.931616 
1269.000000	96.930129 
1268.000000	96.927005 
1267.000000	96.924431 
1266.000000	96.922346 
1265.000000	96.920390 
1264.000000	96.919960 
1263.000000	96.922072 
1262.000000	96.925087 
1261.000000	96.926879 
1260.000000	96.928254 
1259.000000	96.931642 
1258.000000	96.937022 
1257.000000	96.941138 
1256.000000	96.940365 
1255.000000	96.933941 
1254.000000	96.925080 
1253.000000	96.918859 
1252.000000	96.917696 
1251.000000	96.919118 
1250.000000	96.919411 
1249.000000	96.918918 
1248.000000	96.921204 
1247.000000	96.926925 
1246.000000	96.931870 
1245.000000	96.932010 
1244.000000	96.927670 
1243.000000	96.922175 
1242.000000	96.919054 
1241.000000	96.921118 
1240.000000	96.928922 
1239.000000	96.938495 
1238.000000	96.943273 
1237.000000	96.940137 
1236.000000	96.931796 
1235.000000	96.922591 
1234.000000	96.914395 
1233.000000	96.907313 
1232.000000	96.901065 
1231.000000	96.893798 
1230.000000	96.882526 
1229.000000	96.866886 
1228.000000	96.849836 
1227.000000	96.832550 
1226.000000	96.810999 
1225.000000	96.780138 
1224.000000	96.739738 
1223.000000	96.693876 
1222.000000	96.646095 
1221.000000	96.597004 
1220.000000	96.545267 
1219.000000	96.488740 
1218.000000	96.425587 
1217.000000	96.355965 
1216.000000	96.281597 
1215.000000	96.202770 
1214.000000	96.117939 
1213.000000	96.027979 
1212.000000	95.937741 
1211.000000	95.850066 
1210.000000	95.760559 
1209.000000	95.662662 
1208.000000	95.556918 
1207.000000	95.451053 
1206.000000	95.350797 
1205.000000	95.253960 
1204.000000	95.153854 
1203.000000	95.045718 
1202.000000	94.930128 
1201.000000	94.812787 
1200.000000	94.700585 
1199.000000	94.595298 
1198.000000	94.491568 
1197.000000	94.383210 
1196.000000	94.270012 
1195.000000	94.155797 
1194.000000	94.041828 
1193.000000	93.925930 
1192.000000	93.806788 
1191.000000	93.684992 
1190.000000	93.560661 
1189.000000	93.433820 
1188.000000	93.306329 
1187.000000	93.179749 
1186.000000	93.052278 
1185.000000	92.921470 
1184.000000	92.788485 
1183.000000	92.655621 
1182.000000	92.521528 
1181.000000	92.383626 
1180.000000	92.243181 
1179.000000	92.102115 
1178.000000	91.956428 
1177.000000	91.799535 
1176.000000	91.631459 
1175.000000	91.458406 
1174.000000	91.283822 
1173.000000	91.106515 
1172.000000	90.927005 
1171.000000	90.747913 
1170.000000	90.567899 
1169.000000	90.383351 
1168.000000	90.197627 
1167.000000	90.021929 
1166.000000	89.867035 
1165.000000	89.742199 
1164.000000	89.661566 
1163.000000	89.640042 
1162.000000	89.677976 
1161.000000	89.755968 
1160.000000	89.846344 
1159.000000	89.923856 
1158.000000	89.967232 
1157.000000	89.961983 
1156.000000	89.906352 
1155.000000	89.809432 
1154.000000	89.681970 
1153.000000	89.533299 
1152.000000	89.375515 
1151.000000	89.221230 
1150.000000	89.074356 
1149.000000	88.930110 
1148.000000	88.785487 
1147.000000	88.642312 
1146.000000	88.499446 
1145.000000	88.351359 
1144.000000	88.196972 
1143.000000	88.041742 
1142.000000	87.888557 
1141.000000	87.734265 
1140.000000	87.577046 
1139.000000	87.419186 
1138.000000	87.260844 
1137.000000	87.099162 
1136.000000	86.934930 
1135.000000	86.771803 
1134.000000	86.607946 
1133.000000	86.437384 
1132.000000	86.260416 
1131.000000	86.083146 
1130.000000	85.905971 
1129.000000	85.722830 
1128.000000	85.532876 
1127.000000	85.341843 
1126.000000	85.150278 
1125.000000	84.951855 
1124.000000	84.745683 
1123.000000	84.538996 
1122.000000	84.335281 
1121.000000	84.131161 
1120.000000	83.927252 
1119.000000	83.729673 
1118.000000	83.538312 
1117.000000	83.346770 
1116.000000	83.156710 
1115.000000	82.978897 
1114.000000	82.816817 
1113.000000	82.662427 
1112.000000	82.510577 
1111.000000	82.363389 
1110.000000	82.218294 
1109.000000	82.067353 
1108.000000	81.910660 
1107.000000	81.755706 
1106.000000	81.601522 
1105.000000	81.438737 
1104.000000	81.267594 
1103.000000	81.099665 
1102.000000	80.939121 
1101.000000	80.778468 
1100.000000	80.615246 
1099.000000	80.456408 
1098.000000	80.303253 
1097.000000	80.148441 
1096.000000	79.990741 
1095.000000	79.836255 
1094.000000	79.683134 
1093.000000	79.522662 
1092.000000	79.357814 
1091.000000	79.202740 
1090.000000	79.061180 
1089.000000	78.923002 
1088.000000	78.783771 
1087.000000	78.648922 
1086.000000	78.517103 
1085.000000	78.379507 
1084.000000	78.238096 
1083.000000	78.104390 
1082.000000	77.977690 
1081.000000	77.844731 
1080.000000	77.703127 
1079.000000	77.564136 
1078.000000	77.429551 
1077.000000	77.287119 
1076.000000	77.131518 
1075.000000	76.967912 
1074.000000	76.792333 
1073.000000	76.591137 
1072.000000	76.362218 
1071.000000	76.113553 
1070.000000	75.838462 
1069.000000	75.517984 
1068.000000	75.153447 
1067.000000	74.773019 
1066.000000	74.399353 
1065.000000	74.032782 
1064.000000	73.671683 
1063.000000	73.322361 
1062.000000	72.979848 
1061.000000	72.624802 
1060.000000	72.250571 
1059.000000	71.871921 
1058.000000	71.499082 
1057.000000	71.125001 
1056.000000	70.744690 
1055.000000	70.363039 
1054.000000	69.975992 
1053.000000	69.568675 
1052.000000	69.141486 
1051.000000	68.713229 
1050.000000	68.288732 
1049.000000	67.851222 
1048.000000	67.395486 
1047.000000	66.937308 
1046.000000	66.482682 
1045.000000	66.019136 
1044.000000	65.543967 
1043.000000	65.071471 
1042.000000	64.605521 
1041.000000	64.133264 
1040.000000	63.653654 
1039.000000	63.184696 
1038.000000	62.735009 
1037.000000	62.296033 
1036.000000	61.868595 
1035.000000	61.467804 
1034.000000	61.095076 
1033.000000	60.735027 
1032.000000	60.385847 
1031.000000	60.062322 
1030.000000	59.764344 
1029.000000	59.475423 
1028.000000	59.197455 
1027.000000	58.952255 
1026.000000	58.742086 
1025.000000	58.543191 
1024.000000	58.344806 
1023.000000	58.159311 
1022.000000	57.986965 
1021.000000	57.807561 
1020.000000	57.615553 
1019.000000	57.428118 
1018.000000	57.250066 
1017.000000	57.065823 
1016.000000	56.873653 
1015.000000	56.692086 
1014.000000	56.524255 
1013.000000	56.351407 
1012.000000	56.169636 
1011.000000	55.997562 
1010.000000	55.840204 
1009.000000	55.681861 
1008.000000	55.522589 
1007.000000	55.384652 
1006.000000	55.274193 
1005.000000	55.173263 
1004.000000	55.077903 
1003.000000	55.006574 
1002.000000	54.961737 
1001.000000	54.921162 
1000.000000	54.877753 
999.000000	 54.851136 
998.000000	 54.849020 
997.000000	 54.853472 
996.000000	 54.856152 
995.000000	 54.871815 
994.000000	 54.905958 
993.000000	 54.943628 
992.000000	 54.980372 
991.000000	 55.030557 
990.000000	 55.095875 
989.000000	 55.159682 
988.000000	 55.221287 
987.000000	 55.301908 
986.000000	 55.408609 
985.000000	 55.526507 
984.000000	 55.653457 
983.000000	 55.806835 
982.000000	 55.988173 
981.000000	 56.176955 
980.000000	 56.368083 
979.000000	 56.580535 
978.000000	 56.820696 
977.000000	 57.072632 
976.000000	 57.332918 
975.000000	 57.619517 
974.000000	 57.936575 
973.000000	 58.264759 
972.000000	 58.595856 
971.000000	 58.943827 
970.000000	 59.312431 
969.000000	 59.684681 
968.000000	 60.053397 
967.000000	 60.430922 
966.000000	 60.820477 
965.000000	 61.208769 
964.000000	 61.593972 
963.000000	 61.990033 
962.000000	 62.396321 
961.000000	 62.793532 
960.000000	 63.176093 
959.000000	 63.558321 
958.000000	 63.942726 
957.000000	 64.313111 
956.000000	 64.665509 
955.000000	 65.015384 
954.000000	 65.367230 
953.000000	 65.706444 
952.000000	 66.027779 
951.000000	 66.342583 
950.000000	 66.651830 
949.000000	 66.940883 
948.000000	 67.206882 
947.000000	 67.462585 
946.000000	 67.707728 
945.000000	 67.925657 
944.000000	 68.114490 
943.000000	 68.293205 
942.000000	 68.470576 
941.000000	 68.636175 
940.000000	 68.788621 
939.000000	 68.943609 
938.000000	 69.106128 
937.000000	 69.262734 
936.000000	 69.409707 
935.000000	 69.561886 
934.000000	 69.725658 
933.000000	 69.889619 
932.000000	 70.049643 
931.000000	 70.217129 
930.000000	 70.395114 
929.000000	 70.571478 
928.000000	 70.742317 
927.000000	 70.916771 
926.000000	 71.092785 
925.000000	 71.253337 
924.000000	 71.392571 
923.000000	 71.521668 
922.000000	 71.644909 
921.000000	 71.754902 
920.000000	 71.854464 
919.000000	 71.956386 
918.000000	 72.057626 
917.000000	 72.141118 
916.000000	 72.208107 
915.000000	 72.282400 
914.000000	 72.378866 
913.000000	 72.495383 
912.000000	 72.638912 
911.000000	 72.828889 
910.000000	 73.068494 
909.000000	 73.341748 
908.000000	 73.645116 
907.000000	 73.993347 
906.000000	 74.388840 
905.000000	 74.814283 
904.000000	 75.260363 
903.000000	 75.731957 
902.000000	 76.222936 
901.000000	 76.714564 
900.000000	 77.203515 
899.000000	 77.703281 
898.000000	 78.213666 
897.000000	 78.716040 
896.000000	 79.201084 
895.000000	 79.673788 
894.000000	 80.130049 
893.000000	 80.557365 
892.000000	 80.961183 
891.000000	 81.362022 
890.000000	 81.762323 
889.000000	 82.142470 
888.000000	 82.492714 
887.000000	 82.822947 
886.000000	 83.138952 
885.000000	 83.435896 
884.000000	 83.717670 
883.000000	 83.994924 
882.000000	 84.261453 
881.000000	 84.501885 
880.000000	 84.726164 
879.000000	 84.965507 
878.000000	 85.229091 
877.000000	 85.496723 
876.000000	 85.760300 
875.000000	 86.038311 
874.000000	 86.341107 
873.000000	 86.656051 
872.000000	 86.977389 
871.000000	 87.318129 
870.000000	 87.680264 
869.000000	 88.042167 
868.000000	 88.387531 
867.000000	 88.722661 
866.000000	 89.056614 
865.000000	 89.387814 
864.000000	 89.718559 
863.000000	 90.059785 
862.000000	 90.411388 
861.000000	 90.757087 
860.000000	 91.086803 
859.000000	 91.406337 
858.000000	 91.719373 
857.000000	 92.018172 
856.000000	 92.297561 
855.000000	 92.560270 
854.000000	 92.803360 
853.000000	 93.016927 
852.000000	 93.201447 
851.000000	 93.370229 
850.000000	 93.530603 
849.000000	 93.678507 
848.000000	 93.813475 
847.000000	 93.940564 
846.000000	 94.054926 
845.000000	 94.143695 
844.000000	 94.206282 
843.000000	 94.253559 
842.000000	 94.283725 
841.000000	 94.279083 
840.000000	 94.231346 
839.000000	 94.151119 
838.000000	 94.048804 
837.000000	 93.926718 
836.000000	 93.795961 
835.000000	 93.679497 
834.000000	 93.588221 
833.000000	 93.511550 
832.000000	 93.440607 
831.000000	 93.383722 
830.000000	 93.351552 
829.000000	 93.345574 
828.000000	 93.370133 
827.000000	 93.435712 
826.000000	 93.539002 
825.000000	 93.659308 
824.000000	 93.785179 
823.000000	 93.923600 
822.000000	 94.074187 
821.000000	 94.218179 
820.000000	 94.341476 
819.000000	 94.446182 
818.000000	 94.532556 
817.000000	 94.588623 
816.000000	 94.604151 
815.000000	 94.579530 
814.000000	 94.514425 
813.000000	 94.399187 
812.000000	 94.220374 
811.000000	 93.961813 
810.000000	 93.598850 
809.000000	 93.108154 
808.000000	 92.489586 
807.000000	 91.767290 
806.000000	 90.967423 
805.000000	 90.109960 
804.000000	 89.225048 
803.000000	 88.357216 
802.000000	 87.545792 
801.000000	 86.819576 
800.000000	 86.214932 
799.000000	 85.773121 
798.000000	 85.509061 
797.000000	 85.403344 
796.000000	 85.429259 
795.000000	 85.563285 
794.000000	 85.768285 
793.000000	 85.998570 
792.000000	 86.229461 
791.000000	 86.456561 
790.000000	 86.663299 
789.000000	 86.816730 
788.000000	 86.898196 
787.000000	 86.910121 
786.000000	 86.848746 
785.000000	 86.698291 
784.000000	 86.458840 
783.000000	 86.155975 
782.000000	 85.819294 
781.000000	 85.477771 
780.000000	 85.178486 
779.000000	 84.976459 
778.000000	 84.894886 
777.000000	 84.921165 
776.000000	 85.045509 
775.000000	 85.270372 
774.000000	 85.575427 
773.000000	 85.909971 
772.000000	 86.234333 
771.000000	 86.540992 
770.000000	 86.826551 
769.000000	 87.073835 
768.000000	 87.272682 
767.000000	 87.429917 
766.000000	 87.547744 
765.000000	 87.619355 
764.000000	 87.656507 
763.000000	 87.693719 
762.000000	 87.751753 
761.000000	 87.821001 
760.000000	 87.891118 
759.000000	 87.970180 
758.000000	 88.062964 
757.000000	 88.158353 
756.000000	 88.253594 
755.000000	 88.366326 
754.000000	 88.506796 
753.000000	 88.658650 
752.000000	 88.799868 
751.000000	 88.924481 
750.000000	 89.035932 
749.000000	 89.139980 
748.000000	 89.252203 
747.000000	 89.390806 
746.000000	 89.553156 
745.000000	 89.720096 
744.000000	 89.889655 
743.000000	 90.082554 
742.000000	 90.308127 
741.000000	 90.551436 
740.000000	 90.801267 
739.000000	 91.062932 
738.000000	 91.333626 
737.000000	 91.591867 
736.000000	 91.823689 
735.000000	 92.036287 
734.000000	 92.236724 
733.000000	 92.420120 
732.000000	 92.585504 
731.000000	 92.738826 
730.000000	 92.873481 
729.000000	 92.973654 
728.000000	 93.042134 
727.000000	 93.102342 
726.000000	 93.171306 
725.000000	 93.251981 
724.000000	 93.352506 
723.000000	 93.485397 
722.000000	 93.642167 
721.000000	 93.794834 
720.000000	 93.930370 
719.000000	 94.060319 
718.000000	 94.190352 
717.000000	 94.308675 
716.000000	 94.412257 
715.000000	 94.514489 
714.000000	 94.618612 
713.000000	 94.711695 
712.000000	 94.791866 
711.000000	 94.872558 
710.000000	 94.950915 
709.000000	 95.005377 
708.000000	 95.030096 
707.000000	 95.042546 
706.000000	 95.049410 
705.000000	 95.030619 
704.000000	 94.968161 
703.000000	 94.865180 
702.000000	 94.718770 
701.000000	 94.500070 
700.000000	 94.182390 
699.000000	 93.769130 
698.000000	 93.291536 
697.000000	 92.804893 
696.000000	 92.392226 
695.000000	 92.139770 
694.000000	 92.080287 
693.000000	 92.176341 
692.000000	 92.367710 
691.000000	 92.610693 
690.000000	 92.872888 
689.000000	 93.123285 
688.000000	 93.346799 
687.000000	 93.549695 
686.000000	 93.732920 
685.000000	 93.885850 
684.000000	 94.014414 
683.000000	 94.139895 
682.000000	 94.265919 
681.000000	 94.377739 
680.000000	 94.479389 
679.000000	 94.593669 
678.000000	 94.722271 
677.000000	 94.848004 
676.000000	 94.969577 
675.000000	 95.103500 
674.000000	 95.245456 
673.000000	 95.356911 
672.000000	 95.409643 
671.000000	 95.398225 
670.000000	 95.328362 
669.000000	 95.212447 
668.000000	 95.185377 
667.000000	 95.421674 
666.000000	 95.787546 
665.000000	 96.075197 
664.000000	 96.273043 
663.000000	 96.423134 
662.000000	 96.545476 
661.000000	 96.636489 
660.000000	 96.705853 
659.000000	 96.783209 
658.000000	 96.874619 
657.000000	 96.952829 
656.000000	 96.991818 
655.000000	 96.994815 
654.000000	 96.974745 
653.000000	 96.932565 
652.000000	 96.879725 
651.000000	 96.855964 
650.000000	 96.885428 

