4000.000000	98.113728 
3999.000000	98.111721 
3998.000000	98.107030 
3997.000000	98.101459 
3996.000000	98.097082 
3995.000000	98.094919 
3994.000000	98.094964 
3993.000000	98.096512 
3992.000000	98.098455 
3991.000000	98.099823 
3990.000000	98.100330 
3989.000000	98.100418 
3988.000000	98.100639 
3987.000000	98.101161 
3986.000000	98.101917 
3985.000000	98.102889 
3984.000000	98.103894 
3983.000000	98.104497 
3982.000000	98.104636 
3981.000000	98.104950 
3980.000000	98.105788 
3979.000000	98.106371 
3978.000000	98.105702 
3977.000000	98.103994 
3976.000000	98.102497 
3975.000000	98.101869 
3974.000000	98.101454 
3973.000000	98.100334 
3972.000000	98.098410 
3971.000000	98.096326 
3970.000000	98.094774 
3969.000000	98.094227 
3968.000000	98.094983 
3967.000000	98.096838 
3966.000000	98.098931 
3965.000000	98.100182 
3964.000000	98.099857 
3963.000000	98.097925 
3962.000000	98.095164 
3961.000000	98.092665 
3960.000000	98.090898 
3959.000000	98.089524 
3958.000000	98.088140 
3957.000000	98.086958 
3956.000000	98.086422 
3955.000000	98.086162 
3954.000000	98.085186 
3953.000000	98.082953 
3952.000000	98.079963 
3951.000000	98.077257 
3950.000000	98.075352 
3949.000000	98.073976 
3948.000000	98.072393 
3947.000000	98.070180 
3946.000000	98.067958 
3945.000000	98.067134 
3944.000000	98.068636 
3943.000000	98.071610 
3942.000000	98.074365 
3941.000000	98.076272 
3940.000000	98.077704 
3939.000000	98.078802 
3938.000000	98.078960 
3937.000000	98.077551 
3936.000000	98.074785 
3935.000000	98.071477 
3934.000000	98.068649 
3933.000000	98.067115 
3932.000000	98.067073 
3931.000000	98.067690 
3930.000000	98.067708 
3929.000000	98.066975 
3928.000000	98.066516 
3927.000000	98.067129 
3926.000000	98.068325 
3925.000000	98.068676 
3924.000000	98.067426 
3923.000000	98.065108 
3922.000000	98.062527 
3921.000000	98.060201 
3920.000000	98.058610 
3919.000000	98.058248 
3918.000000	98.058998 
3917.000000	98.059928 
3916.000000	98.060263 
3915.000000	98.060096 
3914.000000	98.059952 
3913.000000	98.060027 
3912.000000	98.060050 
3911.000000	98.059763 
3910.000000	98.058956 
3909.000000	98.057459 
3908.000000	98.055454 
3907.000000	98.053229 
3906.000000	98.050961 
3905.000000	98.048317 
3904.000000	98.044908 
3903.000000	98.041340 
3902.000000	98.039052 
3901.000000	98.038910 
3900.000000	98.040468 
3899.000000	98.042296 
3898.000000	98.043298 
3897.000000	98.043281 
3896.000000	98.042443 
3895.000000	98.041215 
3894.000000	98.040197 
3893.000000	98.039787 
3892.000000	98.039670 
3891.000000	98.038992 
3890.000000	98.037464 
3889.000000	98.035547 
3888.000000	98.033943 
3887.000000	98.033013 
3886.000000	98.032599 
3885.000000	98.032210 
3884.000000	98.031498 
3883.000000	98.030486 
3882.000000	98.029499 
3881.000000	98.028884 
3880.000000	98.028656 
3879.000000	98.028433 
3878.000000	98.027912 
3877.000000	98.027182 
3876.000000	98.026554 
3875.000000	98.026133 
3874.000000	98.025710 
3873.000000	98.025098 
3872.000000	98.024399 
3871.000000	98.023817 
3870.000000	98.023386 
3869.000000	98.023060 
3868.000000	98.022813 
3867.000000	98.022582 
3866.000000	98.022324 
3865.000000	98.022107 
3864.000000	98.022053 
3863.000000	98.022135 
3862.000000	98.022116 
3861.000000	98.021912 
3860.000000	98.021708 
3859.000000	98.021636 
3858.000000	98.021548 
3857.000000	98.021180 
3856.000000	98.020540 
3855.000000	98.019999 
3854.000000	98.019606 
3853.000000	98.018996 
3852.000000	98.018361 
3851.000000	98.018294 
3850.000000	98.018819 
3849.000000	98.019691 
3848.000000	98.020744 
3847.000000	98.021878 
3846.000000	98.022752 
3845.000000	98.022909 
3844.000000	98.022244 
3843.000000	98.021040 
3842.000000	98.019641 
3841.000000	98.018547 
3840.000000	98.018302 
3839.000000	98.019179 
3838.000000	98.020876 
3837.000000	98.022422 
3836.000000	98.023092 
3835.000000	98.022964 
3834.000000	98.022684 
3833.000000	98.023038 
3832.000000	98.024297 
3831.000000	98.025993 
3830.000000	98.027459 
3829.000000	98.028399 
3828.000000	98.029223 
3827.000000	98.030515 
3826.000000	98.031875 
3825.000000	98.032183 
3824.000000	98.030869 
3823.000000	98.028932 
3822.000000	98.028228 
3821.000000	98.028913 
3820.000000	98.029442 
3819.000000	98.028855 
3818.000000	98.027812 
3817.000000	98.028269 
3816.000000	98.031728 
3815.000000	98.037447 
3814.000000	98.042912 
3813.000000	98.046083 
3812.000000	98.046771 
3811.000000	98.046688 
3810.000000	98.047368 
3809.000000	98.048437 
3808.000000	98.048275 
3807.000000	98.045811 
3806.000000	98.041300 
3805.000000	98.035642 
3804.000000	98.029536 
3803.000000	98.025518 
3802.000000	98.026526 
3801.000000	98.031415 
3800.000000	98.036378 
3799.000000	98.038770 
3798.000000	98.038990 
3797.000000	98.040368 
3796.000000	98.045581 
3795.000000	98.053389 
3794.000000	98.059799 
3793.000000	98.062536 
3792.000000	98.063009 
3791.000000	98.064365 
3790.000000	98.067233 
3789.000000	98.068958 
3788.000000	98.067556 
3787.000000	98.064281 
3786.000000	98.061762 
3785.000000	98.060776 
3784.000000	98.059764 
3783.000000	98.057376 
3782.000000	98.054100 
3781.000000	98.051874 
3780.000000	98.052571 
3779.000000	98.056480 
3778.000000	98.061846 
3777.000000	98.066194 
3776.000000	98.067827 
3775.000000	98.066390 
3774.000000	98.062579 
3773.000000	98.057531 
3772.000000	98.052657 
3771.000000	98.048801 
3770.000000	98.045484 
3769.000000	98.042109 
3768.000000	98.039277 
3767.000000	98.037948 
3766.000000	98.038625 
3765.000000	98.040432 
3764.000000	98.041693 
3763.000000	98.041009 
3762.000000	98.037910 
3761.000000	98.033613 
3760.000000	98.030084 
3759.000000	98.028401 
3758.000000	98.026405 
3757.000000	98.020291 
3756.000000	98.009196 
3755.000000	97.995082 
3754.000000	97.980550 
3753.000000	97.968050 
3752.000000	97.960377 
3751.000000	97.958204 
3750.000000	97.956833 
3749.000000	97.951531 
3748.000000	97.943595 
3747.000000	97.938679 
3746.000000	97.943774 
3745.000000	97.958858 
3744.000000	97.975452 
3743.000000	97.985747 
3742.000000	97.985742 
3741.000000	97.974125 
3740.000000	97.955725 
3739.000000	97.940870 
3738.000000	97.937083 
3737.000000	97.941177 
3736.000000	97.945845 
3735.000000	97.949272 
3734.000000	97.954171 
3733.000000	97.960582 
3732.000000	97.966071 
3731.000000	97.970621 
3730.000000	97.974532 
3729.000000	97.975950 
3728.000000	97.974606 
3727.000000	97.973042 
3726.000000	97.973211 
3725.000000	97.973762 
3724.000000	97.972630 
3723.000000	97.970585 
3722.000000	97.969839 
3721.000000	97.971203 
3720.000000	97.971703 
3719.000000	97.969068 
3718.000000	97.964515 
3717.000000	97.958611 
3716.000000	97.949804 
3715.000000	97.935141 
3714.000000	97.914778 
3713.000000	97.894668 
3712.000000	97.880707 
3711.000000	97.872352 
3710.000000	97.864086 
3709.000000	97.852124 
3708.000000	97.836535 
3707.000000	97.817888 
3706.000000	97.796454 
3705.000000	97.773710 
3704.000000	97.751963 
3703.000000	97.732508 
3702.000000	97.712824 
3701.000000	97.689306 
3700.000000	97.662038 
3699.000000	97.635185 
3698.000000	97.613845 
3697.000000	97.599940 
3696.000000	97.591859 
3695.000000	97.586196 
3694.000000	97.579327 
3693.000000	97.569225 
3692.000000	97.556823 
3691.000000	97.544785 
3690.000000	97.533828 
3689.000000	97.522949 
3688.000000	97.513515 
3687.000000	97.507742 
3686.000000	97.504457 
3685.000000	97.500877 
3684.000000	97.496128 
3683.000000	97.491836 
3682.000000	97.488218 
3681.000000	97.480415 
3680.000000	97.461794 
3679.000000	97.429500 
3678.000000	97.387689 
3677.000000	97.345896 
3676.000000	97.311131 
3675.000000	97.284349 
3674.000000	97.262620 
3673.000000	97.241408 
3672.000000	97.217825 
3671.000000	97.196131 
3670.000000	97.181382 
3669.000000	97.171874 
3668.000000	97.162419 
3667.000000	97.150107 
3666.000000	97.136435 
3665.000000	97.124039 
3664.000000	97.112371 
3663.000000	97.098715 
3662.000000	97.080881 
3661.000000	97.057816 
3660.000000	97.030088 
3659.000000	96.999121 
3658.000000	96.967171 
3657.000000	96.935782 
3656.000000	96.905361 
3655.000000	96.877615 
3654.000000	96.853190 
3653.000000	96.829314 
3652.000000	96.800999 
3651.000000	96.764734 
3650.000000	96.721485 
3649.000000	96.678574 
3648.000000	96.646686 
3647.000000	96.631623 
3646.000000	96.631626 
3645.000000	96.640915 
3644.000000	96.653103 
3643.000000	96.662849 
3642.000000	96.666213 
3641.000000	96.660693 
3640.000000	96.646820 
3639.000000	96.627507 
3638.000000	96.606256 
3637.000000	96.584818 
3636.000000	96.562662 
3635.000000	96.538758 
3634.000000	96.513672 
3633.000000	96.489890 
3632.000000	96.467924 
3631.000000	96.443453 
3630.000000	96.409802 
3629.000000	96.365639 
3628.000000	96.322395 
3627.000000	96.295766 
3626.000000	96.289139 
3625.000000	96.295970 
3624.000000	96.309300 
3623.000000	96.323870 
3622.000000	96.334948 
3621.000000	96.338787 
3620.000000	96.334162 
3619.000000	96.324421 
3618.000000	96.317289 
3617.000000	96.320414 
3616.000000	96.337318 
3615.000000	96.366472 
3614.000000	96.401236 
3613.000000	96.432882 
3612.000000	96.455864 
3611.000000	96.469598 
3610.000000	96.477162 
3609.000000	96.483331 
3608.000000	96.491614 
3607.000000	96.503501 
3606.000000	96.519450 
3605.000000	96.540088 
3604.000000	96.565644 
3603.000000	96.593586 
3602.000000	96.618181 
3601.000000	96.633941 
3600.000000	96.639879 
3599.000000	96.640389 
3598.000000	96.642046 
3597.000000	96.648601 
3596.000000	96.659913 
3595.000000	96.672393 
3594.000000	96.681315 
3593.000000	96.685278 
3592.000000	96.686328 
3591.000000	96.686389 
3590.000000	96.686105 
3589.000000	96.685768 
3588.000000	96.685886 
3587.000000	96.687166 
3586.000000	96.691076 
3585.000000	96.699260 
3584.000000	96.712250 
3583.000000	96.728433 
3582.000000	96.744708 
3581.000000	96.757193 
3580.000000	96.763131 
3579.000000	96.762629 
3578.000000	96.758795 
3577.000000	96.755767 
3576.000000	96.755702 
3575.000000	96.757814 
3574.000000	96.759507 
3573.000000	96.758641 
3572.000000	96.754412 
3571.000000	96.746161 
3570.000000	96.733047 
3569.000000	96.715879 
3568.000000	96.698972 
3567.000000	96.688158 
3566.000000	96.686373 
3565.000000	96.691924 
3564.000000	96.700718 
3563.000000	96.709560 
3562.000000	96.717381 
3561.000000	96.724458 
3560.000000	96.730921 
3559.000000	96.735908 
3558.000000	96.738339 
3557.000000	96.738147 
3556.000000	96.736308 
3555.000000	96.733832 
3554.000000	96.731238 
3553.000000	96.728523 
3552.000000	96.725782 
3551.000000	96.723285 
3550.000000	96.721243 
3549.000000	96.719879 
3548.000000	96.719485 
3547.000000	96.719580 
3546.000000	96.718881 
3545.000000	96.716989 
3544.000000	96.715926 
3543.000000	96.718485 
3542.000000	96.725075 
3541.000000	96.733204 
3540.000000	96.739901 
3539.000000	96.743773 
3538.000000	96.744950 
3537.000000	96.743972 
3536.000000	96.741599 
3535.000000	96.738782 
3534.000000	96.736345 
3533.000000	96.734822 
3532.000000	96.734545 
3531.000000	96.735622 
3530.000000	96.737361 
3529.000000	96.738228 
3528.000000	96.736972 
3527.000000	96.733928 
3526.000000	96.730985 
3525.000000	96.730125 
3524.000000	96.732075 
3523.000000	96.736039 
3522.000000	96.740390 
3521.000000	96.743826 
3520.000000	96.746163 
3519.000000	96.748009 
3518.000000	96.749885 
3517.000000	96.751492 
3516.000000	96.752026 
3515.000000	96.751213 
3514.000000	96.749832 
3513.000000	96.749137 
3512.000000	96.749602 
3511.000000	96.750390 
3510.000000	96.750207 
3509.000000	96.748762 
3508.000000	96.747102 
3507.000000	96.746365 
3506.000000	96.746465 
3505.000000	96.746235 
3504.000000	96.744852 
3503.000000	96.742857 
3502.000000	96.741632 
3501.000000	96.741999 
3500.000000	96.743655 
3499.000000	96.745837 
3498.000000	96.748073 
3497.000000	96.750144 
3496.000000	96.751516 
3495.000000	96.751484 
3494.000000	96.750029 
3493.000000	96.748164 
3492.000000	96.746982 
3491.000000	96.746495 
3490.000000	96.745900 
3489.000000	96.744803 
3488.000000	96.743436 
3487.000000	96.741769 
3486.000000	96.739404 
3485.000000	96.736635 
3484.000000	96.734734 
3483.000000	96.734542 
3482.000000	96.735247 
3481.000000	96.735345 
3480.000000	96.734474 
3479.000000	96.733422 
3478.000000	96.732592 
3477.000000	96.731291 
3476.000000	96.728628 
3475.000000	96.724697 
3474.000000	96.720711 
3473.000000	96.717933 
3472.000000	96.716401 
3471.000000	96.714784 
3470.000000	96.711682 
3469.000000	96.707162 
3468.000000	96.702742 
3467.000000	96.699842 
3466.000000	96.698627 
3465.000000	96.698294 
3464.000000	96.697889 
3463.000000	96.696594 
3462.000000	96.693798 
3461.000000	96.689468 
3460.000000	96.684303 
3459.000000	96.679170 
3458.000000	96.674466 
3457.000000	96.670130 
3456.000000	96.666217 
3455.000000	96.663017 
3454.000000	96.660733 
3453.000000	96.659274 
3452.000000	96.658315 
3451.000000	96.657508 
3450.000000	96.656461 
3449.000000	96.654694 
3448.000000	96.651720 
3447.000000	96.647365 
3446.000000	96.642009 
3445.000000	96.636521 
3444.000000	96.631818 
3443.000000	96.628289 
3442.000000	96.625623 
3441.000000	96.623171 
3440.000000	96.620532 
3439.000000	96.617641 
3438.000000	96.614397 
3437.000000	96.610582 
3436.000000	96.606466 
3435.000000	96.603087 
3434.000000	96.601433 
3433.000000	96.601302 
3432.000000	96.601264 
3431.000000	96.600088 
3430.000000	96.597797 
3429.000000	96.595140 
3428.000000	96.592353 
3427.000000	96.588998 
3426.000000	96.585091 
3425.000000	96.581732 
3424.000000	96.580101 
3423.000000	96.579904 
3422.000000	96.579360 
3421.000000	96.577046 
3420.000000	96.573412 
3419.000000	96.570110 
3418.000000	96.568149 
3417.000000	96.567307 
3416.000000	96.567023 
3415.000000	96.567011 
3414.000000	96.566855 
3413.000000	96.565734 
3412.000000	96.563151 
3411.000000	96.559748 
3410.000000	96.557032 
3409.000000	96.556264 
3408.000000	96.557575 
3407.000000	96.559766 
3406.000000	96.560963 
3405.000000	96.559965 
3404.000000	96.557250 
3403.000000	96.554480 
3402.000000	96.552928 
3401.000000	96.552653 
3400.000000	96.553091 
3399.000000	96.553844 
3398.000000	96.554637 
3397.000000	96.555179 
3396.000000	96.555477 
3395.000000	96.555971 
3394.000000	96.556909 
3393.000000	96.557846 
3392.000000	96.558122 
3391.000000	96.557731 
3390.000000	96.557416 
3389.000000	96.558021 
3388.000000	96.559986 
3387.000000	96.563187 
3386.000000	96.566855 
3385.000000	96.569659 
3384.000000	96.570459 
3383.000000	96.569394 
3382.000000	96.568139 
3381.000000	96.568655 
3380.000000	96.571433 
3379.000000	96.575186 
3378.000000	96.578368 
3377.000000	96.580921 
3376.000000	96.583949 
3375.000000	96.587786 
3374.000000	96.591173 
3373.000000	96.592727 
3372.000000	96.592746 
3371.000000	96.593034 
3370.000000	96.595057 
3369.000000	96.598688 
3368.000000	96.602670 
3367.000000	96.605797 
3366.000000	96.607589 
3365.000000	96.608295 
3364.000000	96.608607 
3363.000000	96.609243 
3362.000000	96.610590 
3361.000000	96.612691 
3360.000000	96.615541 
3359.000000	96.619112 
3358.000000	96.623029 
3357.000000	96.626599 
3356.000000	96.629420 
3355.000000	96.631871 
3354.000000	96.634791 
3353.000000	96.638720 
3352.000000	96.643554 
3351.000000	96.648809 
3350.000000	96.653954 
3349.000000	96.658484 
3348.000000	96.662002 
3347.000000	96.664454 
3346.000000	96.666293 
3345.000000	96.668200 
3344.000000	96.670461 
3343.000000	96.672709 
3342.000000	96.674416 
3341.000000	96.675641 
3340.000000	96.677018 
3339.000000	96.678988 
3338.000000	96.681395 
3337.000000	96.683900 
3336.000000	96.686538 
3335.000000	96.689633 
3334.000000	96.693239 
3333.000000	96.696918 
3332.000000	96.700138 
3331.000000	96.702748 
3330.000000	96.705014 
3329.000000	96.707307 
3328.000000	96.709841 
3327.000000	96.712635 
3326.000000	96.715580 
3325.000000	96.718495 
3324.000000	96.721207 
3323.000000	96.723677 
3322.000000	96.726057 
3321.000000	96.728581 
3320.000000	96.731356 
3319.000000	96.734291 
3318.000000	96.737232 
3317.000000	96.740099 
3316.000000	96.742893 
3315.000000	96.745631 
3314.000000	96.748314 
3313.000000	96.750955 
3312.000000	96.753596 
3311.000000	96.756290 
3310.000000	96.759063 
3309.000000	96.761893 
3308.000000	96.764722 
3307.000000	96.767487 
3306.000000	96.770168 
3305.000000	96.772797 
3304.000000	96.775448 
3303.000000	96.778189 
3302.000000	96.781046 
3301.000000	96.783986 
3300.000000	96.786906 
3299.000000	96.789694 
3298.000000	96.792300 
3297.000000	96.794782 
3296.000000	96.797304 
3295.000000	96.800021 
3294.000000	96.802978 
3293.000000	96.806103 
3292.000000	96.809272 
3291.000000	96.812398 
3290.000000	96.815446 
3289.000000	96.818420 
3288.000000	96.821355 
3287.000000	96.824279 
3286.000000	96.827165 
3285.000000	96.829936 
3284.000000	96.832566 
3283.000000	96.835172 
3282.000000	96.837963 
3281.000000	96.841040 
3280.000000	96.844262 
3279.000000	96.847330 
3278.000000	96.850086 
3277.000000	96.852687 
3276.000000	96.855459 
3275.000000	96.858543 
3274.000000	96.861797 
3273.000000	96.865038 
3272.000000	96.868286 
3271.000000	96.871678 
3270.000000	96.875248 
3269.000000	96.878841 
3268.000000	96.882235 
3267.000000	96.885337 
3266.000000	96.888275 
3265.000000	96.891325 
3264.000000	96.894655 
3263.000000	96.898173 
3262.000000	96.901627 
3261.000000	96.904869 
3260.000000	96.907958 
3259.000000	96.911009 
3258.000000	96.914065 
3257.000000	96.917162 
3256.000000	96.920404 
3255.000000	96.923837 
3254.000000	96.927331 
3253.000000	96.930715 
3252.000000	96.933986 
3251.000000	96.937292 
3250.000000	96.940717 
3249.000000	96.944184 
3248.000000	96.947576 
3247.000000	96.950895 
3246.000000	96.954250 
3245.000000	96.957720 
3244.000000	96.961280 
3243.000000	96.964840 
3242.000000	96.968342 
3241.000000	96.971785 
3240.000000	96.975197 
3239.000000	96.978623 
3238.000000	96.982139 
3237.000000	96.985819 
3236.000000	96.989670 
3235.000000	96.993572 
3234.000000	96.997363 
3233.000000	97.000974 
3232.000000	97.004441 
3231.000000	97.007881 
3230.000000	97.011401 
3229.000000	97.015029 
3228.000000	97.018728 
3227.000000	97.022463 
3226.000000	97.026258 
3225.000000	97.030160 
3224.000000	97.034150 
3223.000000	97.038137 
3222.000000	97.042065 
3221.000000	97.045969 
3220.000000	97.049925 
3219.000000	97.053943 
3218.000000	97.057937 
3217.000000	97.061824 
3216.000000	97.065616 
3215.000000	97.069436 
3214.000000	97.073424 
3213.000000	97.077633 
3212.000000	97.081983 
3211.000000	97.086287 
3210.000000	97.090403 
3209.000000	97.094336 
3208.000000	97.098201 
3207.000000	97.102084 
3206.000000	97.105968 
3205.000000	97.109808 
3204.000000	97.113661 
3203.000000	97.117688 
3202.000000	97.121990 
3201.000000	97.126454 
3200.000000	97.130837 
3199.000000	97.135011 
3198.000000	97.139098 
3197.000000	97.143303 
3196.000000	97.147646 
3195.000000	97.151955 
3194.000000	97.156124 
3193.000000	97.160292 
3192.000000	97.164664 
3191.000000	97.169218 
3190.000000	97.173649 
3189.000000	97.177681 
3188.000000	97.181313 
3187.000000	97.184853 
3186.000000	97.188703 
3185.000000	97.193065 
3184.000000	97.197827 
3183.000000	97.202649 
3182.000000	97.207309 
3181.000000	97.211811 
3180.000000	97.216153 
3179.000000	97.220172 
3178.000000	97.223782 
3177.000000	97.227216 
3176.000000	97.230823 
3175.000000	97.234709 
3174.000000	97.238760 
3173.000000	97.242873 
3172.000000	97.246976 
3171.000000	97.250925 
3170.000000	97.254657 
3169.000000	97.258384 
3168.000000	97.262413 
3167.000000	97.266749 
3166.000000	97.271067 
3165.000000	97.275041 
3164.000000	97.278561 
3163.000000	97.281656 
3162.000000	97.284471 
3161.000000	97.287314 
3160.000000	97.290507 
3159.000000	97.294130 
3158.000000	97.298035 
3157.000000	97.302072 
3156.000000	97.306174 
3155.000000	97.310236 
3154.000000	97.314116 
3153.000000	97.317823 
3152.000000	97.321513 
3151.000000	97.325214 
3150.000000	97.328708 
3149.000000	97.331788 
3148.000000	97.334508 
3147.000000	97.337164 
3146.000000	97.340105 
3145.000000	97.343540 
3144.000000	97.347414 
3143.000000	97.351367 
3142.000000	97.354958 
3141.000000	97.358073 
3140.000000	97.360987 
3139.000000	97.364060 
3138.000000	97.367399 
3137.000000	97.370871 
3136.000000	97.374280 
3135.000000	97.377431 
3134.000000	97.380187 
3133.000000	97.382664 
3132.000000	97.385302 
3131.000000	97.388486 
3130.000000	97.392166 
3129.000000	97.395987 
3128.000000	97.399758 
3127.000000	97.403611 
3126.000000	97.407652 
3125.000000	97.411663 
3124.000000	97.415233 
3123.000000	97.418087 
3122.000000	97.420281 
3121.000000	97.422205 
3120.000000	97.424357 
3119.000000	97.427003 
3118.000000	97.430068 
3117.000000	97.433327 
3116.000000	97.436620 
3115.000000	97.439844 
3114.000000	97.442964 
3113.000000	97.446151 
3112.000000	97.449761 
3111.000000	97.454004 
3110.000000	97.458619 
3109.000000	97.462992 
3108.000000	97.466570 
3107.000000	97.469175 
3106.000000	97.470982 
3105.000000	97.472299 
3104.000000	97.473300 
3103.000000	97.474056 
3102.000000	97.474786 
3101.000000	97.475864 
3100.000000	97.477496 
3099.000000	97.479625 
3098.000000	97.482391 
3097.000000	97.486432 
3096.000000	97.492168 
3095.000000	97.498823 
3094.000000	97.504785 
3093.000000	97.509023 
3092.000000	97.511738 
3091.000000	97.513578 
3090.000000	97.514828 
3089.000000	97.515609 
3088.000000	97.516272 
3087.000000	97.517321 
3086.000000	97.519218 
3085.000000	97.522200 
3084.000000	97.525696 
3083.000000	97.528116 
3082.000000	97.528217 
3081.000000	97.526857 
3080.000000	97.526374 
3079.000000	97.527866 
3078.000000	97.530389 
3077.000000	97.533180 
3076.000000	97.537013 
3075.000000	97.542312 
3074.000000	97.547538 
3073.000000	97.551010 
3072.000000	97.553159 
3071.000000	97.555386 
3070.000000	97.557612 
3069.000000	97.558782 
3068.000000	97.559135 
3067.000000	97.559983 
3066.000000	97.561477 
3065.000000	97.562447 
3064.000000	97.562413 
3063.000000	97.562017 
3062.000000	97.561392 
3061.000000	97.559826 
3060.000000	97.557493 
3059.000000	97.556189 
3058.000000	97.557881 
3057.000000	97.563128 
3056.000000	97.570598 
3055.000000	97.577091 
3054.000000	97.578741 
3053.000000	97.574207 
3052.000000	97.566982 
3051.000000	97.562853 
3050.000000	97.564143 
3049.000000	97.567683 
3048.000000	97.568845 
3047.000000	97.566023 
3046.000000	97.560581 
3045.000000	97.554437 
3044.000000	97.549378 
3043.000000	97.547606 
3042.000000	97.550591 
3041.000000	97.556700 
3040.000000	97.561193 
3039.000000	97.559684 
3038.000000	97.551700 
3037.000000	97.540570 
3036.000000	97.529798 
3035.000000	97.519887 
3034.000000	97.509197 
3033.000000	97.497262 
3032.000000	97.485993 
3031.000000	97.477498 
3030.000000	97.471840 
3029.000000	97.467331 
3028.000000	97.461774 
3027.000000	97.452786 
3026.000000	97.438626 
3025.000000	97.420300 
3024.000000	97.401939 
3023.000000	97.387259 
3022.000000	97.375963 
3021.000000	97.365147 
3020.000000	97.353487 
3019.000000	97.341970 
3018.000000	97.330599 
3017.000000	97.316838 
3016.000000	97.298459 
3015.000000	97.276542 
3014.000000	97.254763 
3013.000000	97.236409 
3012.000000	97.222215 
3011.000000	97.209957 
3010.000000	97.195765 
3009.000000	97.177034 
3008.000000	97.154591 
3007.000000	97.131435 
3006.000000	97.109394 
3005.000000	97.088148 
3004.000000	97.067385 
3003.000000	97.048140 
3002.000000	97.031348 
3001.000000	97.016483 
3000.000000	97.002346 
2999.000000	96.987973 
2998.000000	96.972295 
2997.000000	96.954537 
2996.000000	96.935789 
2995.000000	96.918301 
2994.000000	96.901525 
2993.000000	96.880367 
2992.000000	96.850036 
2991.000000	96.812860 
2990.000000	96.778523 
2989.000000	96.756765 
2988.000000	96.750622 
2987.000000	96.756197 
2986.000000	96.767070 
2985.000000	96.778451 
2984.000000	96.788207 
2983.000000	96.795781 
2982.000000	96.801184 
2981.000000	96.804733 
2980.000000	96.806719 
2979.000000	96.806707 
2978.000000	96.803582 
2977.000000	96.797005 
2976.000000	96.788771 
2975.000000	96.782019 
2974.000000	96.779071 
2973.000000	96.780570 
2972.000000	96.786304 
2971.000000	96.795594 
2970.000000	96.806743 
2969.000000	96.817609 
2968.000000	96.827645 
2967.000000	96.838457 
2966.000000	96.851548 
2965.000000	96.866331 
2964.000000	96.881104 
2963.000000	96.895053 
2962.000000	96.908306 
2961.000000	96.920813 
2960.000000	96.932553 
2959.000000	96.944571 
2958.000000	96.958473 
2957.000000	96.974624 
2956.000000	96.991447 
2955.000000	97.006671 
2954.000000	97.019119 
2953.000000	97.029785 
2952.000000	97.041513 
2951.000000	97.056758 
2950.000000	97.074578 
2949.000000	97.090357 
2948.000000	97.099660 
2947.000000	97.102110 
2946.000000	97.100957 
2945.000000	97.099535 
2944.000000	97.099201 
2943.000000	97.100332 
2942.000000	97.103130 
2941.000000	97.106661 
2940.000000	97.108983 
2939.000000	97.109434 
2938.000000	97.109615 
2937.000000	97.111036 
2936.000000	97.112724 
2935.000000	97.112310 
2934.000000	97.108834 
2933.000000	97.103281 
2932.000000	97.096909 
2931.000000	97.090504 
2930.000000	97.085293 
2929.000000	97.083054 
2928.000000	97.084440 
2927.000000	97.087739 
2926.000000	97.090068 
2925.000000	97.089863 
2924.000000	97.088016 
2923.000000	97.086748 
2922.000000	97.087589 
2921.000000	97.090293 
2920.000000	97.093460 
2919.000000	97.095974 
2918.000000	97.097521 
2917.000000	97.097622 
2916.000000	97.094792 
2915.000000	97.087671 
2914.000000	97.077284 
2913.000000	97.067373 
2912.000000	97.061641 
2911.000000	97.060644 
2910.000000	97.061857 
2909.000000	97.062711 
2908.000000	97.063025 
2907.000000	97.064011 
2906.000000	97.065208 
2905.000000	97.063218 
2904.000000	97.054659 
2903.000000	97.040764 
2902.000000	97.029391 
2901.000000	97.029549 
2900.000000	97.044320 
2899.000000	97.068605 
2898.000000	97.093166 
2897.000000	97.111751 
2896.000000	97.123562 
2895.000000	97.130415 
2894.000000	97.134154 
2893.000000	97.137102 
2892.000000	97.142338 
2891.000000	97.151296 
2890.000000	97.161871 
2889.000000	97.170674 
2888.000000	97.176840 
2887.000000	97.182045 
2886.000000	97.187187 
2885.000000	97.191407 
2884.000000	97.195033 
2883.000000	97.201131 
2882.000000	97.212334 
2881.000000	97.227451 
2880.000000	97.243139 
2879.000000	97.258294 
2878.000000	97.274514 
2877.000000	97.292223 
2876.000000	97.308676 
2875.000000	97.320963 
2874.000000	97.329477 
2873.000000	97.337012 
2872.000000	97.345312 
2871.000000	97.353860 
2870.000000	97.361736 
2869.000000	97.369169 
2868.000000	97.377024 
2867.000000	97.385776 
2866.000000	97.395448 
2865.000000	97.406020 
2864.000000	97.417574 
2863.000000	97.430451 
2862.000000	97.445253 
2861.000000	97.461998 
2860.000000	97.479161 
2859.000000	97.494495 
2858.000000	97.507381 
2857.000000	97.519765 
2856.000000	97.533944 
2855.000000	97.549687 
2854.000000	97.564346 
2853.000000	97.575665 
2852.000000	97.583708 
2851.000000	97.590325 
2850.000000	97.597584 
2849.000000	97.606742 
2848.000000	97.617837 
2847.000000	97.629625 
2846.000000	97.640262 
2845.000000	97.648700 
2844.000000	97.655600 
2843.000000	97.662755 
2842.000000	97.671510 
2841.000000	97.681591 
2840.000000	97.691309 
2839.000000	97.698914 
2838.000000	97.703914 
2837.000000	97.707246 
2836.000000	97.710391 
2835.000000	97.714561 
2834.000000	97.720711 
2833.000000	97.729660 
2832.000000	97.741346 
2831.000000	97.753867 
2830.000000	97.763942 
2829.000000	97.768975 
2828.000000	97.768941 
2827.000000	97.766573 
2826.000000	97.765815 
2825.000000	97.769389 
2824.000000	97.776988 
2823.000000	97.785385 
2822.000000	97.790830 
2821.000000	97.791964 
2820.000000	97.790506 
2819.000000	97.789241 
2818.000000	97.789650 
2817.000000	97.791642 
2816.000000	97.794863 
2815.000000	97.799303 
2814.000000	97.804573 
2813.000000	97.809360 
2812.000000	97.812173 
2811.000000	97.812631 
2810.000000	97.811925 
2809.000000	97.812080 
2808.000000	97.814667 
2807.000000	97.819898 
2806.000000	97.826574 
2805.000000	97.832799 
2804.000000	97.837057 
2803.000000	97.838969 
2802.000000	97.839401 
2801.000000	97.839869 
2800.000000	97.841485 
2799.000000	97.844145 
2798.000000	97.846716 
2797.000000	97.848123 
2796.000000	97.848271 
2795.000000	97.848000 
2794.000000	97.848318 
2793.000000	97.849736 
2792.000000	97.852153 
2791.000000	97.855032 
2790.000000	97.857651 
2789.000000	97.859495 
2788.000000	97.860637 
2787.000000	97.861694 
2786.000000	97.863312 
2785.000000	97.865656 
2784.000000	97.868380 
2783.000000	97.870986 
2782.000000	97.873170 
2781.000000	97.874969 
2780.000000	97.876614 
2779.000000	97.878297 
2778.000000	97.880069 
2777.000000	97.881837 
2776.000000	97.883442 
2775.000000	97.884820 
2774.000000	97.886084 
2773.000000	97.887400 
2772.000000	97.888793 
2771.000000	97.890174 
2770.000000	97.891548 
2769.000000	97.893076 
2768.000000	97.894856 
2767.000000	97.896720 
2766.000000	97.898373 
2765.000000	97.899704 
2764.000000	97.900867 
2763.000000	97.902041 
2762.000000	97.903225 
2761.000000	97.904349 
2760.000000	97.905439 
2759.000000	97.906594 
2758.000000	97.907861 
2757.000000	97.909172 
2756.000000	97.910420 
2755.000000	97.911578 
2754.000000	97.912710 
2753.000000	97.913897 
2752.000000	97.915143 
2751.000000	97.916398 
2750.000000	97.917614 
2749.000000	97.918791 
2748.000000	97.919947 
2747.000000	97.921076 
2746.000000	97.922169 
2745.000000	97.923239 
2744.000000	97.924310 
2743.000000	97.925385 
2742.000000	97.926456 
2741.000000	97.927517 
2740.000000	97.928572 
2739.000000	97.929627 
2738.000000	97.930684 
2737.000000	97.931744 
2736.000000	97.932804 
2735.000000	97.933864 
2734.000000	97.934927 
2733.000000	97.935999 
2732.000000	97.937081 
2731.000000	97.938173 
2730.000000	97.939275 
2729.000000	97.940383 
2728.000000	97.941488 
2727.000000	97.942581 
2726.000000	97.943655 
2725.000000	97.944709 
2724.000000	97.945752 
2723.000000	97.946797 
2722.000000	97.947852 
2721.000000	97.948920 
2720.000000	97.949999 
2719.000000	97.951087 
2718.000000	97.952181 
2717.000000	97.953273 
2716.000000	97.954359 
2715.000000	97.955434 
2714.000000	97.956502 
2713.000000	97.957567 
2712.000000	97.958630 
2711.000000	97.959684 
2710.000000	97.960722 
2709.000000	97.961742 
2708.000000	97.962752 
2707.000000	97.963761 
2706.000000	97.964771 
2705.000000	97.965778 
2704.000000	97.966779 
2703.000000	97.967767 
2702.000000	97.968734 
2701.000000	97.969674 
2700.000000	97.970601 
2699.000000	97.971541 
2698.000000	97.972515 
2697.000000	97.973488 
2696.000000	97.974372 
2695.000000	97.975116 
2694.000000	97.975759 
2693.000000	97.976397 
2692.000000	97.977075 
2691.000000	97.977767 
2690.000000	97.978421 
2689.000000	97.979009 
2688.000000	97.979538 
2687.000000	97.980013 
2686.000000	97.980434 
2685.000000	97.980829 
2684.000000	97.981254 
2683.000000	97.981740 
2682.000000	97.982251 
2681.000000	97.982733 
2680.000000	97.983166 
2679.000000	97.983566 
2678.000000	97.983950 
2677.000000	97.984343 
2676.000000	97.984740 
2675.000000	97.985047 
2674.000000	97.985149 
2673.000000	97.985113 
2672.000000	97.985197 
2671.000000	97.985500 
2670.000000	97.985761 
2669.000000	97.985712 
2668.000000	97.985503 
2667.000000	97.985527 
2666.000000	97.985841 
2665.000000	97.986026 
2664.000000	97.985738 
2663.000000	97.985135 
2662.000000	97.984660 
2661.000000	97.984509 
2660.000000	97.984479 
2659.000000	97.984288 
2658.000000	97.983891 
2657.000000	97.983481 
2656.000000	97.983275 
2655.000000	97.983280 
2654.000000	97.983242 
2653.000000	97.982856 
2652.000000	97.982097 
2651.000000	97.981359 
2650.000000	97.981131 
2649.000000	97.981502 
2648.000000	97.982072 
2647.000000	97.982334 
2646.000000	97.982093 
2645.000000	97.981461 
2644.000000	97.980655 
2643.000000	97.979888 
2642.000000	97.979347 
2641.000000	97.979130 
2640.000000	97.979155 
2639.000000	97.979276 
2638.000000	97.979458 
2637.000000	97.979745 
2636.000000	97.980131 
2635.000000	97.980582 
2634.000000	97.981104 
2633.000000	97.981633 
2632.000000	97.981905 
2631.000000	97.981633 
2630.000000	97.980870 
2629.000000	97.980072 
2628.000000	97.979695 
2627.000000	97.979812 
2626.000000	97.980238 
2625.000000	97.980843 
2624.000000	97.981599 
2623.000000	97.982354 
2622.000000	97.982811 
2621.000000	97.982773 
2620.000000	97.982316 
2619.000000	97.981687 
2618.000000	97.981134 
2617.000000	97.980817 
2616.000000	97.980752 
2615.000000	97.980790 
2614.000000	97.980759 
2613.000000	97.980684 
2612.000000	97.980784 
2611.000000	97.981208 
2610.000000	97.981880 
2609.000000	97.982552 
2608.000000	97.982961 
2607.000000	97.982947 
2606.000000	97.982617 
2605.000000	97.982393 
2604.000000	97.982700 
2603.000000	97.983581 
2602.000000	97.984718 
2601.000000	97.985804 
2600.000000	97.986629 
2599.000000	97.986828 
2598.000000	97.986047 
2597.000000	97.984505 
2596.000000	97.983101 
2595.000000	97.982573 
2594.000000	97.982784 
2593.000000	97.983200 
2592.000000	97.983775 
2591.000000	97.984803 
2590.000000	97.985999 
2589.000000	97.986493 
2588.000000	97.985983 
2587.000000	97.985305 
2586.000000	97.985514 
2585.000000	97.986763 
2584.000000	97.988408 
2583.000000	97.989875 
2582.000000	97.991057 
2581.000000	97.991980 
2580.000000	97.992533 
2579.000000	97.992633 
2578.000000	97.992521 
2577.000000	97.992697 
2576.000000	97.993434 
2575.000000	97.994333 
2574.000000	97.994535 
2573.000000	97.993563 
2572.000000	97.991774 
2571.000000	97.989867 
2570.000000	97.988167 
2569.000000	97.986774 
2568.000000	97.986163 
2567.000000	97.986928 
2566.000000	97.988853 
2565.000000	97.990761 
2564.000000	97.991625 
2563.000000	97.991499 
2562.000000	97.991144 
2561.000000	97.991264 
2560.000000	97.992347 
2559.000000	97.994670 
2558.000000	97.997820 
2557.000000	98.000452 
2556.000000	98.001352 
2555.000000	98.000682 
2554.000000	97.999750 
2553.000000	97.999492 
2552.000000	97.999694 
2551.000000	97.999937 
2550.000000	98.000417 
2549.000000	98.001279 
2548.000000	98.001762 
2547.000000	98.000927 
2546.000000	97.999078 
2545.000000	97.997689 
2544.000000	97.997575 
2543.000000	97.997914 
2542.000000	97.997458 
2541.000000	97.996293 
2540.000000	97.995746 
2539.000000	97.996649 
2538.000000	97.998425 
2537.000000	97.999862 
2536.000000	98.000501 
2535.000000	98.000808 
2534.000000	98.001225 
2533.000000	98.001528 
2532.000000	98.001274 
2531.000000	98.000487 
2530.000000	97.999600 
2529.000000	97.998913 
2528.000000	97.998375 
2527.000000	97.997936 
2526.000000	97.997799 
2525.000000	97.998186 
2524.000000	97.998999 
2523.000000	97.999876 
2522.000000	98.000518 
2521.000000	98.000879 
2520.000000	98.001081 
2519.000000	98.001285 
2518.000000	98.001601 
2517.000000	98.002006 
2516.000000	98.002328 
2515.000000	98.002413 
2514.000000	98.002345 
2513.000000	98.002439 
2512.000000	98.002928 
2511.000000	98.003767 
2510.000000	98.004734 
2509.000000	98.005640 
2508.000000	98.006398 
2507.000000	98.006964 
2506.000000	98.007370 
2505.000000	98.007782 
2504.000000	98.008405 
2503.000000	98.009259 
2502.000000	98.010143 
2501.000000	98.010837 
2500.000000	98.011326 
2499.000000	98.011749 
2498.000000	98.012223 
2497.000000	98.012754 
2496.000000	98.013345 
2495.000000	98.014042 
2494.000000	98.014851 
2493.000000	98.015668 
2492.000000	98.016373 
2491.000000	98.016973 
2490.000000	98.017617 
2489.000000	98.018414 
2488.000000	98.019273 
2487.000000	98.019989 
2486.000000	98.020472 
2485.000000	98.020831 
2484.000000	98.021254 
2483.000000	98.021845 
2482.000000	98.022589 
2481.000000	98.023384 
2480.000000	98.024106 
2479.000000	98.024700 
2478.000000	98.025286 
2477.000000	98.026087 
2476.000000	98.027161 
2475.000000	98.028288 
2474.000000	98.029182 
2473.000000	98.029720 
2472.000000	98.029900 
2471.000000	98.029732 
2470.000000	98.029344 
2469.000000	98.029085 
2468.000000	98.029265 
2467.000000	98.029770 
2466.000000	98.030175 
2465.000000	98.030227 
2464.000000	98.030088 
2463.000000	98.030127 
2462.000000	98.030604 
2461.000000	98.031549 
2460.000000	98.032749 
2459.000000	98.033803 
2458.000000	98.034343 
2457.000000	98.034248 
2456.000000	98.033705 
2455.000000	98.033088 
2454.000000	98.032739 
2453.000000	98.032790 
2452.000000	98.033132 
2451.000000	98.033566 
2450.000000	98.034033 
2449.000000	98.034642 
2448.000000	98.035412 
2447.000000	98.036152 
2446.000000	98.036657 
2445.000000	98.036931 
2444.000000	98.037146 
2443.000000	98.037452 
2442.000000	98.037873 
2441.000000	98.038375 
2440.000000	98.038936 
2439.000000	98.039556 
2438.000000	98.040256 
2437.000000	98.041036 
2436.000000	98.041843 
2435.000000	98.042599 
2434.000000	98.043277 
2433.000000	98.043916 
2432.000000	98.044569 
2431.000000	98.045265 
2430.000000	98.046005 
2429.000000	98.046783 
2428.000000	98.047593 
2427.000000	98.048421 
2426.000000	98.049254 
2425.000000	98.050091 
2424.000000	98.050940 
2423.000000	98.051818 
2422.000000	98.052740 
2421.000000	98.053709 
2420.000000	98.054723 
2419.000000	98.055766 
2418.000000	98.056820 
2417.000000	98.057868 
2416.000000	98.058912 
2415.000000	98.059967 
2414.000000	98.061047 
2413.000000	98.062158 
2412.000000	98.063303 
2411.000000	98.064478 
2410.000000	98.065671 
2409.000000	98.066862 
2408.000000	98.068030 
2407.000000	98.069162 
2406.000000	98.070258 
2405.000000	98.071326 
2404.000000	98.072377 
2403.000000	98.073419 
2402.000000	98.074457 
2401.000000	98.075497 
2400.000000	98.076546 
2399.000000	98.077614 
2398.000000	98.078702 
2397.000000	98.079804 
2396.000000	98.080896 
2395.000000	98.081943 
2394.000000	98.082916 
2393.000000	98.083819 
2392.000000	98.084684 
2391.000000	98.085547 
2390.000000	98.086421 
2389.000000	98.087288 
2388.000000	98.088122 
2387.000000	98.088907 
2386.000000	98.089642 
2385.000000	98.090328 
2384.000000	98.090966 
2383.000000	98.091557 
2382.000000	98.092105 
2381.000000	98.092620 
2380.000000	98.093105 
2379.000000	98.093555 
2378.000000	98.093957 
2377.000000	98.094296 
2376.000000	98.094573 
2375.000000	98.094801 
2374.000000	98.094997 
2373.000000	98.095170 
2372.000000	98.095321 
2371.000000	98.095437 
2370.000000	98.095498 
2369.000000	98.095473 
2368.000000	98.095339 
2367.000000	98.095096 
2366.000000	98.094784 
2365.000000	98.094461 
2364.000000	98.094173 
2363.000000	98.093930 
2362.000000	98.093713 
2361.000000	98.093493 
2360.000000	98.093252 
2359.000000	98.092981 
2358.000000	98.092678 
2357.000000	98.092338 
2356.000000	98.091958 
2355.000000	98.091534 
2354.000000	98.091067 
2353.000000	98.090582 
2352.000000	98.090121 
2351.000000	98.089709 
2350.000000	98.089328 
2349.000000	98.088930 
2348.000000	98.088491 
2347.000000	98.088029 
2346.000000	98.087583 
2345.000000	98.087178 
2344.000000	98.086808 
2343.000000	98.086454 
2342.000000	98.086113 
2341.000000	98.085795 
2340.000000	98.085509 
2339.000000	98.085244 
2338.000000	98.084968 
2337.000000	98.084655 
2336.000000	98.084296 
2335.000000	98.083901 
2334.000000	98.083487 
2333.000000	98.083068 
2332.000000	98.082659 
2331.000000	98.082261 
2330.000000	98.081864 
2329.000000	98.081450 
2328.000000	98.081014 
2327.000000	98.080565 
2326.000000	98.080125 
2325.000000	98.079715 
2324.000000	98.079345 
2323.000000	98.078999 
2322.000000	98.078634 
2321.000000	98.078210 
2320.000000	98.077710 
2319.000000	98.077144 
2318.000000	98.076529 
2317.000000	98.075878 
2316.000000	98.075196 
2315.000000	98.074487 
2314.000000	98.073758 
2313.000000	98.073010 
2312.000000	98.072248 
2311.000000	98.071511 
2310.000000	98.070787 
2309.000000	98.069980 
2308.000000	98.069011 
2307.000000	98.068034 
2306.000000	98.067371 
2305.000000	98.067039 
2304.000000	98.066658 
2303.000000	98.065956 
2302.000000	98.065209 
2301.000000	98.064905 
2300.000000	98.064990 
2299.000000	98.064832 
2298.000000	98.063740 
2297.000000	98.061336 
2296.000000	98.057809 
2295.000000	98.053795 
2294.000000	98.050137 
2293.000000	98.047427 
2292.000000	98.045831 
2291.000000	98.045080 
2290.000000	98.044841 
2289.000000	98.044827 
2288.000000	98.044734 
2287.000000	98.044061 
2286.000000	98.042384 
2285.000000	98.039885 
2284.000000	98.037569 
2283.000000	98.036448 
2282.000000	98.036601 
2281.000000	98.037077 
2280.000000	98.036735 
2279.000000	98.035084 
2278.000000	98.032402 
2277.000000	98.029582 
2276.000000	98.027669 
2275.000000	98.027164 
2274.000000	98.027623 
2273.000000	98.028139 
2272.000000	98.028200 
2271.000000	98.027841 
2270.000000	98.027170 
2269.000000	98.026232 
2268.000000	98.025266 
2267.000000	98.024608 
2266.000000	98.024240 
2265.000000	98.023783 
2264.000000	98.022974 
2263.000000	98.021865 
2262.000000	98.020580 
2261.000000	98.019187 
2260.000000	98.017865 
2259.000000	98.016824 
2258.000000	98.016034 
2257.000000	98.015296 
2256.000000	98.014588 
2255.000000	98.014105 
2254.000000	98.013914 
2253.000000	98.013771 
2252.000000	98.013325 
2251.000000	98.012449 
2250.000000	98.011225 
2249.000000	98.009792 
2248.000000	98.008321 
2247.000000	98.007051 
2246.000000	98.006114 
2245.000000	98.005445 
2244.000000	98.004807 
2243.000000	98.004018 
2242.000000	98.003091 
2241.000000	98.002159 
2240.000000	98.001359 
2239.000000	98.000742 
2238.000000	98.000241 
2237.000000	97.999707 
2236.000000	97.999031 
2235.000000	97.998232 
2234.000000	97.997401 
2233.000000	97.996569 
2232.000000	97.995695 
2231.000000	97.994776 
2230.000000	97.993860 
2229.000000	97.992948 
2228.000000	97.991992 
2227.000000	97.991009 
2226.000000	97.990078 
2225.000000	97.989178 
2224.000000	97.988172 
2223.000000	97.987013 
2222.000000	97.985819 
2221.000000	97.984743 
2220.000000	97.983772 
2219.000000	97.982803 
2218.000000	97.981787 
2217.000000	97.980749 
2216.000000	97.979725 
2215.000000	97.978724 
2214.000000	97.977737 
2213.000000	97.976761 
2212.000000	97.975812 
2211.000000	97.974912 
2210.000000	97.974073 
2209.000000	97.973290 
2208.000000	97.972557 
2207.000000	97.971862 
2206.000000	97.971193 
2205.000000	97.970528 
2204.000000	97.969835 
2203.000000	97.969100 
2202.000000	97.968344 
2201.000000	97.967567 
2200.000000	97.966707 
2199.000000	97.965710 
2198.000000	97.964607 
2197.000000	97.963530 
2196.000000	97.962645 
2195.000000	97.962032 
2194.000000	97.961603 
2193.000000	97.961189 
2192.000000	97.960728 
2191.000000	97.960308 
2190.000000	97.960017 
2189.000000	97.959858 
2188.000000	97.959805 
2187.000000	97.959759 
2186.000000	97.959383 
2185.000000	97.958244 
2184.000000	97.956488 
2183.000000	97.955262 
2182.000000	97.955746 
2181.000000	97.958006 
2180.000000	97.960596 
2179.000000	97.961880 
2178.000000	97.961494 
2177.000000	97.960370 
2176.000000	97.959784 
2175.000000	97.960374 
2174.000000	97.962093 
2173.000000	97.964643 
2172.000000	97.967832 
2171.000000	97.971422 
2170.000000	97.974471 
2169.000000	97.975193 
2168.000000	97.972395 
2167.000000	97.967409 
2166.000000	97.963599 
2165.000000	97.962826 
2164.000000	97.963342 
2163.000000	97.962449 
2162.000000	97.960902 
2161.000000	97.962506 
2160.000000	97.969400 
2159.000000	97.979754 
2158.000000	97.990301 
2157.000000	97.999549 
2156.000000	98.007201 
2155.000000	98.012247 
2154.000000	98.013724 
2153.000000	98.012971 
2152.000000	98.013291 
2151.000000	98.016360 
2150.000000	98.020163 
2149.000000	98.021628 
2148.000000	98.020628 
2147.000000	98.019793 
2146.000000	98.020646 
2145.000000	98.022214 
2144.000000	98.024206 
2143.000000	98.029059 
2142.000000	98.038521 
2141.000000	98.049658 
2140.000000	98.057107 
2139.000000	98.059335 
2138.000000	98.060183 
2137.000000	98.063330 
2136.000000	98.067577 
2135.000000	98.069036 
2134.000000	98.066222 
2133.000000	98.061660 
2132.000000	98.059213 
2131.000000	98.060302 
2130.000000	98.062825 
2129.000000	98.063486 
2128.000000	98.061291 
2127.000000	98.058745 
2126.000000	98.059320 
2125.000000	98.063763 
2124.000000	98.069271 
2123.000000	98.072159 
2122.000000	98.070821 
2121.000000	98.066233 
2120.000000	98.060505 
2119.000000	98.055472 
2118.000000	98.052240 
2117.000000	98.051273 
2116.000000	98.052015 
2115.000000	98.052393 
2114.000000	98.049655 
2113.000000	98.042947 
2112.000000	98.035110 
2111.000000	98.030768 
2110.000000	98.032052 
2109.000000	98.037190 
2108.000000	98.042805 
2107.000000	98.046706 
2106.000000	98.048272 
2105.000000	98.047775 
2104.000000	98.046521 
2103.000000	98.046356 
2102.000000	98.047518 
2101.000000	98.047825 
2100.000000	98.045397 
2099.000000	98.041577 
2098.000000	98.039779 
2097.000000	98.041552 
2096.000000	98.045262 
2095.000000	98.048340 
2094.000000	98.049716 
2093.000000	98.049825 
2092.000000	98.049360 
2091.000000	98.048746 
2090.000000	98.048266 
2089.000000	98.047969 
2088.000000	98.047529 
2087.000000	98.046508 
2086.000000	98.044825 
2085.000000	98.042914 
2084.000000	98.041433 
2083.000000	98.040708 
2082.000000	98.040399 
2081.000000	98.039802 
2080.000000	98.038625 
2079.000000	98.037282 
2078.000000	98.036280 
2077.000000	98.035552 
2076.000000	98.034738 
2075.000000	98.033881 
2074.000000	98.033275 
2073.000000	98.032657 
2072.000000	98.031257 
2071.000000	98.028831 
2070.000000	98.026141 
2069.000000	98.024218 
2068.000000	98.023399 
2067.000000	98.023308 
2066.000000	98.023277 
2065.000000	98.022682 
2064.000000	98.021208 
2063.000000	98.019039 
2062.000000	98.016881 
2061.000000	98.015533 
2060.000000	98.015286 
2059.000000	98.015889 
2058.000000	98.016767 
2057.000000	98.017265 
2056.000000	98.016845 
2055.000000	98.015230 
2054.000000	98.012660 
2053.000000	98.009939 
2052.000000	98.007901 
2051.000000	98.006729 
2050.000000	98.005922 
2049.000000	98.004903 
2048.000000	98.003659 
2047.000000	98.002646 
2046.000000	98.002191 
2045.000000	98.002184 
2044.000000	98.002288 
2043.000000	98.002288 
2042.000000	98.002213 
2041.000000	98.002274 
2040.000000	98.002779 
2039.000000	98.003971 
2038.000000	98.005710 
2037.000000	98.007292 
2036.000000	98.007892 
2035.000000	98.007312 
2034.000000	98.006280 
2033.000000	98.005946 
2032.000000	98.006880 
2031.000000	98.008456 
2030.000000	98.009158 
2029.000000	98.007824 
2028.000000	98.004762 
2027.000000	98.001552 
2026.000000	97.999518 
2025.000000	97.998848 
2024.000000	97.999357 
2023.000000	98.001471 
2022.000000	98.005686 
2021.000000	98.011032 
2020.000000	98.014873 
2019.000000	98.014968 
2018.000000	98.011111 
2017.000000	98.005258 
2016.000000	98.000150 
2015.000000	97.997344 
2014.000000	97.996469 
2013.000000	97.995791 
2012.000000	97.994116 
2011.000000	97.992509 
2010.000000	97.993229 
2009.000000	97.996868 
2008.000000	98.001359 
2007.000000	98.004252 
2006.000000	98.005117 
2005.000000	98.004883 
2004.000000	98.004142 
2003.000000	98.003203 
2002.000000	98.002959 
2001.000000	98.003955 
2000.000000	98.004862 
1999.000000	98.003330 
1998.000000	97.998445 
1997.000000	97.991731 
1996.000000	97.985906 
1995.000000	97.982807 
1994.000000	97.982454 
1993.000000	97.983284 
1992.000000	97.983190 
1991.000000	97.981415 
1990.000000	97.979468 
1989.000000	97.979503 
1988.000000	97.981786 
1987.000000	97.984163 
1986.000000	97.984214 
1985.000000	97.981702 
1984.000000	97.978432 
1983.000000	97.976045 
1982.000000	97.974597 
1981.000000	97.973465 
1980.000000	97.972996 
1979.000000	97.974322 
1978.000000	97.977472 
1977.000000	97.980720 
1976.000000	97.982332 
1975.000000	97.982444 
1974.000000	97.982636 
1973.000000	97.984140 
1972.000000	97.986820 
1971.000000	97.989547 
1970.000000	97.991158 
1969.000000	97.991085 
1968.000000	97.989494 
1967.000000	97.987224 
1966.000000	97.985589 
1965.000000	97.985666 
1964.000000	97.987717 
1963.000000	97.991209 
1962.000000	97.995175 
1961.000000	97.998583 
1960.000000	98.000624 
1959.000000	98.001021 
1958.000000	98.000367 
1957.000000	97.999997 
1956.000000	98.000904 
1955.000000	98.002866 
1954.000000	98.004797 
1953.000000	98.005989 
1952.000000	98.006668 
1951.000000	98.007276 
1950.000000	98.007947 
1949.000000	98.008886 
1948.000000	98.010612 
1947.000000	98.013306 
1946.000000	98.016152 
1945.000000	98.017912 
1944.000000	98.018044 
1943.000000	98.016921 
1942.000000	98.015386 
1941.000000	98.014148 
1940.000000	98.013483 
1939.000000	98.013242 
1938.000000	98.013152 
1937.000000	98.013428 
1936.000000	98.014741 
1935.000000	98.017043 
1934.000000	98.019036 
1933.000000	98.019807 
1932.000000	98.020273 
1931.000000	98.021903 
1930.000000	98.024644 
1929.000000	98.026978 
1928.000000	98.028211 
1927.000000	98.029238 
1926.000000	98.030793 
1925.000000	98.032398 
1924.000000	98.033251 
1923.000000	98.033300 
1922.000000	98.032749 
1921.000000	98.031302 
1920.000000	98.029066 
1919.000000	98.027037 
1918.000000	98.025703 
1917.000000	98.024186 
1916.000000	98.021866 
1915.000000	98.020124 
1914.000000	98.020589 
1913.000000	98.022703 
1912.000000	98.024389 
1911.000000	98.024728 
1910.000000	98.024597 
1909.000000	98.024855 
1908.000000	98.025575 
1907.000000	98.026565 
1906.000000	98.027382 
1905.000000	98.027076 
1904.000000	98.024993 
1903.000000	98.022081 
1902.000000	98.020100 
1901.000000	98.019538 
1900.000000	98.019589 
1899.000000	98.019626 
1898.000000	98.019716 
1897.000000	98.019905 
1896.000000	98.019778 
1895.000000	98.019049 
1894.000000	98.017951 
1893.000000	98.016862 
1892.000000	98.015998 
1891.000000	98.015511 
1890.000000	98.015452 
1889.000000	98.015618 
1888.000000	98.015747 
1887.000000	98.015825 
1886.000000	98.015946 
1885.000000	98.016026 
1884.000000	98.015939 
1883.000000	98.015768 
1882.000000	98.015724 
1881.000000	98.015896 
1880.000000	98.016224 
1879.000000	98.016587 
1878.000000	98.016909 
1877.000000	98.017211 
1876.000000	98.017619 
1875.000000	98.018225 
1874.000000	98.019010 
1873.000000	98.019845 
1872.000000	98.020613 
1871.000000	98.021307 
1870.000000	98.022000 
1869.000000	98.022739 
1868.000000	98.023520 
1867.000000	98.024386 
1866.000000	98.025380 
1865.000000	98.026378 
1864.000000	98.027189 
1863.000000	98.027879 
1862.000000	98.028821 
1861.000000	98.030255 
1860.000000	98.032019 
1859.000000	98.033801 
1858.000000	98.035495 
1857.000000	98.037068 
1856.000000	98.038442 
1855.000000	98.039669 
1854.000000	98.040978 
1853.000000	98.042479 
1852.000000	98.044115 
1851.000000	98.045898 
1850.000000	98.047862 
1849.000000	98.049838 
1848.000000	98.051498 
1847.000000	98.052740 
1846.000000	98.053834 
1845.000000	98.055171 
1844.000000	98.056906 
1843.000000	98.058951 
1842.000000	98.061075 
1841.000000	98.062988 
1840.000000	98.064638 
1839.000000	98.066253 
1838.000000	98.067942 
1837.000000	98.069358 
1836.000000	98.070099 
1835.000000	98.070503 
1834.000000	98.071329 
1833.000000	98.072708 
1832.000000	98.074147 
1831.000000	98.075066 
1830.000000	98.075221 
1829.000000	98.075097 
1828.000000	98.075418 
1827.000000	98.076404 
1826.000000	98.077884 
1825.000000	98.079414 
1824.000000	98.080438 
1823.000000	98.080647 
1822.000000	98.080295 
1821.000000	98.079942 
1820.000000	98.079894 
1819.000000	98.080125 
1818.000000	98.080763 
1817.000000	98.081935 
1816.000000	98.082974 
1815.000000	98.083089 
1814.000000	98.082566 
1813.000000	98.082581 
1812.000000	98.083555 
1811.000000	98.084324 
1810.000000	98.084075 
1809.000000	98.083480 
1808.000000	98.083136 
1807.000000	98.082715 
1806.000000	98.082021 
1805.000000	98.081453 
1804.000000	98.081217 
1803.000000	98.081125 
1802.000000	98.081126 
1801.000000	98.081491 
1800.000000	98.082008 
1799.000000	98.081940 
1798.000000	98.081405 
1797.000000	98.081031 
1796.000000	98.080777 
1795.000000	98.080461 
1794.000000	98.080567 
1793.000000	98.081692 
1792.000000	98.083132 
1791.000000	98.083476 
1790.000000	98.082907 
1789.000000	98.082750 
1788.000000	98.083670 
1787.000000	98.085414 
1786.000000	98.087524 
1785.000000	98.089531 
1784.000000	98.090796 
1783.000000	98.091133 
1782.000000	98.090951 
1781.000000	98.090890 
1780.000000	98.091425 
1779.000000	98.092603 
1778.000000	98.094298 
1777.000000	98.096149 
1776.000000	98.097602 
1775.000000	98.098375 
1774.000000	98.098584 
1773.000000	98.098697 
1772.000000	98.099235 
1771.000000	98.100149 
1770.000000	98.101048 
1769.000000	98.101877 
1768.000000	98.102799 
1767.000000	98.103708 
1766.000000	98.104351 
1765.000000	98.104786 
1764.000000	98.105427 
1763.000000	98.106519 
1762.000000	98.107807 
1761.000000	98.108952 
1760.000000	98.109844 
1759.000000	98.110322 
1758.000000	98.110246 
1757.000000	98.109752 
1756.000000	98.109566 
1755.000000	98.109979 
1754.000000	98.110282 
1753.000000	98.109856 
1752.000000	98.109118 
1751.000000	98.109190 
1750.000000	98.110209 
1749.000000	98.110855 
1748.000000	98.110387 
1747.000000	98.109719 
1746.000000	98.109653 
1745.000000	98.110164 
1744.000000	98.111155 
1743.000000	98.112000 
1742.000000	98.111569 
1741.000000	98.110030 
1740.000000	98.109319 
1739.000000	98.110546 
1738.000000	98.111847 
1737.000000	98.111364 
1736.000000	98.109703 
1735.000000	98.108428 
1734.000000	98.107504 
1733.000000	98.105982 
1732.000000	98.104265 
1731.000000	98.104308 
1730.000000	98.107523 
1729.000000	98.111616 
1728.000000	98.113915 
1727.000000	98.113933 
1726.000000	98.112458 
1725.000000	98.110061 
1724.000000	98.107456 
1723.000000	98.105352 
1722.000000	98.104103 
1721.000000	98.103133 
1720.000000	98.101987 
1719.000000	98.100039 
1718.000000	98.096253 
1717.000000	98.091885 
1716.000000	98.087549 
1715.000000	98.082673 
1714.000000	98.079715 
1713.000000	98.079825 
1712.000000	98.080172 
1711.000000	98.078486 
1710.000000	98.075087 
1709.000000	98.070758 
1708.000000	98.065922 
1707.000000	98.061489 
1706.000000	98.058546 
1705.000000	98.056481 
1704.000000	98.051876 
1703.000000	98.043306 
1702.000000	98.032968 
1701.000000	98.025402 
1700.000000	98.021548 
1699.000000	98.017035 
1698.000000	98.011361 
1697.000000	98.007643 
1696.000000	98.005808 
1695.000000	98.002827 
1694.000000	97.997500 
1693.000000	97.990976 
1692.000000	97.984597 
1691.000000	97.978508 
1690.000000	97.972366 
1689.000000	97.965957 
1688.000000	97.959467 
1687.000000	97.953257 
1686.000000	97.947835 
1685.000000	97.943546 
1684.000000	97.938380 
1683.000000	97.931751 
1682.000000	97.925341 
1681.000000	97.918961 
1680.000000	97.913190 
1679.000000	97.907763 
1678.000000	97.901740 
1677.000000	97.894022 
1676.000000	97.885645 
1675.000000	97.878571 
1674.000000	97.871739 
1673.000000	97.862913 
1672.000000	97.853893 
1671.000000	97.848180 
1670.000000	97.844900 
1669.000000	97.839082 
1668.000000	97.831453 
1667.000000	97.826183 
1666.000000	97.822237 
1665.000000	97.817723 
1664.000000	97.813428 
1663.000000	97.810230 
1662.000000	97.805749 
1661.000000	97.795758 
1660.000000	97.782472 
1659.000000	97.772289 
1658.000000	97.767967 
1657.000000	97.764663 
1656.000000	97.760993 
1655.000000	97.760705 
1654.000000	97.761152 
1653.000000	97.747987 
1652.000000	97.728092 
1651.000000	97.712330 
1650.000000	97.695312 
1649.000000	97.684465 
1648.000000	97.678405 
1647.000000	97.673124 
1646.000000	97.667310 
1645.000000	97.665896 
1644.000000	97.664141 
1643.000000	97.660816 
1642.000000	97.658693 
1641.000000	97.658684 
1640.000000	97.658439 
1639.000000	97.655592 
1638.000000	97.651162 
1637.000000	97.646472 
1636.000000	97.640106 
1635.000000	97.638119 
1634.000000	97.645292 
1633.000000	97.653473 
1632.000000	97.656880 
1631.000000	97.658293 
1630.000000	97.662685 
1629.000000	97.669724 
1628.000000	97.675501 
1627.000000	97.680356 
1626.000000	97.686936 
1625.000000	97.695056 
1624.000000	97.703783 
1623.000000	97.714707 
1622.000000	97.728789 
1621.000000	97.740530 
1620.000000	97.747325 
1619.000000	97.755043 
1618.000000	97.769528 
1617.000000	97.784880 
1616.000000	97.791084 
1615.000000	97.792507 
1614.000000	97.796338 
1613.000000	97.801930 
1612.000000	97.806426 
1611.000000	97.811226 
1610.000000	97.819523 
1609.000000	97.830184 
1608.000000	97.840986 
1607.000000	97.853255 
1606.000000	97.866577 
1605.000000	97.876803 
1604.000000	97.883724 
1603.000000	97.891393 
1602.000000	97.901158 
1601.000000	97.909996 
1600.000000	97.916714 
1599.000000	97.924079 
1598.000000	97.932935 
1597.000000	97.940665 
1596.000000	97.945846 
1595.000000	97.950792 
1594.000000	97.957773 
1593.000000	97.965135 
1592.000000	97.970709 
1591.000000	97.975784 
1590.000000	97.982068 
1589.000000	97.987904 
1588.000000	97.991974 
1587.000000	97.996942 
1586.000000	98.004924 
1585.000000	98.012535 
1584.000000	98.017016 
1583.000000	98.021510 
1582.000000	98.028319 
1581.000000	98.034353 
1580.000000	98.037362 
1579.000000	98.041402 
1578.000000	98.051401 
1577.000000	98.064886 
1576.000000	98.073658 
1575.000000	98.077105 
1574.000000	98.077106 
1573.000000	98.073044 
1572.000000	98.069746 
1571.000000	98.072974 
1570.000000	98.080463 
1569.000000	98.081139 
1568.000000	98.075071 
1567.000000	98.070639 
1566.000000	98.070399 
1565.000000	98.069902 
1564.000000	98.068293 
1563.000000	98.066134 
1562.000000	98.063623 
1561.000000	98.058196 
1560.000000	98.057803 
1559.000000	98.060261 
1558.000000	98.061572 
1557.000000	98.064833 
1556.000000	98.060093 
1555.000000	98.057229 
1554.000000	98.054604 
1553.000000	98.052047 
1552.000000	98.046981 
1551.000000	98.040334 
1550.000000	98.031413 
1549.000000	98.022457 
1548.000000	98.016510 
1547.000000	98.014338 
1546.000000	98.012949 
1545.000000	98.008555 
1544.000000	98.000733 
1543.000000	97.992684 
1542.000000	97.989184 
1541.000000	97.991173 
1540.000000	97.986385 
1539.000000	97.973947 
1538.000000	97.962260 
1537.000000	97.947348 
1536.000000	97.929724 
1535.000000	97.914278 
1534.000000	97.904384 
1533.000000	97.898589 
1532.000000	97.894011 
1531.000000	97.886383 
1530.000000	97.875929 
1529.000000	97.865598 
1528.000000	97.855092 
1527.000000	97.842584 
1526.000000	97.828589 
1525.000000	97.816446 
1524.000000	97.808184 
1523.000000	97.802309 
1522.000000	97.794230 
1521.000000	97.780910 
1520.000000	97.764348 
1519.000000	97.746395 
1518.000000	97.727573 
1517.000000	97.709045 
1516.000000	97.692791 
1515.000000	97.681054 
1514.000000	97.672668 
1513.000000	97.665603 
1512.000000	97.657408 
1511.000000	97.644331 
1510.000000	97.625913 
1509.000000	97.606671 
1508.000000	97.591769 
1507.000000	97.576136 
1506.000000	97.559337 
1505.000000	97.547054 
1504.000000	97.534331 
1503.000000	97.519447 
1502.000000	97.503356 
1501.000000	97.487973 
1500.000000	97.474589 
1499.000000	97.462275 
1498.000000	97.447409 
1497.000000	97.429914 
1496.000000	97.413734 
1495.000000	97.400366 
1494.000000	97.388258 
1493.000000	97.376717 
1492.000000	97.366398 
1491.000000	97.356612 
1490.000000	97.344647 
1489.000000	97.330574 
1488.000000	97.315833 
1487.000000	97.299527 
1486.000000	97.282952 
1485.000000	97.266903 
1484.000000	97.250988 
1483.000000	97.235645 
1482.000000	97.220783 
1481.000000	97.206318 
1480.000000	97.191719 
1479.000000	97.176256 
1478.000000	97.159791 
1477.000000	97.143519 
1476.000000	97.127389 
1475.000000	97.109329 
1474.000000	97.088334 
1473.000000	97.067132 
1472.000000	97.051441 
1471.000000	97.041985 
1470.000000	97.034165 
1469.000000	97.025470 
1468.000000	97.015661 
1467.000000	97.003400 
1466.000000	96.987825 
1465.000000	96.971105 
1464.000000	96.958011 
1463.000000	96.948164 
1462.000000	96.936793 
1461.000000	96.923725 
1460.000000	96.912931 
1459.000000	96.905128 
1458.000000	96.887780 
1457.000000	96.852610 
1456.000000	96.820339 
1455.000000	96.804316 
1454.000000	96.793304 
1453.000000	96.782209 
1452.000000	96.772952 
1451.000000	96.767875 
1450.000000	96.765318 
1449.000000	96.764221 
1448.000000	96.764294 
1447.000000	96.764032 
1446.000000	96.761335 
1445.000000	96.756504 
1444.000000	96.752456 
1443.000000	96.748728 
1442.000000	96.742736 
1441.000000	96.734655 
1440.000000	96.727803 
1439.000000	96.722208 
1438.000000	96.711753 
1437.000000	96.694215 
1436.000000	96.680793 
1435.000000	96.679379 
1434.000000	96.682502 
1433.000000	96.684474 
1432.000000	96.685918 
1431.000000	96.687897 
1430.000000	96.688269 
1429.000000	96.686871 
1428.000000	96.687557 
1427.000000	96.692410 
1426.000000	96.698570 
1425.000000	96.701171 
1424.000000	96.701625 
1423.000000	96.703710 
1422.000000	96.706238 
1421.000000	96.706371 
1420.000000	96.704443 
1419.000000	96.698510 
1418.000000	96.685473 
1417.000000	96.672836 
1416.000000	96.670683 
1415.000000	96.678678 
1414.000000	96.686112 
1413.000000	96.685360 
1412.000000	96.681125 
1411.000000	96.681675 
1410.000000	96.686607 
1409.000000	96.692240 
1408.000000	96.699379 
1407.000000	96.710570 
1406.000000	96.724930 
1405.000000	96.740651 
1404.000000	96.761439 
1403.000000	96.788514 
1402.000000	96.815781 
1401.000000	96.839620 
1400.000000	96.863169 
1399.000000	96.888558 
1398.000000	96.908920 
1397.000000	96.915435 
1396.000000	96.909215 
1395.000000	96.904387 
1394.000000	96.916394 
1393.000000	96.948766 
1392.000000	96.994819 
1391.000000	97.043745 
1390.000000	97.085626 
1389.000000	97.115095 
1388.000000	97.132179 
1387.000000	97.141127 
1386.000000	97.148062 
1385.000000	97.158075 
1384.000000	97.174083 
1383.000000	97.195231 
1382.000000	97.217186 
1381.000000	97.236920 
1380.000000	97.255183 
1379.000000	97.275316 
1378.000000	97.299655 
1377.000000	97.327459 
1376.000000	97.355865 
1375.000000	97.382014 
1374.000000	97.404862 
1373.000000	97.426969 
1372.000000	97.451945 
1371.000000	97.480890 
1370.000000	97.511860 
1369.000000	97.540128 
1368.000000	97.563605 
1367.000000	97.584326 
1366.000000	97.605038 
1365.000000	97.627027 
1364.000000	97.649056 
1363.000000	97.667996 
1362.000000	97.683403 
1361.000000	97.699092 
1360.000000	97.718500 
1359.000000	97.741980 
1358.000000	97.767280 
1357.000000	97.790920 
1356.000000	97.810576 
1355.000000	97.826179 
1354.000000	97.839450 
1353.000000	97.853318 
1352.000000	97.868710 
1351.000000	97.884797 
1350.000000	97.901578 
1349.000000	97.917459 
1348.000000	97.930860 
1347.000000	97.942083 
1346.000000	97.953066 
1345.000000	97.964387 
1344.000000	97.974923 
1343.000000	97.984214 
1342.000000	97.993393 
1341.000000	98.002342 
1340.000000	98.008675 
1339.000000	98.011824 
1338.000000	98.014814 
1337.000000	98.020331 
1336.000000	98.027806 
1335.000000	98.034964 
1334.000000	98.040942 
1333.000000	98.046786 
1332.000000	98.053107 
1331.000000	98.059320 
1330.000000	98.064732 
1329.000000	98.069142 
1328.000000	98.072716 
1327.000000	98.076439 
1326.000000	98.081233 
1325.000000	98.085560 
1324.000000	98.087445 
1323.000000	98.086512 
1322.000000	98.083812 
1321.000000	98.080702 
1320.000000	98.078747 
1319.000000	98.079378 
1318.000000	98.082866 
1317.000000	98.088094 
1316.000000	98.093131 
1315.000000	98.095904 
1314.000000	98.095226 
1313.000000	98.092675 
1312.000000	98.091998 
1311.000000	98.095113 
1310.000000	98.099723 
1309.000000	98.102693 
1308.000000	98.104093 
1307.000000	98.106446 
1306.000000	98.110781 
1305.000000	98.115018 
1304.000000	98.117500 
1303.000000	98.118085 
1302.000000	98.116490 
1301.000000	98.112339 
1300.000000	98.107689 
1299.000000	98.106321 
1298.000000	98.109298 
1297.000000	98.113295 
1296.000000	98.114562 
1295.000000	98.113229 
1294.000000	98.111983 
1293.000000	98.112268 
1292.000000	98.113225 
1291.000000	98.113490 
1290.000000	98.112881 
1289.000000	98.112416 
1288.000000	98.113033 
1287.000000	98.114314 
1286.000000	98.114705 
1285.000000	98.113618 
1284.000000	98.112633 
1283.000000	98.113229 
1282.000000	98.114095 
1281.000000	98.112498 
1280.000000	98.108362 
1279.000000	98.105179 
1278.000000	98.106026 
1277.000000	98.110469 
1276.000000	98.115644 
1275.000000	98.119091 
1274.000000	98.119712 
1273.000000	98.117636 
1272.000000	98.114134 
1271.000000	98.110542 
1270.000000	98.106367 
1269.000000	98.099512 
1268.000000	98.089181 
1267.000000	98.077054 
1266.000000	98.065016 
1265.000000	98.054136 
1264.000000	98.046295 
1263.000000	98.043846 
1262.000000	98.046225 
1261.000000	98.049328 
1260.000000	98.050556 
1259.000000	98.052469 
1258.000000	98.058373 
1257.000000	98.066568 
1256.000000	98.071910 
1255.000000	98.072276 
1254.000000	98.070591 
1253.000000	98.070337 
1252.000000	98.071463 
1251.000000	98.071945 
1250.000000	98.071703 
1249.000000	98.073556 
1248.000000	98.080568 
1247.000000	98.092516 
1246.000000	98.104350 
1245.000000	98.108999 
1244.000000	98.103056 
1243.000000	98.090877 
1242.000000	98.082952 
1241.000000	98.088339 
1240.000000	98.106769 
1239.000000	98.127767 
1238.000000	98.138933 
1237.000000	98.135899 
1236.000000	98.123724 
1235.000000	98.109595 
1234.000000	98.096472 
1233.000000	98.084224 
1232.000000	98.073522 
1231.000000	98.065400 
1230.000000	98.058821 
1229.000000	98.052023 
1228.000000	98.045188 
1227.000000	98.038752 
1226.000000	98.030157 
1225.000000	98.015794 
1224.000000	97.996011 
1223.000000	97.974912 
1222.000000	97.954761 
1221.000000	97.933504 
1220.000000	97.908575 
1219.000000	97.880345 
1218.000000	97.850587 
1217.000000	97.819873 
1216.000000	97.787515 
1215.000000	97.752287 
1214.000000	97.712760 
1213.000000	97.668933 
1212.000000	97.623521 
1211.000000	97.578881 
1210.000000	97.532810 
1209.000000	97.480755 
1208.000000	97.422713 
1207.000000	97.364353 
1206.000000	97.309969 
1205.000000	97.257353 
1204.000000	97.201442 
1203.000000	97.140407 
1202.000000	97.076397 
1201.000000	97.012344 
1200.000000	96.949824 
1199.000000	96.888746 
1198.000000	96.827663 
1197.000000	96.765365 
1196.000000	96.702326 
1195.000000	96.639408 
1194.000000	96.575794 
1193.000000	96.510039 
1192.000000	96.442675 
1191.000000	96.375228 
1190.000000	96.306967 
1189.000000	96.235484 
1188.000000	96.160416 
1187.000000	96.083813 
1186.000000	96.006963 
1185.000000	95.929738 
1184.000000	95.852674 
1183.000000	95.776505 
1182.000000	95.699950 
1181.000000	95.621079 
1180.000000	95.540305 
1179.000000	95.458583 
1178.000000	95.373440 
1177.000000	95.281171 
1176.000000	95.182676 
1175.000000	95.082631 
1174.000000	94.982960 
1173.000000	94.881732 
1172.000000	94.778587 
1171.000000	94.675686 
1170.000000	94.572685 
1169.000000	94.466819 
1168.000000	94.359807 
1167.000000	94.259469 
1166.000000	94.173072 
1165.000000	94.104490 
1164.000000	94.059067 
1163.000000	94.044255 
1162.000000	94.061728 
1161.000000	94.102672 
1160.000000	94.152504 
1159.000000	94.196533 
1158.000000	94.221206 
1157.000000	94.216631 
1156.000000	94.181242 
1155.000000	94.121121 
1154.000000	94.043808 
1153.000000	93.955785 
1152.000000	93.865074 
1151.000000	93.779598 
1150.000000	93.700604 
1149.000000	93.622863 
1148.000000	93.543072 
1147.000000	93.462925 
1146.000000	93.382867 
1145.000000	93.299376 
1144.000000	93.210967 
1143.000000	93.121087 
1142.000000	93.032133 
1141.000000	92.941809 
1140.000000	92.848067 
1139.000000	92.752612 
1138.000000	92.657215 
1137.000000	92.561502 
1136.000000	92.466183 
1135.000000	92.372970 
1134.000000	92.279445 
1133.000000	92.179739 
1132.000000	92.072286 
1131.000000	91.961315 
1130.000000	91.849281 
1129.000000	91.734235 
1128.000000	91.616438 
1127.000000	91.500423 
1126.000000	91.387581 
1125.000000	91.273145 
1124.000000	91.153411 
1123.000000	91.030009 
1122.000000	90.904818 
1121.000000	90.777071 
1120.000000	90.647938 
1119.000000	90.521444 
1118.000000	90.398522 
1117.000000	90.276686 
1116.000000	90.157150 
1115.000000	90.044915 
1114.000000	89.940184 
1113.000000	89.837500 
1112.000000	89.735012 
1111.000000	89.636204 
1110.000000	89.540815 
1109.000000	89.443026 
1108.000000	89.340377 
1107.000000	89.235897 
1106.000000	89.130590 
1105.000000	89.022464 
1104.000000	88.913710 
1103.000000	88.809834 
1102.000000	88.709918 
1101.000000	88.607916 
1100.000000	88.503923 
1099.000000	88.403350 
1098.000000	88.307295 
1097.000000	88.211228 
1096.000000	88.114903 
1095.000000	88.021149 
1094.000000	87.924579 
1093.000000	87.814283 
1092.000000	87.690443 
1091.000000	87.566595 
1090.000000	87.452695 
1089.000000	87.346726 
1088.000000	87.244318 
1087.000000	87.143996 
1086.000000	87.040984 
1085.000000	86.929363 
1084.000000	86.813659 
1083.000000	86.705737 
1082.000000	86.607165 
1081.000000	86.507425 
1080.000000	86.402362 
1079.000000	86.300426 
1078.000000	86.206739 
1077.000000	86.114594 
1076.000000	86.017490 
1075.000000	85.916696 
1074.000000	85.812759 
1073.000000	85.701940 
1072.000000	85.583471 
1071.000000	85.456040 
1070.000000	85.304679 
1069.000000	85.109095 
1068.000000	84.872522 
1067.000000	84.629039 
1066.000000	84.413882 
1065.000000	84.235874 
1064.000000	84.083032 
1063.000000	83.938213 
1062.000000	83.781029 
1061.000000	83.591495 
1060.000000	83.366274 
1059.000000	83.124711 
1058.000000	82.890549 
1057.000000	82.672852 
1056.000000	82.467195 
1055.000000	82.263783 
1054.000000	82.049629 
1053.000000	81.815361 
1052.000000	81.566846 
1051.000000	81.320075 
1050.000000	81.080268 
1049.000000	80.838872 
1048.000000	80.593303 
1047.000000	80.352274 
1046.000000	80.118597 
1045.000000	79.884257 
1044.000000	79.645875 
1043.000000	79.409179 
1042.000000	79.175054 
1041.000000	78.936498 
1040.000000	78.693367 
1039.000000	78.455896 
1038.000000	78.230401 
1037.000000	78.015536 
1036.000000	77.814070 
1035.000000	77.632425 
1034.000000	77.466787 
1033.000000	77.305418 
1032.000000	77.145069 
1031.000000	76.988699 
1030.000000	76.829964 
1029.000000	76.661941 
1028.000000	76.500787 
1027.000000	76.376023 
1026.000000	76.293286 
1025.000000	76.227824 
1024.000000	76.157880 
1023.000000	76.082368 
1022.000000	76.002262 
1021.000000	75.910363 
1020.000000	75.807551 
1019.000000	75.707532 
1018.000000	75.617292 
1017.000000	75.530841 
1016.000000	75.446624 
1015.000000	75.371266 
1014.000000	75.302014 
1013.000000	75.226499 
1012.000000	75.144687 
1011.000000	75.070654 
1010.000000	75.008603 
1009.000000	74.948147 
1008.000000	74.887152 
1007.000000	74.837236 
1006.000000	74.801887 
1005.000000	74.770916 
1004.000000	74.741457 
1003.000000	74.722805 
1002.000000	74.715479 
1001.000000	74.707611 
1000.000000	74.697778 
999.000000	 74.699689 
998.000000	 74.717988 
997.000000	 74.740351 
996.000000	 74.759509 
995.000000	 74.782969 
994.000000	 74.815379 
993.000000	 74.851436 
992.000000	 74.891085 
991.000000	 74.941193 
990.000000	 74.997453 
989.000000	 75.045430 
988.000000	 75.084790 
987.000000	 75.132206 
986.000000	 75.195991 
985.000000	 75.268854 
984.000000	 75.349024 
983.000000	 75.445468 
982.000000	 75.556861 
981.000000	 75.668111 
980.000000	 75.774686 
979.000000	 75.889779 
978.000000	 76.020963 
977.000000	 76.160656 
976.000000	 76.305559 
975.000000	 76.464154 
974.000000	 76.637487 
973.000000	 76.812673 
972.000000	 76.983434 
971.000000	 77.159183 
970.000000	 77.346918 
969.000000	 77.541593 
968.000000	 77.739788 
967.000000	 77.945154 
966.000000	 78.155057 
965.000000	 78.359469 
964.000000	 78.558192 
963.000000	 78.762236 
962.000000	 78.973979 
961.000000	 79.183019 
960.000000	 79.385047 
959.000000	 79.586810 
958.000000	 79.788706 
957.000000	 79.981005 
956.000000	 80.162193 
955.000000	 80.343447 
954.000000	 80.529821 
953.000000	 80.713350 
952.000000	 80.888780 
951.000000	 81.059264 
950.000000	 81.223093 
949.000000	 81.372258 
948.000000	 81.508293 
947.000000	 81.642521 
946.000000	 81.776309 
945.000000	 81.897825 
944.000000	 82.002395 
943.000000	 82.099390 
942.000000	 82.195072 
941.000000	 82.285536 
940.000000	 82.371438 
939.000000	 82.462316 
938.000000	 82.560299 
937.000000	 82.655438 
936.000000	 82.742762 
935.000000	 82.828864 
934.000000	 82.917310 
933.000000	 83.003623 
932.000000	 83.089610 
931.000000	 83.186205 
930.000000	 83.295926 
929.000000	 83.407260 
928.000000	 83.511648 
927.000000	 83.611584 
926.000000	 83.707612 
925.000000	 83.792521 
924.000000	 83.863909 
923.000000	 83.928965 
922.000000	 83.992414 
921.000000	 84.052751 
920.000000	 84.112718 
919.000000	 84.178010 
918.000000	 84.241834 
917.000000	 84.286761 
916.000000	 84.308087 
915.000000	 84.322798 
914.000000	 84.351608 
913.000000	 84.404887 
912.000000	 84.487721 
911.000000	 84.602178 
910.000000	 84.739758 
909.000000	 84.886565 
908.000000	 85.040925 
907.000000	 85.213672 
906.000000	 85.410318 
905.000000	 85.627022 
904.000000	 85.863161 
903.000000	 86.120719 
902.000000	 86.390456 
901.000000	 86.656100 
900.000000	 86.914450 
899.000000	 87.176141 
898.000000	 87.446306 
897.000000	 87.719253 
896.000000	 87.990737 
895.000000	 88.258319 
894.000000	 88.511029 
893.000000	 88.737254 
892.000000	 88.943684 
891.000000	 89.149676 
890.000000	 89.362022 
889.000000	 89.570850 
888.000000	 89.769169 
887.000000	 89.957876 
886.000000	 90.131484 
885.000000	 90.278363 
884.000000	 90.397462 
883.000000	 90.497962 
882.000000	 90.582678 
881.000000	 90.651722 
880.000000	 90.722768 
879.000000	 90.822718 
878.000000	 90.952666 
877.000000	 91.084020 
876.000000	 91.197222 
875.000000	 91.303537 
874.000000	 91.422742 
873.000000	 91.562930 
872.000000	 91.730803 
871.000000	 91.937162 
870.000000	 92.178125 
869.000000	 92.428490 
868.000000	 92.665671 
867.000000	 92.887494 
866.000000	 93.100774 
865.000000	 93.308794 
864.000000	 93.517872 
863.000000	 93.740339 
862.000000	 93.979419 
861.000000	 94.221171 
860.000000	 94.449473 
859.000000	 94.660095 
858.000000	 94.855370 
857.000000	 95.035865 
856.000000	 95.203322 
855.000000	 95.362279 
854.000000	 95.512536 
853.000000	 95.647356 
852.000000	 95.763235 
851.000000	 95.864614 
850.000000	 95.957496 
849.000000	 96.046411 
848.000000	 96.137316 
847.000000	 96.232445 
846.000000	 96.321283 
845.000000	 96.388416 
844.000000	 96.431727 
843.000000	 96.461619 
842.000000	 96.482095 
841.000000	 96.485948 
840.000000	 96.470010 
839.000000	 96.440671 
838.000000	 96.401474 
837.000000	 96.349870 
836.000000	 96.290825 
835.000000	 96.239227 
834.000000	 96.202100 
833.000000	 96.171171 
832.000000	 96.139686 
831.000000	 96.114017 
830.000000	 96.101588 
829.000000	 96.100074 
828.000000	 96.107688 
827.000000	 96.132787 
826.000000	 96.182908 
825.000000	 96.253141 
824.000000	 96.333301 
823.000000	 96.416742 
822.000000	 96.496269 
821.000000	 96.562966 
820.000000	 96.614806 
819.000000	 96.657144 
818.000000	 96.692117 
817.000000	 96.716066 
816.000000	 96.727350 
815.000000	 96.726087 
814.000000	 96.704602 
813.000000	 96.648009 
812.000000	 96.546094 
811.000000	 96.396047 
810.000000	 96.193583 
809.000000	 95.932505 
808.000000	 95.615242 
807.000000	 95.253409 
806.000000	 94.855547 
805.000000	 94.424888 
804.000000	 93.972339 
803.000000	 93.521202 
802.000000	 93.096556 
801.000000	 92.721177 
800.000000	 92.421423 
799.000000	 92.219234 
798.000000	 92.112985 
797.000000	 92.080360 
796.000000	 92.102415 
795.000000	 92.170197 
794.000000	 92.269904 
793.000000	 92.383112 
792.000000	 92.503756 
791.000000	 92.634337 
790.000000	 92.762134 
789.000000	 92.858402 
788.000000	 92.904427 
787.000000	 92.900890 
786.000000	 92.850825 
785.000000	 92.753456 
784.000000	 92.618439 
783.000000	 92.466198 
782.000000	 92.308600 
781.000000	 92.147996 
780.000000	 91.999414 
779.000000	 91.892692 
778.000000	 91.846019 
777.000000	 91.856632 
776.000000	 91.921809 
775.000000	 92.045543 
774.000000	 92.216009 
773.000000	 92.398928 
772.000000	 92.565108 
771.000000	 92.708754 
770.000000	 92.832992 
769.000000	 92.937213 
768.000000	 93.025920 
767.000000	 93.109534 
766.000000	 93.186424 
765.000000	 93.242067 
764.000000	 93.274768 
763.000000	 93.303686 
762.000000	 93.342180 
761.000000	 93.382066 
760.000000	 93.415058 
759.000000	 93.450835 
758.000000	 93.500727 
757.000000	 93.560550 
756.000000	 93.623372 
755.000000	 93.693932 
754.000000	 93.775890 
753.000000	 93.857439 
752.000000	 93.923800 
751.000000	 93.975533 
750.000000	 94.025024 
749.000000	 94.083464 
748.000000	 94.157756 
747.000000	 94.248962 
746.000000	 94.346741 
745.000000	 94.437137 
744.000000	 94.522707 
743.000000	 94.622451 
742.000000	 94.745424 
741.000000	 94.878096 
740.000000	 95.004103 
739.000000	 95.122692 
738.000000	 95.241026 
737.000000	 95.361632 
736.000000	 95.484680 
735.000000	 95.610153 
734.000000	 95.730898 
733.000000	 95.834576 
732.000000	 95.917387 
731.000000	 95.985319 
730.000000	 96.040668 
729.000000	 96.081940 
728.000000	 96.117508 
727.000000	 96.162790 
726.000000	 96.221563 
725.000000	 96.284473 
724.000000	 96.347661 
723.000000	 96.416811 
722.000000	 96.491334 
721.000000	 96.563072 
720.000000	 96.634257 
719.000000	 96.716601 
718.000000	 96.806012 
717.000000	 96.878956 
716.000000	 96.921043 
715.000000	 96.941071 
714.000000	 96.952287 
713.000000	 96.959629 
712.000000	 96.972932 
711.000000	 97.010696 
710.000000	 97.076041 
709.000000	 97.146469 
708.000000	 97.198341 
707.000000	 97.226548 
706.000000	 97.234476 
705.000000	 97.220972 
704.000000	 97.186593 
703.000000	 97.137065 
702.000000	 97.066196 
701.000000	 96.949735 
700.000000	 96.770700 
699.000000	 96.540266 
698.000000	 96.289172 
697.000000	 96.052180 
696.000000	 95.866713 
695.000000	 95.768113 
694.000000	 95.766597 
693.000000	 95.837278 
692.000000	 95.942414 
691.000000	 96.054980 
690.000000	 96.162158 
689.000000	 96.261861 
688.000000	 96.362565 
687.000000	 96.471779 
686.000000	 96.576500 
685.000000	 96.652756 
684.000000	 96.697431 
683.000000	 96.730403 
682.000000	 96.766962 
681.000000	 96.810055 
680.000000	 96.867685 
679.000000	 96.949601 
678.000000	 97.043327 
677.000000	 97.123227 
676.000000	 97.184519 
675.000000	 97.242067 
674.000000	 97.296909 
673.000000	 97.333372 
672.000000	 97.350435 
671.000000	 97.360983 
670.000000	 97.362443 
669.000000	 97.331694 
668.000000	 97.305283 
667.000000	 97.391574 
666.000000	 97.554587 
665.000000	 97.686545 
664.000000	 97.769942 
663.000000	 97.832309 
662.000000	 97.898683 
661.000000	 97.964842 
660.000000	 98.016943 
659.000000	 98.059380 
658.000000	 98.100689 
657.000000	 98.134081 
656.000000	 98.152197 
655.000000	 98.163527 
654.000000	 98.171790 
653.000000	 98.157579 
652.000000	 98.109817 
651.000000	 98.061798 
650.000000	 98.060238 

