4000.000000	97.182939 
3999.000000	97.181403 
3998.000000	97.178387 
3997.000000	97.174947 
3996.000000	97.172200 
3995.000000	97.170742 
3994.000000	97.170640 
3993.000000	97.171405 
3992.000000	97.172014 
3991.000000	97.171456 
3990.000000	97.169681 
3989.000000	97.167774 
3988.000000	97.166812 
3987.000000	97.167028 
3986.000000	97.168247 
3985.000000	97.170266 
3984.000000	97.172536 
3983.000000	97.174062 
3982.000000	97.174371 
3981.000000	97.174209 
3980.000000	97.174477 
3979.000000	97.174949 
3978.000000	97.174775 
3977.000000	97.173911 
3976.000000	97.173221 
3975.000000	97.173095 
3974.000000	97.172858 
3973.000000	97.171767 
3972.000000	97.169842 
3971.000000	97.167677 
3970.000000	97.165820 
3969.000000	97.164684 
3968.000000	97.164526 
3967.000000	97.165110 
3966.000000	97.165787 
3965.000000	97.165950 
3964.000000	97.165215 
3963.000000	97.163479 
3962.000000	97.161123 
3961.000000	97.159016 
3960.000000	97.157843 
3959.000000	97.157588 
3958.000000	97.157742 
3957.000000	97.157976 
3956.000000	97.158211 
3955.000000	97.158119 
3954.000000	97.157307 
3953.000000	97.155731 
3952.000000	97.153751 
3951.000000	97.151681 
3950.000000	97.149494 
3949.000000	97.147212 
3948.000000	97.145194 
3947.000000	97.143995 
3946.000000	97.143933 
3945.000000	97.144808 
3944.000000	97.145670 
3943.000000	97.145370 
3942.000000	97.143918 
3941.000000	97.142527 
3940.000000	97.142192 
3939.000000	97.142682 
3938.000000	97.142961 
3937.000000	97.142444 
3936.000000	97.141355 
3935.000000	97.139789 
3934.000000	97.137651 
3933.000000	97.135314 
3932.000000	97.133803 
3931.000000	97.133437 
3930.000000	97.133363 
3929.000000	97.133277 
3928.000000	97.134050 
3927.000000	97.136149 
3926.000000	97.137998 
3925.000000	97.137242 
3924.000000	97.133799 
3923.000000	97.129718 
3922.000000	97.126224 
3921.000000	97.123129 
3920.000000	97.120526 
3919.000000	97.119418 
3918.000000	97.119948 
3917.000000	97.120775 
3916.000000	97.120966 
3915.000000	97.121094 
3914.000000	97.121807 
3913.000000	97.122773 
3912.000000	97.123394 
3911.000000	97.123935 
3910.000000	97.124550 
3909.000000	97.124741 
3908.000000	97.124088 
3907.000000	97.122387 
3906.000000	97.119310 
3905.000000	97.113760 
3904.000000	97.105631 
3903.000000	97.097605 
3902.000000	97.093108 
3901.000000	97.093113 
3900.000000	97.095866 
3899.000000	97.098854 
3898.000000	97.101127 
3897.000000	97.102641 
3896.000000	97.103079 
3895.000000	97.102715 
3894.000000	97.102487 
3893.000000	97.102909 
3892.000000	97.102792 
3891.000000	97.100621 
3890.000000	97.096858 
3889.000000	97.093317 
3888.000000	97.091269 
3887.000000	97.090449 
3886.000000	97.090038 
3885.000000	97.089826 
3884.000000	97.089778 
3883.000000	97.089299 
3882.000000	97.088015 
3881.000000	97.086463 
3880.000000	97.085558 
3879.000000	97.085349 
3878.000000	97.085237 
3877.000000	97.084983 
3876.000000	97.084766 
3875.000000	97.084440 
3874.000000	97.083669 
3873.000000	97.082550 
3872.000000	97.081438 
3871.000000	97.080372 
3870.000000	97.079304 
3869.000000	97.078569 
3868.000000	97.078315 
3867.000000	97.078232 
3866.000000	97.077964 
3865.000000	97.077533 
3864.000000	97.077207 
3863.000000	97.077072 
3862.000000	97.076930 
3861.000000	97.076698 
3860.000000	97.076493 
3859.000000	97.076385 
3858.000000	97.076279 
3857.000000	97.076028 
3856.000000	97.075591 
3855.000000	97.074982 
3854.000000	97.074121 
3853.000000	97.073178 
3852.000000	97.072541 
3851.000000	97.072267 
3850.000000	97.072123 
3849.000000	97.071984 
3848.000000	97.071964 
3847.000000	97.072196 
3846.000000	97.072518 
3845.000000	97.072608 
3844.000000	97.072338 
3843.000000	97.071809 
3842.000000	97.071195 
3841.000000	97.070691 
3840.000000	97.070334 
3839.000000	97.070125 
3838.000000	97.070158 
3837.000000	97.070286 
3836.000000	97.070230 
3835.000000	97.069957 
3834.000000	97.069749 
3833.000000	97.069913 
3832.000000	97.070459 
3831.000000	97.071231 
3830.000000	97.072098 
3829.000000	97.072990 
3828.000000	97.073933 
3827.000000	97.074847 
3826.000000	97.075343 
3825.000000	97.075272 
3824.000000	97.074902 
3823.000000	97.074616 
3822.000000	97.074244 
3821.000000	97.073375 
3820.000000	97.072709 
3819.000000	97.072889 
3818.000000	97.073462 
3817.000000	97.073722 
3816.000000	97.074289 
3815.000000	97.076786 
3814.000000	97.081006 
3813.000000	97.084298 
3812.000000	97.084852 
3811.000000	97.084143 
3810.000000	97.085078 
3809.000000	97.088141 
3808.000000	97.090261 
3807.000000	97.088734 
3806.000000	97.084691 
3805.000000	97.081268 
3804.000000	97.079543 
3803.000000	97.079185 
3802.000000	97.079342 
3801.000000	97.080343 
3800.000000	97.082929 
3799.000000	97.084662 
3798.000000	97.083159 
3797.000000	97.080511 
3796.000000	97.081516 
3795.000000	97.087900 
3794.000000	97.095913 
3793.000000	97.100825 
3792.000000	97.102429 
3791.000000	97.104296 
3790.000000	97.107916 
3789.000000	97.110877 
3788.000000	97.111437 
3787.000000	97.111017 
3786.000000	97.111245 
3785.000000	97.111023 
3784.000000	97.108471 
3783.000000	97.104265 
3782.000000	97.100055 
3781.000000	97.096233 
3780.000000	97.092845 
3779.000000	97.091897 
3778.000000	97.095058 
3777.000000	97.100474 
3776.000000	97.103792 
3775.000000	97.102618 
3774.000000	97.098490 
3773.000000	97.094381 
3772.000000	97.090741 
3771.000000	97.085023 
3770.000000	97.076566 
3769.000000	97.069459 
3768.000000	97.066840 
3767.000000	97.066504 
3766.000000	97.065055 
3765.000000	97.062444 
3764.000000	97.061755 
3763.000000	97.063912 
3762.000000	97.065136 
3761.000000	97.062071 
3760.000000	97.056521 
3759.000000	97.053490 
3758.000000	97.051535 
3757.000000	97.044985 
3756.000000	97.034067 
3755.000000	97.023240 
3754.000000	97.013751 
3753.000000	97.002566 
3752.000000	96.990230 
3751.000000	96.982113 
3750.000000	96.977901 
3749.000000	96.971881 
3748.000000	96.965634 
3747.000000	96.966414 
3746.000000	96.975263 
3745.000000	96.982710 
3744.000000	96.987929 
3743.000000	96.996588 
3742.000000	97.002425 
3741.000000	96.996434 
3740.000000	96.981797 
3739.000000	96.972560 
3738.000000	96.976965 
3737.000000	96.986053 
3736.000000	96.987561 
3735.000000	96.983848 
3734.000000	96.984810 
3733.000000	96.990169 
3732.000000	96.993766 
3731.000000	96.995433 
3730.000000	96.997891 
3729.000000	97.000508 
3728.000000	97.001401 
3727.000000	97.001211 
3726.000000	97.003235 
3725.000000	97.008026 
3724.000000	97.011912 
3723.000000	97.012814 
3722.000000	97.013374 
3721.000000	97.016953 
3720.000000	97.021762 
3719.000000	97.025224 
3718.000000	97.027031 
3717.000000	97.027425 
3716.000000	97.026755 
3715.000000	97.023313 
3714.000000	97.015076 
3713.000000	97.003620 
3712.000000	96.993167 
3711.000000	96.987262 
3710.000000	96.985216 
3709.000000	96.984520 
3708.000000	96.984060 
3707.000000	96.982886 
3706.000000	96.981001 
3705.000000	96.979644 
3704.000000	96.979826 
3703.000000	96.980609 
3702.000000	96.978532 
3701.000000	96.971351 
3700.000000	96.960572 
3699.000000	96.949791 
3698.000000	96.941625 
3697.000000	96.935679 
3696.000000	96.931119 
3695.000000	96.927481 
3694.000000	96.922657 
3693.000000	96.915116 
3692.000000	96.906463 
3691.000000	96.899341 
3690.000000	96.892267 
3689.000000	96.883764 
3688.000000	96.877367 
3687.000000	96.875497 
3686.000000	96.875469 
3685.000000	96.872695 
3684.000000	96.866076 
3683.000000	96.860190 
3682.000000	96.859523 
3681.000000	96.859861 
3680.000000	96.852476 
3679.000000	96.835004 
3678.000000	96.814642 
3677.000000	96.797603 
3676.000000	96.780912 
3675.000000	96.764970 
3674.000000	96.754026 
3673.000000	96.746601 
3672.000000	96.737978 
3671.000000	96.729149 
3670.000000	96.725355 
3669.000000	96.729174 
3668.000000	96.734817 
3667.000000	96.734874 
3666.000000	96.730707 
3665.000000	96.728228 
3664.000000	96.729327 
3663.000000	96.731369 
3662.000000	96.730071 
3661.000000	96.722223 
3660.000000	96.708688 
3659.000000	96.692903 
3658.000000	96.678801 
3657.000000	96.666355 
3656.000000	96.653334 
3655.000000	96.639712 
3654.000000	96.625420 
3653.000000	96.609520 
3652.000000	96.590664 
3651.000000	96.568710 
3650.000000	96.546386 
3649.000000	96.529220 
3648.000000	96.521254 
3647.000000	96.522436 
3646.000000	96.531135 
3645.000000	96.544665 
3644.000000	96.558891 
3643.000000	96.570462 
3642.000000	96.577923 
3641.000000	96.580879 
3640.000000	96.579071 
3639.000000	96.571615 
3638.000000	96.559802 
3637.000000	96.547444 
3636.000000	96.537290 
3635.000000	96.527340 
3634.000000	96.513558 
3633.000000	96.495840 
3632.000000	96.477241 
3631.000000	96.458816 
3630.000000	96.438421 
3629.000000	96.418608 
3628.000000	96.408987 
3627.000000	96.411051 
3626.000000	96.415453 
3625.000000	96.417711 
3624.000000	96.421610 
3623.000000	96.430972 
3622.000000	96.443421 
3621.000000	96.451105 
3620.000000	96.447105 
3619.000000	96.432641 
3618.000000	96.415930 
3617.000000	96.404673 
3616.000000	96.403247 
3615.000000	96.411640 
3614.000000	96.424528 
3613.000000	96.435460 
3612.000000	96.441870 
3611.000000	96.444323 
3610.000000	96.444882 
3609.000000	96.446707 
3608.000000	96.452079 
3607.000000	96.460768 
3606.000000	96.470232 
3605.000000	96.479266 
3604.000000	96.489692 
3603.000000	96.502665 
3602.000000	96.515633 
3601.000000	96.523635 
3600.000000	96.524284 
3599.000000	96.519751 
3598.000000	96.514588 
3597.000000	96.512251 
3596.000000	96.514705 
3595.000000	96.519889 
3594.000000	96.522850 
3593.000000	96.520814 
3592.000000	96.514862 
3591.000000	96.508215 
3590.000000	96.504088 
3589.000000	96.503412 
3588.000000	96.504622 
3587.000000	96.506444 
3586.000000	96.509322 
3585.000000	96.513775 
3584.000000	96.520666 
3583.000000	96.530493 
3582.000000	96.542493 
3581.000000	96.553549 
3580.000000	96.560222 
3579.000000	96.561406 
3578.000000	96.558898 
3577.000000	96.555875 
3576.000000	96.554347 
3575.000000	96.554478 
3574.000000	96.554578 
3573.000000	96.552837 
3572.000000	96.548041 
3571.000000	96.539954 
3570.000000	96.529443 
3569.000000	96.518329 
3568.000000	96.508920 
3567.000000	96.503721 
3566.000000	96.503665 
3565.000000	96.506864 
3564.000000	96.510923 
3563.000000	96.515714 
3562.000000	96.521959 
3561.000000	96.529002 
3560.000000	96.534640 
3559.000000	96.537242 
3558.000000	96.537283 
3557.000000	96.536847 
3556.000000	96.537597 
3555.000000	96.539431 
3554.000000	96.540621 
3553.000000	96.539239 
3552.000000	96.535142 
3551.000000	96.529820 
3550.000000	96.524884 
3549.000000	96.521424 
3548.000000	96.520252 
3547.000000	96.521208 
3546.000000	96.522573 
3545.000000	96.522349 
3544.000000	96.520661 
3543.000000	96.519588 
3542.000000	96.520470 
3541.000000	96.522704 
3540.000000	96.525002 
3539.000000	96.526597 
3538.000000	96.527208 
3537.000000	96.526598 
3536.000000	96.525032 
3535.000000	96.523130 
3534.000000	96.521399 
3533.000000	96.520096 
3532.000000	96.519564 
3531.000000	96.520077 
3530.000000	96.521047 
3529.000000	96.521041 
3528.000000	96.519099 
3527.000000	96.515732 
3526.000000	96.512520 
3525.000000	96.510756 
3524.000000	96.510683 
3523.000000	96.511761 
3522.000000	96.513146 
3521.000000	96.514180 
3520.000000	96.514751 
3519.000000	96.515105 
3518.000000	96.515449 
3517.000000	96.515629 
3516.000000	96.515367 
3515.000000	96.514671 
3514.000000	96.513921 
3513.000000	96.513485 
3512.000000	96.513256 
3511.000000	96.512708 
3510.000000	96.511474 
3509.000000	96.509785 
3508.000000	96.508296 
3507.000000	96.507475 
3506.000000	96.507262 
3505.000000	96.507168 
3504.000000	96.506722 
3503.000000	96.505799 
3502.000000	96.504648 
3501.000000	96.503649 
3500.000000	96.503110 
3499.000000	96.503140 
3498.000000	96.503520 
3497.000000	96.503808 
3496.000000	96.503605 
3495.000000	96.502837 
3494.000000	96.501834 
3493.000000	96.501116 
3492.000000	96.500921 
3491.000000	96.500894 
3490.000000	96.500469 
3489.000000	96.499590 
3488.000000	96.498728 
3487.000000	96.498156 
3486.000000	96.497592 
3485.000000	96.496748 
3484.000000	96.495824 
3483.000000	96.495031 
3482.000000	96.494107 
3481.000000	96.492775 
3480.000000	96.491323 
3479.000000	96.490263 
3478.000000	96.489636 
3477.000000	96.488971 
3476.000000	96.487842 
3475.000000	96.486281 
3474.000000	96.484631 
3473.000000	96.483243 
3472.000000	96.482320 
3471.000000	96.481834 
3470.000000	96.481510 
3469.000000	96.481055 
3468.000000	96.480411 
3467.000000	96.479775 
3466.000000	96.479379 
3465.000000	96.479136 
3464.000000	96.478505 
3463.000000	96.476842 
3462.000000	96.474013 
3461.000000	96.470658 
3460.000000	96.467757 
3459.000000	96.465775 
3458.000000	96.464387 
3457.000000	96.462882 
3456.000000	96.460915 
3455.000000	96.458801 
3454.000000	96.457230 
3453.000000	96.456613 
3452.000000	96.456780 
3451.000000	96.457208 
3450.000000	96.457348 
3449.000000	96.456785 
3448.000000	96.455280 
3447.000000	96.452939 
3446.000000	96.450241 
3445.000000	96.447798 
3444.000000	96.446008 
3443.000000	96.444936 
3442.000000	96.444346 
3441.000000	96.443800 
3440.000000	96.442928 
3439.000000	96.441637 
3438.000000	96.440092 
3437.000000	96.438488 
3436.000000	96.437011 
3435.000000	96.435908 
3434.000000	96.435406 
3433.000000	96.435414 
3432.000000	96.435477 
3431.000000	96.435187 
3430.000000	96.434504 
3429.000000	96.433634 
3428.000000	96.432722 
3427.000000	96.431770 
3426.000000	96.430812 
3425.000000	96.429999 
3424.000000	96.429446 
3423.000000	96.429055 
3422.000000	96.428589 
3421.000000	96.427928 
3420.000000	96.427172 
3419.000000	96.426521 
3418.000000	96.426069 
3417.000000	96.425762 
3416.000000	96.425493 
3415.000000	96.425188 
3414.000000	96.424816 
3413.000000	96.424359 
3412.000000	96.423835 
3411.000000	96.423317 
3410.000000	96.422908 
3409.000000	96.422665 
3408.000000	96.422566 
3407.000000	96.422517 
3406.000000	96.422428 
3405.000000	96.422277 
3404.000000	96.422113 
3403.000000	96.422004 
3402.000000	96.421968 
3401.000000	96.421968 
3400.000000	96.421974 
3399.000000	96.421999 
3398.000000	96.422059 
3397.000000	96.422148 
3396.000000	96.422265 
3395.000000	96.422430 
3394.000000	96.422642 
3393.000000	96.422856 
3392.000000	96.423017 
3391.000000	96.423124 
3390.000000	96.423245 
3389.000000	96.423488 
3388.000000	96.423947 
3387.000000	96.424636 
3386.000000	96.425442 
3385.000000	96.426149 
3384.000000	96.426566 
3383.000000	96.426676 
3382.000000	96.426736 
3381.000000	96.427117 
3380.000000	96.427945 
3379.000000	96.428950 
3378.000000	96.429761 
3377.000000	96.430412 
3376.000000	96.431291 
3375.000000	96.432556 
3374.000000	96.433841 
3373.000000	96.434696 
3372.000000	96.435172 
3371.000000	96.435785 
3370.000000	96.436924 
3369.000000	96.438504 
3368.000000	96.440144 
3367.000000	96.441525 
3366.000000	96.442538 
3365.000000	96.443241 
3364.000000	96.443822 
3363.000000	96.444515 
3362.000000	96.445488 
3361.000000	96.446811 
3360.000000	96.448490 
3359.000000	96.450456 
3358.000000	96.452503 
3357.000000	96.454352 
3356.000000	96.455843 
3355.000000	96.457056 
3354.000000	96.458251 
3353.000000	96.459693 
3352.000000	96.461488 
3351.000000	96.463517 
3350.000000	96.465492 
3349.000000	96.467116 
3348.000000	96.468296 
3347.000000	96.469192 
3346.000000	96.470122 
3345.000000	96.471331 
3344.000000	96.472797 
3343.000000	96.474277 
3342.000000	96.475569 
3341.000000	96.476713 
3340.000000	96.477895 
3339.000000	96.479188 
3338.000000	96.480518 
3337.000000	96.481825 
3336.000000	96.483129 
3335.000000	96.484459 
3334.000000	96.485810 
3333.000000	96.487148 
3332.000000	96.488457 
3331.000000	96.489742 
3330.000000	96.491016 
3329.000000	96.492291 
3328.000000	96.493577 
3327.000000	96.494872 
3326.000000	96.496172 
3325.000000	96.497468 
3324.000000	96.498749 
3323.000000	96.500013 
3322.000000	96.501261 
3321.000000	96.502494 
3320.000000	96.503715 
3319.000000	96.504925 
3318.000000	96.506126 
3317.000000	96.507318 
3316.000000	96.508502 
3315.000000	96.509676 
3314.000000	96.510837 
3313.000000	96.511990 
3312.000000	96.513141 
3311.000000	96.514295 
3310.000000	96.515454 
3309.000000	96.516614 
3308.000000	96.517768 
3307.000000	96.518910 
3306.000000	96.520038 
3305.000000	96.521158 
3304.000000	96.522282 
3303.000000	96.523418 
3302.000000	96.524570 
3301.000000	96.525740 
3300.000000	96.526919 
3299.000000	96.528089 
3298.000000	96.529234 
3297.000000	96.530345 
3296.000000	96.531448 
3295.000000	96.532597 
3294.000000	96.533825 
3293.000000	96.535122 
3292.000000	96.536447 
3291.000000	96.537770 
3290.000000	96.539082 
3289.000000	96.540381 
3288.000000	96.541675 
3287.000000	96.542965 
3286.000000	96.544223 
3285.000000	96.545411 
3284.000000	96.546522 
3283.000000	96.547605 
3282.000000	96.548732 
3281.000000	96.549937 
3280.000000	96.551183 
3279.000000	96.552382 
3278.000000	96.553495 
3277.000000	96.554589 
3276.000000	96.555779 
3275.000000	96.557085 
3274.000000	96.558421 
3273.000000	96.559729 
3272.000000	96.561060 
3271.000000	96.562472 
3270.000000	96.563934 
3269.000000	96.565351 
3268.000000	96.566660 
3267.000000	96.567865 
3266.000000	96.569027 
3265.000000	96.570238 
3264.000000	96.571568 
3263.000000	96.573022 
3262.000000	96.574521 
3261.000000	96.575962 
3260.000000	96.577298 
3259.000000	96.578548 
3258.000000	96.579765 
3257.000000	96.581022 
3256.000000	96.582399 
3255.000000	96.583902 
3254.000000	96.585399 
3253.000000	96.586754 
3252.000000	96.587978 
3251.000000	96.589232 
3250.000000	96.590620 
3249.000000	96.592066 
3248.000000	96.593419 
3247.000000	96.594628 
3246.000000	96.595784 
3245.000000	96.596990 
3244.000000	96.598250 
3243.000000	96.599479 
3242.000000	96.600605 
3241.000000	96.601655 
3240.000000	96.602742 
3239.000000	96.603988 
3238.000000	96.605476 
3237.000000	96.607246 
3236.000000	96.609271 
3235.000000	96.611357 
3234.000000	96.613188 
3233.000000	96.614522 
3232.000000	96.615340 
3231.000000	96.615870 
3230.000000	96.616426 
3229.000000	96.617230 
3228.000000	96.618358 
3227.000000	96.619768 
3226.000000	96.621420 
3225.000000	96.623325 
3224.000000	96.625386 
3223.000000	96.627342 
3222.000000	96.628969 
3221.000000	96.630345 
3220.000000	96.631754 
3219.000000	96.633317 
3218.000000	96.634885 
3217.000000	96.636307 
3216.000000	96.637654 
3215.000000	96.639108 
3214.000000	96.640770 
3213.000000	96.642590 
3212.000000	96.644393 
3211.000000	96.645961 
3210.000000	96.647188 
3209.000000	96.648218 
3208.000000	96.649361 
3207.000000	96.650786 
3206.000000	96.652384 
3205.000000	96.653977 
3204.000000	96.655592 
3203.000000	96.657419 
3202.000000	96.659508 
3201.000000	96.661620 
3200.000000	96.663405 
3199.000000	96.664725 
3198.000000	96.665769 
3197.000000	96.666877 
3196.000000	96.668209 
3195.000000	96.669689 
3194.000000	96.671285 
3193.000000	96.673190 
3192.000000	96.675579 
3191.000000	96.678251 
3190.000000	96.680691 
3189.000000	96.682543 
3188.000000	96.683883 
3187.000000	96.685142 
3186.000000	96.686794 
3185.000000	96.689000 
3184.000000	96.691493 
3183.000000	96.693775 
3182.000000	96.695584 
3181.000000	96.697080 
3180.000000	96.698593 
3179.000000	96.700273 
3178.000000	96.702120 
3177.000000	96.704191 
3176.000000	96.706521 
3175.000000	96.708921 
3174.000000	96.711115 
3173.000000	96.713073 
3172.000000	96.714992 
3171.000000	96.716960 
3170.000000	96.718905 
3169.000000	96.720826 
3168.000000	96.722767 
3167.000000	96.724557 
3166.000000	96.725958 
3165.000000	96.727070 
3164.000000	96.728283 
3163.000000	96.729752 
3162.000000	96.731222 
3161.000000	96.732445 
3160.000000	96.733525 
3159.000000	96.734768 
3158.000000	96.736389 
3157.000000	96.738418 
3156.000000	96.740700 
3155.000000	96.742927 
3154.000000	96.744884 
3153.000000	96.746678 
3152.000000	96.748591 
3151.000000	96.750644 
3150.000000	96.752471 
3149.000000	96.753720 
3148.000000	96.754449 
3147.000000	96.755119 
3146.000000	96.756267 
3145.000000	96.758155 
3144.000000	96.760649 
3143.000000	96.763216 
3142.000000	96.765276 
3141.000000	96.766731 
3140.000000	96.768028 
3139.000000	96.769643 
3138.000000	96.771610 
3137.000000	96.773615 
3136.000000	96.775315 
3135.000000	96.776463 
3134.000000	96.777014 
3133.000000	96.777302 
3132.000000	96.777899 
3131.000000	96.779100 
3130.000000	96.780774 
3129.000000	96.782789 
3128.000000	96.785267 
3127.000000	96.788220 
3126.000000	96.791252 
3125.000000	96.793873 
3124.000000	96.795969 
3123.000000	96.797732 
3122.000000	96.799270 
3121.000000	96.800568 
3120.000000	96.801740 
3119.000000	96.803023 
3118.000000	96.804547 
3117.000000	96.806303 
3116.000000	96.808228 
3115.000000	96.810189 
3114.000000	96.812000 
3113.000000	96.813650 
3112.000000	96.815450 
3111.000000	96.817746 
3110.000000	96.820423 
3109.000000	96.822810 
3108.000000	96.824271 
3107.000000	96.824890 
3106.000000	96.825403 
3105.000000	96.826332 
3104.000000	96.827342 
3103.000000	96.827785 
3102.000000	96.827652 
3101.000000	96.827660 
3100.000000	96.828384 
3099.000000	96.829696 
3098.000000	96.831262 
3097.000000	96.833173 
3096.000000	96.835645 
3095.000000	96.838318 
3094.000000	96.840498 
3093.000000	96.841972 
3092.000000	96.843189 
3091.000000	96.844523 
3090.000000	96.845770 
3089.000000	96.846572 
3088.000000	96.846948 
3087.000000	96.847294 
3086.000000	96.848065 
3085.000000	96.849463 
3084.000000	96.851193 
3083.000000	96.852514 
3082.000000	96.852856 
3081.000000	96.852531 
3080.000000	96.852585 
3079.000000	96.853639 
3078.000000	96.855322 
3077.000000	96.857085 
3076.000000	96.858982 
3075.000000	96.860966 
3074.000000	96.862171 
3073.000000	96.861930 
3072.000000	96.861043 
3071.000000	96.860947 
3070.000000	96.861882 
3069.000000	96.863032 
3068.000000	96.864199 
3067.000000	96.865949 
3066.000000	96.868034 
3065.000000	96.869128 
3064.000000	96.868512 
3063.000000	96.866898 
3062.000000	96.865222 
3061.000000	96.863696 
3060.000000	96.862454 
3059.000000	96.862160 
3058.000000	96.863553 
3057.000000	96.866846 
3056.000000	96.871549 
3055.000000	96.876094 
3054.000000	96.877969 
3053.000000	96.875678 
3052.000000	96.870974 
3051.000000	96.868012 
3050.000000	96.869237 
3049.000000	96.872946 
3048.000000	96.875460 
3047.000000	96.874842 
3046.000000	96.871701 
3045.000000	96.867502 
3044.000000	96.863482 
3043.000000	96.861069 
3042.000000	96.861775 
3041.000000	96.865611 
3040.000000	96.869936 
3039.000000	96.870993 
3038.000000	96.867176 
3037.000000	96.860406 
3036.000000	96.853994 
3035.000000	96.849245 
3034.000000	96.844913 
3033.000000	96.839767 
3032.000000	96.834362 
3031.000000	96.830048 
3030.000000	96.827360 
3029.000000	96.825817 
3028.000000	96.824196 
3027.000000	96.820507 
3026.000000	96.812994 
3025.000000	96.802270 
3024.000000	96.791653 
3023.000000	96.784140 
3022.000000	96.779604 
3021.000000	96.776109 
3020.000000	96.772953 
3019.000000	96.770723 
3018.000000	96.768788 
3017.000000	96.764849 
3016.000000	96.757451 
3015.000000	96.747566 
3014.000000	96.737430 
3013.000000	96.728757 
3012.000000	96.721947 
3011.000000	96.715848 
3010.000000	96.708313 
3009.000000	96.698215 
3008.000000	96.686841 
3007.000000	96.676299 
3006.000000	96.666735 
3005.000000	96.656495 
3004.000000	96.645023 
3003.000000	96.634038 
3002.000000	96.625500 
3001.000000	96.619711 
3000.000000	96.615586 
2999.000000	96.611429 
2998.000000	96.605167 
2997.000000	96.595484 
2996.000000	96.583465 
2995.000000	96.571922 
2994.000000	96.562238 
2993.000000	96.552744 
2992.000000	96.540922 
2991.000000	96.526551 
2990.000000	96.512104 
2989.000000	96.500712 
2988.000000	96.494338 
2987.000000	96.493345 
2986.000000	96.496973 
2985.000000	96.504042 
2984.000000	96.513226 
2983.000000	96.522789 
2982.000000	96.530793 
2981.000000	96.536142 
2980.000000	96.538964 
2979.000000	96.539366 
2978.000000	96.536545 
2977.000000	96.530257 
2976.000000	96.522736 
2975.000000	96.517636 
2974.000000	96.516890 
2973.000000	96.519718 
2972.000000	96.524528 
2971.000000	96.530414 
2970.000000	96.536664 
2969.000000	96.542510 
2968.000000	96.548137 
2967.000000	96.554698 
2966.000000	96.562548 
2965.000000	96.570500 
2964.000000	96.577503 
2963.000000	96.584031 
2962.000000	96.590940 
2961.000000	96.597874 
2960.000000	96.603903 
2959.000000	96.609227 
2958.000000	96.615145 
2957.000000	96.622435 
2956.000000	96.630390 
2955.000000	96.637463 
2954.000000	96.642657 
2953.000000	96.646634 
2952.000000	96.651579 
2951.000000	96.659222 
2950.000000	96.668442 
2949.000000	96.675507 
2948.000000	96.677493 
2947.000000	96.675160 
2946.000000	96.672102 
2945.000000	96.671449 
2944.000000	96.673878 
2943.000000	96.678194 
2942.000000	96.682536 
2941.000000	96.685059 
2940.000000	96.684795 
2939.000000	96.682697 
2938.000000	96.681237 
2937.000000	96.682228 
2936.000000	96.685135 
2935.000000	96.687833 
2934.000000	96.688755 
2933.000000	96.687991 
2932.000000	96.686637 
2931.000000	96.685687 
2930.000000	96.685609 
2929.000000	96.686494 
2928.000000	96.688145 
2927.000000	96.689994 
2926.000000	96.691274 
2925.000000	96.691685 
2924.000000	96.691950 
2923.000000	96.693346 
2922.000000	96.696285 
2921.000000	96.699521 
2920.000000	96.701297 
2919.000000	96.701329 
2918.000000	96.700994 
2917.000000	96.701088 
2916.000000	96.700032 
2915.000000	96.695382 
2914.000000	96.687209 
2913.000000	96.678962 
2912.000000	96.674349 
2911.000000	96.673812 
2910.000000	96.674813 
2909.000000	96.675060 
2908.000000	96.674585 
2907.000000	96.674476 
2906.000000	96.674572 
2905.000000	96.672976 
2904.000000	96.668050 
2903.000000	96.660360 
2902.000000	96.653990 
2901.000000	96.653364 
2900.000000	96.659807 
2899.000000	96.670690 
2898.000000	96.681599 
2897.000000	96.690129 
2896.000000	96.696283 
2895.000000	96.700184 
2894.000000	96.701471 
2893.000000	96.701364 
2892.000000	96.703009 
2891.000000	96.708026 
2890.000000	96.714010 
2889.000000	96.717381 
2888.000000	96.718024 
2887.000000	96.718934 
2886.000000	96.721606 
2885.000000	96.724406 
2884.000000	96.726172 
2883.000000	96.728879 
2882.000000	96.734895 
2881.000000	96.743315 
2880.000000	96.751231 
2879.000000	96.757988 
2878.000000	96.765764 
2877.000000	96.775771 
2876.000000	96.785978 
2875.000000	96.793481 
2874.000000	96.797737 
2873.000000	96.800379 
2872.000000	96.802820 
2871.000000	96.805230 
2870.000000	96.807468 
2869.000000	96.809823 
2868.000000	96.812730 
2867.000000	96.816449 
2866.000000	96.821109 
2865.000000	96.826536 
2864.000000	96.832251 
2863.000000	96.838326 
2862.000000	96.846013 
2861.000000	96.856447 
2860.000000	96.868560 
2859.000000	96.879421 
2858.000000	96.887332 
2857.000000	96.893790 
2856.000000	96.901623 
2855.000000	96.911601 
2854.000000	96.921720 
2853.000000	96.929499 
2852.000000	96.934032 
2851.000000	96.936035 
2850.000000	96.936945 
2849.000000	96.938165 
2848.000000	96.940454 
2847.000000	96.943600 
2846.000000	96.946846 
2845.000000	96.949776 
2844.000000	96.952645 
2843.000000	96.956033 
2842.000000	96.960427 
2841.000000	96.965778 
2840.000000	96.971060 
2839.000000	96.974649 
2838.000000	96.975860 
2837.000000	96.975944 
2836.000000	96.976931 
2835.000000	96.979532 
2834.000000	96.982913 
2833.000000	96.986401 
2832.000000	96.990222 
2831.000000	96.994271 
2830.000000	96.997256 
2829.000000	96.998001 
2828.000000	96.997089 
2827.000000	96.996533 
2826.000000	96.997949 
2825.000000	97.001452 
2824.000000	97.005984 
2823.000000	97.010157 
2822.000000	97.013004 
2821.000000	97.014482 
2820.000000	97.015260 
2819.000000	97.015832 
2818.000000	97.016034 
2817.000000	97.015722 
2816.000000	97.015592 
2815.000000	97.016741 
2814.000000	97.019400 
2813.000000	97.022522 
2812.000000	97.024706 
2811.000000	97.025379 
2810.000000	97.025042 
2809.000000	97.024710 
2808.000000	97.025193 
2807.000000	97.026686 
2806.000000	97.028832 
2805.000000	97.031034 
2804.000000	97.032822 
2803.000000	97.034080 
2802.000000	97.035025 
2801.000000	97.035999 
2800.000000	97.037180 
2799.000000	97.038453 
2798.000000	97.039564 
2797.000000	97.040419 
2796.000000	97.041145 
2795.000000	97.041936 
2794.000000	97.042885 
2793.000000	97.043961 
2792.000000	97.045088 
2791.000000	97.046200 
2790.000000	97.047270 
2789.000000	97.048303 
2788.000000	97.049320 
2787.000000	97.050335 
2786.000000	97.051353 
2785.000000	97.052367 
2784.000000	97.053371 
2783.000000	97.054363 
2782.000000	97.055342 
2781.000000	97.056314 
2780.000000	97.057285 
2779.000000	97.058258 
2778.000000	97.059231 
2777.000000	97.060200 
2776.000000	97.061157 
2775.000000	97.062100 
2774.000000	97.063026 
2773.000000	97.063935 
2772.000000	97.064828 
2771.000000	97.065709 
2770.000000	97.066584 
2769.000000	97.067462 
2768.000000	97.068350 
2767.000000	97.069245 
2766.000000	97.070126 
2765.000000	97.070971 
2764.000000	97.071773 
2763.000000	97.072551 
2762.000000	97.073318 
2761.000000	97.074077 
2760.000000	97.074829 
2759.000000	97.075583 
2758.000000	97.076352 
2757.000000	97.077119 
2756.000000	97.077846 
2755.000000	97.078514 
2754.000000	97.079164 
2753.000000	97.079876 
2752.000000	97.080687 
2751.000000	97.081543 
2750.000000	97.082338 
2749.000000	97.083040 
2748.000000	97.083691 
2747.000000	97.084278 
2746.000000	97.084738 
2745.000000	97.085098 
2744.000000	97.085502 
2743.000000	97.086060 
2742.000000	97.086747 
2741.000000	97.087449 
2740.000000	97.088109 
2739.000000	97.088743 
2738.000000	97.089355 
2737.000000	97.089908 
2736.000000	97.090394 
2735.000000	97.090864 
2734.000000	97.091383 
2733.000000	97.091978 
2732.000000	97.092644 
2731.000000	97.093349 
2730.000000	97.094059 
2729.000000	97.094749 
2728.000000	97.095414 
2727.000000	97.096040 
2726.000000	97.096604 
2725.000000	97.097109 
2724.000000	97.097598 
2723.000000	97.098118 
2722.000000	97.098674 
2721.000000	97.099249 
2720.000000	97.099834 
2719.000000	97.100439 
2718.000000	97.101063 
2717.000000	97.101696 
2716.000000	97.102313 
2715.000000	97.102903 
2714.000000	97.103478 
2713.000000	97.104075 
2712.000000	97.104701 
2711.000000	97.105320 
2710.000000	97.105887 
2709.000000	97.106407 
2708.000000	97.106932 
2707.000000	97.107504 
2706.000000	97.108127 
2705.000000	97.108765 
2704.000000	97.109353 
2703.000000	97.109811 
2702.000000	97.110116 
2701.000000	97.110402 
2700.000000	97.110919 
2699.000000	97.111790 
2698.000000	97.112819 
2697.000000	97.113562 
2696.000000	97.113723 
2695.000000	97.113380 
2694.000000	97.112967 
2693.000000	97.112888 
2692.000000	97.113195 
2691.000000	97.113626 
2690.000000	97.113913 
2689.000000	97.113996 
2688.000000	97.113896 
2687.000000	97.113551 
2686.000000	97.113001 
2685.000000	97.112629 
2684.000000	97.112894 
2683.000000	97.113747 
2682.000000	97.114547 
2681.000000	97.114771 
2680.000000	97.114594 
2679.000000	97.114607 
2678.000000	97.115131 
2677.000000	97.116026 
2676.000000	97.116908 
2675.000000	97.117243 
2674.000000	97.116523 
2673.000000	97.114830 
2672.000000	97.113093 
2671.000000	97.112271 
2670.000000	97.112375 
2669.000000	97.112700 
2668.000000	97.112810 
2667.000000	97.112720 
2666.000000	97.112181 
2665.000000	97.110565 
2664.000000	97.107828 
2663.000000	97.105076 
2662.000000	97.103623 
2661.000000	97.103596 
2660.000000	97.103815 
2659.000000	97.102985 
2658.000000	97.100840 
2657.000000	97.098166 
2656.000000	97.095999 
2655.000000	97.094819 
2654.000000	97.094377 
2653.000000	97.094106 
2652.000000	97.093715 
2651.000000	97.093393 
2650.000000	97.093411 
2649.000000	97.093656 
2648.000000	97.093658 
2647.000000	97.093004 
2646.000000	97.091573 
2645.000000	97.089467 
2644.000000	97.086948 
2643.000000	97.084515 
2642.000000	97.082776 
2641.000000	97.082049 
2640.000000	97.082139 
2639.000000	97.082603 
2638.000000	97.083163 
2637.000000	97.083726 
2636.000000	97.084207 
2635.000000	97.084586 
2634.000000	97.084974 
2633.000000	97.085330 
2632.000000	97.085198 
2631.000000	97.084110 
2630.000000	97.082253 
2629.000000	97.080494 
2628.000000	97.079574 
2627.000000	97.079470 
2626.000000	97.079689 
2625.000000	97.079885 
2624.000000	97.079998 
2623.000000	97.079976 
2622.000000	97.079681 
2621.000000	97.079051 
2620.000000	97.078144 
2619.000000	97.077053 
2618.000000	97.075969 
2617.000000	97.075256 
2616.000000	97.075195 
2615.000000	97.075643 
2614.000000	97.076100 
2613.000000	97.076190 
2612.000000	97.075950 
2611.000000	97.075627 
2610.000000	97.075414 
2609.000000	97.075375 
2608.000000	97.075478 
2607.000000	97.075605 
2606.000000	97.075626 
2605.000000	97.075522 
2604.000000	97.075376 
2603.000000	97.075255 
2602.000000	97.075183 
2601.000000	97.075218 
2600.000000	97.075420 
2599.000000	97.075685 
2598.000000	97.075755 
2597.000000	97.075483 
2596.000000	97.074982 
2595.000000	97.074494 
2594.000000	97.074135 
2593.000000	97.073917 
2592.000000	97.073959 
2591.000000	97.074364 
2590.000000	97.074893 
2589.000000	97.075102 
2588.000000	97.074899 
2587.000000	97.074703 
2586.000000	97.074930 
2585.000000	97.075569 
2584.000000	97.076353 
2583.000000	97.077103 
2582.000000	97.077696 
2581.000000	97.077952 
2580.000000	97.077842 
2579.000000	97.077697 
2578.000000	97.078005 
2577.000000	97.078919 
2576.000000	97.080034 
2575.000000	97.080666 
2574.000000	97.080415 
2573.000000	97.079462 
2572.000000	97.078377 
2571.000000	97.077538 
2570.000000	97.076902 
2569.000000	97.076407 
2568.000000	97.076329 
2567.000000	97.076933 
2566.000000	97.077919 
2565.000000	97.078592 
2564.000000	97.078622 
2563.000000	97.078308 
2562.000000	97.078080 
2561.000000	97.078106 
2560.000000	97.078485 
2559.000000	97.079409 
2558.000000	97.080832 
2557.000000	97.082223 
2556.000000	97.083047 
2555.000000	97.083346 
2554.000000	97.083544 
2553.000000	97.083760 
2552.000000	97.083680 
2551.000000	97.083212 
2550.000000	97.082808 
2549.000000	97.082880 
2548.000000	97.083231 
2547.000000	97.083363 
2546.000000	97.083208 
2545.000000	97.083172 
2544.000000	97.083471 
2543.000000	97.083790 
2542.000000	97.083764 
2541.000000	97.083502 
2540.000000	97.083430 
2539.000000	97.083710 
2538.000000	97.084080 
2537.000000	97.084229 
2536.000000	97.084159 
2535.000000	97.084084 
2534.000000	97.084119 
2533.000000	97.084201 
2532.000000	97.084280 
2531.000000	97.084419 
2530.000000	97.084661 
2529.000000	97.084907 
2528.000000	97.085006 
2527.000000	97.084940 
2526.000000	97.084860 
2525.000000	97.084934 
2524.000000	97.085178 
2523.000000	97.085477 
2522.000000	97.085737 
2521.000000	97.085987 
2520.000000	97.086300 
2519.000000	97.086672 
2518.000000	97.087018 
2517.000000	97.087250 
2516.000000	97.087311 
2515.000000	97.087165 
2514.000000	97.086856 
2513.000000	97.086620 
2512.000000	97.086774 
2511.000000	97.087428 
2510.000000	97.088403 
2509.000000	97.089424 
2508.000000	97.090298 
2507.000000	97.090884 
2506.000000	97.091160 
2505.000000	97.091464 
2504.000000	97.092348 
2503.000000	97.093872 
2502.000000	97.095201 
2501.000000	97.095390 
2500.000000	97.094406 
2499.000000	97.093133 
2498.000000	97.092378 
2497.000000	97.092207 
2496.000000	97.092394 
2495.000000	97.092896 
2494.000000	97.093645 
2493.000000	97.094202 
2492.000000	97.094135 
2491.000000	97.093706 
2490.000000	97.093767 
2489.000000	97.094714 
2488.000000	97.095823 
2487.000000	97.096010 
2486.000000	97.095251 
2485.000000	97.094780 
2484.000000	97.095679 
2483.000000	97.097690 
2482.000000	97.099742 
2481.000000	97.101322 
2480.000000	97.102718 
2479.000000	97.104079 
2478.000000	97.105048 
2477.000000	97.105370 
2476.000000	97.105157 
2475.000000	97.104381 
2474.000000	97.102813 
2473.000000	97.100721 
2472.000000	97.098910 
2471.000000	97.097753 
2470.000000	97.096851 
2469.000000	97.095887 
2468.000000	97.095117 
2467.000000	97.094669 
2466.000000	97.094068 
2465.000000	97.092919 
2464.000000	97.091662 
2463.000000	97.091217 
2462.000000	97.092162 
2461.000000	97.094412 
2460.000000	97.097231 
2459.000000	97.099435 
2458.000000	97.100100 
2457.000000	97.099339 
2456.000000	97.098080 
2455.000000	97.097023 
2454.000000	97.096146 
2453.000000	97.095272 
2452.000000	97.094549 
2451.000000	97.094227 
2450.000000	97.094477 
2449.000000	97.095542 
2448.000000	97.097486 
2447.000000	97.099700 
2446.000000	97.101158 
2445.000000	97.101448 
2444.000000	97.101106 
2443.000000	97.100857 
2442.000000	97.101030 
2441.000000	97.101761 
2440.000000	97.103167 
2439.000000	97.105101 
2438.000000	97.107168 
2437.000000	97.109130 
2436.000000	97.110943 
2435.000000	97.112354 
2434.000000	97.112940 
2433.000000	97.112707 
2432.000000	97.112323 
2431.000000	97.112535 
2430.000000	97.113567 
2429.000000	97.115191 
2428.000000	97.116993 
2427.000000	97.118490 
2426.000000	97.119297 
2425.000000	97.119403 
2424.000000	97.119184 
2423.000000	97.119085 
2422.000000	97.119355 
2421.000000	97.120131 
2420.000000	97.121487 
2419.000000	97.123264 
2418.000000	97.125019 
2417.000000	97.126453 
2416.000000	97.127714 
2415.000000	97.129084 
2414.000000	97.130523 
2413.000000	97.131839 
2412.000000	97.133103 
2411.000000	97.134395 
2410.000000	97.135358 
2409.000000	97.135664 
2408.000000	97.135769 
2407.000000	97.136521 
2406.000000	97.138063 
2405.000000	97.139638 
2404.000000	97.140512 
2403.000000	97.140594 
2402.000000	97.140267 
2401.000000	97.140096 
2400.000000	97.140635 
2399.000000	97.142089 
2398.000000	97.144106 
2397.000000	97.146162 
2396.000000	97.148057 
2395.000000	97.149684 
2394.000000	97.150553 
2393.000000	97.150269 
2392.000000	97.149358 
2391.000000	97.148967 
2390.000000	97.149562 
2389.000000	97.150549 
2388.000000	97.151274 
2387.000000	97.151712 
2386.000000	97.152040 
2385.000000	97.152175 
2384.000000	97.152083 
2383.000000	97.151991 
2382.000000	97.152029 
2381.000000	97.152159 
2380.000000	97.152682 
2379.000000	97.154212 
2378.000000	97.156617 
2377.000000	97.158349 
2376.000000	97.157856 
2375.000000	97.155526 
2374.000000	97.153261 
2373.000000	97.151789 
2372.000000	97.149924 
2371.000000	97.147218 
2370.000000	97.145450 
2369.000000	97.145799 
2368.000000	97.145842 
2367.000000	97.141833 
2366.000000	97.133856 
2365.000000	97.126780 
2364.000000	97.125054 
2363.000000	97.128372 
2362.000000	97.132699 
2361.000000	97.134759 
2360.000000	97.134651 
2359.000000	97.133778 
2358.000000	97.133394 
2357.000000	97.134390 
2356.000000	97.136427 
2355.000000	97.136410 
2354.000000	97.130976 
2353.000000	97.122732 
2352.000000	97.117357 
2351.000000	97.115677 
2350.000000	97.113945 
2349.000000	97.109251 
2348.000000	97.100479 
2347.000000	97.086671 
2346.000000	97.072874 
2345.000000	97.067556 
2344.000000	97.070604 
2343.000000	97.075374 
2342.000000	97.079967 
2341.000000	97.087919 
2340.000000	97.098836 
2339.000000	97.107588 
2338.000000	97.110269 
2337.000000	97.108695 
2336.000000	97.106727 
2335.000000	97.105016 
2334.000000	97.099248 
2333.000000	97.086945 
2332.000000	97.071335 
2331.000000	97.058501 
2330.000000	97.049907 
2329.000000	97.041197 
2328.000000	97.029105 
2327.000000	97.012781 
2326.000000	96.993017 
2325.000000	96.971804 
2324.000000	96.954544 
2323.000000	96.946861 
2322.000000	96.947343 
2321.000000	96.949507 
2320.000000	96.950273 
2319.000000	96.954147 
2318.000000	96.963920 
2317.000000	96.974755 
2316.000000	96.978791 
2315.000000	96.973350 
2314.000000	96.961557 
2313.000000	96.948204 
2312.000000	96.937429 
2311.000000	96.931607 
2310.000000	96.929976 
2309.000000	96.928952 
2308.000000	96.926895 
2307.000000	96.926523 
2306.000000	96.930762 
2305.000000	96.937840 
2304.000000	96.943359 
2303.000000	96.946212 
2302.000000	96.949166 
2301.000000	96.954146 
2300.000000	96.959476 
2299.000000	96.962081 
2298.000000	96.960679 
2297.000000	96.956398 
2296.000000	96.952183 
2295.000000	96.950926 
2294.000000	96.953424 
2293.000000	96.957366 
2292.000000	96.960041 
2291.000000	96.961065 
2290.000000	96.962140 
2289.000000	96.964335 
2288.000000	96.967123 
2287.000000	96.969558 
2286.000000	96.971332 
2285.000000	96.972666 
2284.000000	96.973979 
2283.000000	96.975620 
2282.000000	96.977340 
2281.000000	96.978279 
2280.000000	96.977675 
2279.000000	96.975579 
2278.000000	96.972716 
2277.000000	96.970236 
2276.000000	96.969370 
2275.000000	96.970627 
2274.000000	96.973193 
2273.000000	96.975744 
2272.000000	96.977957 
2271.000000	96.980424 
2270.000000	96.983106 
2269.000000	96.984999 
2268.000000	96.985561 
2267.000000	96.985467 
2266.000000	96.985543 
2265.000000	96.985782 
2264.000000	96.985749 
2263.000000	96.985226 
2262.000000	96.984092 
2261.000000	96.982200 
2260.000000	96.979849 
2259.000000	96.977775 
2258.000000	96.976402 
2257.000000	96.975656 
2256.000000	96.975664 
2255.000000	96.976904 
2254.000000	96.979211 
2253.000000	96.981114 
2252.000000	96.981055 
2251.000000	96.978858 
2250.000000	96.975445 
2249.000000	96.971785 
2248.000000	96.968546 
2247.000000	96.966306 
2246.000000	96.965255 
2245.000000	96.964827 
2244.000000	96.964057 
2243.000000	96.962514 
2242.000000	96.960499 
2241.000000	96.958536 
2240.000000	96.956928 
2239.000000	96.955711 
2238.000000	96.954740 
2237.000000	96.953721 
2236.000000	96.952407 
2235.000000	96.950795 
2234.000000	96.949064 
2233.000000	96.947354 
2232.000000	96.945689 
2231.000000	96.944061 
2230.000000	96.942400 
2229.000000	96.940550 
2228.000000	96.938424 
2227.000000	96.936173 
2226.000000	96.934024 
2225.000000	96.932006 
2224.000000	96.929949 
2223.000000	96.927747 
2222.000000	96.925525 
2221.000000	96.923439 
2220.000000	96.921440 
2219.000000	96.919375 
2218.000000	96.917185 
2217.000000	96.914929 
2216.000000	96.912692 
2215.000000	96.910501 
2214.000000	96.908315 
2213.000000	96.906080 
2212.000000	96.903806 
2211.000000	96.901585 
2210.000000	96.899493 
2209.000000	96.897527 
2208.000000	96.895630 
2207.000000	96.893718 
2206.000000	96.891689 
2205.000000	96.889558 
2204.000000	96.887667 
2203.000000	96.886698 
2202.000000	96.886982 
2201.000000	96.887523 
2200.000000	96.886288 
2199.000000	96.882008 
2198.000000	96.875523 
2197.000000	96.869135 
2196.000000	96.864756 
2195.000000	96.862623 
2194.000000	96.861462 
2193.000000	96.859931 
2192.000000	96.857945 
2191.000000	96.856195 
2190.000000	96.854561 
2189.000000	96.852167 
2188.000000	96.849188 
2187.000000	96.846748 
2186.000000	96.844083 
2185.000000	96.838289 
2184.000000	96.829537 
2183.000000	96.824474 
2182.000000	96.830042 
2181.000000	96.844182 
2180.000000	96.855921 
2179.000000	96.856782 
2178.000000	96.848578 
2177.000000	96.839177 
2176.000000	96.833707 
2175.000000	96.831882 
2174.000000	96.831862 
2173.000000	96.833242 
2172.000000	96.836415 
2171.000000	96.840932 
2170.000000	96.844618 
2169.000000	96.844022 
2168.000000	96.837200 
2167.000000	96.826786 
2166.000000	96.818261 
2165.000000	96.813426 
2164.000000	96.807515 
2163.000000	96.795818 
2162.000000	96.782695 
2161.000000	96.780429 
2160.000000	96.797946 
2159.000000	96.832509 
2158.000000	96.871621 
2157.000000	96.903042 
2156.000000	96.922460 
2155.000000	96.931995 
2154.000000	96.935696 
2153.000000	96.937677 
2152.000000	96.941280 
2151.000000	96.946944 
2150.000000	96.951434 
2149.000000	96.951721 
2148.000000	96.949803 
2147.000000	96.951126 
2146.000000	96.957603 
2145.000000	96.965302 
2144.000000	96.970688 
2143.000000	96.975805 
2142.000000	96.984198 
2141.000000	96.994306 
2140.000000	97.001173 
2139.000000	97.003947 
2138.000000	97.007736 
2137.000000	97.017291 
2136.000000	97.031464 
2135.000000	97.044475 
2134.000000	97.050940 
2133.000000	97.049745 
2132.000000	97.044845 
2131.000000	97.041950 
2130.000000	97.043131 
2129.000000	97.045275 
2128.000000	97.044815 
2127.000000	97.042768 
2126.000000	97.043221 
2125.000000	97.047601 
2124.000000	97.052675 
2123.000000	97.054278 
2122.000000	97.051035 
2121.000000	97.044312 
2120.000000	97.036441 
2119.000000	97.029582 
2118.000000	97.025167 
2117.000000	97.023478 
2116.000000	97.023461 
2115.000000	97.022981 
2114.000000	97.019627 
2113.000000	97.012639 
2112.000000	97.004807 
2111.000000	97.001010 
2110.000000	97.003544 
2109.000000	97.009633 
2108.000000	97.014316 
2107.000000	97.015232 
2106.000000	97.013585 
2105.000000	97.011782 
2104.000000	97.011696 
2103.000000	97.013974 
2102.000000	97.017016 
2101.000000	97.017333 
2100.000000	97.013038 
2099.000000	97.006800 
2098.000000	97.003811 
2097.000000	97.006499 
2096.000000	97.012662 
2095.000000	97.018066 
2094.000000	97.020024 
2093.000000	97.018329 
2092.000000	97.014192 
2091.000000	97.009394 
2090.000000	97.005653 
2089.000000	97.003706 
2088.000000	97.002901 
2087.000000	97.001840 
2086.000000	96.999474 
2085.000000	96.995726 
2084.000000	96.991469 
2083.000000	96.987932 
2082.000000	96.985746 
2081.000000	96.984536 
2080.000000	96.983706 
2079.000000	96.983316 
2078.000000	96.983455 
2077.000000	96.983049 
2076.000000	96.980612 
2075.000000	96.976450 
2074.000000	96.972522 
2073.000000	96.969492 
2072.000000	96.965578 
2071.000000	96.959242 
2070.000000	96.951707 
2069.000000	96.945760 
2068.000000	96.942810 
2067.000000	96.942002 
2066.000000	96.941374 
2065.000000	96.939013 
2064.000000	96.933896 
2063.000000	96.926880 
2062.000000	96.920763 
2061.000000	96.918349 
2060.000000	96.920052 
2059.000000	96.923985 
2058.000000	96.927333 
2057.000000	96.927811 
2056.000000	96.924556 
2055.000000	96.917983 
2054.000000	96.909460 
2053.000000	96.900704 
2052.000000	96.893186 
2051.000000	96.887668 
2050.000000	96.883943 
2049.000000	96.881222 
2048.000000	96.879003 
2047.000000	96.877358 
2046.000000	96.876260 
2045.000000	96.875164 
2044.000000	96.873630 
2043.000000	96.871896 
2042.000000	96.870416 
2041.000000	96.869243 
2040.000000	96.868368 
2039.000000	96.868249 
2038.000000	96.869166 
2037.000000	96.870249 
2036.000000	96.870144 
2035.000000	96.868685 
2034.000000	96.867185 
2033.000000	96.866966 
2032.000000	96.868085 
2031.000000	96.869484 
2030.000000	96.869858 
2029.000000	96.868485 
2028.000000	96.865726 
2027.000000	96.862842 
2026.000000	96.860823 
2025.000000	96.859553 
2024.000000	96.858602 
2023.000000	96.858510 
2022.000000	96.860455 
2021.000000	96.864448 
2020.000000	96.868216 
2019.000000	96.868918 
2018.000000	96.865640 
2017.000000	96.860156 
2016.000000	96.855669 
2015.000000	96.854105 
2014.000000	96.854973 
2013.000000	96.855747 
2012.000000	96.854197 
2011.000000	96.851078 
2010.000000	96.849647 
2009.000000	96.851794 
2008.000000	96.855788 
2007.000000	96.858871 
2006.000000	96.860834 
2005.000000	96.863051 
2004.000000	96.865514 
2003.000000	96.867302 
2002.000000	96.869052 
2001.000000	96.871887 
2000.000000	96.874221 
1999.000000	96.872346 
1998.000000	96.864370 
1997.000000	96.852508 
1996.000000	96.841563 
1995.000000	96.835347 
1994.000000	96.834361 
1993.000000	96.835734 
1992.000000	96.835391 
1991.000000	96.832066 
1990.000000	96.828922 
1989.000000	96.829732 
1988.000000	96.833961 
1987.000000	96.836707 
1986.000000	96.833692 
1985.000000	96.825472 
1984.000000	96.816230 
1983.000000	96.809250 
1982.000000	96.804802 
1981.000000	96.802193 
1980.000000	96.802757 
1979.000000	96.808852 
1978.000000	96.819103 
1977.000000	96.827512 
1976.000000	96.829455 
1975.000000	96.826839 
1974.000000	96.825484 
1973.000000	96.829247 
1972.000000	96.837916 
1971.000000	96.848844 
1970.000000	96.858528 
1969.000000	96.863404 
1968.000000	96.861681 
1967.000000	96.855453 
1966.000000	96.850305 
1965.000000	96.851322 
1964.000000	96.859810 
1963.000000	96.873763 
1962.000000	96.889777 
1961.000000	96.904125 
1960.000000	96.913301 
1959.000000	96.915353 
1958.000000	96.911901 
1957.000000	96.908231 
1956.000000	96.909095 
1955.000000	96.914213 
1954.000000	96.919402 
1953.000000	96.922013 
1952.000000	96.923224 
1951.000000	96.924959 
1950.000000	96.927599 
1949.000000	96.931354 
1948.000000	96.937380 
1947.000000	96.945660 
1946.000000	96.953030 
1945.000000	96.955762 
1944.000000	96.953403 
1943.000000	96.948757 
1942.000000	96.944832 
1941.000000	96.942865 
1940.000000	96.943180 
1939.000000	96.945776 
1938.000000	96.949751 
1937.000000	96.954113 
1936.000000	96.959136 
1935.000000	96.965134 
1934.000000	96.970510 
1933.000000	96.973574 
1932.000000	96.975556 
1931.000000	96.979406 
1930.000000	96.985780 
1929.000000	96.991585 
1928.000000	96.994227 
1927.000000	96.995042 
1926.000000	96.996902 
1925.000000	97.000082 
1924.000000	97.001989 
1923.000000	97.001066 
1922.000000	96.998483 
1921.000000	96.995958 
1920.000000	96.994396 
1919.000000	96.994337 
1918.000000	96.995456 
1917.000000	96.995709 
1916.000000	96.993626 
1915.000000	96.991245 
1914.000000	96.991473 
1913.000000	96.994062 
1912.000000	96.996270 
1911.000000	96.996882 
1910.000000	96.997347 
1909.000000	96.998595 
1908.000000	96.999922 
1907.000000	97.000793 
1906.000000	97.001367 
1905.000000	97.001107 
1904.000000	96.998959 
1903.000000	96.995935 
1902.000000	96.994636 
1901.000000	96.995521 
1900.000000	96.996661 
1899.000000	96.996866 
1898.000000	96.996869 
1897.000000	96.997367 
1896.000000	96.997527 
1895.000000	96.996495 
1894.000000	96.994766 
1893.000000	96.993143 
1892.000000	96.991848 
1891.000000	96.991131 
1890.000000	96.991438 
1889.000000	96.992481 
1888.000000	96.993339 
1887.000000	96.993944 
1886.000000	96.994910 
1885.000000	96.995942 
1884.000000	96.995962 
1883.000000	96.994822 
1882.000000	96.993813 
1881.000000	96.994011 
1880.000000	96.995177 
1879.000000	96.996361 
1878.000000	96.996998 
1877.000000	96.997330 
1876.000000	96.997881 
1875.000000	96.999026 
1874.000000	97.000958 
1873.000000	97.003332 
1872.000000	97.005267 
1871.000000	97.006237 
1870.000000	97.006643 
1869.000000	97.007268 
1868.000000	97.008226 
1867.000000	97.009408 
1866.000000	97.011088 
1865.000000	97.012930 
1864.000000	97.014080 
1863.000000	97.014786 
1862.000000	97.016461 
1861.000000	97.019693 
1860.000000	97.023367 
1859.000000	97.026348 
1858.000000	97.028966 
1857.000000	97.031801 
1856.000000	97.034557 
1855.000000	97.036887 
1854.000000	97.039031 
1853.000000	97.040999 
1852.000000	97.042674 
1851.000000	97.044685 
1850.000000	97.047682 
1849.000000	97.051254 
1848.000000	97.054241 
1847.000000	97.056382 
1846.000000	97.058524 
1845.000000	97.061127 
1844.000000	97.063484 
1843.000000	97.065189 
1842.000000	97.067044 
1841.000000	97.069697 
1840.000000	97.073223 
1839.000000	97.077487 
1838.000000	97.081946 
1837.000000	97.085352 
1836.000000	97.086670 
1835.000000	97.086654 
1834.000000	97.087218 
1833.000000	97.089034 
1832.000000	97.091463 
1831.000000	97.093497 
1830.000000	97.094386 
1829.000000	97.094551 
1828.000000	97.095177 
1827.000000	97.096901 
1826.000000	97.099445 
1825.000000	97.101925 
1824.000000	97.103400 
1823.000000	97.103706 
1822.000000	97.104106 
1821.000000	97.105807 
1820.000000	97.108336 
1819.000000	97.110237 
1818.000000	97.111868 
1817.000000	97.114785 
1816.000000	97.117545 
1815.000000	97.117706 
1814.000000	97.116288 
1813.000000	97.116844 
1812.000000	97.119709 
1811.000000	97.120186 
1810.000000	97.116772 
1809.000000	97.113737 
1808.000000	97.113211 
1807.000000	97.113360 
1806.000000	97.113946 
1805.000000	97.116574 
1804.000000	97.119914 
1803.000000	97.120333 
1802.000000	97.116609 
1801.000000	97.111717 
1800.000000	97.107960 
1799.000000	97.104237 
1798.000000	97.101538 
1797.000000	97.101627 
1796.000000	97.102076 
1795.000000	97.099941 
1794.000000	97.096609 
1793.000000	97.096330 
1792.000000	97.098891 
1791.000000	97.099623 
1790.000000	97.099122 
1789.000000	97.101210 
1788.000000	97.105363 
1787.000000	97.108387 
1786.000000	97.110075 
1785.000000	97.112499 
1784.000000	97.115102 
1783.000000	97.116604 
1782.000000	97.117203 
1781.000000	97.117747 
1780.000000	97.118748 
1779.000000	97.119926 
1778.000000	97.122216 
1777.000000	97.125978 
1776.000000	97.129699 
1775.000000	97.131940 
1774.000000	97.131960 
1773.000000	97.130741 
1772.000000	97.130513 
1771.000000	97.131010 
1770.000000	97.130883 
1769.000000	97.131380 
1768.000000	97.134126 
1767.000000	97.138036 
1766.000000	97.140820 
1765.000000	97.142474 
1764.000000	97.144733 
1763.000000	97.147795 
1762.000000	97.149765 
1761.000000	97.150114 
1760.000000	97.150344 
1759.000000	97.151101 
1758.000000	97.151784 
1757.000000	97.151744 
1756.000000	97.152078 
1755.000000	97.152961 
1754.000000	97.152330 
1753.000000	97.149068 
1752.000000	97.145557 
1751.000000	97.145656 
1750.000000	97.149594 
1749.000000	97.154059 
1748.000000	97.157043 
1747.000000	97.159388 
1746.000000	97.161279 
1745.000000	97.162732 
1744.000000	97.165043 
1743.000000	97.168133 
1742.000000	97.169855 
1741.000000	97.169594 
1740.000000	97.169490 
1739.000000	97.171104 
1738.000000	97.172523 
1737.000000	97.172017 
1736.000000	97.169807 
1735.000000	97.167171 
1734.000000	97.165800 
1733.000000	97.165620 
1732.000000	97.166312 
1731.000000	97.169205 
1730.000000	97.174612 
1729.000000	97.179438 
1728.000000	97.181770 
1727.000000	97.182418 
1726.000000	97.182558 
1725.000000	97.182271 
1724.000000	97.181548 
1723.000000	97.180572 
1722.000000	97.179965 
1721.000000	97.179506 
1720.000000	97.178329 
1719.000000	97.175331 
1718.000000	97.171048 
1717.000000	97.168438 
1716.000000	97.167008 
1715.000000	97.164808 
1714.000000	97.163694 
1713.000000	97.164522 
1712.000000	97.165115 
1711.000000	97.164379 
1710.000000	97.163326 
1709.000000	97.162479 
1708.000000	97.161265 
1707.000000	97.159487 
1706.000000	97.157924 
1705.000000	97.156766 
1704.000000	97.154199 
1703.000000	97.149798 
1702.000000	97.144863 
1701.000000	97.141466 
1700.000000	97.139529 
1699.000000	97.136652 
1698.000000	97.133384 
1697.000000	97.131462 
1696.000000	97.130500 
1695.000000	97.129057 
1694.000000	97.126811 
1693.000000	97.124375 
1692.000000	97.121972 
1691.000000	97.119435 
1690.000000	97.116698 
1689.000000	97.113815 
1688.000000	97.110857 
1687.000000	97.107878 
1686.000000	97.104929 
1685.000000	97.102155 
1684.000000	97.099475 
1683.000000	97.096664 
1682.000000	97.093730 
1681.000000	97.090719 
1680.000000	97.087821 
1679.000000	97.085081 
1678.000000	97.082366 
1677.000000	97.079434 
1676.000000	97.076436 
1675.000000	97.073713 
1674.000000	97.070684 
1673.000000	97.066677 
1672.000000	97.062465 
1671.000000	97.059368 
1670.000000	97.057758 
1669.000000	97.056109 
1668.000000	97.053797 
1667.000000	97.052032 
1666.000000	97.050644 
1665.000000	97.048752 
1664.000000	97.046477 
1663.000000	97.044849 
1662.000000	97.043323 
1661.000000	97.038980 
1660.000000	97.032989 
1659.000000	97.029412 
1658.000000	97.029989 
1657.000000	97.030420 
1656.000000	97.029150 
1655.000000	97.026436 
1654.000000	97.023822 
1653.000000	97.020826 
1652.000000	97.013036 
1651.000000	97.002109 
1650.000000	96.990447 
1649.000000	96.982937 
1648.000000	96.978041 
1647.000000	96.976190 
1646.000000	96.976403 
1645.000000	96.978369 
1644.000000	96.978076 
1643.000000	96.976462 
1642.000000	96.976138 
1641.000000	96.977508 
1640.000000	96.978119 
1639.000000	96.975650 
1638.000000	96.971507 
1637.000000	96.968475 
1636.000000	96.967880 
1635.000000	96.971160 
1634.000000	96.976191 
1633.000000	96.978730 
1632.000000	96.977399 
1631.000000	96.974919 
1630.000000	96.975760 
1629.000000	96.979486 
1628.000000	96.982016 
1627.000000	96.982673 
1626.000000	96.983399 
1625.000000	96.984204 
1624.000000	96.985230 
1623.000000	96.989366 
1622.000000	96.996943 
1621.000000	97.001791 
1620.000000	97.001874 
1619.000000	97.001874 
1618.000000	97.005851 
1617.000000	97.010174 
1616.000000	97.008969 
1615.000000	97.006843 
1614.000000	97.008836 
1613.000000	97.011987 
1612.000000	97.012471 
1611.000000	97.012899 
1610.000000	97.017434 
1609.000000	97.024283 
1608.000000	97.030434 
1607.000000	97.037784 
1606.000000	97.046413 
1605.000000	97.052033 
1604.000000	97.054875 
1603.000000	97.059663 
1602.000000	97.067329 
1601.000000	97.073538 
1600.000000	97.076493 
1599.000000	97.079649 
1598.000000	97.084759 
1597.000000	97.089533 
1596.000000	97.092555 
1595.000000	97.096162 
1594.000000	97.102284 
1593.000000	97.108401 
1592.000000	97.111833 
1591.000000	97.114308 
1590.000000	97.118171 
1589.000000	97.121757 
1588.000000	97.123543 
1587.000000	97.126522 
1586.000000	97.132910 
1585.000000	97.138425 
1584.000000	97.140033 
1583.000000	97.142045 
1582.000000	97.147477 
1581.000000	97.152808 
1580.000000	97.155316 
1579.000000	97.158472 
1578.000000	97.165360 
1577.000000	97.172521 
1576.000000	97.174667 
1575.000000	97.174770 
1574.000000	97.175779 
1573.000000	97.175731 
1572.000000	97.176099 
1571.000000	97.179649 
1570.000000	97.184602 
1569.000000	97.181901 
1568.000000	97.172396 
1567.000000	97.165636 
1566.000000	97.164966 
1565.000000	97.165748 
1564.000000	97.167677 
1563.000000	97.171529 
1562.000000	97.175842 
1561.000000	97.172298 
1560.000000	97.159661 
1559.000000	97.150587 
1558.000000	97.151306 
1557.000000	97.152314 
1556.000000	97.146288 
1555.000000	97.144387 
1554.000000	97.142494 
1553.000000	97.139681 
1552.000000	97.135165 
1551.000000	97.131182 
1550.000000	97.125862 
1549.000000	97.118795 
1548.000000	97.111601 
1547.000000	97.106756 
1546.000000	97.103195 
1545.000000	97.098568 
1544.000000	97.092461 
1543.000000	97.085473 
1542.000000	97.079106 
1541.000000	97.075808 
1540.000000	97.070667 
1539.000000	97.061418 
1538.000000	97.051403 
1537.000000	97.039931 
1536.000000	97.028224 
1535.000000	97.018560 
1534.000000	97.012902 
1533.000000	97.009593 
1532.000000	97.004671 
1531.000000	96.995120 
1530.000000	96.983745 
1529.000000	96.973941 
1528.000000	96.964859 
1527.000000	96.954566 
1526.000000	96.943236 
1525.000000	96.932716 
1524.000000	96.924048 
1523.000000	96.916512 
1522.000000	96.909410 
1521.000000	96.901761 
1520.000000	96.891265 
1519.000000	96.877480 
1518.000000	96.862891 
1517.000000	96.850415 
1516.000000	96.840474 
1515.000000	96.831879 
1514.000000	96.823774 
1513.000000	96.816747 
1512.000000	96.810105 
1511.000000	96.800574 
1510.000000	96.786759 
1509.000000	96.771359 
1508.000000	96.758808 
1507.000000	96.748745 
1506.000000	96.740140 
1505.000000	96.733053 
1504.000000	96.724631 
1503.000000	96.714703 
1502.000000	96.703534 
1501.000000	96.692579 
1500.000000	96.682728 
1499.000000	96.672689 
1498.000000	96.659275 
1497.000000	96.645240 
1496.000000	96.636295 
1495.000000	96.631241 
1494.000000	96.625618 
1493.000000	96.618999 
1492.000000	96.613346 
1491.000000	96.609110 
1490.000000	96.604939 
1489.000000	96.601280 
1488.000000	96.596375 
1487.000000	96.586418 
1486.000000	96.574761 
1485.000000	96.563373 
1484.000000	96.551133 
1483.000000	96.539316 
1482.000000	96.529350 
1481.000000	96.521118 
1480.000000	96.511381 
1479.000000	96.498143 
1478.000000	96.483618 
1477.000000	96.471712 
1476.000000	96.460401 
1475.000000	96.444275 
1474.000000	96.425021 
1473.000000	96.412700 
1472.000000	96.412762 
1471.000000	96.415470 
1470.000000	96.412512 
1469.000000	96.406347 
1468.000000	96.399786 
1467.000000	96.391262 
1466.000000	96.380420 
1465.000000	96.371243 
1464.000000	96.366805 
1463.000000	96.361054 
1462.000000	96.348446 
1461.000000	96.333066 
1460.000000	96.322038 
1459.000000	96.316723 
1458.000000	96.306389 
1457.000000	96.287894 
1456.000000	96.276245 
1455.000000	96.273282 
1454.000000	96.268224 
1453.000000	96.263820 
1452.000000	96.265464 
1451.000000	96.272547 
1450.000000	96.279651 
1449.000000	96.287911 
1448.000000	96.299358 
1447.000000	96.309068 
1446.000000	96.310478 
1445.000000	96.306100 
1444.000000	96.304560 
1443.000000	96.306225 
1442.000000	96.305809 
1441.000000	96.301886 
1440.000000	96.298230 
1439.000000	96.295735 
1438.000000	96.290681 
1437.000000	96.285532 
1436.000000	96.288007 
1435.000000	96.294455 
1434.000000	96.296353 
1433.000000	96.297278 
1432.000000	96.303713 
1431.000000	96.315335 
1430.000000	96.325156 
1429.000000	96.330514 
1428.000000	96.334218 
1427.000000	96.337936 
1426.000000	96.340825 
1425.000000	96.342954 
1424.000000	96.349466 
1423.000000	96.359831 
1422.000000	96.366770 
1421.000000	96.368769 
1420.000000	96.373188 
1419.000000	96.380869 
1418.000000	96.381181 
1417.000000	96.376180 
1416.000000	96.378938 
1415.000000	96.391908 
1414.000000	96.404916 
1413.000000	96.410643 
1412.000000	96.413330 
1411.000000	96.418792 
1410.000000	96.424770 
1409.000000	96.429226 
1408.000000	96.435236 
1407.000000	96.445162 
1406.000000	96.456585 
1405.000000	96.466911 
1404.000000	96.479567 
1403.000000	96.494738 
1402.000000	96.506689 
1401.000000	96.514650 
1400.000000	96.525063 
1399.000000	96.541368 
1398.000000	96.556572 
1397.000000	96.563905 
1396.000000	96.566807 
1395.000000	96.574063 
1394.000000	96.587732 
1393.000000	96.604254 
1392.000000	96.624158 
1391.000000	96.647703 
1390.000000	96.670361 
1389.000000	96.687165 
1388.000000	96.697480 
1387.000000	96.704519 
1386.000000	96.711307 
1385.000000	96.719565 
1384.000000	96.731424 
1383.000000	96.746692 
1382.000000	96.761619 
1381.000000	96.773642 
1380.000000	96.783615 
1379.000000	96.794419 
1378.000000	96.807487 
1377.000000	96.821874 
1376.000000	96.836231 
1375.000000	96.850323 
1374.000000	96.863675 
1373.000000	96.876111 
1372.000000	96.888969 
1371.000000	96.904279 
1370.000000	96.921946 
1369.000000	96.937561 
1368.000000	96.949382 
1367.000000	96.959818 
1366.000000	96.970989 
1365.000000	96.983253 
1364.000000	96.995283 
1363.000000	97.004556 
1362.000000	97.010545 
1361.000000	97.015946 
1360.000000	97.023975 
1359.000000	97.036304 
1358.000000	97.051641 
1357.000000	97.066185 
1356.000000	97.077283 
1355.000000	97.085064 
1354.000000	97.091208 
1353.000000	97.098534 
1352.000000	97.107597 
1351.000000	97.117629 
1350.000000	97.128723 
1349.000000	97.137782 
1348.000000	97.142494 
1347.000000	97.144394 
1346.000000	97.147294 
1345.000000	97.152277 
1344.000000	97.157403 
1343.000000	97.161256 
1342.000000	97.164702 
1341.000000	97.168212 
1340.000000	97.170551 
1339.000000	97.171263 
1338.000000	97.171290 
1337.000000	97.171503 
1336.000000	97.172283 
1335.000000	97.173453 
1334.000000	97.174751 
1333.000000	97.176375 
1332.000000	97.178403 
1331.000000	97.180617 
1330.000000	97.182507 
1329.000000	97.183444 
1328.000000	97.183380 
1327.000000	97.183655 
1326.000000	97.185253 
1325.000000	97.186140 
1324.000000	97.184826 
1323.000000	97.181822 
1322.000000	97.177747 
1321.000000	97.172978 
1320.000000	97.169592 
1319.000000	97.170073 
1318.000000	97.173615 
1317.000000	97.176850 
1316.000000	97.177937 
1315.000000	97.177388 
1314.000000	97.175685 
1313.000000	97.173704 
1312.000000	97.173907 
1311.000000	97.177623 
1310.000000	97.181770 
1309.000000	97.182213 
1308.000000	97.179349 
1307.000000	97.177789 
1306.000000	97.180386 
1305.000000	97.184780 
1304.000000	97.188202 
1303.000000	97.189991 
1302.000000	97.189756 
1301.000000	97.186711 
1300.000000	97.182341 
1299.000000	97.180013 
1298.000000	97.180771 
1297.000000	97.182033 
1296.000000	97.181330 
1295.000000	97.179500 
1294.000000	97.178724 
1293.000000	97.179900 
1292.000000	97.182618 
1291.000000	97.185644 
1290.000000	97.187138 
1289.000000	97.186071 
1288.000000	97.183570 
1287.000000	97.181520 
1286.000000	97.180080 
1285.000000	97.178561 
1284.000000	97.177983 
1283.000000	97.179636 
1282.000000	97.181947 
1281.000000	97.181579 
1280.000000	97.177857 
1279.000000	97.173849 
1278.000000	97.172456 
1277.000000	97.173993 
1276.000000	97.177374 
1275.000000	97.181512 
1274.000000	97.184786 
1273.000000	97.185778 
1272.000000	97.185128 
1271.000000	97.184516 
1270.000000	97.183531 
1269.000000	97.180055 
1268.000000	97.174184 
1267.000000	97.168478 
1266.000000	97.163788 
1265.000000	97.159037 
1264.000000	97.155126 
1263.000000	97.154558 
1262.000000	97.156486 
1261.000000	97.156126 
1260.000000	97.151196 
1259.000000	97.145628 
1258.000000	97.143779 
1257.000000	97.144412 
1256.000000	97.142665 
1255.000000	97.136217 
1254.000000	97.127441 
1253.000000	97.120129 
1252.000000	97.115152 
1251.000000	97.109808 
1250.000000	97.101476 
1249.000000	97.091733 
1248.000000	97.085415 
1247.000000	97.084245 
1246.000000	97.083066 
1245.000000	97.075425 
1244.000000	97.061085 
1243.000000	97.045494 
1242.000000	97.033679 
1241.000000	97.027362 
1240.000000	97.025712 
1239.000000	97.024973 
1238.000000	97.019083 
1237.000000	97.004788 
1236.000000	96.985318 
1235.000000	96.965968 
1234.000000	96.947490 
1233.000000	96.927227 
1232.000000	96.904788 
1231.000000	96.882031 
1230.000000	96.859047 
1229.000000	96.834895 
1228.000000	96.810630 
1227.000000	96.786575 
1226.000000	96.758032 
1225.000000	96.719154 
1224.000000	96.670650 
1223.000000	96.618719 
1222.000000	96.566517 
1221.000000	96.511511 
1220.000000	96.451420 
1219.000000	96.387553 
1218.000000	96.321267 
1217.000000	96.251780 
1216.000000	96.178333 
1215.000000	96.100695 
1214.000000	96.017711 
1213.000000	95.929876 
1212.000000	95.842687 
1211.000000	95.761482 
1210.000000	95.683058 
1209.000000	95.598592 
1208.000000	95.505313 
1207.000000	95.409238 
1206.000000	95.315758 
1205.000000	95.223683 
1204.000000	95.130128 
1203.000000	95.035507 
1202.000000	94.941503 
1201.000000	94.848588 
1200.000000	94.757389 
1199.000000	94.668648 
1198.000000	94.580514 
1197.000000	94.490093 
1196.000000	94.398113 
1195.000000	94.307830 
1194.000000	94.219101 
1193.000000	94.127836 
1192.000000	94.031817 
1191.000000	93.932705 
1190.000000	93.832070 
1189.000000	93.729796 
1188.000000	93.626450 
1187.000000	93.522740 
1186.000000	93.416719 
1185.000000	93.306018 
1184.000000	93.192121 
1183.000000	93.077763 
1182.000000	92.961363 
1181.000000	92.839311 
1180.000000	92.712463 
1179.000000	92.584202 
1178.000000	92.452897 
1177.000000	92.313230 
1176.000000	92.164838 
1175.000000	92.012957 
1174.000000	91.860610 
1173.000000	91.706941 
1172.000000	91.553338 
1171.000000	91.403276 
1170.000000	91.255521 
1169.000000	91.105742 
1168.000000	90.956274 
1167.000000	90.816805 
1166.000000	90.695035 
1165.000000	90.595489 
1164.000000	90.528012 
1163.000000	90.506182 
1162.000000	90.532857 
1161.000000	90.593793 
1160.000000	90.667202 
1159.000000	90.733008 
1158.000000	90.773031 
1157.000000	90.772998 
1156.000000	90.729399 
1155.000000	90.649593 
1154.000000	90.543537 
1153.000000	90.419899 
1152.000000	90.289259 
1151.000000	90.162215 
1150.000000	90.041538 
1149.000000	89.922995 
1148.000000	89.805302 
1147.000000	89.691771 
1146.000000	89.581358 
1145.000000	89.467305 
1144.000000	89.347362 
1143.000000	89.227269 
1142.000000	89.111290 
1141.000000	88.996933 
1140.000000	88.881546 
1139.000000	88.766349 
1138.000000	88.651583 
1137.000000	88.535234 
1136.000000	88.418591 
1135.000000	88.305507 
1134.000000	88.194644 
1133.000000	88.080367 
1132.000000	87.962403 
1131.000000	87.846011 
1130.000000	87.731686 
1129.000000	87.614181 
1128.000000	87.493197 
1127.000000	87.374962 
1126.000000	87.261017 
1125.000000	87.145289 
1124.000000	87.024823 
1123.000000	86.903900 
1122.000000	86.785063 
1121.000000	86.665834 
1120.000000	86.546657 
1119.000000	86.431804 
1118.000000	86.319995 
1117.000000	86.204867 
1116.000000	86.086978 
1115.000000	85.974491 
1114.000000	85.869829 
1113.000000	85.766948 
1112.000000	85.663708 
1111.000000	85.564623 
1110.000000	85.469299 
1109.000000	85.371158 
1108.000000	85.269527 
1107.000000	85.169928 
1106.000000	85.071917 
1105.000000	84.969525 
1104.000000	84.864283 
1103.000000	84.764408 
1102.000000	84.669211 
1101.000000	84.570209 
1100.000000	84.468569 
1099.000000	84.374827 
1098.000000	84.293252 
1097.000000	84.216791 
1096.000000	84.141618 
1095.000000	84.070418 
1094.000000	84.000026 
1093.000000	83.921804 
1092.000000	83.837979 
1091.000000	83.762542 
1090.000000	83.702256 
1089.000000	83.650345 
1088.000000	83.600889 
1087.000000	83.554939 
1086.000000	83.510808 
1085.000000	83.463899 
1084.000000	83.418433 
1083.000000	83.384149 
1082.000000	83.359349 
1081.000000	83.332455 
1080.000000	83.301720 
1079.000000	83.277091 
1078.000000	83.260747 
1077.000000	83.242441 
1076.000000	83.216371 
1075.000000	83.185722 
1074.000000	83.148268 
1073.000000	83.094337 
1072.000000	83.020942 
1071.000000	82.930666 
1070.000000	82.814891 
1069.000000	82.657486 
1068.000000	82.460026 
1067.000000	82.246762 
1066.000000	82.039176 
1065.000000	81.840516 
1064.000000	81.649058 
1063.000000	81.466801 
1062.000000	81.287978 
1061.000000	81.097946 
1060.000000	80.893268 
1059.000000	80.688936 
1058.000000	80.498880 
1057.000000	80.322949 
1056.000000	80.157608 
1055.000000	80.003258 
1054.000000	79.855059 
1053.000000	79.702421 
1052.000000	79.544521 
1051.000000	79.391422 
1050.000000	79.244159 
1049.000000	79.090921 
1048.000000	78.927902 
1047.000000	78.764905 
1046.000000	78.606451 
1045.000000	78.446167 
1044.000000	78.282512 
1043.000000	78.122017 
1042.000000	77.964319 
1041.000000	77.801336 
1040.000000	77.634584 
1039.000000	77.476747 
1038.000000	77.333338 
1037.000000	77.199360 
1036.000000	77.075551 
1035.000000	76.970017 
1034.000000	76.882059 
1033.000000	76.802330 
1032.000000	76.729873 
1031.000000	76.670442 
1030.000000	76.618469 
1029.000000	76.561941 
1028.000000	76.506047 
1027.000000	76.469798 
1026.000000	76.456944 
1025.000000	76.451245 
1024.000000	76.442205 
1023.000000	76.433624 
1022.000000	76.424622 
1021.000000	76.405675 
1020.000000	76.377547 
1019.000000	76.352712 
1018.000000	76.334173 
1017.000000	76.313030 
1016.000000	76.289332 
1015.000000	76.274054 
1014.000000	76.267863 
1013.000000	76.259578 
1012.000000	76.248413 
1011.000000	76.246085 
1010.000000	76.254246 
1009.000000	76.261951 
1008.000000	76.268753 
1007.000000	76.288274 
1006.000000	76.325214 
1005.000000	76.370128 
1004.000000	76.419698 
1003.000000	76.480080 
1002.000000	76.547180 
1001.000000	76.606882 
1000.000000	76.659711 
999.000000	 76.722978 
998.000000	 76.803174 
997.000000	 76.887466 
996.000000	 76.967428 
995.000000	 77.050552 
994.000000	 77.142894 
993.000000	 77.240542 
992.000000	 77.343191 
991.000000	 77.456542 
990.000000	 77.576845 
989.000000	 77.692374 
988.000000	 77.804120 
987.000000	 77.925798 
986.000000	 78.060664 
985.000000	 78.198803 
984.000000	 78.339850 
983.000000	 78.496202 
982.000000	 78.669283 
981.000000	 78.844395 
980.000000	 79.014587 
979.000000	 79.189004 
978.000000	 79.372016 
977.000000	 79.555360 
976.000000	 79.737540 
975.000000	 79.930331 
974.000000	 80.137866 
973.000000	 80.347842 
972.000000	 80.551559 
971.000000	 80.755880 
970.000000	 80.967616 
969.000000	 81.181896 
968.000000	 81.393262 
967.000000	 81.603959 
966.000000	 81.815064 
965.000000	 82.022892 
964.000000	 82.228837 
963.000000	 82.439206 
962.000000	 82.651529 
961.000000	 82.854918 
960.000000	 83.047192 
959.000000	 83.237383 
958.000000	 83.428544 
957.000000	 83.612964 
956.000000	 83.787948 
955.000000	 83.961537 
954.000000	 84.138528 
953.000000	 84.314311 
952.000000	 84.485724 
951.000000	 84.654133 
950.000000	 84.815398 
949.000000	 84.961557 
948.000000	 85.095675 
947.000000	 85.230843 
946.000000	 85.370884 
945.000000	 85.505860 
944.000000	 85.629904 
943.000000	 85.749185 
942.000000	 85.868928 
941.000000	 85.986721 
940.000000	 86.102836 
939.000000	 86.223221 
938.000000	 86.347717 
937.000000	 86.468259 
936.000000	 86.582923 
935.000000	 86.699244 
934.000000	 86.820131 
933.000000	 86.939459 
932.000000	 87.055450 
931.000000	 87.175289 
930.000000	 87.301713 
929.000000	 87.426866 
928.000000	 87.544402 
927.000000	 87.657021 
926.000000	 87.768014 
925.000000	 87.875068 
924.000000	 87.975757 
923.000000	 88.070316 
922.000000	 88.157336 
921.000000	 88.236013 
920.000000	 88.313083 
919.000000	 88.397111 
918.000000	 88.485488 
917.000000	 88.567728 
916.000000	 88.642152 
915.000000	 88.718551 
914.000000	 88.804217 
913.000000	 88.898731 
912.000000	 89.002566 
911.000000	 89.118594 
910.000000	 89.243955 
909.000000	 89.372268 
908.000000	 89.504908 
907.000000	 89.649218 
906.000000	 89.805805 
905.000000	 89.968459 
904.000000	 90.135055 
903.000000	 90.306508 
902.000000	 90.476955 
901.000000	 90.638650 
900.000000	 90.795728 
899.000000	 90.959892 
898.000000	 91.132947 
897.000000	 91.305236 
896.000000	 91.470175 
895.000000	 91.627151 
894.000000	 91.772384 
893.000000	 91.901698 
892.000000	 92.022065 
891.000000	 92.146084 
890.000000	 92.273591 
889.000000	 92.391062 
888.000000	 92.489072 
887.000000	 92.568215 
886.000000	 92.630152 
885.000000	 92.677045 
884.000000	 92.718492 
883.000000	 92.763428 
882.000000	 92.805777 
881.000000	 92.835167 
880.000000	 92.861936 
879.000000	 92.912316 
878.000000	 92.996177 
877.000000	 93.098656 
876.000000	 93.206732 
875.000000	 93.324324 
874.000000	 93.456345 
873.000000	 93.598797 
872.000000	 93.751645 
871.000000	 93.921980 
870.000000	 94.105879 
869.000000	 94.283769 
868.000000	 94.442019 
867.000000	 94.585254 
866.000000	 94.721691 
865.000000	 94.850798 
864.000000	 94.972447 
863.000000	 95.094651 
862.000000	 95.223044 
861.000000	 95.352225 
860.000000	 95.474587 
859.000000	 95.589166 
858.000000	 95.697131 
857.000000	 95.797643 
856.000000	 95.892486 
855.000000	 95.985733 
854.000000	 96.074924 
853.000000	 96.151548 
852.000000	 96.213662 
851.000000	 96.269708 
850.000000	 96.327997 
849.000000	 96.391198 
848.000000	 96.461267 
847.000000	 96.538356 
846.000000	 96.613707 
845.000000	 96.675724 
844.000000	 96.725030 
843.000000	 96.772256 
842.000000	 96.820053 
841.000000	 96.859638 
840.000000	 96.886285 
839.000000	 96.904667 
838.000000	 96.917102 
837.000000	 96.920820 
836.000000	 96.920393 
835.000000	 96.928748 
834.000000	 96.950172 
833.000000	 96.974435 
832.000000	 96.993139 
831.000000	 97.009930 
830.000000	 97.029225 
829.000000	 97.047403 
828.000000	 97.062622 
827.000000	 97.082121 
826.000000	 97.111663 
825.000000	 97.147327 
824.000000	 97.183336 
823.000000	 97.216366 
822.000000	 97.238292 
821.000000	 97.239412 
820.000000	 97.222919 
819.000000	 97.201589 
818.000000	 97.176057 
817.000000	 97.129292 
816.000000	 97.046782 
815.000000	 96.930171 
814.000000	 96.785462 
813.000000	 96.608234 
812.000000	 96.386675 
811.000000	 96.109231 
810.000000	 95.762627 
809.000000	 95.332529 
808.000000	 94.815937 
807.000000	 94.228451 
806.000000	 93.594617 
805.000000	 92.937614 
804.000000	 92.281736 
803.000000	 91.653260 
802.000000	 91.071521 
801.000000	 90.550138 
800.000000	 90.111631 
799.000000	 89.785160 
798.000000	 89.581624 
797.000000	 89.484304 
796.000000	 89.468713 
795.000000	 89.515843 
794.000000	 89.603267 
793.000000	 89.704355 
792.000000	 89.804419 
791.000000	 89.901623 
790.000000	 89.986734 
789.000000	 90.037985 
788.000000	 90.039970 
787.000000	 89.991133 
786.000000	 89.889347 
785.000000	 89.727833 
784.000000	 89.511331 
783.000000	 89.260666 
782.000000	 88.996563 
781.000000	 88.735732 
780.000000	 88.506133 
779.000000	 88.344363 
778.000000	 88.268932 
777.000000	 88.273468 
776.000000	 88.350841 
775.000000	 88.501824 
774.000000	 88.712975 
773.000000	 88.950064 
772.000000	 89.186088 
771.000000	 89.418517 
770.000000	 89.650755 
769.000000	 89.875638 
768.000000	 90.085833 
767.000000	 90.281695 
766.000000	 90.459284 
765.000000	 90.608569 
764.000000	 90.734036 
763.000000	 90.860364 
762.000000	 91.006239 
761.000000	 91.165838 
760.000000	 91.324553 
759.000000	 91.478103 
758.000000	 91.627807 
757.000000	 91.773533 
756.000000	 91.922211 
755.000000	 92.088085 
754.000000	 92.271208 
753.000000	 92.446747 
752.000000	 92.587471 
751.000000	 92.689238 
750.000000	 92.768875 
749.000000	 92.847530 
748.000000	 92.941507 
747.000000	 93.056270 
746.000000	 93.180230 
745.000000	 93.294205 
744.000000	 93.394043 
743.000000	 93.495029 
742.000000	 93.610059 
741.000000	 93.735276 
740.000000	 93.861913 
739.000000	 93.988684 
738.000000	 94.114995 
737.000000	 94.233028 
736.000000	 94.334598 
735.000000	 94.418456 
734.000000	 94.487227 
733.000000	 94.545414 
732.000000	 94.601644 
731.000000	 94.662317 
730.000000	 94.721143 
729.000000	 94.765662 
728.000000	 94.795955 
727.000000	 94.825593 
726.000000	 94.864634 
725.000000	 94.914919 
724.000000	 94.979962 
723.000000	 95.062886 
722.000000	 95.153803 
721.000000	 95.236242 
720.000000	 95.308864 
719.000000	 95.383720 
718.000000	 95.461278 
717.000000	 95.527664 
716.000000	 95.578690 
715.000000	 95.626646 
714.000000	 95.679308 
713.000000	 95.731447 
712.000000	 95.783588 
711.000000	 95.848484 
710.000000	 95.929353 
709.000000	 96.009674 
708.000000	 96.074908 
707.000000	 96.126601 
706.000000	 96.164899 
705.000000	 96.176397 
704.000000	 96.150174 
703.000000	 96.088473 
702.000000	 95.988668 
701.000000	 95.828905 
700.000000	 95.586004 
699.000000	 95.260546 
698.000000	 94.879127 
697.000000	 94.488287 
696.000000	 94.152949 
695.000000	 93.938673 
694.000000	 93.876716 
693.000000	 93.949230 
692.000000	 94.112503 
691.000000	 94.325762 
690.000000	 94.556857 
689.000000	 94.781237 
688.000000	 94.988567 
687.000000	 95.179482 
686.000000	 95.349247 
685.000000	 95.487429 
684.000000	 95.596966 
683.000000	 95.695424 
682.000000	 95.792087 
681.000000	 95.882625 
680.000000	 95.970531 
679.000000	 96.072362 
678.000000	 96.189518 
677.000000	 96.299976 
676.000000	 96.391252 
675.000000	 96.474311 
674.000000	 96.554524 
673.000000	 96.615697 
672.000000	 96.652965 
671.000000	 96.695147 
670.000000	 96.780437 
669.000000	 96.900612 
668.000000	 97.015945 
667.000000	 97.093582 
666.000000	 97.115816 
665.000000	 97.100632 
664.000000	 97.081747 
663.000000	 97.082306 
662.000000	 97.110424 
661.000000	 97.147877 
660.000000	 97.182564 
659.000000	 97.222803 
658.000000	 97.266569 
657.000000	 97.286741 
656.000000	 97.270066 
655.000000	 97.236104 
654.000000	 97.202277 
653.000000	 97.160797 
652.000000	 97.113424 
651.000000	 97.093949 
650.000000	 97.122457 

