4000.000000	98.200330 
3999.000000	98.198936 
3998.000000	98.196057 
3997.000000	98.192668 
3996.000000	98.189821 
3995.000000	98.188043 
3994.000000	98.187496 
3993.000000	98.187970 
3992.000000	98.188741 
3991.000000	98.189054 
3990.000000	98.188876 
3989.000000	98.188817 
3988.000000	98.189287 
3987.000000	98.190187 
3986.000000	98.191456 
3985.000000	98.193202 
3984.000000	98.195046 
3983.000000	98.196136 
3982.000000	98.196257 
3981.000000	98.196241 
3980.000000	98.196782 
3979.000000	98.197308 
3978.000000	98.196842 
3977.000000	98.195596 
3976.000000	98.194764 
3975.000000	98.194768 
3974.000000	98.194643 
3973.000000	98.193401 
3972.000000	98.191253 
3971.000000	98.189213 
3970.000000	98.188150 
3969.000000	98.188288 
3968.000000	98.189220 
3967.000000	98.190097 
3966.000000	98.190160 
3965.000000	98.189264 
3964.000000	98.187784 
3963.000000	98.186238 
3962.000000	98.185027 
3961.000000	98.184438 
3960.000000	98.184440 
3959.000000	98.184535 
3958.000000	98.184344 
3957.000000	98.183971 
3956.000000	98.183606 
3955.000000	98.183013 
3954.000000	98.181821 
3953.000000	98.180100 
3952.000000	98.178329 
3951.000000	98.177003 
3950.000000	98.176286 
3949.000000	98.175996 
3948.000000	98.175800 
3947.000000	98.175514 
3946.000000	98.175141 
3945.000000	98.174643 
3944.000000	98.173905 
3943.000000	98.173039 
3942.000000	98.172553 
3941.000000	98.172954 
3940.000000	98.174025 
3939.000000	98.174634 
3938.000000	98.173989 
3937.000000	98.172411 
3936.000000	98.170793 
3935.000000	98.169512 
3934.000000	98.168414 
3933.000000	98.167741 
3932.000000	98.167920 
3931.000000	98.168586 
3930.000000	98.168750 
3929.000000	98.168041 
3928.000000	98.167282 
3927.000000	98.167136 
3926.000000	98.167075 
3925.000000	98.166412 
3924.000000	98.165584 
3923.000000	98.165274 
3922.000000	98.165011 
3921.000000	98.164130 
3920.000000	98.163193 
3919.000000	98.163136 
3918.000000	98.163806 
3917.000000	98.164325 
3916.000000	98.164371 
3915.000000	98.164229 
3914.000000	98.164019 
3913.000000	98.163582 
3912.000000	98.163013 
3911.000000	98.162451 
3910.000000	98.161974 
3909.000000	98.161590 
3908.000000	98.161271 
3907.000000	98.160978 
3906.000000	98.160714 
3905.000000	98.160492 
3904.000000	98.160327 
3903.000000	98.160228 
3902.000000	98.160195 
3901.000000	98.160207 
3900.000000	98.160235 
3899.000000	98.160249 
3898.000000	98.160232 
3897.000000	98.160185 
3896.000000	98.160115 
3895.000000	98.160021 
3894.000000	98.159892 
3893.000000	98.159735 
3892.000000	98.159567 
3891.000000	98.159398 
3890.000000	98.159243 
3889.000000	98.159122 
3888.000000	98.159033 
3887.000000	98.158962 
3886.000000	98.158898 
3885.000000	98.158849 
3884.000000	98.158827 
3883.000000	98.158828 
3882.000000	98.158834 
3881.000000	98.158842 
3880.000000	98.158868 
3879.000000	98.158934 
3878.000000	98.159042 
3877.000000	98.159168 
3876.000000	98.159291 
3875.000000	98.159412 
3874.000000	98.159553 
3873.000000	98.159737 
3872.000000	98.159968 
3871.000000	98.160231 
3870.000000	98.160520 
3869.000000	98.160857 
3868.000000	98.161261 
3867.000000	98.161712 
3866.000000	98.162164 
3865.000000	98.162603 
3864.000000	98.163042 
3863.000000	98.163475 
3862.000000	98.163874 
3861.000000	98.164221 
3860.000000	98.164535 
3859.000000	98.164840 
3858.000000	98.165148 
3857.000000	98.165480 
3856.000000	98.165878 
3855.000000	98.166380 
3854.000000	98.166979 
3853.000000	98.167635 
3852.000000	98.168357 
3851.000000	98.169182 
3850.000000	98.170092 
3849.000000	98.171031 
3848.000000	98.171962 
3847.000000	98.172869 
3846.000000	98.173754 
3845.000000	98.174626 
3844.000000	98.175495 
3843.000000	98.176360 
3842.000000	98.177218 
3841.000000	98.178080 
3840.000000	98.178956 
3839.000000	98.179842 
3838.000000	98.180716 
3837.000000	98.181560 
3836.000000	98.182374 
3835.000000	98.183166 
3834.000000	98.183940 
3833.000000	98.184693 
3832.000000	98.185423 
3831.000000	98.186132 
3830.000000	98.186825 
3829.000000	98.187504 
3828.000000	98.188166 
3827.000000	98.188799 
3826.000000	98.189393 
3825.000000	98.189954 
3824.000000	98.190501 
3823.000000	98.191039 
3822.000000	98.191554 
3821.000000	98.192037 
3820.000000	98.192521 
3819.000000	98.193046 
3818.000000	98.193601 
3817.000000	98.194138 
3816.000000	98.194633 
3815.000000	98.195099 
3814.000000	98.195552 
3813.000000	98.195965 
3812.000000	98.196306 
3811.000000	98.196583 
3810.000000	98.196831 
3809.000000	98.197048 
3808.000000	98.197204 
3807.000000	98.197292 
3806.000000	98.197347 
3805.000000	98.197418 
3804.000000	98.197516 
3803.000000	98.197618 
3802.000000	98.197703 
3801.000000	98.197777 
3800.000000	98.197865 
3799.000000	98.197968 
3798.000000	98.198048 
3797.000000	98.198075 
3796.000000	98.198063 
3795.000000	98.198037 
3794.000000	98.198016 
3793.000000	98.198000 
3792.000000	98.197981 
3791.000000	98.197952 
3790.000000	98.197900 
3789.000000	98.197819 
3788.000000	98.197706 
3787.000000	98.197562 
3786.000000	98.197386 
3785.000000	98.197180 
3784.000000	98.196970 
3783.000000	98.196777 
3782.000000	98.196590 
3781.000000	98.196378 
3780.000000	98.196130 
3779.000000	98.195859 
3778.000000	98.195574 
3777.000000	98.195264 
3776.000000	98.194920 
3775.000000	98.194553 
3774.000000	98.194186 
3773.000000	98.193819 
3772.000000	98.193439 
3771.000000	98.193033 
3770.000000	98.192609 
3769.000000	98.192181 
3768.000000	98.191752 
3767.000000	98.191313 
3766.000000	98.190861 
3765.000000	98.190415 
3764.000000	98.189993 
3763.000000	98.189584 
3762.000000	98.189153 
3761.000000	98.188682 
3760.000000	98.188177 
3759.000000	98.187646 
3758.000000	98.187079 
3757.000000	98.186469 
3756.000000	98.185839 
3755.000000	98.185236 
3754.000000	98.184705 
3753.000000	98.184262 
3752.000000	98.183898 
3751.000000	98.183577 
3750.000000	98.183258 
3749.000000	98.182936 
3748.000000	98.182641 
3747.000000	98.182391 
3746.000000	98.182174 
3745.000000	98.181962 
3744.000000	98.181736 
3743.000000	98.181502 
3742.000000	98.181249 
3741.000000	98.180918 
3740.000000	98.180478 
3739.000000	98.179957 
3738.000000	98.179403 
3737.000000	98.178832 
3736.000000	98.178228 
3735.000000	98.177578 
3734.000000	98.176867 
3733.000000	98.176074 
3732.000000	98.175186 
3731.000000	98.174207 
3730.000000	98.173146 
3729.000000	98.172004 
3728.000000	98.170811 
3727.000000	98.169525 
3726.000000	98.168180 
3725.000000	98.167031 
3724.000000	98.166130 
3723.000000	98.165048 
3722.000000	98.163468 
3721.000000	98.161534 
3720.000000	98.159512 
3719.000000	98.157247 
3718.000000	98.154381 
3717.000000	98.151116 
3716.000000	98.148273 
3715.000000	98.146452 
3714.000000	98.145794 
3713.000000	98.146661 
3712.000000	98.148489 
3711.000000	98.148683 
3710.000000	98.145633 
3709.000000	98.140236 
3708.000000	98.133964 
3707.000000	98.127650 
3706.000000	98.121858 
3705.000000	98.116713 
3704.000000	98.111847 
3703.000000	98.106818 
3702.000000	98.101192 
3701.000000	98.094949 
3700.000000	98.089178 
3699.000000	98.084630 
3698.000000	98.080378 
3697.000000	98.075735 
3696.000000	98.071416 
3695.000000	98.068078 
3694.000000	98.064834 
3693.000000	98.060596 
3692.000000	98.055635 
3691.000000	98.050804 
3690.000000	98.046144 
3689.000000	98.041103 
3688.000000	98.036037 
3687.000000	98.031856 
3686.000000	98.028318 
3685.000000	98.024503 
3684.000000	98.020232 
3683.000000	98.015899 
3682.000000	98.011671 
3681.000000	98.007457 
3680.000000	98.003244 
3679.000000	97.999134 
3678.000000	97.995159 
3677.000000	97.991285 
3676.000000	97.987480 
3675.000000	97.983737 
3674.000000	97.980082 
3673.000000	97.976530 
3672.000000	97.973057 
3671.000000	97.969640 
3670.000000	97.966295 
3669.000000	97.963062 
3668.000000	97.959984 
3667.000000	97.957068 
3666.000000	97.954289 
3665.000000	97.951616 
3664.000000	97.949034 
3663.000000	97.946539 
3662.000000	97.944068 
3661.000000	97.941503 
3660.000000	97.938813 
3659.000000	97.936200 
3658.000000	97.933871 
3657.000000	97.931607 
3656.000000	97.928832 
3655.000000	97.926020 
3654.000000	97.924267 
3653.000000	97.922707 
3652.000000	97.919846 
3651.000000	97.917085 
3650.000000	97.916574 
3649.000000	97.916824 
3648.000000	97.915331 
3647.000000	97.913282 
3646.000000	97.913602 
3645.000000	97.916700 
3644.000000	97.920350 
3643.000000	97.922579 
3642.000000	97.923759 
3641.000000	97.925234 
3640.000000	97.926913 
3639.000000	97.927160 
3638.000000	97.925578 
3637.000000	97.924483 
3636.000000	97.924797 
3635.000000	97.923314 
3634.000000	97.917043 
3633.000000	97.908439 
3632.000000	97.902519 
3631.000000	97.900953 
3630.000000	97.902848 
3629.000000	97.902741 
3628.000000	97.898366 
3627.000000	97.899854 
3626.000000	97.908111 
3625.000000	97.911350 
3624.000000	97.907027 
3623.000000	97.901157 
3622.000000	97.896875 
3621.000000	97.892519 
3620.000000	97.887092 
3619.000000	97.882285 
3618.000000	97.881308 
3617.000000	97.886732 
3616.000000	97.896269 
3615.000000	97.904857 
3614.000000	97.910620 
3613.000000	97.915357 
3612.000000	97.921262 
3611.000000	97.927973 
3610.000000	97.932850 
3609.000000	97.934600 
3608.000000	97.934779 
3607.000000	97.935477 
3606.000000	97.937068 
3605.000000	97.938338 
3604.000000	97.939422 
3603.000000	97.942172 
3602.000000	97.946428 
3601.000000	97.948979 
3600.000000	97.947621 
3599.000000	97.943603 
3598.000000	97.939377 
3597.000000	97.937581 
3596.000000	97.939708 
3595.000000	97.944301 
3594.000000	97.947520 
3593.000000	97.946896 
3592.000000	97.942657 
3591.000000	97.936126 
3590.000000	97.929302 
3589.000000	97.925074 
3588.000000	97.925307 
3587.000000	97.929126 
3586.000000	97.935239 
3585.000000	97.942104 
3584.000000	97.947141 
3583.000000	97.949406 
3582.000000	97.950376 
3581.000000	97.951378 
3580.000000	97.952133 
3579.000000	97.951956 
3578.000000	97.950739 
3577.000000	97.949097 
3576.000000	97.947718 
3575.000000	97.946590 
3574.000000	97.945080 
3573.000000	97.942456 
3572.000000	97.938392 
3571.000000	97.933130 
3570.000000	97.927665 
3569.000000	97.923755 
3568.000000	97.923170 
3567.000000	97.925996 
3566.000000	97.930508 
3565.000000	97.934562 
3564.000000	97.936183 
3563.000000	97.934962 
3562.000000	97.932829 
3561.000000	97.932104 
3560.000000	97.933166 
3559.000000	97.934537 
3558.000000	97.934722 
3557.000000	97.933538 
3556.000000	97.932046 
3555.000000	97.931286 
3554.000000	97.931171 
3553.000000	97.930683 
3552.000000	97.929093 
3551.000000	97.926626 
3550.000000	97.923871 
3549.000000	97.921206 
3548.000000	97.919210 
3547.000000	97.918571 
3546.000000	97.919065 
3545.000000	97.919650 
3544.000000	97.919771 
3543.000000	97.919702 
3542.000000	97.919690 
3541.000000	97.919499 
3540.000000	97.918888 
3539.000000	97.917957 
3538.000000	97.916969 
3537.000000	97.916117 
3536.000000	97.915449 
3535.000000	97.914874 
3534.000000	97.914158 
3533.000000	97.913191 
3532.000000	97.912213 
3531.000000	97.911616 
3530.000000	97.911385 
3529.000000	97.910994 
3528.000000	97.910008 
3527.000000	97.908561 
3526.000000	97.907143 
3525.000000	97.906130 
3524.000000	97.905634 
3523.000000	97.905587 
3522.000000	97.905763 
3521.000000	97.905800 
3520.000000	97.905468 
3519.000000	97.904844 
3518.000000	97.904119 
3517.000000	97.903320 
3516.000000	97.902289 
3515.000000	97.900965 
3514.000000	97.899577 
3513.000000	97.898452 
3512.000000	97.897684 
3511.000000	97.897116 
3510.000000	97.896556 
3509.000000	97.895950 
3508.000000	97.895342 
3507.000000	97.894706 
3506.000000	97.893907 
3505.000000	97.892860 
3504.000000	97.891666 
3503.000000	97.890556 
3502.000000	97.889696 
3501.000000	97.889077 
3500.000000	97.888560 
3499.000000	97.888018 
3498.000000	97.887411 
3497.000000	97.886737 
3496.000000	97.885971 
3495.000000	97.885080 
3494.000000	97.884093 
3493.000000	97.883110 
3492.000000	97.882218 
3491.000000	97.881414 
3490.000000	97.880627 
3489.000000	97.879790 
3488.000000	97.878884 
3487.000000	97.877937 
3486.000000	97.876997 
3485.000000	97.876110 
3484.000000	97.875275 
3483.000000	97.874452 
3482.000000	97.873597 
3481.000000	97.872701 
3480.000000	97.871779 
3479.000000	97.870840 
3478.000000	97.869886 
3477.000000	97.868917 
3476.000000	97.867937 
3475.000000	97.866953 
3474.000000	97.865971 
3473.000000	97.864999 
3472.000000	97.864034 
3471.000000	97.863072 
3470.000000	97.862101 
3469.000000	97.861121 
3468.000000	97.860143 
3467.000000	97.859184 
3466.000000	97.858264 
3465.000000	97.857382 
3464.000000	97.856513 
3463.000000	97.855617 
3462.000000	97.854672 
3461.000000	97.853699 
3460.000000	97.852749 
3459.000000	97.851840 
3458.000000	97.850944 
3457.000000	97.850009 
3456.000000	97.849002 
3455.000000	97.847958 
3454.000000	97.846964 
3453.000000	97.846089 
3452.000000	97.845345 
3451.000000	97.844695 
3450.000000	97.844064 
3449.000000	97.843352 
3448.000000	97.842486 
3447.000000	97.841491 
3446.000000	97.840492 
3445.000000	97.839599 
3444.000000	97.838827 
3443.000000	97.838138 
3442.000000	97.837489 
3441.000000	97.836794 
3440.000000	97.835917 
3439.000000	97.834773 
3438.000000	97.833441 
3437.000000	97.832129 
3436.000000	97.831041 
3435.000000	97.830336 
3434.000000	97.830084 
3433.000000	97.830154 
3432.000000	97.830215 
3431.000000	97.830005 
3430.000000	97.829555 
3429.000000	97.829064 
3428.000000	97.828607 
3427.000000	97.828031 
3426.000000	97.827233 
3425.000000	97.826435 
3424.000000	97.825983 
3423.000000	97.825878 
3422.000000	97.825662 
3421.000000	97.824963 
3420.000000	97.823980 
3419.000000	97.823256 
3418.000000	97.823003 
3417.000000	97.822952 
3416.000000	97.822796 
3415.000000	97.822497 
3414.000000	97.822072 
3413.000000	97.821391 
3412.000000	97.820409 
3411.000000	97.819410 
3410.000000	97.818821 
3409.000000	97.818840 
3408.000000	97.819303 
3407.000000	97.819783 
3406.000000	97.819861 
3405.000000	97.819404 
3404.000000	97.818607 
3403.000000	97.817751 
3402.000000	97.816937 
3401.000000	97.816185 
3400.000000	97.815629 
3399.000000	97.815403 
3398.000000	97.815372 
3397.000000	97.815231 
3396.000000	97.814892 
3395.000000	97.814575 
3394.000000	97.814483 
3393.000000	97.814582 
3392.000000	97.814748 
3391.000000	97.814958 
3390.000000	97.815268 
3389.000000	97.815704 
3388.000000	97.816258 
3387.000000	97.816899 
3386.000000	97.817532 
3385.000000	97.817981 
3384.000000	97.818086 
3383.000000	97.817877 
3382.000000	97.817650 
3381.000000	97.817784 
3380.000000	97.818378 
3379.000000	97.819132 
3378.000000	97.819689 
3377.000000	97.820112 
3376.000000	97.820790 
3375.000000	97.821852 
3374.000000	97.822890 
3373.000000	97.823401 
3372.000000	97.823347 
3371.000000	97.823202 
3370.000000	97.823490 
3369.000000	97.824332 
3368.000000	97.825474 
3367.000000	97.826546 
3366.000000	97.827310 
3365.000000	97.827741 
3364.000000	97.828018 
3363.000000	97.828422 
3362.000000	97.829146 
3361.000000	97.830194 
3360.000000	97.831468 
3359.000000	97.832864 
3358.000000	97.834260 
3357.000000	97.835485 
3356.000000	97.836400 
3355.000000	97.837029 
3354.000000	97.837596 
3353.000000	97.838423 
3352.000000	97.839750 
3351.000000	97.841581 
3350.000000	97.843617 
3349.000000	97.845395 
3348.000000	97.846597 
3347.000000	97.847276 
3346.000000	97.847759 
3345.000000	97.848332 
3344.000000	97.848982 
3343.000000	97.849456 
3342.000000	97.849604 
3341.000000	97.849660 
3340.000000	97.850058 
3339.000000	97.850899 
3338.000000	97.851861 
3337.000000	97.852623 
3336.000000	97.853256 
3335.000000	97.854056 
3334.000000	97.855095 
3333.000000	97.856129 
3332.000000	97.856932 
3331.000000	97.857554 
3330.000000	97.858183 
3329.000000	97.858883 
3328.000000	97.859592 
3327.000000	97.860300 
3326.000000	97.861081 
3325.000000	97.861953 
3324.000000	97.862819 
3323.000000	97.863572 
3322.000000	97.864228 
3321.000000	97.864896 
3320.000000	97.865649 
3319.000000	97.866466 
3318.000000	97.867289 
3317.000000	97.868083 
3316.000000	97.868829 
3315.000000	97.869510 
3314.000000	97.870110 
3313.000000	97.870640 
3312.000000	97.871141 
3311.000000	97.871650 
3310.000000	97.872199 
3309.000000	97.872807 
3308.000000	97.873460 
3307.000000	97.874109 
3306.000000	97.874712 
3305.000000	97.875274 
3304.000000	97.875844 
3303.000000	97.876471 
3302.000000	97.877179 
3301.000000	97.877954 
3300.000000	97.878740 
3299.000000	97.879455 
3298.000000	97.880045 
3297.000000	97.880509 
3296.000000	97.880943 
3295.000000	97.881482 
3294.000000	97.882191 
3293.000000	97.883048 
3292.000000	97.883984 
3291.000000	97.884948 
3290.000000	97.885889 
3289.000000	97.886745 
3288.000000	97.887490 
3287.000000	97.888148 
3286.000000	97.888760 
3285.000000	97.889335 
3284.000000	97.889868 
3283.000000	97.890392 
3282.000000	97.890970 
3281.000000	97.891637 
3280.000000	97.892363 
3279.000000	97.893079 
3278.000000	97.893756 
3277.000000	97.894431 
3276.000000	97.895147 
3275.000000	97.895897 
3274.000000	97.896648 
3273.000000	97.897395 
3272.000000	97.898170 
3271.000000	97.898990 
3270.000000	97.899839 
3269.000000	97.900683 
3268.000000	97.901497 
3267.000000	97.902284 
3266.000000	97.903060 
3265.000000	97.903847 
3264.000000	97.904655 
3263.000000	97.905480 
3262.000000	97.906306 
3261.000000	97.907122 
3260.000000	97.907924 
3259.000000	97.908718 
3258.000000	97.909514 
3257.000000	97.910319 
3256.000000	97.911139 
3255.000000	97.911971 
3254.000000	97.912812 
3253.000000	97.913653 
3252.000000	97.914490 
3251.000000	97.915324 
3250.000000	97.916155 
3249.000000	97.916984 
3248.000000	97.917812 
3247.000000	97.918642 
3246.000000	97.919481 
3245.000000	97.920339 
3244.000000	97.921220 
3243.000000	97.922123 
3242.000000	97.923043 
3241.000000	97.923973 
3240.000000	97.924907 
3239.000000	97.925844 
3238.000000	97.926784 
3237.000000	97.927725 
3236.000000	97.928662 
3235.000000	97.929590 
3234.000000	97.930505 
3233.000000	97.931405 
3232.000000	97.932287 
3231.000000	97.933155 
3230.000000	97.934017 
3229.000000	97.934878 
3228.000000	97.935741 
3227.000000	97.936608 
3226.000000	97.937499 
3225.000000	97.938439 
3224.000000	97.939424 
3223.000000	97.940409 
3222.000000	97.941352 
3221.000000	97.942252 
3220.000000	97.943148 
3219.000000	97.944064 
3218.000000	97.944979 
3217.000000	97.945871 
3216.000000	97.946741 
3215.000000	97.947610 
3214.000000	97.948507 
3213.000000	97.949450 
3212.000000	97.950440 
3211.000000	97.951453 
3210.000000	97.952450 
3209.000000	97.953407 
3208.000000	97.954339 
3207.000000	97.955268 
3206.000000	97.956197 
3205.000000	97.957128 
3204.000000	97.958092 
3203.000000	97.959135 
3202.000000	97.960266 
3201.000000	97.961414 
3200.000000	97.962461 
3199.000000	97.963341 
3198.000000	97.964134 
3197.000000	97.964989 
3196.000000	97.965916 
3195.000000	97.966755 
3194.000000	97.967441 
3193.000000	97.968213 
3192.000000	97.969371 
3191.000000	97.970898 
3190.000000	97.972410 
3189.000000	97.973542 
3188.000000	97.974265 
3187.000000	97.974857 
3186.000000	97.975686 
3185.000000	97.976941 
3184.000000	97.978496 
3183.000000	97.980002 
3182.000000	97.981245 
3181.000000	97.982306 
3180.000000	97.983334 
3179.000000	97.984292 
3178.000000	97.985097 
3177.000000	97.985902 
3176.000000	97.986990 
3175.000000	97.988448 
3174.000000	97.990119 
3173.000000	97.991838 
3172.000000	97.993495 
3171.000000	97.994888 
3170.000000	97.995812 
3169.000000	97.996352 
3168.000000	97.996856 
3167.000000	97.997546 
3166.000000	97.998359 
3165.000000	97.999172 
3164.000000	97.999954 
3163.000000	98.000706 
3162.000000	98.001418 
3161.000000	98.002112 
3160.000000	98.002841 
3159.000000	98.003641 
3158.000000	98.004517 
3157.000000	98.005465 
3156.000000	98.006450 
3155.000000	98.007405 
3154.000000	98.008297 
3153.000000	98.009160 
3152.000000	98.010030 
3151.000000	98.010901 
3150.000000	98.011759 
3149.000000	98.012609 
3148.000000	98.013455 
3147.000000	98.014306 
3146.000000	98.015169 
3145.000000	98.016041 
3144.000000	98.016915 
3143.000000	98.017775 
3142.000000	98.018610 
3141.000000	98.019417 
3140.000000	98.020204 
3139.000000	98.020982 
3138.000000	98.021760 
3137.000000	98.022539 
3136.000000	98.023318 
3135.000000	98.024093 
3134.000000	98.024863 
3133.000000	98.025631 
3132.000000	98.026399 
3131.000000	98.027167 
3130.000000	98.027933 
3129.000000	98.028697 
3128.000000	98.029464 
3127.000000	98.030236 
3126.000000	98.031017 
3125.000000	98.031806 
3124.000000	98.032603 
3123.000000	98.033396 
3122.000000	98.034156 
3121.000000	98.034870 
3120.000000	98.035558 
3119.000000	98.036257 
3118.000000	98.036984 
3117.000000	98.037727 
3116.000000	98.038483 
3115.000000	98.039263 
3114.000000	98.040043 
3113.000000	98.040766 
3112.000000	98.041439 
3111.000000	98.042188 
3110.000000	98.043144 
3109.000000	98.044269 
3108.000000	98.045385 
3107.000000	98.046369 
3106.000000	98.047254 
3105.000000	98.048086 
3104.000000	98.048741 
3103.000000	98.048975 
3102.000000	98.048669 
3101.000000	98.047976 
3100.000000	98.047253 
3099.000000	98.046869 
3098.000000	98.047086 
3097.000000	98.048073 
3096.000000	98.049777 
3095.000000	98.051696 
3094.000000	98.053166 
3093.000000	98.053897 
3092.000000	98.054116 
3091.000000	98.054119 
3090.000000	98.053895 
3089.000000	98.053357 
3088.000000	98.052679 
3087.000000	98.052263 
3086.000000	98.052500 
3085.000000	98.053546 
3084.000000	98.055039 
3083.000000	98.056037 
3082.000000	98.055736 
3081.000000	98.054520 
3080.000000	98.053875 
3079.000000	98.054720 
3078.000000	98.056441 
3077.000000	98.058082 
3076.000000	98.059624 
3075.000000	98.061176 
3074.000000	98.061859 
3073.000000	98.060911 
3072.000000	98.059224 
3071.000000	98.058251 
3070.000000	98.057896 
3069.000000	98.057183 
3068.000000	98.056589 
3067.000000	98.057689 
3066.000000	98.060378 
3065.000000	98.062441 
3064.000000	98.062351 
3063.000000	98.060718 
3062.000000	98.058543 
3061.000000	98.055719 
3060.000000	98.052018 
3059.000000	98.048354 
3058.000000	98.046417 
3057.000000	98.047562 
3056.000000	98.051749 
3055.000000	98.056524 
3054.000000	98.057704 
3053.000000	98.053008 
3052.000000	98.045285 
3051.000000	98.040413 
3050.000000	98.041164 
3049.000000	98.044648 
3048.000000	98.046166 
3047.000000	98.043812 
3046.000000	98.038547 
3045.000000	98.031980 
3044.000000	98.025854 
3043.000000	98.022422 
3042.000000	98.023199 
3041.000000	98.027012 
3040.000000	98.030289 
3039.000000	98.029721 
3038.000000	98.024361 
3037.000000	98.015542 
3036.000000	98.005361 
3035.000000	97.995230 
3034.000000	97.985689 
3033.000000	97.977193 
3032.000000	97.970424 
3031.000000	97.965645 
3030.000000	97.962246 
3029.000000	97.959173 
3028.000000	97.955106 
3027.000000	97.948052 
3026.000000	97.936156 
3025.000000	97.920148 
3024.000000	97.904120 
3023.000000	97.892025 
3022.000000	97.883602 
3021.000000	97.875440 
3020.000000	97.865620 
3019.000000	97.855220 
3018.000000	97.845191 
3017.000000	97.834177 
3016.000000	97.820488 
3015.000000	97.804591 
3014.000000	97.788649 
3013.000000	97.774658 
3012.000000	97.763501 
3011.000000	97.754458 
3010.000000	97.745007 
3009.000000	97.732394 
3008.000000	97.716140 
3007.000000	97.698226 
3006.000000	97.680528 
3005.000000	97.663307 
3004.000000	97.646608 
3003.000000	97.631520 
3002.000000	97.619032 
3001.000000	97.608727 
3000.000000	97.599370 
2999.000000	97.589701 
2998.000000	97.578301 
2997.000000	97.564201 
2996.000000	97.548394 
2995.000000	97.533243 
2994.000000	97.519082 
2993.000000	97.502746 
2992.000000	97.481212 
2991.000000	97.456147 
2990.000000	97.433337 
2989.000000	97.417825 
2988.000000	97.410742 
2987.000000	97.410246 
2986.000000	97.413986 
2985.000000	97.420374 
2984.000000	97.428238 
2983.000000	97.436010 
2982.000000	97.441683 
2981.000000	97.443830 
2980.000000	97.442540 
2979.000000	97.438700 
2978.000000	97.432519 
2977.000000	97.423769 
2976.000000	97.413738 
2975.000000	97.405688 
2974.000000	97.402441 
2973.000000	97.404182 
2972.000000	97.409030 
2971.000000	97.414909 
2970.000000	97.420340 
2969.000000	97.424645 
2968.000000	97.428547 
2967.000000	97.433861 
2966.000000	97.441491 
2965.000000	97.450087 
2964.000000	97.457458 
2963.000000	97.462810 
2962.000000	97.466898 
2961.000000	97.470746 
2960.000000	97.475371 
2959.000000	97.482130 
2958.000000	97.491922 
2957.000000	97.503868 
2956.000000	97.515570 
2955.000000	97.524763 
2954.000000	97.530578 
2953.000000	97.533997 
2952.000000	97.537722 
2951.000000	97.544523 
2950.000000	97.554124 
2949.000000	97.562204 
2948.000000	97.564077 
2947.000000	97.559385 
2946.000000	97.552367 
2945.000000	97.547633 
2944.000000	97.546549 
2943.000000	97.547457 
2942.000000	97.547677 
2941.000000	97.544956 
2940.000000	97.538700 
2939.000000	97.530919 
2938.000000	97.524848 
2937.000000	97.521635 
2936.000000	97.518969 
2935.000000	97.513531 
2934.000000	97.504051 
2933.000000	97.491458 
2932.000000	97.477210 
2931.000000	97.462755 
2930.000000	97.450123 
2929.000000	97.441468 
2928.000000	97.437294 
2927.000000	97.435560 
2926.000000	97.433045 
2925.000000	97.428024 
2924.000000	97.421815 
2923.000000	97.417674 
2922.000000	97.417857 
2921.000000	97.421728 
2920.000000	97.427043 
2919.000000	97.432753 
2918.000000	97.439519 
2917.000000	97.447241 
2916.000000	97.453617 
2915.000000	97.456592 
2914.000000	97.457659 
2913.000000	97.460906 
2912.000000	97.468356 
2911.000000	97.477473 
2910.000000	97.483960 
2909.000000	97.486396 
2908.000000	97.487151 
2907.000000	97.489025 
2906.000000	97.491976 
2905.000000	97.493257 
2904.000000	97.490410 
2903.000000	97.484406 
2902.000000	97.480068 
2901.000000	97.482913 
2900.000000	97.494760 
2899.000000	97.512282 
2898.000000	97.529725 
2897.000000	97.543246 
2896.000000	97.552365 
2895.000000	97.558081 
2894.000000	97.561609 
2893.000000	97.565032 
2892.000000	97.571032 
2891.000000	97.580327 
2890.000000	97.590363 
2889.000000	97.598066 
2888.000000	97.603236 
2887.000000	97.607769 
2886.000000	97.612271 
2885.000000	97.615679 
2884.000000	97.618375 
2883.000000	97.623180 
2882.000000	97.631977 
2881.000000	97.642973 
2880.000000	97.652893 
2879.000000	97.661065 
2878.000000	97.669502 
2877.000000	97.679296 
2876.000000	97.688779 
2875.000000	97.695829 
2874.000000	97.700627 
2873.000000	97.705154 
2872.000000	97.710667 
2871.000000	97.716689 
2870.000000	97.722253 
2869.000000	97.727150 
2868.000000	97.731776 
2867.000000	97.736462 
2866.000000	97.741211 
2865.000000	97.745757 
2864.000000	97.749804 
2863.000000	97.753645 
2862.000000	97.758478 
2861.000000	97.765417 
2860.000000	97.773900 
2859.000000	97.781843 
2858.000000	97.787926 
2857.000000	97.793173 
2856.000000	97.799564 
2855.000000	97.807425 
2854.000000	97.815007 
2853.000000	97.820698 
2852.000000	97.825038 
2851.000000	97.830347 
2850.000000	97.838908 
2849.000000	97.851650 
2848.000000	97.867740 
2847.000000	97.884763 
2846.000000	97.899800 
2845.000000	97.911217 
2844.000000	97.919753 
2843.000000	97.927706 
2842.000000	97.936927 
2841.000000	97.947461 
2840.000000	97.957778 
2839.000000	97.966115 
2838.000000	97.971870 
2837.000000	97.976054 
2836.000000	97.980451 
2835.000000	97.986176 
2834.000000	97.993136 
2833.000000	98.000847 
2832.000000	98.009060 
2831.000000	98.017135 
2830.000000	98.023377 
2829.000000	98.026128 
2828.000000	98.025761 
2827.000000	98.025047 
2826.000000	98.027084 
2825.000000	98.032783 
2824.000000	98.040307 
2823.000000	98.046662 
2822.000000	98.049912 
2821.000000	98.050342 
2820.000000	98.049783 
2819.000000	98.049780 
2818.000000	98.050512 
2817.000000	98.051589 
2816.000000	98.053268 
2815.000000	98.056052 
2814.000000	98.059214 
2813.000000	98.060721 
2812.000000	98.059221 
2811.000000	98.055756 
2810.000000	98.053114 
2809.000000	98.053555 
2808.000000	98.057333 
2807.000000	98.063075 
2806.000000	98.069042 
2805.000000	98.074028 
2804.000000	98.077419 
2803.000000	98.078906 
2802.000000	98.078669 
2801.000000	98.077827 
2800.000000	98.078076 
2799.000000	98.080209 
2798.000000	98.083103 
2797.000000	98.084731 
2796.000000	98.084274 
2795.000000	98.082822 
2794.000000	98.082008 
2793.000000	98.082428 
2792.000000	98.083569 
2791.000000	98.084713 
2790.000000	98.085502 
2789.000000	98.085922 
2788.000000	98.086240 
2787.000000	98.086917 
2786.000000	98.088334 
2785.000000	98.090462 
2784.000000	98.092825 
2783.000000	98.094796 
2782.000000	98.095999 
2781.000000	98.096585 
2780.000000	98.097095 
2779.000000	98.097975 
2778.000000	98.099240 
2777.000000	98.100612 
2776.000000	98.101852 
2775.000000	98.102940 
2774.000000	98.103970 
2773.000000	98.104960 
2772.000000	98.105835 
2771.000000	98.106571 
2770.000000	98.107267 
2769.000000	98.108059 
2768.000000	98.108979 
2767.000000	98.109933 
2766.000000	98.110807 
2765.000000	98.111579 
2764.000000	98.112305 
2763.000000	98.113023 
2762.000000	98.113722 
2761.000000	98.114390 
2760.000000	98.115054 
2759.000000	98.115760 
2758.000000	98.116522 
2757.000000	98.117305 
2756.000000	98.118051 
2755.000000	98.118748 
2754.000000	98.119430 
2753.000000	98.120137 
2752.000000	98.120869 
2751.000000	98.121590 
2750.000000	98.122275 
2749.000000	98.122931 
2748.000000	98.123573 
2747.000000	98.124185 
2746.000000	98.124758 
2745.000000	98.125309 
2744.000000	98.125861 
2743.000000	98.126423 
2742.000000	98.126993 
2741.000000	98.127564 
2740.000000	98.128136 
2739.000000	98.128712 
2738.000000	98.129292 
2737.000000	98.129875 
2736.000000	98.130456 
2735.000000	98.131036 
2734.000000	98.131618 
2733.000000	98.132204 
2732.000000	98.132794 
2731.000000	98.133386 
2730.000000	98.133978 
2729.000000	98.134567 
2728.000000	98.135150 
2727.000000	98.135720 
2726.000000	98.136273 
2725.000000	98.136812 
2724.000000	98.137345 
2723.000000	98.137878 
2722.000000	98.138414 
2721.000000	98.138953 
2720.000000	98.139496 
2719.000000	98.140045 
2718.000000	98.140602 
2717.000000	98.141164 
2716.000000	98.141722 
2715.000000	98.142273 
2714.000000	98.142816 
2713.000000	98.143352 
2712.000000	98.143883 
2711.000000	98.144406 
2710.000000	98.144919 
2709.000000	98.145424 
2708.000000	98.145927 
2707.000000	98.146433 
2706.000000	98.146943 
2705.000000	98.147452 
2704.000000	98.147954 
2703.000000	98.148447 
2702.000000	98.148926 
2701.000000	98.149387 
2700.000000	98.149834 
2699.000000	98.150281 
2698.000000	98.150742 
2697.000000	98.151204 
2696.000000	98.151615 
2695.000000	98.151934 
2694.000000	98.152175 
2693.000000	98.152403 
2692.000000	98.152645 
2691.000000	98.152874 
2690.000000	98.153048 
2689.000000	98.153166 
2688.000000	98.153264 
2687.000000	98.153369 
2686.000000	98.153483 
2685.000000	98.153631 
2684.000000	98.153858 
2683.000000	98.154148 
2682.000000	98.154393 
2681.000000	98.154502 
2680.000000	98.154531 
2679.000000	98.154644 
2678.000000	98.154930 
2677.000000	98.155331 
2676.000000	98.155683 
2675.000000	98.155786 
2674.000000	98.155481 
2673.000000	98.154823 
2672.000000	98.154167 
2671.000000	98.153849 
2670.000000	98.153834 
2669.000000	98.153832 
2668.000000	98.153703 
2667.000000	98.153591 
2666.000000	98.153593 
2665.000000	98.153554 
2664.000000	98.153306 
2663.000000	98.152943 
2662.000000	98.152692 
2661.000000	98.152600 
2660.000000	98.152486 
2659.000000	98.152180 
2658.000000	98.151666 
2657.000000	98.151066 
2656.000000	98.150567 
2655.000000	98.150304 
2654.000000	98.150226 
2653.000000	98.150127 
2652.000000	98.149881 
2651.000000	98.149609 
2650.000000	98.149527 
2649.000000	98.149687 
2648.000000	98.149954 
2647.000000	98.150145 
2646.000000	98.150082 
2645.000000	98.149579 
2644.000000	98.148573 
2643.000000	98.147333 
2642.000000	98.146408 
2641.000000	98.146177 
2640.000000	98.146591 
2639.000000	98.147311 
2638.000000	98.148035 
2637.000000	98.148598 
2636.000000	98.148903 
2635.000000	98.148989 
2634.000000	98.149108 
2633.000000	98.149503 
2632.000000	98.150025 
2631.000000	98.150166 
2630.000000	98.149610 
2629.000000	98.148609 
2628.000000	98.147774 
2627.000000	98.147483 
2626.000000	98.147710 
2625.000000	98.148327 
2624.000000	98.149278 
2623.000000	98.150412 
2622.000000	98.151332 
2621.000000	98.151637 
2620.000000	98.151238 
2619.000000	98.150368 
2618.000000	98.149412 
2617.000000	98.148725 
2616.000000	98.148465 
2615.000000	98.148527 
2614.000000	98.148690 
2613.000000	98.148910 
2612.000000	98.149307 
2611.000000	98.149877 
2610.000000	98.150386 
2609.000000	98.150636 
2608.000000	98.150679 
2607.000000	98.150702 
2606.000000	98.150842 
2605.000000	98.151201 
2604.000000	98.151809 
2603.000000	98.152468 
2602.000000	98.152848 
2601.000000	98.152923 
2600.000000	98.153028 
2599.000000	98.153301 
2598.000000	98.153392 
2597.000000	98.152987 
2596.000000	98.152268 
2595.000000	98.151597 
2594.000000	98.150980 
2593.000000	98.150297 
2592.000000	98.149895 
2591.000000	98.150275 
2590.000000	98.151249 
2589.000000	98.151946 
2588.000000	98.151970 
2587.000000	98.151963 
2586.000000	98.152662 
2585.000000	98.153900 
2584.000000	98.154867 
2583.000000	98.155083 
2582.000000	98.154710 
2581.000000	98.154174 
2580.000000	98.153842 
2579.000000	98.153993 
2578.000000	98.154746 
2577.000000	98.155906 
2576.000000	98.156981 
2575.000000	98.157429 
2574.000000	98.156943 
2573.000000	98.155669 
2572.000000	98.154217 
2571.000000	98.153237 
2570.000000	98.152919 
2569.000000	98.153054 
2568.000000	98.153459 
2567.000000	98.154052 
2566.000000	98.154535 
2565.000000	98.154489 
2564.000000	98.153940 
2563.000000	98.153438 
2562.000000	98.153411 
2561.000000	98.153873 
2560.000000	98.154894 
2559.000000	98.156771 
2558.000000	98.159319 
2557.000000	98.161524 
2556.000000	98.162500 
2555.000000	98.162428 
2554.000000	98.162127 
2553.000000	98.161895 
2552.000000	98.161415 
2551.000000	98.160789 
2550.000000	98.160773 
2549.000000	98.161670 
2548.000000	98.162556 
2547.000000	98.162203 
2546.000000	98.160539 
2545.000000	98.158779 
2544.000000	98.157978 
2543.000000	98.157857 
2542.000000	98.157446 
2541.000000	98.156578 
2540.000000	98.156138 
2539.000000	98.156728 
2538.000000	98.157768 
2537.000000	98.158285 
2536.000000	98.158222 
2535.000000	98.158350 
2534.000000	98.159046 
2533.000000	98.159815 
2532.000000	98.160035 
2531.000000	98.159690 
2530.000000	98.159188 
2529.000000	98.158831 
2528.000000	98.158691 
2527.000000	98.158750 
2526.000000	98.158924 
2525.000000	98.159114 
2524.000000	98.159367 
2523.000000	98.159840 
2522.000000	98.160517 
2521.000000	98.161144 
2520.000000	98.161548 
2519.000000	98.161840 
2518.000000	98.162169 
2517.000000	98.162368 
2516.000000	98.162069 
2515.000000	98.161166 
2514.000000	98.160069 
2513.000000	98.159465 
2512.000000	98.159712 
2511.000000	98.160646 
2510.000000	98.161819 
2509.000000	98.162916 
2508.000000	98.163841 
2507.000000	98.164484 
2506.000000	98.164735 
2505.000000	98.164775 
2504.000000	98.165076 
2503.000000	98.165863 
2502.000000	98.166718 
2501.000000	98.167042 
2500.000000	98.166753 
2499.000000	98.166261 
2498.000000	98.165909 
2497.000000	98.165704 
2496.000000	98.165626 
2495.000000	98.165792 
2494.000000	98.166190 
2493.000000	98.166548 
2492.000000	98.166671 
2491.000000	98.166759 
2490.000000	98.167147 
2489.000000	98.167826 
2488.000000	98.168403 
2487.000000	98.168563 
2486.000000	98.168390 
2485.000000	98.168218 
2484.000000	98.168280 
2483.000000	98.168569 
2482.000000	98.168944 
2481.000000	98.169274 
2480.000000	98.169499 
2479.000000	98.169647 
2478.000000	98.169808 
2477.000000	98.170073 
2476.000000	98.170421 
2475.000000	98.170680 
2474.000000	98.170646 
2473.000000	98.170265 
2472.000000	98.169700 
2471.000000	98.169178 
2470.000000	98.168849 
2469.000000	98.168797 
2468.000000	98.169055 
2467.000000	98.169513 
2466.000000	98.169882 
2465.000000	98.169900 
2464.000000	98.169595 
2463.000000	98.169308 
2462.000000	98.169395 
2461.000000	98.169962 
2460.000000	98.170840 
2459.000000	98.171715 
2458.000000	98.172267 
2457.000000	98.172256 
2456.000000	98.171640 
2455.000000	98.170673 
2454.000000	98.169811 
2453.000000	98.169366 
2452.000000	98.169297 
2451.000000	98.169353 
2450.000000	98.169433 
2449.000000	98.169728 
2448.000000	98.170399 
2447.000000	98.171244 
2446.000000	98.171830 
2445.000000	98.171958 
2444.000000	98.171817 
2443.000000	98.171709 
2442.000000	98.171756 
2441.000000	98.171901 
2440.000000	98.172097 
2439.000000	98.172393 
2438.000000	98.172908 
2437.000000	98.173764 
2436.000000	98.174952 
2435.000000	98.176168 
2434.000000	98.176950 
2433.000000	98.177092 
2432.000000	98.176885 
2431.000000	98.176867 
2430.000000	98.177344 
2429.000000	98.178292 
2428.000000	98.179536 
2427.000000	98.180827 
2426.000000	98.181725 
2425.000000	98.181572 
2424.000000	98.180057 
2423.000000	98.177921 
2422.000000	98.176524 
2421.000000	98.176947 
2420.000000	98.179525 
2419.000000	98.183456 
2418.000000	98.187022 
2417.000000	98.189096 
2416.000000	98.190284 
2415.000000	98.191692 
2414.000000	98.193235 
2413.000000	98.194265 
2412.000000	98.195079 
2411.000000	98.196368 
2410.000000	98.197718 
2409.000000	98.198231 
2408.000000	98.198318 
2407.000000	98.199184 
2406.000000	98.200580 
2405.000000	98.200666 
2404.000000	98.198373 
2403.000000	98.194608 
2402.000000	98.191025 
2401.000000	98.188937 
2400.000000	98.189427 
2399.000000	98.193008 
2398.000000	98.198737 
2397.000000	98.204718 
2396.000000	98.209644 
2395.000000	98.212938 
2394.000000	98.213787 
2393.000000	98.211742 
2392.000000	98.208565 
2391.000000	98.207636 
2390.000000	98.210550 
2389.000000	98.215726 
2388.000000	98.221058 
2387.000000	98.226513 
2386.000000	98.233208 
2385.000000	98.240977 
2384.000000	98.247910 
2383.000000	98.251432 
2382.000000	98.248973 
2381.000000	98.238931 
2380.000000	98.222252 
2379.000000	98.202475 
2378.000000	98.183144 
2377.000000	98.165993 
2376.000000	98.153080 
2375.000000	98.148897 
2374.000000	98.156202 
2373.000000	98.171182 
2372.000000	98.185365 
2371.000000	98.194162 
2370.000000	98.199646 
2369.000000	98.204029 
2368.000000	98.204376 
2367.000000	98.197647 
2366.000000	98.186877 
2365.000000	98.177573 
2364.000000	98.170140 
2363.000000	98.164293 
2362.000000	98.163021 
2361.000000	98.166743 
2360.000000	98.173433 
2359.000000	98.178976 
2358.000000	98.179332 
2357.000000	98.175311 
2356.000000	98.167083 
2355.000000	98.158695 
2354.000000	98.148607 
2353.000000	98.134847 
2352.000000	98.118411 
2351.000000	98.100589 
2350.000000	98.089175 
2349.000000	98.090830 
2348.000000	98.109676 
2347.000000	98.140393 
2346.000000	98.167178 
2345.000000	98.183608 
2344.000000	98.188196 
2343.000000	98.188897 
2342.000000	98.185524 
2341.000000	98.177799 
2340.000000	98.171033 
2339.000000	98.167177 
2338.000000	98.165264 
2337.000000	98.159941 
2336.000000	98.155445 
2335.000000	98.154594 
2334.000000	98.159260 
2333.000000	98.162097 
2332.000000	98.166726 
2331.000000	98.170936 
2330.000000	98.180092 
2329.000000	98.185814 
2328.000000	98.191665 
2327.000000	98.198881 
2326.000000	98.207782 
2325.000000	98.216346 
2324.000000	98.221234 
2323.000000	98.224946 
2322.000000	98.226375 
2321.000000	98.222932 
2320.000000	98.217857 
2319.000000	98.213842 
2318.000000	98.216617 
2317.000000	98.218946 
2316.000000	98.221083 
2315.000000	98.218783 
2314.000000	98.219048 
2313.000000	98.219222 
2312.000000	98.224569 
2311.000000	98.232199 
2310.000000	98.244165 
2309.000000	98.253066 
2308.000000	98.258674 
2307.000000	98.259186 
2306.000000	98.259426 
2305.000000	98.258482 
2304.000000	98.259319 
2303.000000	98.260619 
2302.000000	98.265376 
2301.000000	98.269517 
2300.000000	98.273095 
2299.000000	98.271797 
2298.000000	98.266552 
2297.000000	98.254798 
2296.000000	98.240080 
2295.000000	98.225831 
2294.000000	98.216241 
2293.000000	98.209713 
2292.000000	98.203404 
2291.000000	98.196747 
2290.000000	98.191314 
2289.000000	98.188083 
2288.000000	98.185175 
2287.000000	98.181119 
2286.000000	98.175387 
2285.000000	98.169756 
2284.000000	98.165964 
2283.000000	98.165216 
2282.000000	98.165861 
2281.000000	98.164893 
2280.000000	98.160322 
2279.000000	98.152948 
2278.000000	98.145014 
2277.000000	98.138461 
2276.000000	98.135190 
2275.000000	98.135730 
2274.000000	98.138644 
2273.000000	98.141243 
2272.000000	98.142644 
2271.000000	98.143503 
2270.000000	98.143722 
2269.000000	98.142270 
2268.000000	98.139696 
2267.000000	98.138017 
2266.000000	98.137899 
2265.000000	98.137736 
2264.000000	98.136226 
2263.000000	98.133703 
2262.000000	98.130580 
2261.000000	98.126682 
2260.000000	98.122110 
2259.000000	98.117780 
2258.000000	98.114247 
2257.000000	98.111453 
2256.000000	98.109517 
2255.000000	98.108738 
2254.000000	98.108770 
2253.000000	98.108320 
2252.000000	98.106425 
2251.000000	98.103265 
2250.000000	98.099590 
2249.000000	98.095912 
2248.000000	98.092562 
2247.000000	98.089894 
2246.000000	98.087941 
2245.000000	98.086263 
2244.000000	98.084345 
2243.000000	98.082105 
2242.000000	98.079774 
2241.000000	98.077568 
2240.000000	98.075536 
2239.000000	98.073606 
2238.000000	98.071674 
2237.000000	98.069676 
2236.000000	98.067619 
2235.000000	98.065527 
2234.000000	98.063406 
2233.000000	98.061251 
2232.000000	98.059065 
2231.000000	98.056853 
2230.000000	98.054618 
2229.000000	98.052360 
2228.000000	98.050079 
2227.000000	98.047785 
2226.000000	98.045478 
2225.000000	98.043150 
2224.000000	98.040794 
2223.000000	98.038421 
2222.000000	98.036063 
2221.000000	98.033741 
2220.000000	98.031458 
2219.000000	98.029200 
2218.000000	98.026954 
2217.000000	98.024713 
2216.000000	98.022476 
2215.000000	98.020241 
2214.000000	98.017999 
2213.000000	98.015746 
2212.000000	98.013497 
2211.000000	98.011285 
2210.000000	98.009141 
2209.000000	98.007072 
2208.000000	98.005057 
2207.000000	98.003073 
2206.000000	98.001094 
2205.000000	97.999094 
2204.000000	97.997042 
2203.000000	97.994946 
2202.000000	97.993017 
2201.000000	97.991399 
2200.000000	97.989753 
2199.000000	97.987482 
2198.000000	97.984340 
2197.000000	97.980738 
2196.000000	97.977509 
2195.000000	97.975229 
2194.000000	97.973657 
2193.000000	97.972079 
2192.000000	97.970384 
2191.000000	97.969077 
2190.000000	97.967953 
2189.000000	97.965973 
2188.000000	97.963112 
2187.000000	97.960608 
2186.000000	97.958175 
2185.000000	97.953207 
2184.000000	97.945233 
2183.000000	97.939280 
2182.000000	97.940827 
2181.000000	97.948493 
2180.000000	97.954367 
2179.000000	97.952916 
2178.000000	97.946093 
2177.000000	97.939499 
2176.000000	97.936436 
2175.000000	97.936848 
2174.000000	97.939551 
2173.000000	97.943486 
2172.000000	97.948182 
2171.000000	97.953820 
2170.000000	97.959628 
2169.000000	97.962599 
2168.000000	97.960027 
2167.000000	97.953154 
2166.000000	97.945617 
2165.000000	97.938009 
2164.000000	97.927218 
2163.000000	97.912494 
2162.000000	97.899434 
2161.000000	97.895646 
2160.000000	97.903952 
2159.000000	97.920693 
2158.000000	97.939043 
2157.000000	97.954056 
2156.000000	97.965289 
2155.000000	97.974853 
2154.000000	97.983793 
2153.000000	97.991344 
2152.000000	97.997006 
2151.000000	98.000909 
2150.000000	98.002060 
2149.000000	97.999519 
2148.000000	97.996372 
2147.000000	97.998724 
2146.000000	98.008462 
2145.000000	98.020268 
2144.000000	98.028640 
2143.000000	98.034754 
2142.000000	98.042720 
2141.000000	98.052214 
2140.000000	98.059450 
2139.000000	98.063886 
2138.000000	98.069241 
2137.000000	98.077792 
2136.000000	98.087116 
2135.000000	98.092707 
2134.000000	98.091805 
2133.000000	98.085823 
2132.000000	98.080687 
2131.000000	98.082631 
2130.000000	98.091783 
2129.000000	98.101276 
2128.000000	98.104625 
2127.000000	98.102553 
2126.000000	98.100825 
2125.000000	98.103034 
2124.000000	98.107715 
2123.000000	98.111514 
2122.000000	98.112386 
2121.000000	98.110044 
2120.000000	98.105564 
2119.000000	98.100789 
2118.000000	98.097179 
2117.000000	98.095199 
2116.000000	98.094730 
2115.000000	98.095101 
2114.000000	98.094535 
2113.000000	98.091379 
2112.000000	98.086786 
2111.000000	98.084387 
2110.000000	98.085972 
2109.000000	98.089262 
2108.000000	98.091163 
2107.000000	98.091395 
2106.000000	98.091337 
2105.000000	98.091440 
2104.000000	98.091786 
2103.000000	98.093153 
2102.000000	98.095050 
2101.000000	98.094413 
2100.000000	98.089035 
2099.000000	98.081286 
2098.000000	98.076305 
2097.000000	98.076361 
2096.000000	98.079371 
2095.000000	98.082139 
2094.000000	98.083450 
2093.000000	98.083693 
2092.000000	98.083320 
2091.000000	98.082683 
2090.000000	98.082231 
2089.000000	98.081975 
2088.000000	98.081167 
2087.000000	98.078991 
2086.000000	98.075258 
2085.000000	98.070523 
2084.000000	98.065957 
2083.000000	98.062679 
2082.000000	98.060746 
2081.000000	98.059106 
2080.000000	98.057149 
2079.000000	98.055711 
2078.000000	98.055563 
2077.000000	98.055550 
2076.000000	98.053821 
2075.000000	98.050498 
2074.000000	98.047195 
2073.000000	98.043981 
2072.000000	98.038943 
2071.000000	98.031330 
2070.000000	98.023113 
2069.000000	98.016856 
2068.000000	98.013482 
2067.000000	98.012410 
2066.000000	98.012320 
2065.000000	98.011235 
2064.000000	98.007411 
2063.000000	98.001139 
2062.000000	97.995069 
2061.000000	97.991836 
2060.000000	97.991674 
2059.000000	97.992796 
2058.000000	97.993096 
2057.000000	97.991278 
2056.000000	97.986932 
2055.000000	97.980312 
2054.000000	97.972286 
2053.000000	97.964137 
2052.000000	97.957252 
2051.000000	97.952398 
2050.000000	97.949208 
2049.000000	97.946520 
2048.000000	97.943552 
2047.000000	97.940512 
2046.000000	97.937642 
2045.000000	97.934462 
2044.000000	97.930667 
2043.000000	97.927084 
2042.000000	97.924769 
2041.000000	97.923609 
2040.000000	97.922776 
2039.000000	97.922265 
2038.000000	97.922633 
2037.000000	97.923307 
2036.000000	97.922620 
2035.000000	97.919858 
2034.000000	97.916311 
2033.000000	97.914068 
2032.000000	97.914141 
2031.000000	97.915687 
2030.000000	97.916376 
2029.000000	97.914045 
2028.000000	97.908722 
2027.000000	97.902991 
2026.000000	97.899460 
2025.000000	97.898407 
2024.000000	97.898813 
2023.000000	97.900741 
2022.000000	97.905061 
2021.000000	97.910929 
2020.000000	97.915334 
2019.000000	97.915803 
2018.000000	97.912428 
2017.000000	97.907579 
2016.000000	97.904101 
2015.000000	97.903274 
2014.000000	97.903783 
2013.000000	97.902630 
2012.000000	97.898578 
2011.000000	97.894749 
2010.000000	97.895819 
2009.000000	97.902671 
2008.000000	97.911307 
2007.000000	97.917429 
2006.000000	97.920416 
2005.000000	97.921591 
2004.000000	97.921387 
2003.000000	97.920062 
2002.000000	97.919475 
2001.000000	97.921244 
2000.000000	97.923957 
1999.000000	97.923837 
1998.000000	97.918397 
1997.000000	97.908945 
1996.000000	97.899685 
1995.000000	97.894523 
1994.000000	97.894430 
1993.000000	97.897135 
1992.000000	97.899062 
1991.000000	97.898780 
1990.000000	97.898193 
1989.000000	97.899881 
1988.000000	97.903757 
1987.000000	97.906652 
1986.000000	97.905288 
1985.000000	97.899582 
1984.000000	97.892742 
1983.000000	97.887963 
1982.000000	97.885576 
1981.000000	97.883887 
1980.000000	97.882578 
1979.000000	97.883378 
1978.000000	97.886844 
1977.000000	97.890530 
1976.000000	97.891733 
1975.000000	97.891062 
1974.000000	97.891596 
1973.000000	97.895555 
1972.000000	97.902768 
1971.000000	97.911368 
1970.000000	97.918654 
1969.000000	97.922078 
1968.000000	97.920798 
1967.000000	97.916702 
1966.000000	97.913491 
1965.000000	97.913953 
1964.000000	97.918578 
1963.000000	97.926241 
1962.000000	97.935125 
1961.000000	97.943130 
1960.000000	97.948462 
1959.000000	97.950549 
1958.000000	97.950616 
1957.000000	97.951156 
1956.000000	97.953987 
1955.000000	97.958791 
1954.000000	97.963606 
1953.000000	97.966899 
1952.000000	97.968778 
1951.000000	97.970369 
1950.000000	97.972598 
1949.000000	97.975808 
1948.000000	97.980101 
1947.000000	97.985112 
1946.000000	97.989706 
1945.000000	97.992825 
1944.000000	97.994598 
1943.000000	97.996185 
1942.000000	97.998530 
1941.000000	98.001622 
1940.000000	98.005001 
1939.000000	98.008318 
1938.000000	98.011452 
1937.000000	98.014504 
1936.000000	98.017674 
1935.000000	98.020980 
1934.000000	98.024163 
1933.000000	98.027055 
1932.000000	98.029880 
1931.000000	98.033027 
1930.000000	98.036539 
1929.000000	98.039886 
1928.000000	98.042659 
1927.000000	98.044988 
1926.000000	98.047152 
1925.000000	98.049012 
1924.000000	98.050471 
1923.000000	98.052030 
1922.000000	98.054067 
1921.000000	98.056227 
1920.000000	98.058016 
1919.000000	98.059591 
1918.000000	98.061372 
1917.000000	98.063190 
1916.000000	98.064733 
1915.000000	98.066288 
1914.000000	98.068209 
1913.000000	98.070200 
1912.000000	98.071677 
1911.000000	98.072719 
1910.000000	98.073870 
1909.000000	98.075328 
1908.000000	98.076977 
1907.000000	98.078656 
1906.000000	98.080155 
1905.000000	98.081137 
1904.000000	98.081575 
1903.000000	98.082062 
1902.000000	98.083094 
1901.000000	98.084492 
1900.000000	98.085834 
1899.000000	98.087000 
1898.000000	98.088141 
1897.000000	98.089284 
1896.000000	98.090307 
1895.000000	98.091213 
1894.000000	98.092080 
1893.000000	98.092903 
1892.000000	98.093686 
1891.000000	98.094548 
1890.000000	98.095559 
1889.000000	98.096629 
1888.000000	98.097649 
1887.000000	98.098631 
1886.000000	98.099614 
1885.000000	98.100581 
1884.000000	98.101519 
1883.000000	98.102440 
1882.000000	98.103378 
1881.000000	98.104365 
1880.000000	98.105412 
1879.000000	98.106508 
1878.000000	98.107619 
1877.000000	98.108735 
1876.000000	98.109880 
1875.000000	98.111083 
1874.000000	98.112347 
1873.000000	98.113626 
1872.000000	98.114875 
1871.000000	98.116099 
1870.000000	98.117315 
1869.000000	98.118507 
1868.000000	98.119678 
1867.000000	98.120885 
1866.000000	98.122142 
1865.000000	98.123400 
1864.000000	98.124626 
1863.000000	98.125847 
1862.000000	98.127141 
1861.000000	98.128530 
1860.000000	98.129970 
1859.000000	98.131434 
1858.000000	98.132930 
1857.000000	98.134435 
1856.000000	98.135927 
1855.000000	98.137412 
1854.000000	98.138900 
1853.000000	98.140391 
1852.000000	98.141888 
1851.000000	98.143398 
1850.000000	98.144922 
1849.000000	98.146453 
1848.000000	98.147981 
1847.000000	98.149500 
1846.000000	98.151007 
1845.000000	98.152499 
1844.000000	98.153972 
1843.000000	98.155433 
1842.000000	98.156890 
1841.000000	98.158339 
1840.000000	98.159771 
1839.000000	98.161180 
1838.000000	98.162555 
1837.000000	98.163882 
1836.000000	98.165154 
1835.000000	98.166380 
1834.000000	98.167575 
1833.000000	98.168743 
1832.000000	98.169876 
1831.000000	98.170973 
1830.000000	98.172040 
1829.000000	98.173094 
1828.000000	98.174144 
1827.000000	98.175193 
1826.000000	98.176234 
1825.000000	98.177254 
1824.000000	98.178234 
1823.000000	98.179163 
1822.000000	98.180049 
1821.000000	98.180898 
1820.000000	98.181716 
1819.000000	98.182506 
1818.000000	98.183273 
1817.000000	98.184021 
1816.000000	98.184737 
1815.000000	98.185414 
1814.000000	98.186051 
1813.000000	98.186650 
1812.000000	98.187208 
1811.000000	98.187725 
1810.000000	98.188214 
1809.000000	98.188685 
1808.000000	98.189141 
1807.000000	98.189577 
1806.000000	98.189992 
1805.000000	98.190389 
1804.000000	98.190772 
1803.000000	98.191146 
1802.000000	98.191518 
1801.000000	98.191883 
1800.000000	98.192227 
1799.000000	98.192548 
1798.000000	98.192861 
1797.000000	98.193174 
1796.000000	98.193486 
1795.000000	98.193783 
1794.000000	98.194072 
1793.000000	98.194378 
1792.000000	98.194688 
1791.000000	98.194978 
1790.000000	98.195281 
1789.000000	98.195582 
1788.000000	98.195828 
1787.000000	98.196017 
1786.000000	98.196219 
1785.000000	98.196450 
1784.000000	98.196607 
1783.000000	98.196639 
1782.000000	98.196582 
1781.000000	98.196577 
1780.000000	98.196760 
1779.000000	98.197112 
1778.000000	98.197555 
1777.000000	98.197946 
1776.000000	98.198212 
1775.000000	98.198269 
1774.000000	98.198042 
1773.000000	98.197577 
1772.000000	98.196959 
1771.000000	98.196470 
1770.000000	98.196522 
1769.000000	98.197122 
1768.000000	98.198022 
1767.000000	98.198740 
1766.000000	98.198869 
1765.000000	98.198502 
1764.000000	98.198009 
1763.000000	98.197719 
1762.000000	98.197598 
1761.000000	98.197618 
1760.000000	98.197676 
1759.000000	98.197440 
1758.000000	98.196926 
1757.000000	98.196570 
1756.000000	98.196809 
1755.000000	98.197025 
1754.000000	98.196245 
1753.000000	98.194574 
1752.000000	98.193432 
1751.000000	98.193570 
1750.000000	98.194329 
1749.000000	98.194617 
1748.000000	98.193999 
1747.000000	98.192750 
1746.000000	98.191026 
1745.000000	98.189802 
1744.000000	98.190054 
1743.000000	98.191202 
1742.000000	98.191841 
1741.000000	98.191404 
1740.000000	98.190446 
1739.000000	98.190192 
1738.000000	98.191278 
1737.000000	98.192218 
1736.000000	98.192208 
1735.000000	98.193020 
1734.000000	98.193990 
1733.000000	98.193223 
1732.000000	98.192908 
1731.000000	98.193689 
1730.000000	98.195598 
1729.000000	98.197914 
1728.000000	98.199227 
1727.000000	98.198875 
1726.000000	98.197583 
1725.000000	98.197096 
1724.000000	98.197545 
1723.000000	98.198077 
1722.000000	98.198781 
1721.000000	98.199249 
1720.000000	98.198648 
1719.000000	98.197494 
1718.000000	98.197565 
1717.000000	98.198275 
1716.000000	98.197674 
1715.000000	98.196433 
1714.000000	98.196418 
1713.000000	98.197094 
1712.000000	98.196327 
1711.000000	98.194345 
1710.000000	98.193140 
1709.000000	98.193030 
1708.000000	98.192361 
1707.000000	98.190288 
1706.000000	98.188111 
1705.000000	98.186615 
1704.000000	98.184932 
1703.000000	98.182297 
1702.000000	98.180053 
1701.000000	98.179875 
1700.000000	98.178775 
1699.000000	98.175648 
1698.000000	98.173429 
1697.000000	98.171583 
1696.000000	98.169380 
1695.000000	98.167037 
1694.000000	98.165232 
1693.000000	98.163233 
1692.000000	98.160320 
1691.000000	98.157043 
1690.000000	98.154000 
1689.000000	98.151149 
1688.000000	98.148302 
1687.000000	98.145252 
1686.000000	98.142235 
1685.000000	98.139439 
1684.000000	98.136417 
1683.000000	98.133291 
1682.000000	98.130372 
1681.000000	98.127368 
1680.000000	98.124380 
1679.000000	98.121486 
1678.000000	98.118566 
1677.000000	98.115547 
1676.000000	98.112503 
1675.000000	98.109447 
1674.000000	98.106310 
1673.000000	98.103123 
1672.000000	98.099938 
1671.000000	98.096815 
1670.000000	98.093761 
1669.000000	98.090734 
1668.000000	98.087792 
1667.000000	98.084958 
1666.000000	98.082162 
1665.000000	98.079362 
1664.000000	98.076577 
1663.000000	98.073843 
1662.000000	98.071139 
1661.000000	98.068436 
1660.000000	98.065771 
1659.000000	98.063160 
1658.000000	98.060562 
1657.000000	98.057960 
1656.000000	98.055393 
1655.000000	98.052970 
1654.000000	98.050764 
1653.000000	98.048357 
1652.000000	98.045690 
1651.000000	98.043546 
1650.000000	98.041769 
1649.000000	98.039931 
1648.000000	98.038119 
1647.000000	98.036498 
1646.000000	98.034962 
1645.000000	98.033655 
1644.000000	98.032540 
1643.000000	98.031505 
1642.000000	98.030502 
1641.000000	98.029522 
1640.000000	98.028646 
1639.000000	98.027846 
1638.000000	98.027100 
1637.000000	98.026453 
1636.000000	98.025816 
1635.000000	98.025001 
1634.000000	98.024425 
1633.000000	98.024216 
1632.000000	98.023989 
1631.000000	98.023837 
1630.000000	98.023870 
1629.000000	98.023905 
1628.000000	98.023844 
1627.000000	98.023980 
1626.000000	98.024403 
1625.000000	98.024876 
1624.000000	98.025270 
1623.000000	98.025687 
1622.000000	98.026242 
1621.000000	98.026941 
1620.000000	98.027732 
1619.000000	98.028607 
1618.000000	98.029578 
1617.000000	98.030220 
1616.000000	98.030535 
1615.000000	98.031440 
1614.000000	98.032991 
1613.000000	98.034449 
1612.000000	98.035642 
1611.000000	98.036903 
1610.000000	98.038200 
1609.000000	98.039411 
1608.000000	98.041055 
1607.000000	98.043260 
1606.000000	98.045463 
1605.000000	98.047217 
1604.000000	98.048819 
1603.000000	98.050573 
1602.000000	98.052375 
1601.000000	98.054141 
1600.000000	98.055956 
1599.000000	98.057796 
1598.000000	98.059580 
1597.000000	98.061342 
1596.000000	98.063138 
1595.000000	98.064969 
1594.000000	98.066821 
1593.000000	98.068690 
1592.000000	98.070572 
1591.000000	98.072460 
1590.000000	98.074350 
1589.000000	98.076236 
1588.000000	98.078114 
1587.000000	98.079982 
1586.000000	98.081836 
1585.000000	98.083668 
1584.000000	98.085481 
1583.000000	98.087279 
1582.000000	98.089055 
1581.000000	98.090798 
1580.000000	98.092506 
1579.000000	98.094184 
1578.000000	98.095834 
1577.000000	98.097450 
1576.000000	98.099033 
1575.000000	98.100589 
1574.000000	98.102116 
1573.000000	98.103597 
1572.000000	98.105013 
1571.000000	98.106355 
1570.000000	98.107615 
1569.000000	98.108787 
1568.000000	98.109880 
1567.000000	98.110901 
1566.000000	98.111842 
1565.000000	98.112696 
1564.000000	98.113468 
1563.000000	98.114172 
1562.000000	98.114821 
1561.000000	98.115432 
1560.000000	98.116017 
1559.000000	98.116549 
1558.000000	98.116990 
1557.000000	98.117355 
1556.000000	98.117660 
1555.000000	98.117909 
1554.000000	98.118097 
1553.000000	98.118208 
1552.000000	98.118229 
1551.000000	98.118151 
1550.000000	98.117980 
1549.000000	98.117727 
1548.000000	98.117394 
1547.000000	98.116984 
1546.000000	98.116498 
1545.000000	98.115935 
1544.000000	98.115289 
1543.000000	98.114552 
1542.000000	98.113718 
1541.000000	98.112773 
1540.000000	98.111706 
1539.000000	98.110535 
1538.000000	98.109290 
1537.000000	98.107979 
1536.000000	98.106598 
1535.000000	98.105158 
1534.000000	98.103671 
1533.000000	98.102140 
1532.000000	98.100562 
1531.000000	98.098936 
1530.000000	98.097267 
1529.000000	98.095555 
1528.000000	98.093802 
1527.000000	98.092018 
1526.000000	98.090199 
1525.000000	98.088338 
1524.000000	98.086444 
1523.000000	98.084478 
1522.000000	98.082464 
1521.000000	98.080494 
1520.000000	98.078513 
1519.000000	98.076253 
1518.000000	98.073487 
1517.000000	98.070669 
1516.000000	98.068417 
1515.000000	98.066736 
1514.000000	98.065082 
1513.000000	98.063220 
1512.000000	98.060875 
1511.000000	98.057545 
1510.000000	98.053366 
1509.000000	98.049431 
1508.000000	98.047569 
1507.000000	98.047434 
1506.000000	98.045837 
1505.000000	98.042387 
1504.000000	98.038244 
1503.000000	98.033116 
1502.000000	98.027363 
1501.000000	98.022371 
1500.000000	98.018290 
1499.000000	98.013696 
1498.000000	98.008656 
1497.000000	98.005341 
1496.000000	98.003897 
1495.000000	98.004075 
1494.000000	98.006020 
1493.000000	98.008453 
1492.000000	98.010266 
1491.000000	98.011871 
1490.000000	98.013672 
1489.000000	98.013495 
1488.000000	98.008087 
1487.000000	97.999348 
1486.000000	97.992297 
1485.000000	97.986410 
1484.000000	97.979840 
1483.000000	97.973199 
1482.000000	97.968781 
1481.000000	97.966813 
1480.000000	97.964047 
1479.000000	97.959139 
1478.000000	97.954396 
1477.000000	97.951762 
1476.000000	97.949037 
1475.000000	97.944776 
1474.000000	97.940501 
1473.000000	97.937797 
1472.000000	97.935564 
1471.000000	97.932410 
1470.000000	97.928484 
1469.000000	97.923254 
1468.000000	97.916585 
1467.000000	97.910272 
1466.000000	97.906806 
1465.000000	97.906530 
1464.000000	97.907373 
1463.000000	97.906254 
1462.000000	97.902184 
1461.000000	97.895881 
1460.000000	97.888853 
1459.000000	97.882939 
1458.000000	97.880430 
1457.000000	97.881333 
1456.000000	97.882215 
1455.000000	97.880378 
1454.000000	97.874427 
1453.000000	97.867356 
1452.000000	97.863032 
1451.000000	97.862152 
1450.000000	97.863778 
1449.000000	97.867541 
1448.000000	97.871842 
1447.000000	97.874403 
1446.000000	97.873864 
1445.000000	97.871949 
1444.000000	97.871016 
1443.000000	97.869837 
1442.000000	97.867217 
1441.000000	97.863698 
1440.000000	97.859566 
1439.000000	97.853586 
1438.000000	97.849063 
1437.000000	97.851901 
1436.000000	97.859069 
1435.000000	97.861250 
1434.000000	97.856324 
1433.000000	97.849722 
1432.000000	97.846639 
1431.000000	97.846527 
1430.000000	97.846050 
1429.000000	97.845012 
1428.000000	97.843187 
1427.000000	97.839618 
1426.000000	97.834221 
1425.000000	97.831611 
1424.000000	97.834957 
1423.000000	97.836831 
1422.000000	97.829928 
1421.000000	97.817942 
1420.000000	97.810946 
1419.000000	97.808886 
1418.000000	97.804981 
1417.000000	97.799562 
1416.000000	97.794118 
1415.000000	97.787299 
1414.000000	97.777261 
1413.000000	97.765514 
1412.000000	97.755936 
1411.000000	97.749220 
1410.000000	97.743769 
1409.000000	97.739136 
1408.000000	97.735155 
1407.000000	97.732890 
1406.000000	97.734021 
1405.000000	97.740868 
1404.000000	97.753130 
1403.000000	97.763934 
1402.000000	97.768657 
1401.000000	97.771548 
1400.000000	97.780378 
1399.000000	97.794450 
1398.000000	97.803837 
1397.000000	97.801586 
1396.000000	97.790780 
1395.000000	97.781678 
1394.000000	97.782419 
1393.000000	97.794550 
1392.000000	97.813146 
1391.000000	97.829904 
1390.000000	97.839624 
1389.000000	97.842924 
1388.000000	97.843569 
1387.000000	97.843782 
1386.000000	97.843074 
1385.000000	97.842006 
1384.000000	97.843666 
1383.000000	97.849288 
1382.000000	97.856638 
1381.000000	97.862793 
1380.000000	97.868167 
1379.000000	97.875532 
1378.000000	97.885198 
1377.000000	97.894841 
1376.000000	97.903496 
1375.000000	97.912954 
1374.000000	97.924573 
1373.000000	97.937846 
1372.000000	97.951138 
1371.000000	97.963546 
1370.000000	97.974849 
1369.000000	97.985394 
1368.000000	97.995894 
1367.000000	98.005177 
1366.000000	98.011736 
1365.000000	98.016755 
1364.000000	98.023959 
1363.000000	98.035433 
1362.000000	98.048984 
1361.000000	98.061206 
1360.000000	98.071844 
1359.000000	98.082585 
1358.000000	98.093183 
1357.000000	98.101842 
1356.000000	98.108428 
1355.000000	98.114328 
1354.000000	98.120646 
1353.000000	98.127704 
1352.000000	98.135267 
1351.000000	98.143835 
1350.000000	98.152443 
1349.000000	98.158824 
1348.000000	98.162569 
1347.000000	98.165081 
1346.000000	98.168316 
1345.000000	98.172490 
1344.000000	98.175885 
1343.000000	98.176414 
1342.000000	98.174381 
1341.000000	98.173302 
1340.000000	98.177100 
1339.000000	98.185425 
1338.000000	98.193708 
1337.000000	98.198441 
1336.000000	98.199591 
1335.000000	98.198296 
1334.000000	98.195519 
1333.000000	98.192830 
1332.000000	98.192015 
1331.000000	98.193152 
1330.000000	98.194664 
1329.000000	98.195855 
1328.000000	98.197642 
1327.000000	98.200448 
1326.000000	98.202717 
1325.000000	98.202847 
1324.000000	98.200838 
1323.000000	98.197014 
1322.000000	98.191785 
1321.000000	98.186888 
1320.000000	98.184947 
1319.000000	98.186742 
1318.000000	98.190414 
1317.000000	98.193615 
1316.000000	98.195131 
1315.000000	98.194468 
1314.000000	98.192056 
1313.000000	98.190106 
1312.000000	98.190993 
1311.000000	98.194140 
1310.000000	98.196418 
1309.000000	98.196177 
1308.000000	98.195090 
1307.000000	98.195724 
1306.000000	98.198375 
1305.000000	98.201544 
1304.000000	98.203972 
1303.000000	98.204717 
1302.000000	98.203035 
1301.000000	98.199384 
1300.000000	98.195915 
1299.000000	98.194754 
1298.000000	98.196098 
1297.000000	98.198254 
1296.000000	98.199249 
1295.000000	98.198290 
1294.000000	98.196331 
1293.000000	98.195342 
1292.000000	98.196270 
1291.000000	98.197990 
1290.000000	98.199046 
1289.000000	98.199751 
1288.000000	98.201106 
1287.000000	98.202359 
1286.000000	98.201682 
1285.000000	98.199262 
1284.000000	98.197600 
1283.000000	98.198212 
1282.000000	98.199636 
1281.000000	98.199447 
1280.000000	98.197266 
1279.000000	98.194913 
1278.000000	98.194369 
1277.000000	98.196104 
1276.000000	98.198586 
1275.000000	98.199278 
1274.000000	98.196898 
1273.000000	98.192878 
1272.000000	98.189694 
1271.000000	98.187850 
1270.000000	98.185591 
1269.000000	98.181553 
1268.000000	98.176236 
1267.000000	98.170609 
1266.000000	98.164912 
1265.000000	98.159483 
1264.000000	98.155411 
1263.000000	98.153426 
1262.000000	98.152727 
1261.000000	98.151697 
1260.000000	98.149714 
1259.000000	98.147617 
1258.000000	98.146293 
1257.000000	98.145075 
1256.000000	98.141831 
1255.000000	98.135471 
1254.000000	98.128264 
1253.000000	98.124120 
1252.000000	98.123868 
1251.000000	98.123996 
1250.000000	98.121585 
1249.000000	98.118911 
1248.000000	98.120525 
1247.000000	98.126696 
1246.000000	98.132559 
1245.000000	98.133550 
1244.000000	98.129307 
1243.000000	98.122890 
1242.000000	98.118907 
1241.000000	98.121759 
1240.000000	98.132209 
1239.000000	98.144842 
1238.000000	98.151825 
1237.000000	98.150166 
1236.000000	98.143093 
1235.000000	98.134594 
1234.000000	98.125633 
1233.000000	98.116314 
1232.000000	98.108250 
1231.000000	98.102798 
1230.000000	98.099386 
1229.000000	98.097257 
1228.000000	98.096809 
1227.000000	98.097696 
1226.000000	98.097516 
1225.000000	98.094178 
1224.000000	98.088295 
1223.000000	98.082015 
1222.000000	98.076511 
1221.000000	98.071556 
1220.000000	98.066514 
1219.000000	98.060994 
1218.000000	98.055282 
1217.000000	98.050147 
1216.000000	98.044948 
1215.000000	98.036524 
1214.000000	98.022419 
1213.000000	98.005400 
1212.000000	97.991825 
1211.000000	97.984174 
1210.000000	97.977493 
1209.000000	97.965062 
1208.000000	97.945734 
1207.000000	97.924148 
1206.000000	97.905051 
1205.000000	97.888794 
1204.000000	97.871974 
1203.000000	97.851300 
1202.000000	97.826820 
1201.000000	97.801686 
1200.000000	97.778461 
1199.000000	97.756204 
1198.000000	97.732259 
1197.000000	97.706372 
1196.000000	97.681276 
1195.000000	97.659325 
1194.000000	97.640046 
1193.000000	97.621005 
1192.000000	97.599622 
1191.000000	97.574338 
1190.000000	97.545694 
1189.000000	97.516108 
1188.000000	97.486973 
1187.000000	97.456438 
1186.000000	97.422087 
1185.000000	97.385095 
1184.000000	97.349104 
1183.000000	97.315332 
1182.000000	97.281823 
1181.000000	97.247591 
1180.000000	97.213923 
1179.000000	97.180563 
1178.000000	97.144175 
1177.000000	97.102590 
1176.000000	97.057801 
1175.000000	97.012964 
1174.000000	96.969014 
1173.000000	96.926207 
1172.000000	96.886073 
1171.000000	96.848889 
1170.000000	96.811514 
1169.000000	96.771152 
1168.000000	96.730022 
1167.000000	96.693442 
1166.000000	96.664622 
1165.000000	96.644250 
1164.000000	96.633796 
1163.000000	96.635362 
1162.000000	96.647858 
1161.000000	96.665841 
1160.000000	96.682560 
1159.000000	96.692817 
1158.000000	96.693616 
1157.000000	96.684057 
1156.000000	96.664567 
1155.000000	96.635497 
1154.000000	96.597503 
1153.000000	96.554044 
1152.000000	96.511481 
1151.000000	96.474517 
1150.000000	96.442605 
1149.000000	96.412731 
1148.000000	96.384087 
1147.000000	96.357391 
1146.000000	96.330987 
1145.000000	96.301137 
1144.000000	96.266360 
1143.000000	96.229028 
1142.000000	96.192447 
1141.000000	96.158180 
1140.000000	96.126205 
1139.000000	96.095744 
1138.000000	96.065668 
1137.000000	96.035339 
1136.000000	96.004838 
1135.000000	95.973433 
1134.000000	95.938945 
1133.000000	95.900349 
1132.000000	95.860041 
1131.000000	95.821515 
1130.000000	95.785342 
1129.000000	95.749249 
1128.000000	95.711429 
1127.000000	95.671716 
1126.000000	95.630064 
1125.000000	95.586036 
1124.000000	95.539776 
1123.000000	95.492109 
1122.000000	95.443949 
1121.000000	95.396559 
1120.000000	95.351288 
1119.000000	95.307745 
1118.000000	95.263708 
1117.000000	95.218617 
1116.000000	95.175581 
1115.000000	95.137771 
1114.000000	95.104326 
1113.000000	95.072071 
1112.000000	95.039674 
1111.000000	95.007399 
1110.000000	94.974412 
1109.000000	94.939455 
1108.000000	94.902790 
1107.000000	94.865028 
1106.000000	94.825367 
1105.000000	94.783450 
1104.000000	94.741557 
1103.000000	94.702070 
1102.000000	94.664049 
1101.000000	94.625177 
1100.000000	94.585524 
1099.000000	94.547039 
1098.000000	94.510750 
1097.000000	94.476785 
1096.000000	94.445251 
1095.000000	94.413800 
1094.000000	94.376656 
1093.000000	94.329981 
1092.000000	94.277044 
1091.000000	94.224936 
1090.000000	94.177381 
1089.000000	94.133537 
1088.000000	94.091536 
1087.000000	94.049131 
1086.000000	94.002913 
1085.000000	93.951544 
1084.000000	93.898656 
1083.000000	93.848555 
1082.000000	93.800635 
1081.000000	93.752362 
1080.000000	93.705773 
1079.000000	93.665374 
1078.000000	93.630551 
1077.000000	93.595646 
1076.000000	93.557296 
1075.000000	93.516683 
1074.000000	93.475421 
1073.000000	93.434284 
1072.000000	93.394311 
1071.000000	93.352251 
1070.000000	93.295830 
1069.000000	93.212357 
1068.000000	93.104670 
1067.000000	92.993358 
1066.000000	92.899927 
1065.000000	92.830891 
1064.000000	92.779079 
1063.000000	92.732519 
1062.000000	92.678118 
1061.000000	92.603900 
1060.000000	92.505959 
1059.000000	92.393520 
1058.000000	92.283081 
1057.000000	92.186005 
1056.000000	92.102315 
1055.000000	92.024726 
1054.000000	91.946701 
1053.000000	91.867450 
1052.000000	91.790344 
1051.000000	91.717163 
1050.000000	91.645529 
1049.000000	91.572677 
1048.000000	91.498769 
1047.000000	91.424799 
1046.000000	91.350969 
1045.000000	91.279363 
1044.000000	91.213968 
1043.000000	91.154648 
1042.000000	91.094776 
1041.000000	91.028851 
1040.000000	90.959495 
1039.000000	90.893526 
1038.000000	90.835143 
1037.000000	90.786670 
1036.000000	90.750724 
1035.000000	90.726057 
1034.000000	90.705615 
1033.000000	90.684086 
1032.000000	90.662304 
1031.000000	90.639045 
1030.000000	90.606452 
1029.000000	90.562697 
1028.000000	90.522645 
1027.000000	90.504463 
1026.000000	90.508863 
1025.000000	90.520938 
1024.000000	90.529198 
1023.000000	90.532442 
1022.000000	90.530810 
1021.000000	90.522478 
1020.000000	90.509278 
1019.000000	90.495792 
1018.000000	90.482577 
1017.000000	90.467901 
1016.000000	90.454504 
1015.000000	90.446157 
1014.000000	90.439517 
1013.000000	90.428536 
1012.000000	90.415206 
1011.000000	90.406508 
1010.000000	90.402585 
1009.000000	90.397878 
1008.000000	90.392629 
1007.000000	90.393026 
1006.000000	90.400728 
1005.000000	90.412249 
1004.000000	90.427854 
1003.000000	90.450348 
1002.000000	90.475183 
1001.000000	90.492880 
1000.000000	90.502987 
999.000000	 90.515869 
998.000000	 90.538730 
997.000000	 90.568552 
996.000000	 90.600102 
995.000000	 90.632525 
994.000000	 90.666425 
993.000000	 90.701904 
992.000000	 90.740497 
991.000000	 90.782282 
990.000000	 90.821608 
989.000000	 90.853337 
988.000000	 90.882353 
987.000000	 90.918253 
986.000000	 90.961831 
985.000000	 91.006442 
984.000000	 91.051730 
983.000000	 91.104638 
982.000000	 91.165892 
981.000000	 91.226723 
980.000000	 91.281900 
979.000000	 91.336518 
978.000000	 91.396286 
977.000000	 91.460112 
976.000000	 91.526038 
975.000000	 91.596258 
974.000000	 91.671706 
973.000000	 91.748332 
972.000000	 91.823155 
971.000000	 91.898909 
970.000000	 91.979180 
969.000000	 92.063174 
968.000000	 92.147770 
967.000000	 92.230999 
966.000000	 92.312202 
965.000000	 92.392565 
964.000000	 92.475981 
963.000000	 92.565101 
962.000000	 92.656227 
961.000000	 92.742499 
960.000000	 92.821959 
959.000000	 92.897875 
958.000000	 92.971770 
957.000000	 93.041623 
956.000000	 93.107217 
955.000000	 93.172068 
954.000000	 93.239144 
953.000000	 93.308470 
952.000000	 93.378743 
951.000000	 93.447210 
950.000000	 93.508919 
949.000000	 93.561059 
948.000000	 93.607419 
947.000000	 93.653834 
946.000000	 93.699934 
945.000000	 93.740628 
944.000000	 93.774883 
943.000000	 93.807325 
942.000000	 93.841164 
941.000000	 93.875341 
940.000000	 93.909451 
939.000000	 93.945856 
938.000000	 93.985423 
937.000000	 94.025695 
936.000000	 94.064678 
935.000000	 94.102744 
934.000000	 94.140139 
933.000000	 94.176438 
932.000000	 94.213023 
931.000000	 94.252661 
930.000000	 94.295913 
929.000000	 94.340509 
928.000000	 94.384230 
927.000000	 94.425928 
926.000000	 94.464326 
925.000000	 94.498241 
924.000000	 94.527194 
923.000000	 94.550105 
922.000000	 94.565635 
921.000000	 94.576318 
920.000000	 94.589333 
919.000000	 94.609400 
918.000000	 94.632902 
917.000000	 94.652430 
916.000000	 94.665314 
915.000000	 94.674859 
914.000000	 94.686137 
913.000000	 94.704036 
912.000000	 94.732203 
911.000000	 94.769553 
910.000000	 94.810391 
909.000000	 94.852111 
908.000000	 94.899532 
907.000000	 94.957597 
906.000000	 95.024218 
905.000000	 95.095131 
904.000000	 95.170887 
903.000000	 95.252501 
902.000000	 95.334529 
901.000000	 95.410070 
900.000000	 95.480126 
899.000000	 95.551839 
898.000000	 95.629526 
897.000000	 95.712295 
896.000000	 95.796616 
895.000000	 95.875531 
894.000000	 95.940245 
893.000000	 95.989655 
892.000000	 96.035104 
891.000000	 96.088811 
890.000000	 96.149900 
889.000000	 96.208124 
888.000000	 96.257652 
887.000000	 96.300092 
886.000000	 96.337947 
885.000000	 96.373183 
884.000000	 96.409131 
883.000000	 96.445338 
882.000000	 96.473907 
881.000000	 96.490870 
880.000000	 96.508699 
879.000000	 96.545866 
878.000000	 96.603825 
877.000000	 96.665240 
876.000000	 96.715680 
875.000000	 96.756320 
874.000000	 96.794226 
873.000000	 96.832593 
872.000000	 96.874583 
871.000000	 96.925940 
870.000000	 96.987389 
869.000000	 97.050991 
868.000000	 97.108625 
867.000000	 97.159458 
866.000000	 97.207107 
865.000000	 97.255116 
864.000000	 97.307466 
863.000000	 97.367857 
862.000000	 97.434828 
861.000000	 97.501075 
860.000000	 97.560064 
859.000000	 97.611009 
858.000000	 97.657252 
857.000000	 97.702931 
856.000000	 97.750858 
855.000000	 97.799579 
854.000000	 97.842238 
853.000000	 97.872182 
852.000000	 97.890126 
851.000000	 97.903254 
850.000000	 97.918389 
849.000000	 97.939200 
848.000000	 97.967424 
847.000000	 98.000860 
846.000000	 98.031516 
845.000000	 98.052169 
844.000000	 98.064537 
843.000000	 98.075962 
842.000000	 98.089157 
841.000000	 98.100696 
840.000000	 98.107770 
839.000000	 98.109405 
838.000000	 98.102480 
837.000000	 98.084897 
836.000000	 98.063379 
835.000000	 98.050258 
834.000000	 98.049908 
833.000000	 98.054611 
832.000000	 98.055633 
831.000000	 98.051902 
830.000000	 98.046037 
829.000000	 98.039445 
828.000000	 98.035816 
827.000000	 98.043243 
826.000000	 98.066504 
825.000000	 98.100243 
824.000000	 98.133919 
823.000000	 98.160565 
822.000000	 98.178734 
821.000000	 98.190737 
820.000000	 98.201760 
819.000000	 98.216408 
818.000000	 98.232618 
817.000000	 98.240978 
816.000000	 98.232137 
815.000000	 98.204516 
814.000000	 98.165012 
813.000000	 98.122834 
812.000000	 98.081157 
811.000000	 98.032459 
810.000000	 97.962764 
809.000000	 97.862786 
808.000000	 97.734893 
807.000000	 97.589287 
806.000000	 97.436319 
805.000000	 97.283932 
804.000000	 97.137610 
803.000000	 96.997500 
802.000000	 96.859401 
801.000000	 96.725712 
800.000000	 96.612762 
799.000000	 96.539213 
798.000000	 96.507959 
797.000000	 96.505687 
796.000000	 96.517863 
795.000000	 96.536583 
794.000000	 96.556811 
793.000000	 96.575996 
792.000000	 96.597875 
791.000000	 96.627513 
790.000000	 96.661463 
789.000000	 96.689570 
788.000000	 96.705477 
787.000000	 96.708148 
786.000000	 96.695369 
785.000000	 96.664545 
784.000000	 96.618770 
783.000000	 96.563743 
782.000000	 96.500665 
781.000000	 96.431644 
780.000000	 96.369746 
779.000000	 96.331569 
778.000000	 96.319903 
777.000000	 96.325313 
776.000000	 96.344943 
775.000000	 96.386249 
774.000000	 96.449394 
773.000000	 96.519458 
772.000000	 96.581867 
771.000000	 96.635466 
770.000000	 96.685423 
769.000000	 96.732800 
768.000000	 96.775946 
767.000000	 96.813370 
766.000000	 96.840582 
765.000000	 96.852579 
764.000000	 96.854433 
763.000000	 96.861702 
762.000000	 96.884848 
761.000000	 96.919287 
760.000000	 96.954238 
759.000000	 96.984235 
758.000000	 97.008770 
757.000000	 97.029403 
756.000000	 97.052982 
755.000000	 97.090108 
754.000000	 97.142828 
753.000000	 97.197781 
752.000000	 97.237004 
751.000000	 97.253647 
750.000000	 97.255701 
749.000000	 97.258658 
748.000000	 97.275960 
747.000000	 97.310793 
746.000000	 97.352946 
745.000000	 97.387531 
744.000000	 97.410215 
743.000000	 97.430550 
742.000000	 97.459036 
741.000000	 97.496211 
740.000000	 97.536591 
739.000000	 97.577541 
738.000000	 97.620238 
737.000000	 97.664981 
736.000000	 97.708747 
735.000000	 97.745995 
734.000000	 97.772092 
733.000000	 97.788818 
732.000000	 97.804954 
731.000000	 97.826294 
730.000000	 97.847196 
729.000000	 97.859357 
728.000000	 97.864163 
727.000000	 97.869367 
726.000000	 97.879802 
725.000000	 97.897863 
724.000000	 97.928312 
723.000000	 97.972757 
722.000000	 98.020589 
721.000000	 98.055268 
720.000000	 98.071080 
719.000000	 98.076775 
718.000000	 98.081925 
717.000000	 98.088408 
716.000000	 98.096976 
715.000000	 98.110032 
714.000000	 98.124747 
713.000000	 98.134725 
712.000000	 98.140935 
711.000000	 98.149339 
710.000000	 98.153885 
709.000000	 98.151511 
708.000000	 98.145041 
707.000000	 98.137788 
706.000000	 98.130785 
705.000000	 98.121586 
704.000000	 98.108312 
703.000000	 98.092464 
702.000000	 98.074656 
701.000000	 98.052116 
700.000000	 98.023134 
699.000000	 97.989096 
698.000000	 97.953199 
697.000000	 97.919582 
696.000000	 97.893076 
695.000000	 97.878292 
694.000000	 97.875766 
693.000000	 97.881788 
692.000000	 97.893276 
691.000000	 97.908809 
690.000000	 97.926584 
689.000000	 97.943678 
688.000000	 97.957553 
687.000000	 97.967537 
686.000000	 97.973708 
685.000000	 97.977031 
684.000000	 97.980436 
683.000000	 97.985834 
682.000000	 97.991437 
681.000000	 97.994409 
680.000000	 97.995588 
679.000000	 97.997757 
678.000000	 98.001493 
677.000000	 98.006464 
676.000000	 98.012489 
675.000000	 98.020012 
674.000000	 98.028100 
673.000000	 98.032098 
672.000000	 98.028293 
671.000000	 98.014683 
670.000000	 97.990571 
669.000000	 97.957550 
668.000000	 97.940768 
667.000000	 97.964672 
666.000000	 98.012183 
665.000000	 98.050537 
664.000000	 98.075831 
663.000000	 98.092615 
662.000000	 98.105137 
661.000000	 98.116729 
660.000000	 98.128874 
659.000000	 98.141235 
658.000000	 98.152688 
657.000000	 98.163205 
656.000000	 98.171743 
655.000000	 98.176731 
654.000000	 98.178305 
653.000000	 98.178495 
652.000000	 98.180135 
651.000000	 98.185833 
650.000000	 98.196311 

