4000.000000	97.968955 
3999.000000	97.968612 
3998.000000	97.967561 
3997.000000	97.965945 
3996.000000	97.964375 
3995.000000	97.963434 
3994.000000	97.963383 
3993.000000	97.964079 
3992.000000	97.964992 
3991.000000	97.965548 
3990.000000	97.965568 
3989.000000	97.965325 
3988.000000	97.965223 
3987.000000	97.965511 
3986.000000	97.966260 
3985.000000	97.967357 
3984.000000	97.968402 
3983.000000	97.968888 
3982.000000	97.968762 
3981.000000	97.968588 
3980.000000	97.968773 
3979.000000	97.968932 
3978.000000	97.968480 
3977.000000	97.967621 
3976.000000	97.967217 
3975.000000	97.967634 
3974.000000	97.968228 
3973.000000	97.968101 
3972.000000	97.966946 
3971.000000	97.965114 
3970.000000	97.963247 
3969.000000	97.961984 
3968.000000	97.961738 
3967.000000	97.962385 
3966.000000	97.963255 
3965.000000	97.963581 
3964.000000	97.963002 
3963.000000	97.961755 
3962.000000	97.960540 
3961.000000	97.959985 
3960.000000	97.960109 
3959.000000	97.960419 
3958.000000	97.960553 
3957.000000	97.960709 
3956.000000	97.961181 
3955.000000	97.961585 
3954.000000	97.961164 
3953.000000	97.959620 
3952.000000	97.957421 
3951.000000	97.955314 
3950.000000	97.953693 
3949.000000	97.952559 
3948.000000	97.951618 
3947.000000	97.950549 
3946.000000	97.949448 
3945.000000	97.948891 
3944.000000	97.949341 
3943.000000	97.950447 
3942.000000	97.951469 
3941.000000	97.952201 
3940.000000	97.952988 
3939.000000	97.954083 
3938.000000	97.955187 
3937.000000	97.955698 
3936.000000	97.955167 
3935.000000	97.953376 
3934.000000	97.950632 
3933.000000	97.947876 
3932.000000	97.946175 
3931.000000	97.945660 
3930.000000	97.945620 
3929.000000	97.945754 
3928.000000	97.946438 
3927.000000	97.947850 
3926.000000	97.949299 
3925.000000	97.949725 
3924.000000	97.948965 
3923.000000	97.947718 
3922.000000	97.946505 
3921.000000	97.945524 
3920.000000	97.945099 
3919.000000	97.945636 
3918.000000	97.946879 
3917.000000	97.947888 
3916.000000	97.948094 
3915.000000	97.947795 
3914.000000	97.947539 
3913.000000	97.947480 
3912.000000	97.947461 
3911.000000	97.947439 
3910.000000	97.947303 
3909.000000	97.946821 
3908.000000	97.945985 
3907.000000	97.944947 
3906.000000	97.943889 
3905.000000	97.942618 
3904.000000	97.940848 
3903.000000	97.938852 
3902.000000	97.937395 
3901.000000	97.937043 
3900.000000	97.937664 
3899.000000	97.938577 
3898.000000	97.939219 
3897.000000	97.939407 
3896.000000	97.939152 
3895.000000	97.938669 
3894.000000	97.938285 
3893.000000	97.938205 
3892.000000	97.938216 
3891.000000	97.937855 
3890.000000	97.937024 
3889.000000	97.936003 
3888.000000	97.935143 
3887.000000	97.934575 
3886.000000	97.934245 
3885.000000	97.934006 
3884.000000	97.933689 
3883.000000	97.933194 
3882.000000	97.932581 
3881.000000	97.932046 
3880.000000	97.931715 
3879.000000	97.931502 
3878.000000	97.931231 
3877.000000	97.930863 
3876.000000	97.930496 
3875.000000	97.930186 
3874.000000	97.929865 
3873.000000	97.929456 
3872.000000	97.928983 
3871.000000	97.928511 
3870.000000	97.928082 
3869.000000	97.927764 
3868.000000	97.927593 
3867.000000	97.927484 
3866.000000	97.927312 
3865.000000	97.927104 
3864.000000	97.927073 
3863.000000	97.927285 
3862.000000	97.927442 
3861.000000	97.927356 
3860.000000	97.927239 
3859.000000	97.927319 
3858.000000	97.927479 
3857.000000	97.927448 
3856.000000	97.927266 
3855.000000	97.927127 
3854.000000	97.926769 
3853.000000	97.925945 
3852.000000	97.925120 
3851.000000	97.924848 
3850.000000	97.925047 
3849.000000	97.925537 
3848.000000	97.926378 
3847.000000	97.927636 
3846.000000	97.928823 
3845.000000	97.929247 
3844.000000	97.928757 
3843.000000	97.927657 
3842.000000	97.926246 
3841.000000	97.924999 
3840.000000	97.924413 
3839.000000	97.924810 
3838.000000	97.926076 
3837.000000	97.927396 
3836.000000	97.928140 
3835.000000	97.928408 
3834.000000	97.928769 
3833.000000	97.929757 
3832.000000	97.931338 
3831.000000	97.932986 
3830.000000	97.934192 
3829.000000	97.934838 
3828.000000	97.935459 
3827.000000	97.936685 
3826.000000	97.938227 
3825.000000	97.939178 
3824.000000	97.938897 
3823.000000	97.937682 
3822.000000	97.936671 
3821.000000	97.936583 
3820.000000	97.937015 
3819.000000	97.937003 
3818.000000	97.936230 
3817.000000	97.935610 
3816.000000	97.936531 
3815.000000	97.939325 
3814.000000	97.942674 
3813.000000	97.944867 
3812.000000	97.945487 
3811.000000	97.945715 
3810.000000	97.946702 
3809.000000	97.948128 
3808.000000	97.948745 
3807.000000	97.947970 
3806.000000	97.946304 
3805.000000	97.944207 
3804.000000	97.941496 
3803.000000	97.939038 
3802.000000	97.938610 
3801.000000	97.940550 
3800.000000	97.943168 
3799.000000	97.944213 
3798.000000	97.943376 
3797.000000	97.942928 
3796.000000	97.945125 
3795.000000	97.949597 
3794.000000	97.953821 
3793.000000	97.956066 
3792.000000	97.956929 
3791.000000	97.958123 
3790.000000	97.959874 
3789.000000	97.960619 
3788.000000	97.959425 
3787.000000	97.957280 
3786.000000	97.955833 
3785.000000	97.955599 
3784.000000	97.955819 
3783.000000	97.955705 
3782.000000	97.954978 
3781.000000	97.954020 
3780.000000	97.953960 
3779.000000	97.955884 
3778.000000	97.959236 
3777.000000	97.962011 
3776.000000	97.962608 
3775.000000	97.961112 
3774.000000	97.958947 
3773.000000	97.957423 
3772.000000	97.956825 
3771.000000	97.956481 
3770.000000	97.955756 
3769.000000	97.954838 
3768.000000	97.953996 
3767.000000	97.952934 
3766.000000	97.951636 
3765.000000	97.950594 
3764.000000	97.950361 
3763.000000	97.950561 
3762.000000	97.949870 
3761.000000	97.947869 
3760.000000	97.946122 
3759.000000	97.946773 
3758.000000	97.948182 
3757.000000	97.945852 
3756.000000	97.938027 
3755.000000	97.926378 
3754.000000	97.913701 
3753.000000	97.902687 
3752.000000	97.896755 
3751.000000	97.897599 
3750.000000	97.900266 
3749.000000	97.898721 
3748.000000	97.894174 
3747.000000	97.892770 
3746.000000	97.899619 
3745.000000	97.912518 
3744.000000	97.925718 
3743.000000	97.934919 
3742.000000	97.935479 
3741.000000	97.924764 
3740.000000	97.907772 
3739.000000	97.895941 
3738.000000	97.895966 
3737.000000	97.901479 
3736.000000	97.903513 
3735.000000	97.902551 
3734.000000	97.904393 
3733.000000	97.909044 
3732.000000	97.912624 
3731.000000	97.914951 
3730.000000	97.917446 
3729.000000	97.919272 
3728.000000	97.919021 
3727.000000	97.916705 
3726.000000	97.913551 
3725.000000	97.909899 
3724.000000	97.905292 
3723.000000	97.900262 
3722.000000	97.896037 
3721.000000	97.892542 
3720.000000	97.886926 
3719.000000	97.878439 
3718.000000	97.869601 
3717.000000	97.861949 
3716.000000	97.854555 
3715.000000	97.844480 
3714.000000	97.830797 
3713.000000	97.817425 
3712.000000	97.808810 
3711.000000	97.803480 
3710.000000	97.794284 
3709.000000	97.776324 
3708.000000	97.750607 
3707.000000	97.720422 
3706.000000	97.689215 
3705.000000	97.659678 
3704.000000	97.632889 
3703.000000	97.607627 
3702.000000	97.580448 
3701.000000	97.548861 
3700.000000	97.514417 
3699.000000	97.482147 
3698.000000	97.457070 
3697.000000	97.440614 
3696.000000	97.431056 
3695.000000	97.425242 
3694.000000	97.418963 
3693.000000	97.408801 
3692.000000	97.394159 
3691.000000	97.377446 
3690.000000	97.361546 
3689.000000	97.349275 
3688.000000	97.343316 
3687.000000	97.342947 
3686.000000	97.343383 
3685.000000	97.339775 
3684.000000	97.331537 
3683.000000	97.322485 
3682.000000	97.315299 
3681.000000	97.305658 
3680.000000	97.285815 
3679.000000	97.252199 
3678.000000	97.209357 
3677.000000	97.165881 
3676.000000	97.127858 
3675.000000	97.097935 
3674.000000	97.073477 
3673.000000	97.048196 
3672.000000	97.018069 
3671.000000	96.986652 
3670.000000	96.960305 
3669.000000	96.939572 
3668.000000	96.918555 
3667.000000	96.892567 
3666.000000	96.863317 
3665.000000	96.834629 
3664.000000	96.806777 
3663.000000	96.777815 
3662.000000	96.746589 
3661.000000	96.713403 
3660.000000	96.679800 
3659.000000	96.646734 
3658.000000	96.614526 
3657.000000	96.582220 
3656.000000	96.548905 
3655.000000	96.516126 
3654.000000	96.484984 
3653.000000	96.453975 
3652.000000	96.420058 
3651.000000	96.381595 
3650.000000	96.340373 
3649.000000	96.300861 
3648.000000	96.268114 
3647.000000	96.245492 
3646.000000	96.233389 
3645.000000	96.229026 
3644.000000	96.227726 
3643.000000	96.225116 
3642.000000	96.217767 
3641.000000	96.203404 
3640.000000	96.182048 
3639.000000	96.155700 
3638.000000	96.127781 
3637.000000	96.100993 
3636.000000	96.075389 
3635.000000	96.048149 
3634.000000	96.016526 
3633.000000	95.981592 
3632.000000	95.947142 
3631.000000	95.916056 
3630.000000	95.888013 
3629.000000	95.860860 
3628.000000	95.834238 
3627.000000	95.811118 
3626.000000	95.793522 
3625.000000	95.781738 
3624.000000	95.775123 
3623.000000	95.771466 
3622.000000	95.768012 
3621.000000	95.764322 
3620.000000	95.763521 
3619.000000	95.769814 
3618.000000	95.784529 
3617.000000	95.806854 
3616.000000	95.837555 
3615.000000	95.877758 
3614.000000	95.924337 
3613.000000	95.969555 
3612.000000	96.006159 
3611.000000	96.032284 
3610.000000	96.052177 
3609.000000	96.071868 
3608.000000	96.093323 
3607.000000	96.114188 
3606.000000	96.132615 
3605.000000	96.151386 
3604.000000	96.175724 
3603.000000	96.206948 
3602.000000	96.239811 
3601.000000	96.266237 
3600.000000	96.282475 
3599.000000	96.292152 
3598.000000	96.302323 
3597.000000	96.316996 
3596.000000	96.335481 
3595.000000	96.353348 
3594.000000	96.365904 
3593.000000	96.372475 
3592.000000	96.375549 
3591.000000	96.377426 
3590.000000	96.379131 
3589.000000	96.381142 
3588.000000	96.384144 
3587.000000	96.388527 
3586.000000	96.394105 
3585.000000	96.401171 
3584.000000	96.411154 
3583.000000	96.424710 
3582.000000	96.440456 
3581.000000	96.454840 
3580.000000	96.464273 
3579.000000	96.467407 
3578.000000	96.465655 
3577.000000	96.461967 
3576.000000	96.458681 
3575.000000	96.456640 
3574.000000	96.454925 
3573.000000	96.452075 
3572.000000	96.446947 
3571.000000	96.438995 
3570.000000	96.428592 
3569.000000	96.417742 
3568.000000	96.409941 
3567.000000	96.407733 
3566.000000	96.409964 
3565.000000	96.413497 
3564.000000	96.416924 
3563.000000	96.421108 
3562.000000	96.426512 
3561.000000	96.431548 
3560.000000	96.433532 
3559.000000	96.431247 
3558.000000	96.426302 
3557.000000	96.421997 
3556.000000	96.420739 
3555.000000	96.422566 
3554.000000	96.425591 
3553.000000	96.427284 
3552.000000	96.426007 
3551.000000	96.421694 
3550.000000	96.415781 
3549.000000	96.410601 
3548.000000	96.408143 
3547.000000	96.408380 
3546.000000	96.409261 
3545.000000	96.409136 
3544.000000	96.409098 
3543.000000	96.411602 
3542.000000	96.417163 
3541.000000	96.423720 
3540.000000	96.428894 
3539.000000	96.431870 
3538.000000	96.433199 
3537.000000	96.433595 
3536.000000	96.433504 
3535.000000	96.432981 
3534.000000	96.431971 
3533.000000	96.430835 
3532.000000	96.430488 
3531.000000	96.431709 
3530.000000	96.434041 
3529.000000	96.435819 
3528.000000	96.435643 
3527.000000	96.433778 
3526.000000	96.431896 
3525.000000	96.431580 
3524.000000	96.433261 
3523.000000	96.436274 
3522.000000	96.439483 
3521.000000	96.442041 
3520.000000	96.443978 
3519.000000	96.445878 
3518.000000	96.447932 
3517.000000	96.449336 
3516.000000	96.449150 
3515.000000	96.447633 
3514.000000	96.446367 
3513.000000	96.446796 
3512.000000	96.448722 
3511.000000	96.450553 
3510.000000	96.451028 
3509.000000	96.450416 
3508.000000	96.449929 
3507.000000	96.450229 
3506.000000	96.450763 
3505.000000	96.450405 
3504.000000	96.448613 
3503.000000	96.445953 
3502.000000	96.443704 
3501.000000	96.442954 
3500.000000	96.443951 
3499.000000	96.446038 
3498.000000	96.448014 
3497.000000	96.448773 
3496.000000	96.447855 
3495.000000	96.445715 
3494.000000	96.443591 
3493.000000	96.442757 
3492.000000	96.443427 
3491.000000	96.444346 
3490.000000	96.443974 
3489.000000	96.442057 
3488.000000	96.439556 
3487.000000	96.437128 
3486.000000	96.434423 
3485.000000	96.431160 
3484.000000	96.428010 
3483.000000	96.425769 
3482.000000	96.424237 
3481.000000	96.422679 
3480.000000	96.421037 
3479.000000	96.419849 
3478.000000	96.419082 
3477.000000	96.417834 
3476.000000	96.415290 
3475.000000	96.411584 
3474.000000	96.407562 
3473.000000	96.403915 
3472.000000	96.400670 
3471.000000	96.397375 
3470.000000	96.393652 
3469.000000	96.389662 
3468.000000	96.385972 
3467.000000	96.383071 
3466.000000	96.381083 
3465.000000	96.379753 
3464.000000	96.378443 
3463.000000	96.376179 
3462.000000	96.372155 
3461.000000	96.366485 
3460.000000	96.360306 
3459.000000	96.354873 
3458.000000	96.350510 
3457.000000	96.346519 
3456.000000	96.342104 
3455.000000	96.337200 
3454.000000	96.332565 
3453.000000	96.329089 
3452.000000	96.327039 
3451.000000	96.325882 
3450.000000	96.324624 
3449.000000	96.322381 
3448.000000	96.318671 
3447.000000	96.313433 
3446.000000	96.307000 
3445.000000	96.300227 
3444.000000	96.294345 
3443.000000	96.290199 
3442.000000	96.287447 
3441.000000	96.284652 
3440.000000	96.280512 
3439.000000	96.274912 
3438.000000	96.268727 
3437.000000	96.262927 
3436.000000	96.258226 
3435.000000	96.255175 
3434.000000	96.253856 
3433.000000	96.253221 
3432.000000	96.251449 
3431.000000	96.247669 
3430.000000	96.242929 
3429.000000	96.239036 
3428.000000	96.236490 
3427.000000	96.234108 
3426.000000	96.230821 
3425.000000	96.227243 
3424.000000	96.224889 
3423.000000	96.224000 
3422.000000	96.222909 
3421.000000	96.219912 
3420.000000	96.215267 
3419.000000	96.210739 
3418.000000	96.207588 
3417.000000	96.205811 
3416.000000	96.205038 
3415.000000	96.204990 
3414.000000	96.204775 
3413.000000	96.202812 
3412.000000	96.198317 
3411.000000	96.192592 
3410.000000	96.188200 
3409.000000	96.186855 
3408.000000	96.188298 
3407.000000	96.190741 
3406.000000	96.192143 
3405.000000	96.191484 
3404.000000	96.189292 
3403.000000	96.186848 
3402.000000	96.184870 
3401.000000	96.183216 
3400.000000	96.181824 
3399.000000	96.181307 
3398.000000	96.182215 
3397.000000	96.184203 
3396.000000	96.186299 
3395.000000	96.187765 
3394.000000	96.188343 
3393.000000	96.188036 
3392.000000	96.187196 
3391.000000	96.186688 
3390.000000	96.187453 
3389.000000	96.189846 
3388.000000	96.193523 
3387.000000	96.197839 
3386.000000	96.202025 
3385.000000	96.205114 
3384.000000	96.206364 
3383.000000	96.206111 
3382.000000	96.205920 
3381.000000	96.207284 
3380.000000	96.210073 
3379.000000	96.212674 
3378.000000	96.213955 
3377.000000	96.214786 
3376.000000	96.217023 
3375.000000	96.221101 
3374.000000	96.225275 
3373.000000	96.227435 
3372.000000	96.227249 
3371.000000	96.226220 
3370.000000	96.226132 
3369.000000	96.227787 
3368.000000	96.231080 
3367.000000	96.235513 
3366.000000	96.240300 
3365.000000	96.244486 
3364.000000	96.247494 
3363.000000	96.249536 
3362.000000	96.251395 
3361.000000	96.253809 
3360.000000	96.257027 
3359.000000	96.260779 
3358.000000	96.264509 
3357.000000	96.267755 
3356.000000	96.270474 
3355.000000	96.273006 
3354.000000	96.275740 
3353.000000	96.278830 
3352.000000	96.282209 
3351.000000	96.285711 
3350.000000	96.289101 
3349.000000	96.292125 
3348.000000	96.294724 
3347.000000	96.297165 
3346.000000	96.299840 
3345.000000	96.302885 
3344.000000	96.306066 
3343.000000	96.309051 
3342.000000	96.311733 
3341.000000	96.314265 
3340.000000	96.316853 
3339.000000	96.319556 
3338.000000	96.322325 
3337.000000	96.325111 
3336.000000	96.327922 
3335.000000	96.330797 
3334.000000	96.333746 
3333.000000	96.336720 
3332.000000	96.339653 
3331.000000	96.342525 
3330.000000	96.345377 
3329.000000	96.348256 
3328.000000	96.351178 
3327.000000	96.354131 
3326.000000	96.357098 
3325.000000	96.360060 
3324.000000	96.363004 
3323.000000	96.365922 
3322.000000	96.368820 
3321.000000	96.371719 
3320.000000	96.374640 
3319.000000	96.377583 
3318.000000	96.380538 
3317.000000	96.383491 
3316.000000	96.386430 
3315.000000	96.389349 
3314.000000	96.392242 
3313.000000	96.395112 
3312.000000	96.397971 
3311.000000	96.400836 
3310.000000	96.403719 
3309.000000	96.406625 
3308.000000	96.409550 
3307.000000	96.412480 
3306.000000	96.415398 
3305.000000	96.418303 
3304.000000	96.421220 
3303.000000	96.424194 
3302.000000	96.427258 
3301.000000	96.430410 
3300.000000	96.433580 
3299.000000	96.436673 
3298.000000	96.439616 
3297.000000	96.442401 
3296.000000	96.445120 
3295.000000	96.447929 
3294.000000	96.450951 
3293.000000	96.454211 
3292.000000	96.457649 
3291.000000	96.461184 
3290.000000	96.464729 
3289.000000	96.468178 
3288.000000	96.471438 
3287.000000	96.474497 
3286.000000	96.477435 
3285.000000	96.480335 
3284.000000	96.483240 
3283.000000	96.486200 
3282.000000	96.489316 
3281.000000	96.492656 
3280.000000	96.496120 
3279.000000	96.499463 
3278.000000	96.502527 
3277.000000	96.505395 
3276.000000	96.508310 
3275.000000	96.511411 
3274.000000	96.514649 
3273.000000	96.517932 
3272.000000	96.521279 
3271.000000	96.524783 
3270.000000	96.528481 
3269.000000	96.532270 
3268.000000	96.535958 
3267.000000	96.539419 
3266.000000	96.542725 
3265.000000	96.546122 
3264.000000	96.549789 
3263.000000	96.553643 
3262.000000	96.557417 
3261.000000	96.560930 
3260.000000	96.564187 
3259.000000	96.567255 
3258.000000	96.570197 
3257.000000	96.573164 
3256.000000	96.576407 
3255.000000	96.580034 
3254.000000	96.583863 
3253.000000	96.587614 
3252.000000	96.591206 
3251.000000	96.594767 
3250.000000	96.598385 
3249.000000	96.601980 
3248.000000	96.605430 
3247.000000	96.608752 
3246.000000	96.612124 
3245.000000	96.615707 
3244.000000	96.619504 
3243.000000	96.623384 
3242.000000	96.627199 
3241.000000	96.630897 
3240.000000	96.634524 
3239.000000	96.638190 
3238.000000	96.641997 
3237.000000	96.645972 
3236.000000	96.650051 
3235.000000	96.654103 
3234.000000	96.658031 
3233.000000	96.661821 
3232.000000	96.665532 
3231.000000	96.669261 
3230.000000	96.673079 
3229.000000	96.676988 
3228.000000	96.680940 
3227.000000	96.684897 
3226.000000	96.688875 
3225.000000	96.692913 
3224.000000	96.697011 
3223.000000	96.701134 
3222.000000	96.705264 
3221.000000	96.709421 
3220.000000	96.713610 
3219.000000	96.717796 
3218.000000	96.721924 
3217.000000	96.725978 
3216.000000	96.729984 
3215.000000	96.733989 
3214.000000	96.738052 
3213.000000	96.742225 
3212.000000	96.746506 
3211.000000	96.750817 
3210.000000	96.755061 
3209.000000	96.759211 
3208.000000	96.763335 
3207.000000	96.767502 
3206.000000	96.771713 
3205.000000	96.775957 
3204.000000	96.780271 
3203.000000	96.784710 
3202.000000	96.789259 
3201.000000	96.793806 
3200.000000	96.798233 
3199.000000	96.802499 
3198.000000	96.806664 
3197.000000	96.810830 
3196.000000	96.815049 
3195.000000	96.819319 
3194.000000	96.823654 
3193.000000	96.828111 
3192.000000	96.832710 
3191.000000	96.837332 
3190.000000	96.841763 
3189.000000	96.845902 
3188.000000	96.849865 
3187.000000	96.853925 
3186.000000	96.858279 
3185.000000	96.862950 
3184.000000	96.867785 
3183.000000	96.872556 
3182.000000	96.877129 
3181.000000	96.881491 
3180.000000	96.885664 
3179.000000	96.889622 
3178.000000	96.893388 
3177.000000	96.897162 
3176.000000	96.901219 
3175.000000	96.905674 
3174.000000	96.910424 
3173.000000	96.915255 
3172.000000	96.919970 
3171.000000	96.924416 
3170.000000	96.928522 
3169.000000	96.932385 
3168.000000	96.936220 
3167.000000	96.940161 
3166.000000	96.944174 
3165.000000	96.948162 
3164.000000	96.952069 
3163.000000	96.955862 
3162.000000	96.959510 
3161.000000	96.963038 
3160.000000	96.966565 
3159.000000	96.970245 
3158.000000	96.974166 
3157.000000	96.978312 
3156.000000	96.982565 
3155.000000	96.986761 
3154.000000	96.990791 
3153.000000	96.994688 
3152.000000	96.998573 
3151.000000	97.002493 
3150.000000	97.006330 
3149.000000	97.009930 
3148.000000	97.013293 
3147.000000	97.016625 
3146.000000	97.020199 
3145.000000	97.024156 
3144.000000	97.028371 
3143.000000	97.032449 
3142.000000	97.036027 
3141.000000	97.039074 
3140.000000	97.041920 
3139.000000	97.044993 
3138.000000	97.048460 
3137.000000	97.052167 
3136.000000	97.055795 
3135.000000	97.059115 
3134.000000	97.062157 
3133.000000	97.065185 
3132.000000	97.068455 
3131.000000	97.071959 
3130.000000	97.075478 
3129.000000	97.078917 
3128.000000	97.082461 
3127.000000	97.086330 
3126.000000	97.090453 
3125.000000	97.094480 
3124.000000	97.098062 
3123.000000	97.101041 
3122.000000	97.103456 
3121.000000	97.105555 
3120.000000	97.107807 
3119.000000	97.110677 
3118.000000	97.114269 
3117.000000	97.118243 
3116.000000	97.122152 
3115.000000	97.125858 
3114.000000	97.129591 
3113.000000	97.133610 
3112.000000	97.137866 
3111.000000	97.141973 
3110.000000	97.145512 
3109.000000	97.148406 
3108.000000	97.151059 
3107.000000	97.154113 
3106.000000	97.157893 
3105.000000	97.161944 
3104.000000	97.165186 
3103.000000	97.166789 
3102.000000	97.167011 
3101.000000	97.167138 
3100.000000	97.168347 
3099.000000	97.170786 
3098.000000	97.173969 
3097.000000	97.177788 
3096.000000	97.182635 
3095.000000	97.188459 
3094.000000	97.194232 
3093.000000	97.198683 
3092.000000	97.201417 
3091.000000	97.202945 
3090.000000	97.203906 
3089.000000	97.204612 
3088.000000	97.205161 
3087.000000	97.205782 
3086.000000	97.206992 
3085.000000	97.209248 
3084.000000	97.212179 
3083.000000	97.214429 
3082.000000	97.214931 
3081.000000	97.214414 
3080.000000	97.214870 
3079.000000	97.217282 
3078.000000	97.220862 
3077.000000	97.224823 
3076.000000	97.229599 
3075.000000	97.235342 
3074.000000	97.240509 
3073.000000	97.243468 
3072.000000	97.244702 
3071.000000	97.245886 
3070.000000	97.247314 
3069.000000	97.248082 
3068.000000	97.248515 
3067.000000	97.250320 
3066.000000	97.253904 
3065.000000	97.257306 
3064.000000	97.258462 
3063.000000	97.257123 
3062.000000	97.254017 
3061.000000	97.249739 
3060.000000	97.245417 
3059.000000	97.243235 
3058.000000	97.245102 
3057.000000	97.250963 
3056.000000	97.258595 
3055.000000	97.264438 
3054.000000	97.265077 
3053.000000	97.259755 
3052.000000	97.252301 
3051.000000	97.248947 
3050.000000	97.252517 
3049.000000	97.259380 
3048.000000	97.263153 
3047.000000	97.260717 
3046.000000	97.253740 
3045.000000	97.245738 
3044.000000	97.239484 
3043.000000	97.236763 
3042.000000	97.238264 
3041.000000	97.242415 
3040.000000	97.245295 
3039.000000	97.243128 
3038.000000	97.235205 
3037.000000	97.224096 
3036.000000	97.212995 
3035.000000	97.203068 
3034.000000	97.193464 
3033.000000	97.183259 
3032.000000	97.172577 
3031.000000	97.161935 
3030.000000	97.151373 
3029.000000	97.140600 
3028.000000	97.129205 
3027.000000	97.116212 
3026.000000	97.100328 
3025.000000	97.081714 
3024.000000	97.062936 
3023.000000	97.046800 
3022.000000	97.033416 
3021.000000	97.020728 
3020.000000	97.007660 
3019.000000	96.994876 
3018.000000	96.982029 
3017.000000	96.966235 
3016.000000	96.944900 
3015.000000	96.919229 
3014.000000	96.893813 
3013.000000	96.872817 
3012.000000	96.856800 
3011.000000	96.842540 
3010.000000	96.825507 
3009.000000	96.803309 
3008.000000	96.777340 
3007.000000	96.750841 
3006.000000	96.725400 
3005.000000	96.700264 
3004.000000	96.675030 
3003.000000	96.651257 
3002.000000	96.630555 
3001.000000	96.612348 
3000.000000	96.594630 
2999.000000	96.576065 
2998.000000	96.556493 
2997.000000	96.536498 
2996.000000	96.517399 
2995.000000	96.500140 
2994.000000	96.482489 
2993.000000	96.458569 
2992.000000	96.424027 
2991.000000	96.382215 
2990.000000	96.343554 
2989.000000	96.317963 
2988.000000	96.308723 
2987.000000	96.312933 
2986.000000	96.325417 
2985.000000	96.341378 
2984.000000	96.356908 
2983.000000	96.369304 
2982.000000	96.377597 
2981.000000	96.382246 
2980.000000	96.383952 
2979.000000	96.382808 
2978.000000	96.378586 
2977.000000	96.371735 
2976.000000	96.363935 
2975.000000	96.357460 
2974.000000	96.353959 
2973.000000	96.354133 
2972.000000	96.358394 
2971.000000	96.367031 
2970.000000	96.379349 
2969.000000	96.393445 
2968.000000	96.407629 
2967.000000	96.421689 
2966.000000	96.436188 
2965.000000	96.451130 
2964.000000	96.466108 
2963.000000	96.481108 
2962.000000	96.496151 
2961.000000	96.510558 
2960.000000	96.523863 
2959.000000	96.537302 
2958.000000	96.553065 
2957.000000	96.571611 
2956.000000	96.590513 
2955.000000	96.606395 
2954.000000	96.617814 
2953.000000	96.626484 
2952.000000	96.636219 
2951.000000	96.650127 
2950.000000	96.667563 
2949.000000	96.683836 
2948.000000	96.693963 
2947.000000	96.696892 
2946.000000	96.695788 
2945.000000	96.694694 
2944.000000	96.695694 
2943.000000	96.698965 
2942.000000	96.703652 
2941.000000	96.707935 
2940.000000	96.709890 
2939.000000	96.709411 
2938.000000	96.708251 
2937.000000	96.707484 
2936.000000	96.706048 
2935.000000	96.702579 
2934.000000	96.697529 
2933.000000	96.692303 
2932.000000	96.687190 
2931.000000	96.681622 
2930.000000	96.676043 
2929.000000	96.671995 
2928.000000	96.670082 
2927.000000	96.668910 
2926.000000	96.666655 
2925.000000	96.663355 
2924.000000	96.661155 
2923.000000	96.662203 
2922.000000	96.666318 
2921.000000	96.670909 
2920.000000	96.673543 
2919.000000	96.674414 
2918.000000	96.675480 
2917.000000	96.677005 
2916.000000	96.676170 
2915.000000	96.670269 
2914.000000	96.660814 
2913.000000	96.653048 
2912.000000	96.650987 
2911.000000	96.653745 
2910.000000	96.657091 
2909.000000	96.657966 
2908.000000	96.656891 
2907.000000	96.656064 
2906.000000	96.655714 
2905.000000	96.652749 
2904.000000	96.643734 
2903.000000	96.629703 
2902.000000	96.618313 
2901.000000	96.618690 
2900.000000	96.634162 
2899.000000	96.659666 
2898.000000	96.685741 
2897.000000	96.705772 
2896.000000	96.718766 
2895.000000	96.726694 
2894.000000	96.731836 
2893.000000	96.736895 
2892.000000	96.744896 
2891.000000	96.756626 
2890.000000	96.769020 
2889.000000	96.778065 
2888.000000	96.783148 
2887.000000	96.786966 
2886.000000	96.791574 
2885.000000	96.796904 
2884.000000	96.803583 
2883.000000	96.814312 
2882.000000	96.830456 
2881.000000	96.849056 
2880.000000	96.865766 
2879.000000	96.880123 
2878.000000	96.895275 
2877.000000	96.912692 
2876.000000	96.929827 
2875.000000	96.943687 
2874.000000	96.954416 
2873.000000	96.964014 
2872.000000	96.973291 
2871.000000	96.981814 
2870.000000	96.989867 
2869.000000	96.998630 
2868.000000	97.008718 
2867.000000	97.019876 
2866.000000	97.031928 
2865.000000	97.044905 
2864.000000	97.058482 
2863.000000	97.072470 
2862.000000	97.087649 
2861.000000	97.104793 
2860.000000	97.122828 
2859.000000	97.139379 
2858.000000	97.153627 
2857.000000	97.167501 
2856.000000	97.183260 
2855.000000	97.200616 
2854.000000	97.217045 
2853.000000	97.230464 
2852.000000	97.240960 
2851.000000	97.250409 
2850.000000	97.261022 
2849.000000	97.273873 
2848.000000	97.288221 
2847.000000	97.302181 
2846.000000	97.314319 
2845.000000	97.324644 
2844.000000	97.334168 
2843.000000	97.343894 
2842.000000	97.354281 
2841.000000	97.365048 
2840.000000	97.375048 
2839.000000	97.382806 
2838.000000	97.387863 
2837.000000	97.391572 
2836.000000	97.396239 
2835.000000	97.403359 
2834.000000	97.412874 
2833.000000	97.423839 
2832.000000	97.435107 
2831.000000	97.445242 
2830.000000	97.452504 
2829.000000	97.455844 
2828.000000	97.456195 
2827.000000	97.456408 
2826.000000	97.459361 
2825.000000	97.465756 
2824.000000	97.473700 
2823.000000	97.480410 
2822.000000	97.484348 
2821.000000	97.485929 
2820.000000	97.486560 
2819.000000	97.487392 
2818.000000	97.488931 
2817.000000	97.491438 
2816.000000	97.495180 
2815.000000	97.500112 
2814.000000	97.505400 
2813.000000	97.509467 
2812.000000	97.510865 
2811.000000	97.509475 
2810.000000	97.507002 
2809.000000	97.506023 
2808.000000	97.508141 
2807.000000	97.513040 
2806.000000	97.519229 
2805.000000	97.525422 
2804.000000	97.530930 
2803.000000	97.535141 
2802.000000	97.537529 
2801.000000	97.538547 
2800.000000	97.539813 
2799.000000	97.542627 
2798.000000	97.546387 
2797.000000	97.549134 
2796.000000	97.549813 
2795.000000	97.549474 
2794.000000	97.550085 
2793.000000	97.552508 
2792.000000	97.555972 
2791.000000	97.559135 
2790.000000	97.561249 
2789.000000	97.562450 
2788.000000	97.563425 
2787.000000	97.564907 
2786.000000	97.567176 
2785.000000	97.569881 
2784.000000	97.572392 
2783.000000	97.574353 
2782.000000	97.575892 
2781.000000	97.577377 
2780.000000	97.579088 
2779.000000	97.581107 
2778.000000	97.583350 
2777.000000	97.585604 
2776.000000	97.587628 
2775.000000	97.589329 
2774.000000	97.590830 
2773.000000	97.592348 
2772.000000	97.593995 
2771.000000	97.595735 
2770.000000	97.597529 
2769.000000	97.599413 
2768.000000	97.601428 
2767.000000	97.603490 
2766.000000	97.605417 
2765.000000	97.607087 
2764.000000	97.608531 
2763.000000	97.609844 
2762.000000	97.611078 
2761.000000	97.612271 
2760.000000	97.613514 
2759.000000	97.614910 
2758.000000	97.616461 
2757.000000	97.618022 
2756.000000	97.619422 
2755.000000	97.620640 
2754.000000	97.621825 
2753.000000	97.623150 
2752.000000	97.624636 
2751.000000	97.626172 
2750.000000	97.627667 
2749.000000	97.629143 
2748.000000	97.630628 
2747.000000	97.632043 
2746.000000	97.633287 
2745.000000	97.634373 
2744.000000	97.635443 
2743.000000	97.636634 
2742.000000	97.637955 
2741.000000	97.639324 
2740.000000	97.640664 
2739.000000	97.641972 
2738.000000	97.643269 
2737.000000	97.644557 
2736.000000	97.645838 
2735.000000	97.647121 
2734.000000	97.648409 
2733.000000	97.649699 
2732.000000	97.650985 
2731.000000	97.652266 
2730.000000	97.653543 
2729.000000	97.654813 
2728.000000	97.656070 
2727.000000	97.657314 
2726.000000	97.658539 
2725.000000	97.659747 
2724.000000	97.660941 
2723.000000	97.662128 
2722.000000	97.663311 
2721.000000	97.664489 
2720.000000	97.665664 
2719.000000	97.666836 
2718.000000	97.668006 
2717.000000	97.669174 
2716.000000	97.670334 
2715.000000	97.671485 
2714.000000	97.672625 
2713.000000	97.673756 
2712.000000	97.674874 
2711.000000	97.675974 
2710.000000	97.677054 
2709.000000	97.678115 
2708.000000	97.679166 
2707.000000	97.680211 
2706.000000	97.681248 
2705.000000	97.682274 
2704.000000	97.683286 
2703.000000	97.684284 
2702.000000	97.685267 
2701.000000	97.686236 
2700.000000	97.687194 
2699.000000	97.688144 
2698.000000	97.689084 
2697.000000	97.690009 
2696.000000	97.690910 
2695.000000	97.691782 
2694.000000	97.692623 
2693.000000	97.693437 
2692.000000	97.694226 
2691.000000	97.694995 
2690.000000	97.695746 
2689.000000	97.696485 
2688.000000	97.697214 
2687.000000	97.697936 
2686.000000	97.698647 
2685.000000	97.699346 
2684.000000	97.700032 
2683.000000	97.700706 
2682.000000	97.701368 
2681.000000	97.702015 
2680.000000	97.702647 
2679.000000	97.703264 
2678.000000	97.703869 
2677.000000	97.704462 
2676.000000	97.705040 
2675.000000	97.705600 
2674.000000	97.706141 
2673.000000	97.706666 
2672.000000	97.707177 
2671.000000	97.707677 
2670.000000	97.708165 
2669.000000	97.708641 
2668.000000	97.709105 
2667.000000	97.709559 
2666.000000	97.710000 
2665.000000	97.710428 
2664.000000	97.710846 
2663.000000	97.711258 
2662.000000	97.711669 
2661.000000	97.712078 
2660.000000	97.712475 
2659.000000	97.712852 
2658.000000	97.713203 
2657.000000	97.713526 
2656.000000	97.713824 
2655.000000	97.714102 
2654.000000	97.714359 
2653.000000	97.714578 
2652.000000	97.714752 
2651.000000	97.714909 
2650.000000	97.715115 
2649.000000	97.715428 
2648.000000	97.715822 
2647.000000	97.716187 
2646.000000	97.716423 
2645.000000	97.716500 
2644.000000	97.716451 
2643.000000	97.716348 
2642.000000	97.716286 
2641.000000	97.716318 
2640.000000	97.716394 
2639.000000	97.716442 
2638.000000	97.716521 
2637.000000	97.716767 
2636.000000	97.717173 
2635.000000	97.717574 
2634.000000	97.717913 
2633.000000	97.718332 
2632.000000	97.718880 
2631.000000	97.719268 
2630.000000	97.719158 
2629.000000	97.718599 
2628.000000	97.718028 
2627.000000	97.717848 
2626.000000	97.718162 
2625.000000	97.718892 
2624.000000	97.719902 
2623.000000	97.720958 
2622.000000	97.721703 
2621.000000	97.721763 
2620.000000	97.720877 
2619.000000	97.719063 
2618.000000	97.716833 
2617.000000	97.715081 
2616.000000	97.714444 
2615.000000	97.714795 
2614.000000	97.715496 
2613.000000	97.716140 
2612.000000	97.716854 
2611.000000	97.717891 
2610.000000	97.719224 
2609.000000	97.720534 
2608.000000	97.721383 
2607.000000	97.721491 
2606.000000	97.721113 
2605.000000	97.720974 
2604.000000	97.721513 
2603.000000	97.722366 
2602.000000	97.722972 
2601.000000	97.723485 
2600.000000	97.724428 
2599.000000	97.725547 
2598.000000	97.725855 
2597.000000	97.724953 
2596.000000	97.723517 
2595.000000	97.722228 
2594.000000	97.720974 
2593.000000	97.719644 
2592.000000	97.718949 
2591.000000	97.719543 
2590.000000	97.720833 
2589.000000	97.721551 
2588.000000	97.721450 
2587.000000	97.721661 
2586.000000	97.723295 
2585.000000	97.726315 
2584.000000	97.729705 
2583.000000	97.732275 
2582.000000	97.733294 
2581.000000	97.732810 
2580.000000	97.731655 
2579.000000	97.730889 
2578.000000	97.731078 
2577.000000	97.732114 
2576.000000	97.733471 
2575.000000	97.734397 
2574.000000	97.734174 
2573.000000	97.732633 
2572.000000	97.730334 
2571.000000	97.727961 
2570.000000	97.725829 
2569.000000	97.724214 
2568.000000	97.723695 
2567.000000	97.724462 
2566.000000	97.725571 
2565.000000	97.725817 
2564.000000	97.725242 
2563.000000	97.724976 
2562.000000	97.725722 
2561.000000	97.727256 
2560.000000	97.729362 
2559.000000	97.732225 
2558.000000	97.735493 
2557.000000	97.737877 
2556.000000	97.738457 
2555.000000	97.737801 
2554.000000	97.737214 
2553.000000	97.737031 
2552.000000	97.736464 
2551.000000	97.735192 
2550.000000	97.734144 
2549.000000	97.734276 
2548.000000	97.735169 
2547.000000	97.735550 
2546.000000	97.735002 
2545.000000	97.734449 
2544.000000	97.734741 
2543.000000	97.735365 
2542.000000	97.735129 
2541.000000	97.733859 
2540.000000	97.732725 
2539.000000	97.732716 
2538.000000	97.733413 
2537.000000	97.733738 
2536.000000	97.733535 
2535.000000	97.733637 
2534.000000	97.734419 
2533.000000	97.735098 
2532.000000	97.734914 
2531.000000	97.734339 
2530.000000	97.734363 
2529.000000	97.734827 
2528.000000	97.734397 
2527.000000	97.732404 
2526.000000	97.730023 
2525.000000	97.729114 
2524.000000	97.730208 
2523.000000	97.732122 
2522.000000	97.733231 
2521.000000	97.732907 
2520.000000	97.731636 
2519.000000	97.730317 
2518.000000	97.729563 
2517.000000	97.729335 
2516.000000	97.728964 
2515.000000	97.727848 
2514.000000	97.726378 
2513.000000	97.725838 
2512.000000	97.727088 
2511.000000	97.729772 
2510.000000	97.732954 
2509.000000	97.736061 
2508.000000	97.738800 
2507.000000	97.740662 
2506.000000	97.741361 
2505.000000	97.741655 
2504.000000	97.742828 
2503.000000	97.745023 
2502.000000	97.746801 
2501.000000	97.746892 
2500.000000	97.745788 
2499.000000	97.745118 
2498.000000	97.745642 
2497.000000	97.746607 
2496.000000	97.747105 
2495.000000	97.747286 
2494.000000	97.747861 
2493.000000	97.748940 
2492.000000	97.750037 
2491.000000	97.750985 
2490.000000	97.752149 
2489.000000	97.753599 
2488.000000	97.754672 
2487.000000	97.754780 
2486.000000	97.754341 
2485.000000	97.754496 
2484.000000	97.755928 
2483.000000	97.758308 
2482.000000	97.760808 
2481.000000	97.762815 
2480.000000	97.764104 
2479.000000	97.764699 
2478.000000	97.764928 
2477.000000	97.765319 
2476.000000	97.766036 
2475.000000	97.766516 
2474.000000	97.765973 
2473.000000	97.764271 
2472.000000	97.762217 
2471.000000	97.760946 
2470.000000	97.761113 
2469.000000	97.762677 
2468.000000	97.764994 
2467.000000	97.767151 
2466.000000	97.768490 
2465.000000	97.768952 
2464.000000	97.769045 
2463.000000	97.769468 
2462.000000	97.770652 
2461.000000	97.772544 
2460.000000	97.774678 
2459.000000	97.776479 
2458.000000	97.777579 
2457.000000	97.777894 
2456.000000	97.777486 
2455.000000	97.776530 
2454.000000	97.775381 
2453.000000	97.774391 
2452.000000	97.773627 
2451.000000	97.773012 
2450.000000	97.772799 
2449.000000	97.773492 
2448.000000	97.775084 
2447.000000	97.776693 
2446.000000	97.777367 
2445.000000	97.777098 
2444.000000	97.776677 
2443.000000	97.776714 
2442.000000	97.777163 
2441.000000	97.777731 
2440.000000	97.778346 
2439.000000	97.779149 
2438.000000	97.780305 
2437.000000	97.781912 
2436.000000	97.783813 
2435.000000	97.785472 
2434.000000	97.786301 
2433.000000	97.786225 
2432.000000	97.785804 
2431.000000	97.785786 
2430.000000	97.786591 
2429.000000	97.788223 
2428.000000	97.790297 
2427.000000	97.792094 
2426.000000	97.792969 
2425.000000	97.792781 
2424.000000	97.791990 
2423.000000	97.791202 
2422.000000	97.790677 
2421.000000	97.790619 
2420.000000	97.791460 
2419.000000	97.793225 
2418.000000	97.795118 
2417.000000	97.796522 
2416.000000	97.797927 
2415.000000	97.800084 
2414.000000	97.802732 
2413.000000	97.804996 
2412.000000	97.806573 
2411.000000	97.807564 
2410.000000	97.807738 
2409.000000	97.807075 
2408.000000	97.806510 
2407.000000	97.806951 
2406.000000	97.807869 
2405.000000	97.807870 
2404.000000	97.806371 
2403.000000	97.803885 
2402.000000	97.801191 
2401.000000	97.799264 
2400.000000	97.799499 
2399.000000	97.802674 
2398.000000	97.807901 
2397.000000	97.813454 
2396.000000	97.818223 
2395.000000	97.821494 
2394.000000	97.822181 
2393.000000	97.820079 
2392.000000	97.817370 
2391.000000	97.817088 
2390.000000	97.819846 
2389.000000	97.823524 
2388.000000	97.826326 
2387.000000	97.828597 
2386.000000	97.831331 
2385.000000	97.834423 
2384.000000	97.837130 
2383.000000	97.838901 
2382.000000	97.838860 
2381.000000	97.835742 
2380.000000	97.829381 
2379.000000	97.821482 
2378.000000	97.813789 
2377.000000	97.806446 
2376.000000	97.799618 
2375.000000	97.795598 
2374.000000	97.796840 
2373.000000	97.802339 
2372.000000	97.807920 
2371.000000	97.810930 
2370.000000	97.812545 
2369.000000	97.814312 
2368.000000	97.814965 
2367.000000	97.812536 
2366.000000	97.807809 
2365.000000	97.803638 
2364.000000	97.801606 
2363.000000	97.801413 
2362.000000	97.802627 
2361.000000	97.804986 
2360.000000	97.808102 
2359.000000	97.810881 
2358.000000	97.811903 
2357.000000	97.810608 
2356.000000	97.807513 
2355.000000	97.803864 
2354.000000	97.799703 
2353.000000	97.795681 
2352.000000	97.794357 
2351.000000	97.796891 
2350.000000	97.801477 
2349.000000	97.804682 
2348.000000	97.805321 
2347.000000	97.804448 
2346.000000	97.803902 
2345.000000	97.805277 
2344.000000	97.808252 
2343.000000	97.811450 
2342.000000	97.812884 
2341.000000	97.812463 
2340.000000	97.812312 
2339.000000	97.813630 
2338.000000	97.814875 
2337.000000	97.813700 
2336.000000	97.811062 
2335.000000	97.809968 
2334.000000	97.810975 
2333.000000	97.812078 
2332.000000	97.813283 
2331.000000	97.816106 
2330.000000	97.820878 
2329.000000	97.824987 
2328.000000	97.828048 
2327.000000	97.831546 
2326.000000	97.835701 
2325.000000	97.840102 
2324.000000	97.844488 
2323.000000	97.850067 
2322.000000	97.854871 
2321.000000	97.855847 
2320.000000	97.853178 
2319.000000	97.850803 
2318.000000	97.851739 
2317.000000	97.853998 
2316.000000	97.854783 
2315.000000	97.853805 
2314.000000	97.853849 
2313.000000	97.856999 
2312.000000	97.863874 
2311.000000	97.873090 
2310.000000	97.881297 
2309.000000	97.884794 
2308.000000	97.882939 
2307.000000	97.879386 
2306.000000	97.878013 
2305.000000	97.879523 
2304.000000	97.881899 
2303.000000	97.884005 
2302.000000	97.886428 
2301.000000	97.889516 
2300.000000	97.891937 
2299.000000	97.891295 
2298.000000	97.886290 
2297.000000	97.877745 
2296.000000	97.868695 
2295.000000	97.862370 
2294.000000	97.859598 
2293.000000	97.858483 
2292.000000	97.856720 
2291.000000	97.854225 
2290.000000	97.852428 
2289.000000	97.852456 
2288.000000	97.853824 
2287.000000	97.855173 
2286.000000	97.855185 
2285.000000	97.853653 
2284.000000	97.851598 
2283.000000	97.850353 
2282.000000	97.850133 
2281.000000	97.849851 
2280.000000	97.848163 
2279.000000	97.844442 
2278.000000	97.839146 
2277.000000	97.833979 
2276.000000	97.831361 
2275.000000	97.832448 
2274.000000	97.835915 
2273.000000	97.839309 
2272.000000	97.841524 
2271.000000	97.842887 
2270.000000	97.843451 
2269.000000	97.842932 
2268.000000	97.841970 
2267.000000	97.841758 
2266.000000	97.842334 
2265.000000	97.842581 
2264.000000	97.841898 
2263.000000	97.840708 
2262.000000	97.839405 
2261.000000	97.837919 
2260.000000	97.836388 
2259.000000	97.835238 
2258.000000	97.834577 
2257.000000	97.834180 
2256.000000	97.833982 
2255.000000	97.834063 
2254.000000	97.834284 
2253.000000	97.834299 
2252.000000	97.833943 
2251.000000	97.833369 
2250.000000	97.832781 
2249.000000	97.832278 
2248.000000	97.831865 
2247.000000	97.831520 
2246.000000	97.831209 
2245.000000	97.830911 
2244.000000	97.830631 
2243.000000	97.830375 
2242.000000	97.830157 
2241.000000	97.829990 
2240.000000	97.829874 
2239.000000	97.829796 
2238.000000	97.829739 
2237.000000	97.829693 
2236.000000	97.829654 
2235.000000	97.829618 
2234.000000	97.829580 
2233.000000	97.829532 
2232.000000	97.829467 
2231.000000	97.829386 
2230.000000	97.829290 
2229.000000	97.829175 
2228.000000	97.829043 
2227.000000	97.828899 
2226.000000	97.828745 
2225.000000	97.828573 
2224.000000	97.828379 
2223.000000	97.828183 
2222.000000	97.828023 
2221.000000	97.827926 
2220.000000	97.827884 
2219.000000	97.827871 
2218.000000	97.827863 
2217.000000	97.827855 
2216.000000	97.827852 
2215.000000	97.827853 
2214.000000	97.827853 
2213.000000	97.827848 
2212.000000	97.827855 
2211.000000	97.827910 
2210.000000	97.828044 
2209.000000	97.828266 
2208.000000	97.828559 
2207.000000	97.828894 
2206.000000	97.829242 
2205.000000	97.829581 
2204.000000	97.829896 
2203.000000	97.830184 
2202.000000	97.830450 
2201.000000	97.830699 
2200.000000	97.830928 
2199.000000	97.831131 
2198.000000	97.831312 
2197.000000	97.831489 
2196.000000	97.831680 
2195.000000	97.831894 
2194.000000	97.832127 
2193.000000	97.832371 
2192.000000	97.832629 
2191.000000	97.832902 
2190.000000	97.833184 
2189.000000	97.833466 
2188.000000	97.833750 
2187.000000	97.834049 
2186.000000	97.834372 
2185.000000	97.834727 
2184.000000	97.835132 
2183.000000	97.835619 
2182.000000	97.836211 
2181.000000	97.836895 
2180.000000	97.837625 
2179.000000	97.838362 
2178.000000	97.839101 
2177.000000	97.839859 
2176.000000	97.840656 
2175.000000	97.841492 
2174.000000	97.842359 
2173.000000	97.843247 
2172.000000	97.844157 
2171.000000	97.845089 
2170.000000	97.846030 
2169.000000	97.846952 
2168.000000	97.847833 
2167.000000	97.848671 
2166.000000	97.849490 
2165.000000	97.850314 
2164.000000	97.851164 
2163.000000	97.852055 
2162.000000	97.853001 
2161.000000	97.854008 
2160.000000	97.855069 
2159.000000	97.856162 
2158.000000	97.857270 
2157.000000	97.858381 
2156.000000	97.859482 
2155.000000	97.860560 
2154.000000	97.861602 
2153.000000	97.862607 
2152.000000	97.863589 
2151.000000	97.864556 
2150.000000	97.865506 
2149.000000	97.866431 
2148.000000	97.867324 
2147.000000	97.868198 
2146.000000	97.869078 
2145.000000	97.869971 
2144.000000	97.870865 
2143.000000	97.871773 
2142.000000	97.872716 
2141.000000	97.873629 
2140.000000	97.874366 
2139.000000	97.874893 
2138.000000	97.875419 
2137.000000	97.876130 
2136.000000	97.876852 
2135.000000	97.877263 
2134.000000	97.877286 
2133.000000	97.877105 
2132.000000	97.877008 
2131.000000	97.877153 
2130.000000	97.877503 
2129.000000	97.877858 
2128.000000	97.878060 
2127.000000	97.878201 
2126.000000	97.878538 
2125.000000	97.879162 
2124.000000	97.879846 
2123.000000	97.880282 
2122.000000	97.880384 
2121.000000	97.880285 
2120.000000	97.880156 
2119.000000	97.880079 
2118.000000	97.880064 
2117.000000	97.880085 
2116.000000	97.880086 
2115.000000	97.880000 
2114.000000	97.879735 
2113.000000	97.879233 
2112.000000	97.878657 
2111.000000	97.878411 
2110.000000	97.878775 
2109.000000	97.879580 
2108.000000	97.880395 
2107.000000	97.880960 
2106.000000	97.881240 
2105.000000	97.881271 
2104.000000	97.881272 
2103.000000	97.881659 
2102.000000	97.882451 
2101.000000	97.882801 
2100.000000	97.881804 
2099.000000	97.879927 
2098.000000	97.878981 
2097.000000	97.880077 
2096.000000	97.882582 
2095.000000	97.885069 
2094.000000	97.886830 
2093.000000	97.887898 
2092.000000	97.888240 
2091.000000	97.887946 
2090.000000	97.887833 
2089.000000	97.888960 
2088.000000	97.891388 
2087.000000	97.893820 
2086.000000	97.894743 
2085.000000	97.893787 
2084.000000	97.892012 
2083.000000	97.890968 
2082.000000	97.891351 
2081.000000	97.892709 
2080.000000	97.894390 
2079.000000	97.896423 
2078.000000	97.898985 
2077.000000	97.901392 
2076.000000	97.902614 
2075.000000	97.902836 
2074.000000	97.903316 
2073.000000	97.904175 
2072.000000	97.903746 
2071.000000	97.900840 
2070.000000	97.896568 
2069.000000	97.893399 
2068.000000	97.892813 
2067.000000	97.894481 
2066.000000	97.897040 
2065.000000	97.898925 
2064.000000	97.899172 
2063.000000	97.898265 
2062.000000	97.898006 
2061.000000	97.899885 
2060.000000	97.903799 
2059.000000	97.908664 
2058.000000	97.913410 
2057.000000	97.917053 
2056.000000	97.918650 
2055.000000	97.917984 
2054.000000	97.916352 
2053.000000	97.915904 
2052.000000	97.917683 
2051.000000	97.920714 
2050.000000	97.923140 
2049.000000	97.924124 
2048.000000	97.924455 
2047.000000	97.925375 
2046.000000	97.927229 
2045.000000	97.929487 
2044.000000	97.931706 
2043.000000	97.934002 
2042.000000	97.936599 
2041.000000	97.939399 
2040.000000	97.942288 
2039.000000	97.945533 
2038.000000	97.949287 
2037.000000	97.952791 
2036.000000	97.954777 
2035.000000	97.954889 
2034.000000	97.954383 
2033.000000	97.955114 
2032.000000	97.957714 
2031.000000	97.960972 
2030.000000	97.962849 
2029.000000	97.962244 
2028.000000	97.959831 
2027.000000	97.957417 
2026.000000	97.956295 
2025.000000	97.956530 
2024.000000	97.957789 
2023.000000	97.960322 
2022.000000	97.964589 
2021.000000	97.969906 
2020.000000	97.974095 
2019.000000	97.975158 
2018.000000	97.972828 
2017.000000	97.968713 
2016.000000	97.965172 
2015.000000	97.963517 
2014.000000	97.963306 
2013.000000	97.963023 
2012.000000	97.961774 
2011.000000	97.960547 
2010.000000	97.961140 
2009.000000	97.963815 
2008.000000	97.966626 
2007.000000	97.967563 
2006.000000	97.966759 
2005.000000	97.965821 
2004.000000	97.965683 
2003.000000	97.966008 
2002.000000	97.966318 
2001.000000	97.966487 
2000.000000	97.966095 
1999.000000	97.964264 
1998.000000	97.960601 
1997.000000	97.955962 
1996.000000	97.952030 
1995.000000	97.949975 
1994.000000	97.949714 
1993.000000	97.950213 
1992.000000	97.950385 
1991.000000	97.950014 
1990.000000	97.949739 
1989.000000	97.950122 
1988.000000	97.950937 
1987.000000	97.951358 
1986.000000	97.950770 
1985.000000	97.949368 
1984.000000	97.947965 
1983.000000	97.947237 
1982.000000	97.947197 
1981.000000	97.947371 
1980.000000	97.947328 
1979.000000	97.946987 
1978.000000	97.946446 
1977.000000	97.945745 
1976.000000	97.944891 
1975.000000	97.944026 
1974.000000	97.943430 
1973.000000	97.943314 
1972.000000	97.943594 
1971.000000	97.943864 
1970.000000	97.943685 
1969.000000	97.942886 
1968.000000	97.941594 
1967.000000	97.940122 
1966.000000	97.938818 
1965.000000	97.937899 
1964.000000	97.937418 
1963.000000	97.937278 
1962.000000	97.937263 
1961.000000	97.937085 
1960.000000	97.936485 
1959.000000	97.935384 
1958.000000	97.933987 
1957.000000	97.932716 
1956.000000	97.931846 
1955.000000	97.931286 
1954.000000	97.930663 
1953.000000	97.929734 
1952.000000	97.928576 
1951.000000	97.927338 
1950.000000	97.926042 
1949.000000	97.924743 
1948.000000	97.923704 
1947.000000	97.923152 
1946.000000	97.922878 
1945.000000	97.922310 
1944.000000	97.921025 
1943.000000	97.918967 
1942.000000	97.916348 
1941.000000	97.913571 
1940.000000	97.911125 
1939.000000	97.909170 
1938.000000	97.907367 
1937.000000	97.905616 
1936.000000	97.904532 
1935.000000	97.904416 
1934.000000	97.904320 
1933.000000	97.903363 
1932.000000	97.902400 
1931.000000	97.902984 
1930.000000	97.905017 
1929.000000	97.906486 
1928.000000	97.906135 
1927.000000	97.904683 
1926.000000	97.903240 
1925.000000	97.901883 
1924.000000	97.900342 
1923.000000	97.899139 
1922.000000	97.898609 
1921.000000	97.897723 
1920.000000	97.895591 
1919.000000	97.892891 
1918.000000	97.890576 
1917.000000	97.888148 
1916.000000	97.884775 
1915.000000	97.881530 
1914.000000	97.880249 
1913.000000	97.880871 
1912.000000	97.881454 
1911.000000	97.880769 
1910.000000	97.879459 
1909.000000	97.878509 
1908.000000	97.878127 
1907.000000	97.877899 
1906.000000	97.877058 
1905.000000	97.874705 
1904.000000	97.870660 
1903.000000	97.866530 
1902.000000	97.864400 
1901.000000	97.864354 
1900.000000	97.864672 
1899.000000	97.864191 
1898.000000	97.863313 
1897.000000	97.862659 
1896.000000	97.861745 
1895.000000	97.859759 
1894.000000	97.856727 
1893.000000	97.853212 
1892.000000	97.849683 
1891.000000	97.846620 
1890.000000	97.844606 
1889.000000	97.843800 
1888.000000	97.843764 
1887.000000	97.844178 
1886.000000	97.844978 
1885.000000	97.845467 
1884.000000	97.844510 
1883.000000	97.842210 
1882.000000	97.840378 
1881.000000	97.840461 
1880.000000	97.841802 
1879.000000	97.842249 
1878.000000	97.840438 
1877.000000	97.837470 
1876.000000	97.835948 
1875.000000	97.837342 
1874.000000	97.840892 
1873.000000	97.844463 
1872.000000	97.846524 
1871.000000	97.847017 
1870.000000	97.846528 
1869.000000	97.845547 
1868.000000	97.844689 
1867.000000	97.844856 
1866.000000	97.846063 
1865.000000	97.846722 
1864.000000	97.845460 
1863.000000	97.843218 
1862.000000	97.842401 
1861.000000	97.844107 
1860.000000	97.847374 
1859.000000	97.851010 
1858.000000	97.854773 
1857.000000	97.858531 
1856.000000	97.861973 
1855.000000	97.865165 
1854.000000	97.868002 
1853.000000	97.869516 
1852.000000	97.869768 
1851.000000	97.870951 
1850.000000	97.874579 
1849.000000	97.879268 
1848.000000	97.882414 
1847.000000	97.883596 
1846.000000	97.884394 
1845.000000	97.885657 
1844.000000	97.886712 
1843.000000	97.887318 
1842.000000	97.888114 
1841.000000	97.889357 
1840.000000	97.891409 
1839.000000	97.894813 
1838.000000	97.898989 
1837.000000	97.901707 
1836.000000	97.901360 
1835.000000	97.899480 
1834.000000	97.898864 
1833.000000	97.900005 
1832.000000	97.901649 
1831.000000	97.902782 
1830.000000	97.903125 
1829.000000	97.903307 
1828.000000	97.904139 
1827.000000	97.905832 
1826.000000	97.907967 
1825.000000	97.909686 
1824.000000	97.910351 
1823.000000	97.910213 
1822.000000	97.910214 
1821.000000	97.910504 
1820.000000	97.909961 
1819.000000	97.907673 
1818.000000	97.904924 
1817.000000	97.903897 
1816.000000	97.904421 
1815.000000	97.905318 
1814.000000	97.906864 
1813.000000	97.910056 
1812.000000	97.913728 
1811.000000	97.914440 
1810.000000	97.911659 
1809.000000	97.908434 
1808.000000	97.906371 
1807.000000	97.905108 
1806.000000	97.905410 
1805.000000	97.908395 
1804.000000	97.912215 
1803.000000	97.913118 
1802.000000	97.909274 
1801.000000	97.902793 
1800.000000	97.896731 
1799.000000	97.891909 
1798.000000	97.888919 
1797.000000	97.887650 
1796.000000	97.886286 
1795.000000	97.884428 
1794.000000	97.884415 
1793.000000	97.888122 
1792.000000	97.892739 
1791.000000	97.894211 
1790.000000	97.894141 
1789.000000	97.896206 
1788.000000	97.900764 
1787.000000	97.905727 
1786.000000	97.910008 
1785.000000	97.913899 
1784.000000	97.916970 
1783.000000	97.919128 
1782.000000	97.920739 
1781.000000	97.922101 
1780.000000	97.923720 
1779.000000	97.925920 
1778.000000	97.929454 
1777.000000	97.933777 
1776.000000	97.937047 
1775.000000	97.938418 
1774.000000	97.938571 
1773.000000	97.939813 
1772.000000	97.943627 
1771.000000	97.947640 
1770.000000	97.949127 
1769.000000	97.948847 
1768.000000	97.949100 
1767.000000	97.950587 
1766.000000	97.952110 
1765.000000	97.953334 
1764.000000	97.955358 
1763.000000	97.958112 
1762.000000	97.959706 
1761.000000	97.959769 
1760.000000	97.960015 
1759.000000	97.961168 
1758.000000	97.962339 
1757.000000	97.962465 
1756.000000	97.962887 
1755.000000	97.964568 
1754.000000	97.965580 
1753.000000	97.963932 
1752.000000	97.960957 
1751.000000	97.960821 
1750.000000	97.964967 
1749.000000	97.969852 
1748.000000	97.971995 
1747.000000	97.971775 
1746.000000	97.970432 
1745.000000	97.968994 
1744.000000	97.968671 
1743.000000	97.969007 
1742.000000	97.968094 
1741.000000	97.965881 
1740.000000	97.964821 
1739.000000	97.966499 
1738.000000	97.968996 
1737.000000	97.970249 
1736.000000	97.970148 
1735.000000	97.969223 
1734.000000	97.967078 
1733.000000	97.963619 
1732.000000	97.961235 
1731.000000	97.962699 
1730.000000	97.967906 
1729.000000	97.972202 
1728.000000	97.972862 
1727.000000	97.971376 
1726.000000	97.969933 
1725.000000	97.968857 
1724.000000	97.967599 
1723.000000	97.965895 
1722.000000	97.964381 
1721.000000	97.962973 
1720.000000	97.961597 
1719.000000	97.960346 
1718.000000	97.959218 
1717.000000	97.958027 
1716.000000	97.953547 
1715.000000	97.944523 
1714.000000	97.936186 
1713.000000	97.931834 
1712.000000	97.929164 
1711.000000	97.926343 
1710.000000	97.923858 
1709.000000	97.921119 
1708.000000	97.917017 
1707.000000	97.912657 
1706.000000	97.910176 
1705.000000	97.908325 
1704.000000	97.901500 
1703.000000	97.887909 
1702.000000	97.870859 
1701.000000	97.858298 
1700.000000	97.853796 
1699.000000	97.850276 
1698.000000	97.845366 
1697.000000	97.841702 
1696.000000	97.838229 
1695.000000	97.833430 
1694.000000	97.828073 
1693.000000	97.822898 
1692.000000	97.817760 
1691.000000	97.811666 
1690.000000	97.804212 
1689.000000	97.795579 
1688.000000	97.786725 
1687.000000	97.778807 
1686.000000	97.772748 
1685.000000	97.769233 
1684.000000	97.763723 
1683.000000	97.754527 
1682.000000	97.745677 
1681.000000	97.737114 
1680.000000	97.729120 
1679.000000	97.721492 
1678.000000	97.713395 
1677.000000	97.703465 
1676.000000	97.693272 
1675.000000	97.685352 
1674.000000	97.677421 
1673.000000	97.666461 
1672.000000	97.654927 
1671.000000	97.647179 
1670.000000	97.643362 
1669.000000	97.638501 
1668.000000	97.632626 
1667.000000	97.628867 
1666.000000	97.625063 
1665.000000	97.618972 
1664.000000	97.612547 
1663.000000	97.608863 
1662.000000	97.605439 
1661.000000	97.596207 
1660.000000	97.583289 
1659.000000	97.572915 
1658.000000	97.566941 
1657.000000	97.559851 
1656.000000	97.549800 
1655.000000	97.537810 
1654.000000	97.524567 
1653.000000	97.508144 
1652.000000	97.493188 
1651.000000	97.483311 
1650.000000	97.472603 
1649.000000	97.464522 
1648.000000	97.457952 
1647.000000	97.452500 
1646.000000	97.448300 
1645.000000	97.447116 
1644.000000	97.443860 
1643.000000	97.438358 
1642.000000	97.433641 
1641.000000	97.430969 
1640.000000	97.429562 
1639.000000	97.427950 
1638.000000	97.425812 
1637.000000	97.422908 
1636.000000	97.418861 
1635.000000	97.418516 
1634.000000	97.424549 
1633.000000	97.430729 
1632.000000	97.432305 
1631.000000	97.431875 
1630.000000	97.434762 
1629.000000	97.441945 
1628.000000	97.450417 
1627.000000	97.458966 
1626.000000	97.467808 
1625.000000	97.476547 
1624.000000	97.486415 
1623.000000	97.499611 
1622.000000	97.514466 
1621.000000	97.525041 
1620.000000	97.531096 
1619.000000	97.539106 
1618.000000	97.554105 
1617.000000	97.571330 
1616.000000	97.582348 
1615.000000	97.589821 
1614.000000	97.598950 
1613.000000	97.608635 
1612.000000	97.616410 
1611.000000	97.623719 
1610.000000	97.633014 
1609.000000	97.644375 
1608.000000	97.658455 
1607.000000	97.676455 
1606.000000	97.694383 
1605.000000	97.706219 
1604.000000	97.713503 
1603.000000	97.722074 
1602.000000	97.732916 
1601.000000	97.742192 
1600.000000	97.749144 
1599.000000	97.757364 
1598.000000	97.767994 
1597.000000	97.778526 
1596.000000	97.787622 
1595.000000	97.796861 
1594.000000	97.806872 
1593.000000	97.815267 
1592.000000	97.820962 
1591.000000	97.826563 
1590.000000	97.834144 
1589.000000	97.842199 
1588.000000	97.849594 
1587.000000	97.857956 
1586.000000	97.867405 
1585.000000	97.874090 
1584.000000	97.877291 
1583.000000	97.881798 
1582.000000	97.889328 
1581.000000	97.896458 
1580.000000	97.901797 
1579.000000	97.909075 
1578.000000	97.920951 
1577.000000	97.934871 
1576.000000	97.945428 
1575.000000	97.951652 
1574.000000	97.953833 
1573.000000	97.951879 
1572.000000	97.950317 
1571.000000	97.954522 
1570.000000	97.962615 
1569.000000	97.964137 
1568.000000	97.959737 
1567.000000	97.957726 
1566.000000	97.959725 
1565.000000	97.961331 
1564.000000	97.962471 
1563.000000	97.962910 
1562.000000	97.960938 
1561.000000	97.951861 
1560.000000	97.947431 
1559.000000	97.950568 
1558.000000	97.947946 
1557.000000	97.944226 
1556.000000	97.938659 
1555.000000	97.936779 
1554.000000	97.934325 
1553.000000	97.931612 
1552.000000	97.927914 
1551.000000	97.921921 
1550.000000	97.909914 
1549.000000	97.894411 
1548.000000	97.882015 
1547.000000	97.875861 
1546.000000	97.871381 
1545.000000	97.862113 
1544.000000	97.847556 
1543.000000	97.832897 
1542.000000	97.823763 
1541.000000	97.819369 
1540.000000	97.805074 
1539.000000	97.780016 
1538.000000	97.756522 
1537.000000	97.733908 
1536.000000	97.711499 
1535.000000	97.692092 
1534.000000	97.677095 
1533.000000	97.663325 
1532.000000	97.648593 
1531.000000	97.631533 
1530.000000	97.612996 
1529.000000	97.594319 
1528.000000	97.574654 
1527.000000	97.553480 
1526.000000	97.531782 
1525.000000	97.511354 
1524.000000	97.493618 
1523.000000	97.478165 
1522.000000	97.460560 
1521.000000	97.435268 
1520.000000	97.403948 
1519.000000	97.372445 
1518.000000	97.343437 
1517.000000	97.316216 
1516.000000	97.289905 
1515.000000	97.266939 
1514.000000	97.248376 
1513.000000	97.233131 
1512.000000	97.218120 
1511.000000	97.198642 
1510.000000	97.173678 
1509.000000	97.146153 
1508.000000	97.118141 
1507.000000	97.083442 
1506.000000	97.046867 
1505.000000	97.019919 
1504.000000	96.997280 
1503.000000	96.974118 
1502.000000	96.948656 
1501.000000	96.922204 
1500.000000	96.897115 
1499.000000	96.873587 
1498.000000	96.847391 
1497.000000	96.817887 
1496.000000	96.790192 
1495.000000	96.767894 
1494.000000	96.750393 
1493.000000	96.736188 
1492.000000	96.724097 
1491.000000	96.711033 
1490.000000	96.692117 
1489.000000	96.666973 
1488.000000	96.638798 
1487.000000	96.609310 
1486.000000	96.581007 
1485.000000	96.553733 
1484.000000	96.527076 
1483.000000	96.502710 
1482.000000	96.480597 
1481.000000	96.459208 
1480.000000	96.437107 
1479.000000	96.414765 
1478.000000	96.392955 
1477.000000	96.371454 
1476.000000	96.348079 
1475.000000	96.321286 
1474.000000	96.292360 
1473.000000	96.264403 
1472.000000	96.240960 
1471.000000	96.221823 
1470.000000	96.204074 
1469.000000	96.185932 
1468.000000	96.166441 
1467.000000	96.144444 
1466.000000	96.120671 
1465.000000	96.098091 
1464.000000	96.080178 
1463.000000	96.064780 
1462.000000	96.047326 
1461.000000	96.028855 
1460.000000	96.014321 
1459.000000	96.004464 
1458.000000	95.985658 
1457.000000	95.946768 
1456.000000	95.904777 
1455.000000	95.874947 
1454.000000	95.850814 
1453.000000	95.829772 
1452.000000	95.814675 
1451.000000	95.808193 
1450.000000	95.808923 
1449.000000	95.814907 
1448.000000	95.821955 
1447.000000	95.823776 
1446.000000	95.817105 
1445.000000	95.805477 
1444.000000	95.795904 
1443.000000	95.789226 
1442.000000	95.781785 
1441.000000	95.772164 
1440.000000	95.762986 
1439.000000	95.754823 
1438.000000	95.743892 
1437.000000	95.730321 
1436.000000	95.722256 
1435.000000	95.722712 
1434.000000	95.725345 
1433.000000	95.727762 
1432.000000	95.731627 
1431.000000	95.737361 
1430.000000	95.742093 
1429.000000	95.744967 
1428.000000	95.748346 
1427.000000	95.754293 
1426.000000	95.762471 
1425.000000	95.771214 
1424.000000	95.781230 
1423.000000	95.791353 
1422.000000	95.799162 
1421.000000	95.806731 
1420.000000	95.819135 
1419.000000	95.831485 
1418.000000	95.832154 
1417.000000	95.825498 
1416.000000	95.825246 
1415.000000	95.835387 
1414.000000	95.848293 
1413.000000	95.857136 
1412.000000	95.864103 
1411.000000	95.873939 
1410.000000	95.886308 
1409.000000	95.900779 
1408.000000	95.920067 
1407.000000	95.945993 
1406.000000	95.976285 
1405.000000	96.008302 
1404.000000	96.043936 
1403.000000	96.082831 
1402.000000	96.121229 
1401.000000	96.160220 
1400.000000	96.204905 
1399.000000	96.253172 
1398.000000	96.291614 
1397.000000	96.309408 
1396.000000	96.310052 
1395.000000	96.311404 
1394.000000	96.332942 
1393.000000	96.380474 
1392.000000	96.445674 
1391.000000	96.514035 
1390.000000	96.573325 
1389.000000	96.618142 
1388.000000	96.648976 
1387.000000	96.669426 
1386.000000	96.685166 
1385.000000	96.702773 
1384.000000	96.727121 
1383.000000	96.758195 
1382.000000	96.791991 
1381.000000	96.825415 
1380.000000	96.858108 
1379.000000	96.891573 
1378.000000	96.927293 
1377.000000	96.965326 
1376.000000	97.003606 
1375.000000	97.038930 
1374.000000	97.070010 
1373.000000	97.100150 
1372.000000	97.133259 
1371.000000	97.169542 
1370.000000	97.206636 
1369.000000	97.241450 
1368.000000	97.273584 
1367.000000	97.304428 
1366.000000	97.335399 
1365.000000	97.367778 
1364.000000	97.400560 
1363.000000	97.429209 
1362.000000	97.451062 
1361.000000	97.469752 
1360.000000	97.490592 
1359.000000	97.515264 
1358.000000	97.541906 
1357.000000	97.567830 
1356.000000	97.591593 
1355.000000	97.612808 
1354.000000	97.632090 
1353.000000	97.651653 
1352.000000	97.672272 
1351.000000	97.692903 
1350.000000	97.712963 
1349.000000	97.730951 
1348.000000	97.745767 
1347.000000	97.758014 
1346.000000	97.770728 
1345.000000	97.786536 
1344.000000	97.805152 
1343.000000	97.824301 
1342.000000	97.842451 
1341.000000	97.858372 
1340.000000	97.869665 
1339.000000	97.874915 
1338.000000	97.876315 
1337.000000	97.877906 
1336.000000	97.881684 
1335.000000	97.886626 
1334.000000	97.891398 
1333.000000	97.896249 
1332.000000	97.901694 
1331.000000	97.907576 
1330.000000	97.913688 
1329.000000	97.919963 
1328.000000	97.925923 
1327.000000	97.931293 
1326.000000	97.936279 
1325.000000	97.939926 
1324.000000	97.941038 
1323.000000	97.939588 
1322.000000	97.937457 
1321.000000	97.937174 
1320.000000	97.939856 
1319.000000	97.944380 
1318.000000	97.949036 
1317.000000	97.953381 
1316.000000	97.957324 
1315.000000	97.959544 
1314.000000	97.958762 
1313.000000	97.956748 
1312.000000	97.957361 
1311.000000	97.961738 
1310.000000	97.966419 
1309.000000	97.967782 
1308.000000	97.966328 
1307.000000	97.965558 
1306.000000	97.967600 
1305.000000	97.971227 
1304.000000	97.974801 
1303.000000	97.977508 
1302.000000	97.978303 
1301.000000	97.975924 
1300.000000	97.971324 
1299.000000	97.967998 
1298.000000	97.968418 
1297.000000	97.970891 
1296.000000	97.971478 
1295.000000	97.968954 
1294.000000	97.966075 
1293.000000	97.966201 
1292.000000	97.969718 
1291.000000	97.974109 
1290.000000	97.976829 
1289.000000	97.977258 
1288.000000	97.976108 
1287.000000	97.974083 
1286.000000	97.971597 
1285.000000	97.969517 
1284.000000	97.969233 
1283.000000	97.971006 
1282.000000	97.972647 
1281.000000	97.971096 
1280.000000	97.966074 
1279.000000	97.961264 
1278.000000	97.960685 
1277.000000	97.964647 
1276.000000	97.969924 
1275.000000	97.973582 
1274.000000	97.975206 
1273.000000	97.975751 
1272.000000	97.975815 
1271.000000	97.975556 
1270.000000	97.975090 
1269.000000	97.974209 
1268.000000	97.972550 
1267.000000	97.970236 
1266.000000	97.967638 
1265.000000	97.965027 
1264.000000	97.963014 
1263.000000	97.962614 
1262.000000	97.963831 
1261.000000	97.964722 
1260.000000	97.963749 
1259.000000	97.962661 
1258.000000	97.964291 
1257.000000	97.967789 
1256.000000	97.968701 
1255.000000	97.964851 
1254.000000	97.959509 
1253.000000	97.956725 
1252.000000	97.955654 
1251.000000	97.952714 
1250.000000	97.948182 
1249.000000	97.947316 
1248.000000	97.954460 
1247.000000	97.967770 
1246.000000	97.979778 
1245.000000	97.982368 
1244.000000	97.972305 
1243.000000	97.955079 
1242.000000	97.943573 
1241.000000	97.948901 
1240.000000	97.969759 
1239.000000	97.992153 
1238.000000	98.001705 
1237.000000	97.995285 
1236.000000	97.979758 
1235.000000	97.962460 
1234.000000	97.946075 
1233.000000	97.930951 
1232.000000	97.917626 
1231.000000	97.905748 
1230.000000	97.893752 
1229.000000	97.881309 
1228.000000	97.869654 
1227.000000	97.857862 
1226.000000	97.841147 
1225.000000	97.815208 
1224.000000	97.781058 
1223.000000	97.743441 
1222.000000	97.705121 
1221.000000	97.664596 
1220.000000	97.619227 
1219.000000	97.568593 
1218.000000	97.514201 
1217.000000	97.457228 
1216.000000	97.397057 
1215.000000	97.331546 
1214.000000	97.259141 
1213.000000	97.181621 
1212.000000	97.103729 
1211.000000	97.028053 
1210.000000	96.951144 
1209.000000	96.867320 
1208.000000	96.775942 
1207.000000	96.681950 
1206.000000	96.589074 
1205.000000	96.495843 
1204.000000	96.399528 
1203.000000	96.300982 
1202.000000	96.203665 
1201.000000	96.109467 
1200.000000	96.017100 
1199.000000	95.923525 
1198.000000	95.826003 
1197.000000	95.724276 
1196.000000	95.621356 
1195.000000	95.520761 
1194.000000	95.422588 
1193.000000	95.323644 
1192.000000	95.221466 
1191.000000	95.116098 
1190.000000	95.007974 
1189.000000	94.896740 
1188.000000	94.782813 
1187.000000	94.667749 
1186.000000	94.552361 
1185.000000	94.436367 
1184.000000	94.319836 
1183.000000	94.202838 
1182.000000	94.084101 
1181.000000	93.962515 
1180.000000	93.839145 
1179.000000	93.714573 
1178.000000	93.585135 
1177.000000	93.445990 
1176.000000	93.297618 
1175.000000	93.145113 
1174.000000	92.991384 
1173.000000	92.835604 
1172.000000	92.678141 
1171.000000	92.521065 
1170.000000	92.363159 
1169.000000	92.200847 
1168.000000	92.036111 
1167.000000	91.878531 
1166.000000	91.738755 
1165.000000	91.626210 
1164.000000	91.553600 
1163.000000	91.534261 
1162.000000	91.569695 
1161.000000	91.643626 
1160.000000	91.730251 
1159.000000	91.804488 
1158.000000	91.845567 
1157.000000	91.840055 
1156.000000	91.786483 
1155.000000	91.694005 
1154.000000	91.574491 
1153.000000	91.438170 
1152.000000	91.295620 
1151.000000	91.156568 
1150.000000	91.023738 
1149.000000	90.893198 
1148.000000	90.762699 
1147.000000	90.634048 
1146.000000	90.506216 
1145.000000	90.373613 
1144.000000	90.234197 
1143.000000	90.092835 
1142.000000	89.953523 
1141.000000	89.814235 
1140.000000	89.672236 
1139.000000	89.528269 
1138.000000	89.382797 
1137.000000	89.234130 
1136.000000	89.082713 
1135.000000	88.931259 
1134.000000	88.778713 
1133.000000	88.620545 
1132.000000	88.456591 
1131.000000	88.291520 
1130.000000	88.126021 
1129.000000	87.955392 
1128.000000	87.778620 
1127.000000	87.600418 
1126.000000	87.421974 
1125.000000	87.238316 
1124.000000	87.047581 
1123.000000	86.854424 
1122.000000	86.661617 
1121.000000	86.467068 
1120.000000	86.271752 
1119.000000	86.081146 
1118.000000	85.895975 
1117.000000	85.711474 
1116.000000	85.528399 
1115.000000	85.354380 
1114.000000	85.191600 
1113.000000	85.033899 
1112.000000	84.878517 
1111.000000	84.728936 
1110.000000	84.583774 
1109.000000	84.435261 
1108.000000	84.281320 
1107.000000	84.127240 
1106.000000	83.973731 
1105.000000	83.815807 
1104.000000	83.655096 
1103.000000	83.499948 
1102.000000	83.350624 
1101.000000	83.198750 
1100.000000	83.043375 
1099.000000	82.892518 
1098.000000	82.748334 
1097.000000	82.603390 
1096.000000	82.455255 
1095.000000	82.308689 
1094.000000	82.160744 
1093.000000	82.000125 
1092.000000	81.826200 
1091.000000	81.653465 
1090.000000	81.492304 
1089.000000	81.339184 
1088.000000	81.188968 
1087.000000	81.041341 
1086.000000	80.891918 
1085.000000	80.733407 
1084.000000	80.569559 
1083.000000	80.412391 
1082.000000	80.262635 
1081.000000	80.109360 
1080.000000	79.951234 
1079.000000	79.799616 
1078.000000	79.656978 
1077.000000	79.511065 
1076.000000	79.354884 
1075.000000	79.193893 
1074.000000	79.029235 
1073.000000	78.852197 
1072.000000	78.657897 
1071.000000	78.443894 
1070.000000	78.192900 
1069.000000	77.882131 
1068.000000	77.518633 
1067.000000	77.145146 
1066.000000	76.800605 
1065.000000	76.490535 
1064.000000	76.201973 
1063.000000	75.922923 
1062.000000	75.636398 
1061.000000	75.320250 
1060.000000	74.970557 
1059.000000	74.610761 
1058.000000	74.265332 
1057.000000	73.936567 
1056.000000	73.614029 
1055.000000	73.289097 
1054.000000	72.951931 
1053.000000	72.592624 
1052.000000	72.216006 
1051.000000	71.839108 
1050.000000	71.465534 
1049.000000	71.081415 
1048.000000	70.682767 
1047.000000	70.283152 
1046.000000	69.888642 
1045.000000	69.489578 
1044.000000	69.082450 
1043.000000	68.676725 
1042.000000	68.274565 
1041.000000	67.866260 
1040.000000	67.452609 
1039.000000	67.050587 
1038.000000	66.670440 
1037.000000	66.307838 
1036.000000	65.962599 
1035.000000	65.642240 
1034.000000	65.343050 
1033.000000	65.051181 
1032.000000	64.765498 
1031.000000	64.495528 
1030.000000	64.237343 
1029.000000	63.980685 
1028.000000	63.740693 
1027.000000	63.549040 
1026.000000	63.407711 
1025.000000	63.282162 
1024.000000	63.146455 
1023.000000	63.004910 
1022.000000	62.863628 
1021.000000	62.714840 
1020.000000	62.558879 
1019.000000	62.410246 
1018.000000	62.271242 
1017.000000	62.127386 
1016.000000	61.976663 
1015.000000	61.834807 
1014.000000	61.704738 
1013.000000	61.570349 
1012.000000	61.427791 
1011.000000	61.293426 
1010.000000	61.173688 
1009.000000	61.056675 
1008.000000	60.940568 
1007.000000	60.840672 
1006.000000	60.761366 
1005.000000	60.690393 
1004.000000	60.626646 
1003.000000	60.583381 
1002.000000	60.558521 
1001.000000	60.533426 
1000.000000	60.507318 
999.000000	 60.500830 
998.000000	 60.518615 
997.000000	 60.540594 
996.000000	 60.557372 
995.000000	 60.582415 
994.000000	 60.621554 
993.000000	 60.662872 
992.000000	 60.704792 
991.000000	 60.761905 
990.000000	 60.834314 
989.000000	 60.903147 
988.000000	 60.965587 
987.000000	 61.043023 
986.000000	 61.145665 
985.000000	 61.260659 
984.000000	 61.383586 
983.000000	 61.529445 
982.000000	 61.702527 
981.000000	 61.886966 
980.000000	 62.077588 
979.000000	 62.289826 
978.000000	 62.528426 
977.000000	 62.776741 
976.000000	 63.028179 
975.000000	 63.299006 
974.000000	 63.598159 
973.000000	 63.912109 
972.000000	 64.230904 
971.000000	 64.563001 
970.000000	 64.913043 
969.000000	 65.269637 
968.000000	 65.625495 
967.000000	 65.987102 
966.000000	 66.356293 
965.000000	 66.724509 
964.000000	 67.091382 
963.000000	 67.466156 
962.000000	 67.845466 
961.000000	 68.213023 
960.000000	 68.566026 
959.000000	 68.918308 
958.000000	 69.273143 
957.000000	 69.617236 
956.000000	 69.946289 
955.000000	 70.272011 
954.000000	 70.598467 
953.000000	 70.915020 
952.000000	 71.217553 
951.000000	 71.513047 
950.000000	 71.798765 
949.000000	 72.060806 
948.000000	 72.298114 
947.000000	 72.524567 
946.000000	 72.742885 
945.000000	 72.940178 
944.000000	 73.114044 
943.000000	 73.278960 
942.000000	 73.441355 
941.000000	 73.592222 
940.000000	 73.730746 
939.000000	 73.871172 
938.000000	 74.019070 
937.000000	 74.163861 
936.000000	 74.302323 
935.000000	 74.446857 
934.000000	 74.603195 
933.000000	 74.762172 
932.000000	 74.920723 
931.000000	 75.088703 
930.000000	 75.267289 
929.000000	 75.441982 
928.000000	 75.604665 
927.000000	 75.762576 
926.000000	 75.919382 
925.000000	 76.067551 
924.000000	 76.204933 
923.000000	 76.338078 
922.000000	 76.463808 
921.000000	 76.569036 
920.000000	 76.654831 
919.000000	 76.739226 
918.000000	 76.829566 
917.000000	 76.913476 
916.000000	 76.984917 
915.000000	 77.058862 
914.000000	 77.152036 
913.000000	 77.268404 
912.000000	 77.411153 
911.000000	 77.589678 
910.000000	 77.806544 
909.000000	 78.054543 
908.000000	 78.332493 
907.000000	 78.647526 
906.000000	 78.998657 
905.000000	 79.375377 
904.000000	 79.773648 
903.000000	 80.194927 
902.000000	 80.629983 
901.000000	 81.063992 
900.000000	 81.497367 
899.000000	 81.941159 
898.000000	 82.392638 
897.000000	 82.835491 
896.000000	 83.262251 
895.000000	 83.675506 
894.000000	 84.070050 
893.000000	 84.437245 
892.000000	 84.785908 
891.000000	 85.135068 
890.000000	 85.484092 
889.000000	 85.810783 
888.000000	 86.099493 
887.000000	 86.350813 
886.000000	 86.565987 
885.000000	 86.745283 
884.000000	 86.901313 
883.000000	 87.049007 
882.000000	 87.181028 
881.000000	 87.279512 
880.000000	 87.354841 
879.000000	 87.444191 
878.000000	 87.565598 
877.000000	 87.703405 
876.000000	 87.848590 
875.000000	 88.023155 
874.000000	 88.251511 
873.000000	 88.534709 
872.000000	 88.865188 
871.000000	 89.240497 
870.000000	 89.648501 
869.000000	 90.061752 
868.000000	 90.460729 
867.000000	 90.846756 
866.000000	 91.224420 
865.000000	 91.588622 
864.000000	 91.936507 
863.000000	 92.275109 
862.000000	 92.608126 
861.000000	 92.928878 
860.000000	 93.233313 
859.000000	 93.526500 
858.000000	 93.810258 
857.000000	 94.077608 
856.000000	 94.324962 
855.000000	 94.556660 
854.000000	 94.772181 
853.000000	 94.962137 
852.000000	 95.123067 
851.000000	 95.264629 
850.000000	 95.397214 
849.000000	 95.523384 
848.000000	 95.644630 
847.000000	 95.763132 
846.000000	 95.872261 
845.000000	 95.958508 
844.000000	 96.017678 
843.000000	 96.057232 
842.000000	 96.079460 
841.000000	 96.075562 
840.000000	 96.040086 
839.000000	 95.977669 
838.000000	 95.892145 
837.000000	 95.783920 
836.000000	 95.663407 
835.000000	 95.552256 
834.000000	 95.463391 
833.000000	 95.392165 
832.000000	 95.333311 
831.000000	 95.292877 
830.000000	 95.276919 
829.000000	 95.283074 
828.000000	 95.311375 
827.000000	 95.368723 
826.000000	 95.453873 
825.000000	 95.552947 
824.000000	 95.657800 
823.000000	 95.772227 
822.000000	 95.893428 
821.000000	 96.006519 
820.000000	 96.103615 
819.000000	 96.189283 
818.000000	 96.261409 
817.000000	 96.303704 
816.000000	 96.303604 
815.000000	 96.263708 
814.000000	 96.188707 
813.000000	 96.072223 
812.000000	 95.901794 
811.000000	 95.664340 
810.000000	 95.340708 
809.000000	 94.908654 
808.000000	 94.361629 
807.000000	 93.717105 
806.000000	 93.001429 
805.000000	 92.237749 
804.000000	 91.454794 
803.000000	 90.691645 
802.000000	 89.982299 
801.000000	 89.349008 
800.000000	 88.818976 
799.000000	 88.428275 
798.000000	 88.196095 
797.000000	 88.110233 
796.000000	 88.145245 
795.000000	 88.275593 
794.000000	 88.465285 
793.000000	 88.670117 
792.000000	 88.863758 
791.000000	 89.044777 
790.000000	 89.210275 
789.000000	 89.340517 
788.000000	 89.416245 
787.000000	 89.431764 
786.000000	 89.382297 
785.000000	 89.256619 
784.000000	 89.053618 
783.000000	 88.793214 
782.000000	 88.503727 
781.000000	 88.213221 
780.000000	 87.958736 
779.000000	 87.783648 
778.000000	 87.713193 
777.000000	 87.745617 
776.000000	 87.872021 
775.000000	 88.085343 
774.000000	 88.363185 
773.000000	 88.663839 
772.000000	 88.951902 
771.000000	 89.214791 
770.000000	 89.449866 
769.000000	 89.652427 
768.000000	 89.821377 
767.000000	 89.959428 
766.000000	 90.062115 
765.000000	 90.123108 
764.000000	 90.154954 
763.000000	 90.186709 
762.000000	 90.234947 
761.000000	 90.293442 
760.000000	 90.355025 
759.000000	 90.423839 
758.000000	 90.501238 
757.000000	 90.581549 
756.000000	 90.669446 
755.000000	 90.780176 
754.000000	 90.913036 
753.000000	 91.044106 
752.000000	 91.154905 
751.000000	 91.251130 
750.000000	 91.346613 
749.000000	 91.447944 
748.000000	 91.562426 
747.000000	 91.700264 
746.000000	 91.857832 
745.000000	 92.017599 
744.000000	 92.175842 
743.000000	 92.352253 
742.000000	 92.560925 
741.000000	 92.789960 
740.000000	 93.021072 
739.000000	 93.251645 
738.000000	 93.484885 
737.000000	 93.713836 
736.000000	 93.928518 
735.000000	 94.126696 
734.000000	 94.307681 
733.000000	 94.467155 
732.000000	 94.605088 
731.000000	 94.725955 
730.000000	 94.826039 
729.000000	 94.895896 
728.000000	 94.939896 
727.000000	 94.979389 
726.000000	 95.033008 
725.000000	 95.105838 
724.000000	 95.199719 
723.000000	 95.317359 
722.000000	 95.450748 
721.000000	 95.580997 
720.000000	 95.697061 
719.000000	 95.802488 
718.000000	 95.898765 
717.000000	 95.977747 
716.000000	 96.037073 
715.000000	 96.087412 
714.000000	 96.138721 
713.000000	 96.193885 
712.000000	 96.259210 
711.000000	 96.343844 
710.000000	 96.442693 
709.000000	 96.537282 
708.000000	 96.615143 
707.000000	 96.673565 
706.000000	 96.705578 
705.000000	 96.698815 
704.000000	 96.650438 
703.000000	 96.566195 
702.000000	 96.437745 
701.000000	 96.239372 
700.000000	 95.955281 
699.000000	 95.594159 
698.000000	 95.181062 
697.000000	 94.758497 
696.000000	 94.396415 
695.000000	 94.171036 
694.000000	 94.113236 
693.000000	 94.193151 
692.000000	 94.360063 
691.000000	 94.575295 
690.000000	 94.807767 
689.000000	 95.027182 
688.000000	 95.218611 
687.000000	 95.386683 
686.000000	 95.531318 
685.000000	 95.642864 
684.000000	 95.728736 
683.000000	 95.813842 
682.000000	 95.906973 
681.000000	 95.993301 
680.000000	 96.067925 
679.000000	 96.148238 
678.000000	 96.244709 
677.000000	 96.351680 
676.000000	 96.465978 
675.000000	 96.592532 
674.000000	 96.719177 
673.000000	 96.811540 
672.000000	 96.845311 
671.000000	 96.820468 
670.000000	 96.747122 
669.000000	 96.651246 
668.000000	 96.642506 
667.000000	 96.842301 
666.000000	 97.140929 
665.000000	 97.378704 
664.000000	 97.535406 
663.000000	 97.646200 
662.000000	 97.740921 
661.000000	 97.823668 
660.000000	 97.889449 
659.000000	 97.943760 
658.000000	 97.990535 
657.000000	 98.022294 
656.000000	 98.030930 
655.000000	 98.022468 
654.000000	 98.003881 
653.000000	 97.969010 
652.000000	 97.921243 
651.000000	 97.897436 
650.000000	 97.932577 

