4000.000000	98.370144 
3999.000000	98.369143 
3998.000000	98.366899 
3997.000000	98.364117 
3996.000000	98.361847 
3995.000000	98.360704 
3994.000000	98.360707 
3993.000000	98.361381 
3992.000000	98.362083 
3991.000000	98.362387 
3990.000000	98.362255 
3989.000000	98.361945 
3988.000000	98.361703 
3987.000000	98.361614 
3986.000000	98.361705 
3985.000000	98.361974 
3984.000000	98.362217 
3983.000000	98.362174 
3982.000000	98.362065 
3981.000000	98.362576 
3980.000000	98.363875 
3979.000000	98.365022 
3978.000000	98.364954 
3977.000000	98.363805 
3976.000000	98.362767 
3975.000000	98.362579 
3974.000000	98.362717 
3973.000000	98.362232 
3972.000000	98.360809 
3971.000000	98.358825 
3970.000000	98.356842 
3969.000000	98.355415 
3968.000000	98.355041 
3967.000000	98.355786 
3966.000000	98.357025 
3965.000000	98.357734 
3964.000000	98.357121 
3963.000000	98.355153 
3962.000000	98.352697 
3961.000000	98.351006 
3960.000000	98.350735 
3959.000000	98.351552 
3958.000000	98.352676 
3957.000000	98.353692 
3956.000000	98.354495 
3955.000000	98.354594 
3954.000000	98.353286 
3953.000000	98.350391 
3952.000000	98.346595 
3951.000000	98.342962 
3950.000000	98.340170 
3949.000000	98.338385 
3948.000000	98.337308 
3947.000000	98.336504 
3946.000000	98.335951 
3945.000000	98.336089 
3944.000000	98.337098 
3943.000000	98.338297 
3942.000000	98.338996 
3941.000000	98.339423 
3940.000000	98.340197 
3939.000000	98.341350 
3938.000000	98.342158 
3937.000000	98.341993 
3936.000000	98.340892 
3935.000000	98.339082 
3934.000000	98.336860 
3933.000000	98.334741 
3932.000000	98.333366 
3931.000000	98.332700 
3930.000000	98.332116 
3929.000000	98.331660 
3928.000000	98.332133 
3927.000000	98.333863 
3926.000000	98.335783 
3925.000000	98.336251 
3924.000000	98.335008 
3923.000000	98.333117 
3922.000000	98.331224 
3921.000000	98.329317 
3920.000000	98.327742 
3919.000000	98.327429 
3918.000000	98.328609 
3917.000000	98.330305 
3916.000000	98.331565 
3915.000000	98.332349 
3914.000000	98.332903 
3913.000000	98.333151 
3912.000000	98.333012 
3911.000000	98.332901 
3910.000000	98.333025 
3909.000000	98.333028 
3908.000000	98.332600 
3907.000000	98.331603 
3906.000000	98.329984 
3905.000000	98.327208 
3904.000000	98.322939 
3903.000000	98.318192 
3902.000000	98.314843 
3901.000000	98.314043 
3900.000000	98.315441 
3899.000000	98.317681 
3898.000000	98.319752 
3897.000000	98.321238 
3896.000000	98.321881 
3895.000000	98.321877 
3894.000000	98.321878 
3893.000000	98.322419 
3892.000000	98.322982 
3891.000000	98.322364 
3890.000000	98.320387 
3889.000000	98.317973 
3888.000000	98.316140 
3887.000000	98.315209 
3886.000000	98.315052 
3885.000000	98.315429 
3884.000000	98.315895 
3883.000000	98.315747 
3882.000000	98.314787 
3881.000000	98.313784 
3880.000000	98.313649 
3879.000000	98.314238 
3878.000000	98.314766 
3877.000000	98.314917 
3876.000000	98.315026 
3875.000000	98.315254 
3874.000000	98.315301 
3873.000000	98.314948 
3872.000000	98.314364 
3871.000000	98.313726 
3870.000000	98.313156 
3869.000000	98.313026 
3868.000000	98.313498 
3867.000000	98.314167 
3866.000000	98.314510 
3865.000000	98.314527 
3864.000000	98.314682 
3863.000000	98.315154 
3862.000000	98.315533 
3861.000000	98.315669 
3860.000000	98.315905 
3859.000000	98.316439 
3858.000000	98.316985 
3857.000000	98.317157 
3856.000000	98.316957 
3855.000000	98.316626 
3854.000000	98.316165 
3853.000000	98.315618 
3852.000000	98.315360 
3851.000000	98.315563 
3850.000000	98.315957 
3849.000000	98.316380 
3848.000000	98.316956 
3847.000000	98.317814 
3846.000000	98.318682 
3845.000000	98.319160 
3844.000000	98.319180 
3843.000000	98.318920 
3842.000000	98.318557 
3841.000000	98.318331 
3840.000000	98.318417 
3839.000000	98.318901 
3838.000000	98.319724 
3837.000000	98.320495 
3836.000000	98.320851 
3835.000000	98.320784 
3834.000000	98.320623 
3833.000000	98.320792 
3832.000000	98.321416 
3831.000000	98.322295 
3830.000000	98.323140 
3829.000000	98.323800 
3828.000000	98.324509 
3827.000000	98.325595 
3826.000000	98.326830 
3825.000000	98.327660 
3824.000000	98.327714 
3823.000000	98.327116 
3822.000000	98.326420 
3821.000000	98.325974 
3820.000000	98.325821 
3819.000000	98.325731 
3818.000000	98.325476 
3817.000000	98.325352 
3816.000000	98.326139 
3815.000000	98.328235 
3814.000000	98.330787 
3813.000000	98.332295 
3812.000000	98.332276 
3811.000000	98.332011 
3810.000000	98.332936 
3809.000000	98.334688 
3808.000000	98.335408 
3807.000000	98.334024 
3806.000000	98.331494 
3805.000000	98.329262 
3804.000000	98.327335 
3803.000000	98.325705 
3802.000000	98.325041 
3801.000000	98.325749 
3800.000000	98.327394 
3799.000000	98.328277 
3798.000000	98.327346 
3797.000000	98.326098 
3796.000000	98.326939 
3795.000000	98.330208 
3794.000000	98.333794 
3793.000000	98.335823 
3792.000000	98.336739 
3791.000000	98.338326 
3790.000000	98.340725 
3789.000000	98.342077 
3788.000000	98.341311 
3787.000000	98.339527 
3786.000000	98.338409 
3785.000000	98.338257 
3784.000000	98.338213 
3783.000000	98.337780 
3782.000000	98.336873 
3781.000000	98.335587 
3780.000000	98.334701 
3779.000000	98.335514 
3778.000000	98.338067 
3777.000000	98.340579 
3776.000000	98.341018 
3775.000000	98.338962 
3774.000000	98.335820 
3773.000000	98.333287 
3772.000000	98.331866 
3771.000000	98.330656 
3770.000000	98.328843 
3769.000000	98.326900 
3768.000000	98.325371 
3767.000000	98.323885 
3766.000000	98.322406 
3765.000000	98.321770 
3764.000000	98.322923 
3763.000000	98.325246 
3762.000000	98.326396 
3761.000000	98.324849 
3760.000000	98.321815 
3759.000000	98.320088 
3758.000000	98.319270 
3757.000000	98.316065 
3756.000000	98.309297 
3755.000000	98.300379 
3754.000000	98.291134 
3753.000000	98.282944 
3752.000000	98.278214 
3751.000000	98.278746 
3750.000000	98.281126 
3749.000000	98.280377 
3748.000000	98.276882 
3747.000000	98.274815 
3746.000000	98.277281 
3745.000000	98.282508 
3744.000000	98.288619 
3743.000000	98.295134 
3742.000000	98.297991 
3741.000000	98.292813 
3740.000000	98.281971 
3739.000000	98.274456 
3738.000000	98.276147 
3737.000000	98.281915 
3736.000000	98.283692 
3735.000000	98.281535 
3734.000000	98.281337 
3733.000000	98.284580 
3732.000000	98.288538 
3731.000000	98.292468 
3730.000000	98.296412 
3729.000000	98.298734 
3728.000000	98.298254 
3727.000000	98.296169 
3726.000000	98.295069 
3725.000000	98.295403 
3724.000000	98.295067 
3723.000000	98.292893 
3722.000000	98.290339 
3721.000000	98.289044 
3720.000000	98.287360 
3719.000000	98.283933 
3718.000000	98.279819 
3717.000000	98.276186 
3716.000000	98.273271 
3715.000000	98.269531 
3714.000000	98.264188 
3713.000000	98.259666 
3712.000000	98.258761 
3711.000000	98.260117 
3710.000000	98.258627 
3709.000000	98.251297 
3708.000000	98.239219 
3707.000000	98.224550 
3706.000000	98.209288 
3705.000000	98.195191 
3704.000000	98.183224 
3703.000000	98.173025 
3702.000000	98.162390 
3701.000000	98.149201 
3700.000000	98.133675 
3699.000000	98.118513 
3698.000000	98.106885 
3697.000000	98.099817 
3696.000000	98.096667 
3695.000000	98.095793 
3694.000000	98.094177 
3693.000000	98.089061 
3692.000000	98.080060 
3691.000000	98.068788 
3690.000000	98.056423 
3689.000000	98.044647 
3688.000000	98.037008 
3687.000000	98.035058 
3686.000000	98.035847 
3685.000000	98.034975 
3684.000000	98.030905 
3683.000000	98.026085 
3682.000000	98.022728 
3681.000000	98.017865 
3680.000000	98.006210 
3679.000000	97.986272 
3678.000000	97.962619 
3677.000000	97.940723 
3676.000000	97.921358 
3675.000000	97.904345 
3674.000000	97.890079 
3673.000000	97.877048 
3672.000000	97.863238 
3671.000000	97.850650 
3670.000000	97.842605 
3669.000000	97.838250 
3668.000000	97.832710 
3667.000000	97.822723 
3666.000000	97.810440 
3665.000000	97.799703 
3664.000000	97.790884 
3663.000000	97.781507 
3662.000000	97.768927 
3661.000000	97.752005 
3660.000000	97.732334 
3659.000000	97.713000 
3658.000000	97.697179 
3657.000000	97.684790 
3656.000000	97.672164 
3655.000000	97.656682 
3654.000000	97.637907 
3653.000000	97.616429 
3652.000000	97.593161 
3651.000000	97.569994 
3650.000000	97.549402 
3649.000000	97.532722 
3648.000000	97.520536 
3647.000000	97.513696 
3646.000000	97.512632 
3645.000000	97.515992 
3644.000000	97.521043 
3643.000000	97.525567 
3642.000000	97.528077 
3641.000000	97.527214 
3640.000000	97.521934 
3639.000000	97.511377 
3638.000000	97.496235 
3637.000000	97.479007 
3636.000000	97.462314 
3635.000000	97.446192 
3634.000000	97.428294 
3633.000000	97.407722 
3632.000000	97.386475 
3631.000000	97.367692 
3630.000000	97.352713 
3629.000000	97.339781 
3628.000000	97.326638 
3627.000000	97.314097 
3626.000000	97.303525 
3625.000000	97.296170 
3624.000000	97.293029 
3623.000000	97.293105 
3622.000000	97.293559 
3621.000000	97.292074 
3620.000000	97.288762 
3619.000000	97.285583 
3618.000000	97.284069 
3617.000000	97.285474 
3616.000000	97.292656 
3615.000000	97.308059 
3614.000000	97.329784 
3613.000000	97.351811 
3612.000000	97.368343 
3611.000000	97.377250 
3610.000000	97.380793 
3609.000000	97.383349 
3608.000000	97.387679 
3607.000000	97.393981 
3606.000000	97.401428 
3605.000000	97.410722 
3604.000000	97.423885 
3603.000000	97.441095 
3602.000000	97.458936 
3601.000000	97.471990 
3600.000000	97.477261 
3599.000000	97.476758 
3598.000000	97.475767 
3597.000000	97.478646 
3596.000000	97.486848 
3595.000000	97.497230 
3594.000000	97.503991 
3593.000000	97.503892 
3592.000000	97.497953 
3591.000000	97.489468 
3590.000000	97.482110 
3589.000000	97.478603 
3588.000000	97.479672 
3587.000000	97.483885 
3586.000000	97.489320 
3585.000000	97.495416 
3584.000000	97.503049 
3583.000000	97.512623 
3582.000000	97.522931 
3581.000000	97.531048 
3580.000000	97.534333 
3579.000000	97.532618 
3578.000000	97.528575 
3577.000000	97.525750 
3576.000000	97.525772 
3575.000000	97.527583 
3574.000000	97.528540 
3573.000000	97.526595 
3572.000000	97.521021 
3571.000000	97.512022 
3570.000000	97.500814 
3569.000000	97.490253 
3568.000000	97.484262 
3567.000000	97.484954 
3566.000000	97.490254 
3565.000000	97.495862 
3564.000000	97.499179 
3563.000000	97.500634 
3562.000000	97.501923 
3561.000000	97.504076 
3560.000000	97.506685 
3559.000000	97.508574 
3558.000000	97.509031 
3557.000000	97.508421 
3556.000000	97.507594 
3555.000000	97.506959 
3554.000000	97.506232 
3553.000000	97.504849 
3552.000000	97.502596 
3551.000000	97.499513 
3550.000000	97.495753 
3549.000000	97.491960 
3548.000000	97.489352 
3547.000000	97.488552 
3546.000000	97.488642 
3545.000000	97.488245 
3544.000000	97.487622 
3543.000000	97.488373 
3542.000000	97.491117 
3541.000000	97.494726 
3540.000000	97.497765 
3539.000000	97.499734 
3538.000000	97.500746 
3537.000000	97.500745 
3536.000000	97.499688 
3535.000000	97.497860 
3534.000000	97.495807 
3533.000000	97.494125 
3532.000000	97.493380 
3531.000000	97.493925 
3530.000000	97.495327 
3529.000000	97.496259 
3528.000000	97.495490 
3527.000000	97.493065 
3526.000000	97.490332 
3525.000000	97.488807 
3524.000000	97.489067 
3523.000000	97.490704 
3522.000000	97.492933 
3521.000000	97.495122 
3520.000000	97.497039 
3519.000000	97.498630 
3518.000000	97.499719 
3517.000000	97.499931 
3516.000000	97.499061 
3515.000000	97.497469 
3514.000000	97.496030 
3513.000000	97.495515 
3512.000000	97.495972 
3511.000000	97.496721 
3510.000000	97.496981 
3509.000000	97.496527 
3508.000000	97.495730 
3507.000000	97.495048 
3506.000000	97.494584 
3505.000000	97.494091 
3504.000000	97.493357 
3503.000000	97.492484 
3502.000000	97.491839 
3501.000000	97.491772 
3500.000000	97.492429 
3499.000000	97.493709 
3498.000000	97.495236 
3497.000000	97.496415 
3496.000000	97.496656 
3495.000000	97.495784 
3494.000000	97.494257 
3493.000000	97.492878 
3492.000000	97.492119 
3491.000000	97.491768 
3490.000000	97.491387 
3489.000000	97.490940 
3488.000000	97.490651 
3487.000000	97.490368 
3486.000000	97.489538 
3485.000000	97.487996 
3484.000000	97.486359 
3483.000000	97.485287 
3482.000000	97.484689 
3481.000000	97.484018 
3480.000000	97.483098 
3479.000000	97.482226 
3478.000000	97.481541 
3477.000000	97.480712 
3476.000000	97.479337 
3475.000000	97.477466 
3474.000000	97.475560 
3473.000000	97.473996 
3472.000000	97.472710 
3471.000000	97.471311 
3470.000000	97.469511 
3469.000000	97.467459 
3468.000000	97.465611 
3467.000000	97.464341 
3466.000000	97.463669 
3465.000000	97.463230 
3464.000000	97.462416 
3463.000000	97.460687 
3462.000000	97.457970 
3461.000000	97.454822 
3460.000000	97.452089 
3459.000000	97.450183 
3458.000000	97.448755 
3457.000000	97.447070 
3456.000000	97.444776 
3455.000000	97.442251 
3454.000000	97.440229 
3453.000000	97.439072 
3452.000000	97.438477 
3451.000000	97.437792 
3450.000000	97.436546 
3449.000000	97.434677 
3448.000000	97.432328 
3447.000000	97.429631 
3446.000000	97.426694 
3445.000000	97.423784 
3444.000000	97.421330 
3443.000000	97.419637 
3442.000000	97.418578 
3441.000000	97.417596 
3440.000000	97.416118 
3439.000000	97.413958 
3438.000000	97.411321 
3437.000000	97.408563 
3436.000000	97.406080 
3435.000000	97.404287 
3434.000000	97.403455 
3433.000000	97.403395 
3432.000000	97.403439 
3431.000000	97.402989 
3430.000000	97.401952 
3429.000000	97.400619 
3428.000000	97.399189 
3427.000000	97.397589 
3426.000000	97.395814 
3425.000000	97.394221 
3424.000000	97.393274 
3423.000000	97.392939 
3422.000000	97.392564 
3421.000000	97.391535 
3420.000000	97.389948 
3419.000000	97.388471 
3418.000000	97.387574 
3417.000000	97.387114 
3416.000000	97.386643 
3415.000000	97.385864 
3414.000000	97.384709 
3413.000000	97.383186 
3412.000000	97.381430 
3411.000000	97.379801 
3410.000000	97.378725 
3409.000000	97.378385 
3408.000000	97.378598 
3407.000000	97.378932 
3406.000000	97.378955 
3405.000000	97.378463 
3404.000000	97.377565 
3403.000000	97.376555 
3402.000000	97.375682 
3401.000000	97.375053 
3400.000000	97.374725 
3399.000000	97.374736 
3398.000000	97.374992 
3397.000000	97.375247 
3396.000000	97.375323 
3395.000000	97.375304 
3394.000000	97.375408 
3393.000000	97.375689 
3392.000000	97.375953 
3391.000000	97.375956 
3390.000000	97.375664 
3389.000000	97.375339 
3388.000000	97.375383 
3387.000000	97.376038 
3386.000000	97.377170 
3385.000000	97.378275 
3384.000000	97.378822 
3383.000000	97.378689 
3382.000000	97.378361 
3381.000000	97.378580 
3380.000000	97.379635 
3379.000000	97.381089 
3378.000000	97.382287 
3377.000000	97.383160 
3376.000000	97.384212 
3375.000000	97.385668 
3374.000000	97.386955 
3373.000000	97.387314 
3372.000000	97.386764 
3371.000000	97.386263 
3370.000000	97.386806 
3369.000000	97.388589 
3368.000000	97.391031 
3367.000000	97.393303 
3366.000000	97.394833 
3365.000000	97.395494 
3364.000000	97.395601 
3363.000000	97.395721 
3362.000000	97.396287 
3361.000000	97.397377 
3360.000000	97.398883 
3359.000000	97.400735 
3358.000000	97.402808 
3357.000000	97.404785 
3356.000000	97.406370 
3355.000000	97.407689 
3354.000000	97.409274 
3353.000000	97.411626 
3352.000000	97.414855 
3351.000000	97.418675 
3350.000000	97.422550 
3349.000000	97.425829 
3348.000000	97.428055 
3347.000000	97.429358 
3346.000000	97.430423 
3345.000000	97.431858 
3344.000000	97.433558 
3343.000000	97.434884 
3342.000000	97.435492 
3341.000000	97.435810 
3340.000000	97.436542 
3339.000000	97.437830 
3338.000000	97.439269 
3337.000000	97.440591 
3336.000000	97.442015 
3335.000000	97.443849 
3334.000000	97.445986 
3333.000000	97.447969 
3332.000000	97.449493 
3331.000000	97.450674 
3330.000000	97.451836 
3329.000000	97.453161 
3328.000000	97.454627 
3327.000000	97.456180 
3326.000000	97.457820 
3325.000000	97.459523 
3324.000000	97.461193 
3323.000000	97.462729 
3322.000000	97.464140 
3321.000000	97.465521 
3320.000000	97.466950 
3319.000000	97.468431 
3318.000000	97.469928 
3317.000000	97.471411 
3316.000000	97.472865 
3315.000000	97.474290 
3314.000000	97.475689 
3313.000000	97.477065 
3312.000000	97.478425 
3311.000000	97.479777 
3310.000000	97.481126 
3309.000000	97.482475 
3308.000000	97.483822 
3307.000000	97.485165 
3306.000000	97.486507 
3305.000000	97.487855 
3304.000000	97.489219 
3303.000000	97.490609 
3302.000000	97.492038 
3301.000000	97.493518 
3300.000000	97.495032 
3299.000000	97.496525 
3298.000000	97.497922 
3297.000000	97.499174 
3296.000000	97.500335 
3295.000000	97.501558 
3294.000000	97.502993 
3293.000000	97.504678 
3292.000000	97.506521 
3291.000000	97.508399 
3290.000000	97.510232 
3289.000000	97.511962 
3288.000000	97.513554 
3287.000000	97.515056 
3286.000000	97.516571 
3285.000000	97.518096 
3284.000000	97.519460 
3283.000000	97.520537 
3282.000000	97.521495 
3281.000000	97.522677 
3280.000000	97.524155 
3279.000000	97.525580 
3278.000000	97.526629 
3277.000000	97.527478 
3276.000000	97.528587 
3275.000000	97.530085 
3274.000000	97.531683 
3273.000000	97.533225 
3272.000000	97.534999 
3271.000000	97.537334 
3270.000000	97.540133 
3269.000000	97.542914 
3268.000000	97.545231 
3267.000000	97.547001 
3266.000000	97.548581 
3265.000000	97.550550 
3264.000000	97.553195 
3263.000000	97.556092 
3262.000000	97.558436 
3261.000000	97.559876 
3260.000000	97.560767 
3259.000000	97.561565 
3258.000000	97.562296 
3257.000000	97.562931 
3256.000000	97.563865 
3255.000000	97.565447 
3254.000000	97.567323 
3253.000000	97.568869 
3252.000000	97.570150 
3251.000000	97.571860 
3250.000000	97.574225 
3249.000000	97.576583 
3248.000000	97.578236 
3247.000000	97.579380 
3246.000000	97.580820 
3245.000000	97.582917 
3244.000000	97.585196 
3243.000000	97.586981 
3242.000000	97.588142 
3241.000000	97.589140 
3240.000000	97.590514 
3239.000000	97.592497 
3238.000000	97.595038 
3237.000000	97.597952 
3236.000000	97.600954 
3235.000000	97.603660 
3234.000000	97.605723 
3233.000000	97.607034 
3232.000000	97.607806 
3231.000000	97.608518 
3230.000000	97.609630 
3229.000000	97.611298 
3228.000000	97.613370 
3227.000000	97.615630 
3226.000000	97.618072 
3225.000000	97.620818 
3224.000000	97.623796 
3223.000000	97.626663 
3222.000000	97.629106 
3221.000000	97.631126 
3220.000000	97.632948 
3219.000000	97.634727 
3218.000000	97.636446 
3217.000000	97.638074 
3216.000000	97.639717 
3215.000000	97.641567 
3214.000000	97.643748 
3213.000000	97.646177 
3212.000000	97.648585 
3211.000000	97.650725 
3210.000000	97.652603 
3209.000000	97.654470 
3208.000000	97.656540 
3207.000000	97.658730 
3206.000000	97.660757 
3205.000000	97.662489 
3204.000000	97.664128 
3203.000000	97.666037 
3202.000000	97.668378 
3201.000000	97.670975 
3200.000000	97.673462 
3199.000000	97.675614 
3198.000000	97.677540 
3197.000000	97.679545 
3196.000000	97.681790 
3195.000000	97.684154 
3194.000000	97.686453 
3193.000000	97.688727 
3192.000000	97.691185 
3191.000000	97.693863 
3190.000000	97.696499 
3189.000000	97.698787 
3188.000000	97.700674 
3187.000000	97.702392 
3186.000000	97.704271 
3185.000000	97.706493 
3184.000000	97.709008 
3183.000000	97.711606 
3182.000000	97.714096 
3181.000000	97.716418 
3180.000000	97.718599 
3179.000000	97.720665 
3178.000000	97.722643 
3177.000000	97.724611 
3176.000000	97.726688 
3175.000000	97.728971 
3174.000000	97.731496 
3173.000000	97.734207 
3172.000000	97.736911 
3171.000000	97.739337 
3170.000000	97.741363 
3169.000000	97.743144 
3168.000000	97.744940 
3167.000000	97.746836 
3166.000000	97.748752 
3165.000000	97.750620 
3164.000000	97.752433 
3163.000000	97.754175 
3162.000000	97.755856 
3161.000000	97.757570 
3160.000000	97.759415 
3159.000000	97.761377 
3158.000000	97.763377 
3157.000000	97.765371 
3156.000000	97.767346 
3155.000000	97.769251 
3154.000000	97.771049 
3153.000000	97.772807 
3152.000000	97.774642 
3151.000000	97.776577 
3150.000000	97.778509 
3149.000000	97.780320 
3148.000000	97.781996 
3147.000000	97.783644 
3146.000000	97.785425 
3145.000000	97.787425 
3144.000000	97.789594 
3143.000000	97.791740 
3142.000000	97.793669 
3141.000000	97.795341 
3140.000000	97.796932 
3139.000000	97.798692 
3138.000000	97.800695 
3137.000000	97.802773 
3136.000000	97.804683 
3135.000000	97.806292 
3134.000000	97.807642 
3133.000000	97.808927 
3132.000000	97.810369 
3131.000000	97.812034 
3130.000000	97.813835 
3129.000000	97.815766 
3128.000000	97.818014 
3127.000000	97.820699 
3126.000000	97.823606 
3125.000000	97.826295 
3124.000000	97.828474 
3123.000000	97.830162 
3122.000000	97.831535 
3121.000000	97.832804 
3120.000000	97.834199 
3119.000000	97.835852 
3118.000000	97.837650 
3117.000000	97.839392 
3116.000000	97.841118 
3115.000000	97.843088 
3114.000000	97.845394 
3113.000000	97.847847 
3112.000000	97.850348 
3111.000000	97.853128 
3110.000000	97.856374 
3109.000000	97.859773 
3108.000000	97.862738 
3107.000000	97.865046 
3106.000000	97.866888 
3105.000000	97.868290 
3104.000000	97.868852 
3103.000000	97.868338 
3102.000000	97.867303 
3101.000000	97.866708 
3100.000000	97.867014 
3099.000000	97.868065 
3098.000000	97.869814 
3097.000000	97.872680 
3096.000000	97.876775 
3095.000000	97.881101 
3094.000000	97.884223 
3093.000000	97.885642 
3092.000000	97.886186 
3091.000000	97.886903 
3090.000000	97.888005 
3089.000000	97.889082 
3088.000000	97.889822 
3087.000000	97.890311 
3086.000000	97.890935 
3085.000000	97.892077 
3084.000000	97.893689 
3083.000000	97.895162 
3082.000000	97.895968 
3081.000000	97.896437 
3080.000000	97.897426 
3079.000000	97.899081 
3078.000000	97.900660 
3077.000000	97.901940 
3076.000000	97.903866 
3075.000000	97.906998 
3074.000000	97.910180 
3073.000000	97.911888 
3072.000000	97.912251 
3071.000000	97.912524 
3070.000000	97.913041 
3069.000000	97.913173 
3068.000000	97.913043 
3067.000000	97.913659 
3066.000000	97.915135 
3065.000000	97.916199 
3064.000000	97.915879 
3063.000000	97.914457 
3062.000000	97.912497 
3061.000000	97.910181 
3060.000000	97.908065 
3059.000000	97.907370 
3058.000000	97.909012 
3057.000000	97.912902 
3056.000000	97.918067 
3055.000000	97.922435 
3054.000000	97.923012 
3053.000000	97.918291 
3052.000000	97.911088 
3051.000000	97.907202 
3050.000000	97.909739 
3049.000000	97.915914 
3048.000000	97.920388 
3047.000000	97.920572 
3046.000000	97.917392 
3045.000000	97.912557 
3044.000000	97.907384 
3043.000000	97.903811 
3042.000000	97.903979 
3041.000000	97.907722 
3040.000000	97.911643 
3039.000000	97.911865 
3038.000000	97.907346 
3037.000000	97.900040 
3036.000000	97.892319 
3035.000000	97.884911 
3034.000000	97.877350 
3033.000000	97.869637 
3032.000000	97.862681 
3031.000000	97.857289 
3030.000000	97.853404 
3029.000000	97.850411 
3028.000000	97.847358 
3027.000000	97.842639 
3026.000000	97.834571 
3025.000000	97.823275 
3024.000000	97.811357 
3023.000000	97.801511 
3022.000000	97.793781 
3021.000000	97.786520 
3020.000000	97.779446 
3019.000000	97.773758 
3018.000000	97.768929 
3017.000000	97.761601 
3016.000000	97.749072 
3015.000000	97.732728 
3014.000000	97.716987 
3013.000000	97.705473 
3012.000000	97.698686 
3011.000000	97.694182 
3010.000000	97.688023 
3009.000000	97.677185 
3008.000000	97.661861 
3007.000000	97.645233 
3006.000000	97.630269 
3005.000000	97.617245 
3004.000000	97.604896 
3003.000000	97.592909 
3002.000000	97.582169 
3001.000000	97.573150 
3000.000000	97.565180 
2999.000000	97.557032 
2998.000000	97.547527 
2997.000000	97.536074 
2996.000000	97.523325 
2995.000000	97.510709 
2994.000000	97.498492 
2993.000000	97.484828 
2992.000000	97.467804 
2991.000000	97.448298 
2990.000000	97.429973 
2989.000000	97.416592 
2988.000000	97.409914 
2987.000000	97.409603 
2986.000000	97.414044 
2985.000000	97.421178 
2984.000000	97.429246 
2983.000000	97.437152 
2982.000000	97.444171 
2981.000000	97.449573 
2980.000000	97.452676 
2979.000000	97.452915 
2978.000000	97.449859 
2977.000000	97.443868 
2976.000000	97.436963 
2975.000000	97.432214 
2974.000000	97.431643 
2973.000000	97.435127 
2972.000000	97.441412 
2971.000000	97.449351 
2970.000000	97.457891 
2969.000000	97.466198 
2968.000000	97.474596 
2967.000000	97.484309 
2966.000000	97.495334 
2965.000000	97.505646 
2964.000000	97.513638 
2963.000000	97.520280 
2962.000000	97.527593 
2961.000000	97.535908 
2960.000000	97.544240 
2959.000000	97.552698 
2958.000000	97.562645 
2957.000000	97.574343 
2956.000000	97.585749 
2955.000000	97.593991 
2954.000000	97.597650 
2953.000000	97.598191 
2952.000000	97.599776 
2951.000000	97.606476 
2950.000000	97.617995 
2949.000000	97.628866 
2948.000000	97.633623 
2947.000000	97.632303 
2946.000000	97.629566 
2945.000000	97.629148 
2944.000000	97.631135 
2943.000000	97.634290 
2942.000000	97.638017 
2941.000000	97.641236 
2940.000000	97.642108 
2939.000000	97.640647 
2938.000000	97.639845 
2937.000000	97.642376 
2936.000000	97.647218 
2935.000000	97.650991 
2934.000000	97.651673 
2933.000000	97.649570 
2932.000000	97.645821 
2931.000000	97.641789 
2930.000000	97.639392 
2929.000000	97.640059 
2928.000000	97.642991 
2927.000000	97.645603 
2926.000000	97.646075 
2925.000000	97.644910 
2924.000000	97.643979 
2923.000000	97.644699 
2922.000000	97.647023 
2921.000000	97.649526 
2920.000000	97.650592 
2919.000000	97.650063 
2918.000000	97.649327 
2917.000000	97.648985 
2916.000000	97.646985 
2915.000000	97.640598 
2914.000000	97.630476 
2913.000000	97.621277 
2912.000000	97.617291 
2911.000000	97.618189 
2910.000000	97.619976 
2909.000000	97.619597 
2908.000000	97.617655 
2907.000000	97.616441 
2906.000000	97.616331 
2905.000000	97.614815 
2904.000000	97.609187 
2903.000000	97.599917 
2902.000000	97.591792 
2901.000000	97.590320 
2900.000000	97.597469 
2899.000000	97.610422 
2898.000000	97.623957 
2897.000000	97.634465 
2896.000000	97.641331 
2895.000000	97.645456 
2894.000000	97.648012 
2893.000000	97.650770 
2892.000000	97.655810 
2891.000000	97.663381 
2890.000000	97.670795 
2889.000000	97.675091 
2888.000000	97.676596 
2887.000000	97.678219 
2886.000000	97.681262 
2885.000000	97.684086 
2884.000000	97.685798 
2883.000000	97.688970 
2882.000000	97.696559 
2881.000000	97.707550 
2880.000000	97.718176 
2879.000000	97.727103 
2878.000000	97.736551 
2877.000000	97.747854 
2876.000000	97.758646 
2875.000000	97.765960 
2874.000000	97.770213 
2873.000000	97.774281 
2872.000000	97.779815 
2871.000000	97.786262 
2870.000000	97.792781 
2869.000000	97.799147 
2868.000000	97.804952 
2867.000000	97.809698 
2866.000000	97.813964 
2865.000000	97.819201 
2864.000000	97.826159 
2863.000000	97.834653 
2862.000000	97.844793 
2861.000000	97.856895 
2860.000000	97.869811 
2859.000000	97.881045 
2858.000000	97.889607 
2857.000000	97.897602 
2856.000000	97.907693 
2855.000000	97.919559 
2854.000000	97.930125 
2853.000000	97.937016 
2852.000000	97.940530 
2851.000000	97.942598 
2850.000000	97.945014 
2849.000000	97.948862 
2848.000000	97.954571 
2847.000000	97.961593 
2846.000000	97.968398 
2845.000000	97.973557 
2844.000000	97.976981 
2843.000000	97.979894 
2842.000000	97.983575 
2841.000000	97.988178 
2840.000000	97.992721 
2839.000000	97.996095 
2838.000000	97.998142 
2837.000000	97.999804 
2836.000000	98.002306 
2835.000000	98.006184 
2834.000000	98.011170 
2833.000000	98.016910 
2832.000000	98.023318 
2831.000000	98.029937 
2830.000000	98.035326 
2829.000000	98.037934 
2828.000000	98.037878 
2827.000000	98.037426 
2826.000000	98.039156 
2825.000000	98.043618 
2824.000000	98.049095 
2823.000000	98.053412 
2822.000000	98.055607 
2821.000000	98.056065 
2820.000000	98.055726 
2819.000000	98.055361 
2818.000000	98.055232 
2817.000000	98.055241 
2816.000000	98.055519 
2815.000000	98.056668 
2814.000000	98.058917 
2813.000000	98.061173 
2812.000000	98.061733 
2811.000000	98.060266 
2810.000000	98.058511 
2809.000000	98.058486 
2808.000000	98.060511 
2807.000000	98.063524 
2806.000000	98.066711 
2805.000000	98.069982 
2804.000000	98.073051 
2803.000000	98.075149 
2802.000000	98.076048 
2801.000000	98.076700 
2800.000000	98.078289 
2799.000000	98.080878 
2798.000000	98.083394 
2797.000000	98.084815 
2796.000000	98.085097 
2795.000000	98.085013 
2794.000000	98.085408 
2793.000000	98.086607 
2792.000000	98.088359 
2791.000000	98.090154 
2790.000000	98.091596 
2789.000000	98.092547 
2788.000000	98.093118 
2787.000000	98.093594 
2786.000000	98.094319 
2785.000000	98.095490 
2784.000000	98.096997 
2783.000000	98.098539 
2782.000000	98.099870 
2781.000000	98.100987 
2780.000000	98.102028 
2779.000000	98.103098 
2778.000000	98.104210 
2777.000000	98.105325 
2776.000000	98.106402 
2775.000000	98.107435 
2774.000000	98.108450 
2773.000000	98.109462 
2772.000000	98.110446 
2771.000000	98.111380 
2770.000000	98.112291 
2769.000000	98.113251 
2768.000000	98.114302 
2767.000000	98.115398 
2766.000000	98.116441 
2765.000000	98.117373 
2764.000000	98.118208 
2763.000000	98.118999 
2762.000000	98.119780 
2761.000000	98.120559 
2760.000000	98.121340 
2759.000000	98.122139 
2758.000000	98.122969 
2757.000000	98.123792 
2756.000000	98.124537 
2755.000000	98.125188 
2754.000000	98.125859 
2753.000000	98.126699 
2752.000000	98.127729 
2751.000000	98.128814 
2750.000000	98.129814 
2749.000000	98.130737 
2748.000000	98.131645 
2747.000000	98.132466 
2746.000000	98.133068 
2745.000000	98.133466 
2744.000000	98.133856 
2743.000000	98.134421 
2742.000000	98.135166 
2741.000000	98.135985 
2740.000000	98.136775 
2739.000000	98.137525 
2738.000000	98.138257 
2737.000000	98.138988 
2736.000000	98.139729 
2735.000000	98.140494 
2734.000000	98.141279 
2733.000000	98.142063 
2732.000000	98.142839 
2731.000000	98.143632 
2730.000000	98.144475 
2729.000000	98.145367 
2728.000000	98.146264 
2727.000000	98.147102 
2726.000000	98.147847 
2725.000000	98.148511 
2724.000000	98.149150 
2723.000000	98.149820 
2722.000000	98.150541 
2721.000000	98.151290 
2720.000000	98.152041 
2719.000000	98.152800 
2718.000000	98.153586 
2717.000000	98.154393 
2716.000000	98.155171 
2715.000000	98.155883 
2714.000000	98.156556 
2713.000000	98.157270 
2712.000000	98.158058 
2711.000000	98.158847 
2710.000000	98.159529 
2709.000000	98.160060 
2708.000000	98.160496 
2707.000000	98.160967 
2706.000000	98.161629 
2705.000000	98.162582 
2704.000000	98.163737 
2703.000000	98.164762 
2702.000000	98.165320 
2701.000000	98.165438 
2700.000000	98.165639 
2699.000000	98.166558 
2698.000000	98.168342 
2697.000000	98.170362 
2696.000000	98.171641 
2695.000000	98.171718 
2694.000000	98.171000 
2693.000000	98.170369 
2692.000000	98.170361 
2691.000000	98.170847 
2690.000000	98.171384 
2689.000000	98.171632 
2688.000000	98.171421 
2687.000000	98.170667 
2686.000000	98.169498 
2685.000000	98.168415 
2684.000000	98.168054 
2683.000000	98.168606 
2682.000000	98.169561 
2681.000000	98.170184 
2680.000000	98.170278 
2679.000000	98.170352 
2678.000000	98.171013 
2677.000000	98.172260 
2676.000000	98.173443 
2675.000000	98.173835 
2674.000000	98.173228 
2673.000000	98.172060 
2672.000000	98.170983 
2671.000000	98.170214 
2670.000000	98.169384 
2669.000000	98.168125 
2668.000000	98.166711 
2667.000000	98.165795 
2666.000000	98.165402 
2665.000000	98.164625 
2664.000000	98.162715 
2663.000000	98.160227 
2662.000000	98.158520 
2661.000000	98.158051 
2660.000000	98.157773 
2659.000000	98.156471 
2658.000000	98.154245 
2657.000000	98.152249 
2656.000000	98.151269 
2655.000000	98.150996 
2654.000000	98.150583 
2653.000000	98.149526 
2652.000000	98.147968 
2651.000000	98.146502 
2650.000000	98.145804 
2649.000000	98.146165 
2648.000000	98.147174 
2647.000000	98.147900 
2646.000000	98.147519 
2645.000000	98.145825 
2644.000000	98.143290 
2643.000000	98.140822 
2642.000000	98.139297 
2641.000000	98.139068 
2640.000000	98.139815 
2639.000000	98.140856 
2638.000000	98.141669 
2637.000000	98.142133 
2636.000000	98.142411 
2635.000000	98.142770 
2634.000000	98.143375 
2633.000000	98.144042 
2632.000000	98.144286 
2631.000000	98.143809 
2630.000000	98.142898 
2629.000000	98.142192 
2628.000000	98.142044 
2627.000000	98.142267 
2626.000000	98.142524 
2625.000000	98.142736 
2624.000000	98.143049 
2623.000000	98.143554 
2622.000000	98.144156 
2621.000000	98.144635 
2620.000000	98.144797 
2619.000000	98.144617 
2618.000000	98.144309 
2617.000000	98.144241 
2616.000000	98.144608 
2615.000000	98.145303 
2614.000000	98.146052 
2613.000000	98.146684 
2612.000000	98.147221 
2611.000000	98.147736 
2610.000000	98.148260 
2609.000000	98.148789 
2608.000000	98.149298 
2607.000000	98.149764 
2606.000000	98.150199 
2605.000000	98.150657 
2604.000000	98.151180 
2603.000000	98.151743 
2602.000000	98.152282 
2601.000000	98.152783 
2600.000000	98.153289 
2599.000000	98.153828 
2598.000000	98.154385 
2597.000000	98.154926 
2596.000000	98.155436 
2595.000000	98.155913 
2594.000000	98.156311 
2593.000000	98.156614 
2592.000000	98.157026 
2591.000000	98.157835 
2590.000000	98.158933 
2589.000000	98.159752 
2588.000000	98.160007 
2587.000000	98.160208 
2586.000000	98.161077 
2585.000000	98.162644 
2584.000000	98.164269 
2583.000000	98.165451 
2582.000000	98.166184 
2581.000000	98.166658 
2580.000000	98.166990 
2579.000000	98.167303 
2578.000000	98.167767 
2577.000000	98.168469 
2576.000000	98.169336 
2575.000000	98.170148 
2574.000000	98.170549 
2573.000000	98.170245 
2572.000000	98.169321 
2571.000000	98.168205 
2570.000000	98.167306 
2569.000000	98.166875 
2568.000000	98.167218 
2567.000000	98.168518 
2566.000000	98.170286 
2565.000000	98.171490 
2564.000000	98.171632 
2563.000000	98.171302 
2562.000000	98.171368 
2561.000000	98.172083 
2560.000000	98.173472 
2559.000000	98.175977 
2558.000000	98.179808 
2557.000000	98.183887 
2556.000000	98.186502 
2555.000000	98.187157 
2554.000000	98.186880 
2553.000000	98.186530 
2552.000000	98.185717 
2551.000000	98.184165 
2550.000000	98.183002 
2549.000000	98.183474 
2548.000000	98.184910 
2547.000000	98.185298 
2546.000000	98.183935 
2545.000000	98.182297 
2544.000000	98.181914 
2543.000000	98.182315 
2542.000000	98.181985 
2541.000000	98.180712 
2540.000000	98.179909 
2539.000000	98.180628 
2538.000000	98.182289 
2537.000000	98.183640 
2536.000000	98.184389 
2535.000000	98.185219 
2534.000000	98.186491 
2533.000000	98.187640 
2532.000000	98.187973 
2531.000000	98.187541 
2530.000000	98.186879 
2529.000000	98.186177 
2528.000000	98.185168 
2527.000000	98.183851 
2526.000000	98.182939 
2525.000000	98.183249 
2524.000000	98.184847 
2523.000000	98.186944 
2522.000000	98.188571 
2521.000000	98.189257 
2520.000000	98.189101 
2519.000000	98.188517 
2518.000000	98.187970 
2517.000000	98.187656 
2516.000000	98.187289 
2515.000000	98.186470 
2514.000000	98.185448 
2513.000000	98.185196 
2512.000000	98.186371 
2511.000000	98.188532 
2510.000000	98.190618 
2509.000000	98.192048 
2508.000000	98.192998 
2507.000000	98.193808 
2506.000000	98.194708 
2505.000000	98.196043 
2504.000000	98.198103 
2503.000000	98.200448 
2502.000000	98.201961 
2501.000000	98.201970 
2500.000000	98.200943 
2499.000000	98.199915 
2498.000000	98.199421 
2497.000000	98.199389 
2496.000000	98.199786 
2495.000000	98.200711 
2494.000000	98.201914 
2493.000000	98.202745 
2492.000000	98.202853 
2491.000000	98.202674 
2490.000000	98.203013 
2489.000000	98.204155 
2488.000000	98.205548 
2487.000000	98.206390 
2486.000000	98.206456 
2485.000000	98.206251 
2484.000000	98.206444 
2483.000000	98.207200 
2482.000000	98.208100 
2481.000000	98.208677 
2480.000000	98.208943 
2479.000000	98.209332 
2478.000000	98.210184 
2477.000000	98.211386 
2476.000000	98.212517 
2475.000000	98.213168 
2474.000000	98.213104 
2473.000000	98.212250 
2472.000000	98.210732 
2471.000000	98.208941 
2470.000000	98.207505 
2469.000000	98.207069 
2468.000000	98.207867 
2467.000000	98.209393 
2466.000000	98.210565 
2465.000000	98.210526 
2464.000000	98.209461 
2463.000000	98.208598 
2462.000000	98.209225 
2461.000000	98.211640 
2460.000000	98.214986 
2459.000000	98.217978 
2458.000000	98.219689 
2457.000000	98.219690 
2456.000000	98.217839 
2455.000000	98.214445 
2454.000000	98.210510 
2453.000000	98.207231 
2452.000000	98.205051 
2451.000000	98.203617 
2450.000000	98.202840 
2449.000000	98.203407 
2448.000000	98.205760 
2447.000000	98.209004 
2446.000000	98.211435 
2445.000000	98.212174 
2444.000000	98.211741 
2443.000000	98.211211 
2442.000000	98.211351 
2441.000000	98.212409 
2440.000000	98.214142 
2439.000000	98.216075 
2438.000000	98.218147 
2437.000000	98.220891 
2436.000000	98.224497 
2435.000000	98.227983 
2434.000000	98.230020 
2433.000000	98.230482 
2432.000000	98.230545 
2431.000000	98.231320 
2430.000000	98.233053 
2429.000000	98.235493 
2428.000000	98.238086 
2427.000000	98.239754 
2426.000000	98.239481 
2425.000000	98.237429 
2424.000000	98.234956 
2423.000000	98.233325 
2422.000000	98.232964 
2421.000000	98.234105 
2420.000000	98.237026 
2419.000000	98.241125 
2418.000000	98.244811 
2417.000000	98.247245 
2416.000000	98.249239 
2415.000000	98.251658 
2414.000000	98.253980 
2413.000000	98.255421 
2412.000000	98.256431 
2411.000000	98.257862 
2410.000000	98.259470 
2409.000000	98.260600 
2408.000000	98.261740 
2407.000000	98.263851 
2406.000000	98.266434 
2405.000000	98.267747 
2404.000000	98.267011 
2403.000000	98.265264 
2402.000000	98.264082 
2401.000000	98.264434 
2400.000000	98.266645 
2399.000000	98.270389 
2398.000000	98.274650 
2397.000000	98.278449 
2396.000000	98.281642 
2395.000000	98.284355 
2394.000000	98.285952 
2393.000000	98.285796 
2392.000000	98.284934 
2391.000000	98.285650 
2390.000000	98.288889 
2389.000000	98.293430 
2388.000000	98.297680 
2387.000000	98.301338 
2386.000000	98.305019 
2385.000000	98.308943 
2384.000000	98.312686 
2383.000000	98.315634 
2382.000000	98.317117 
2381.000000	98.316691 
2380.000000	98.314720 
2379.000000	98.312364 
2378.000000	98.310555 
2377.000000	98.309360 
2376.000000	98.308704 
2375.000000	98.309100 
2374.000000	98.310950 
2373.000000	98.313515 
2372.000000	98.315469 
2371.000000	98.316444 
2370.000000	98.317137 
2369.000000	98.317834 
2368.000000	98.317822 
2367.000000	98.316604 
2366.000000	98.314773 
2365.000000	98.313386 
2364.000000	98.312915 
2363.000000	98.313179 
2362.000000	98.313930 
2361.000000	98.314989 
2360.000000	98.316048 
2359.000000	98.316686 
2358.000000	98.316587 
2357.000000	98.315790 
2356.000000	98.314628 
2355.000000	98.313397 
2354.000000	98.312172 
2353.000000	98.311102 
2352.000000	98.310386 
2351.000000	98.309938 
2350.000000	98.309506 
2349.000000	98.308917 
2348.000000	98.308201 
2347.000000	98.307461 
2346.000000	98.306811 
2345.000000	98.306285 
2344.000000	98.305852 
2343.000000	98.305429 
2342.000000	98.304950 
2341.000000	98.304398 
2340.000000	98.303811 
2339.000000	98.303253 
2338.000000	98.302700 
2337.000000	98.302042 
2336.000000	98.301290 
2335.000000	98.300638 
2334.000000	98.300151 
2333.000000	98.299632 
2332.000000	98.299074 
2331.000000	98.298758 
2330.000000	98.298684 
2329.000000	98.298278 
2328.000000	98.297122 
2327.000000	98.295325 
2326.000000	98.293090 
2325.000000	98.290731 
2324.000000	98.289212 
2323.000000	98.289671 
2322.000000	98.291527 
2321.000000	98.292548 
2320.000000	98.291805 
2319.000000	98.291011 
2318.000000	98.291764 
2317.000000	98.292780 
2316.000000	98.291831 
2315.000000	98.288979 
2314.000000	98.286638 
2313.000000	98.286763 
2312.000000	98.289861 
2311.000000	98.295430 
2310.000000	98.301470 
2309.000000	98.304691 
2308.000000	98.303454 
2307.000000	98.300028 
2306.000000	98.297576 
2305.000000	98.296386 
2304.000000	98.294562 
2303.000000	98.291952 
2302.000000	98.290932 
2301.000000	98.292786 
2300.000000	98.295218 
2299.000000	98.294370 
2298.000000	98.288254 
2297.000000	98.277381 
2296.000000	98.264195 
2295.000000	98.251909 
2294.000000	98.242439 
2293.000000	98.234885 
2292.000000	98.227073 
2291.000000	98.218869 
2290.000000	98.212685 
2289.000000	98.210597 
2288.000000	98.211499 
2287.000000	98.212103 
2286.000000	98.210111 
2285.000000	98.206178 
2284.000000	98.202995 
2283.000000	98.202827 
2282.000000	98.205539 
2281.000000	98.208813 
2280.000000	98.210092 
2279.000000	98.208330 
2278.000000	98.204322 
2277.000000	98.200182 
2276.000000	98.198376 
2275.000000	98.199978 
2274.000000	98.203738 
2273.000000	98.207721 
2272.000000	98.211652 
2271.000000	98.216240 
2270.000000	98.220721 
2269.000000	98.223283 
2268.000000	98.223913 
2267.000000	98.224518 
2266.000000	98.225972 
2265.000000	98.227286 
2264.000000	98.227898 
2263.000000	98.228302 
2262.000000	98.227943 
2261.000000	98.225233 
2260.000000	98.220548 
2259.000000	98.216797 
2258.000000	98.215929 
2257.000000	98.217133 
2256.000000	98.219467 
2255.000000	98.223715 
2254.000000	98.229982 
2253.000000	98.235477 
2252.000000	98.237076 
2251.000000	98.234442 
2250.000000	98.229032 
2249.000000	98.221941 
2248.000000	98.214582 
2247.000000	98.209659 
2246.000000	98.208933 
2245.000000	98.210989 
2244.000000	98.212478 
2243.000000	98.211596 
2242.000000	98.209257 
2241.000000	98.207283 
2240.000000	98.206677 
2239.000000	98.207458 
2238.000000	98.208972 
2237.000000	98.210169 
2236.000000	98.210403 
2235.000000	98.209974 
2234.000000	98.209518 
2233.000000	98.209167 
2232.000000	98.208756 
2231.000000	98.208437 
2230.000000	98.208401 
2229.000000	98.208194 
2228.000000	98.207185 
2227.000000	98.205671 
2226.000000	98.204692 
2225.000000	98.204608 
2224.000000	98.204591 
2223.000000	98.203907 
2222.000000	98.202905 
2221.000000	98.202318 
2220.000000	98.202169 
2219.000000	98.201953 
2218.000000	98.201401 
2217.000000	98.200699 
2216.000000	98.200110 
2215.000000	98.199661 
2214.000000	98.199185 
2213.000000	98.198575 
2212.000000	98.197913 
2211.000000	98.197390 
2210.000000	98.197087 
2209.000000	98.196924 
2208.000000	98.196791 
2207.000000	98.196621 
2206.000000	98.196414 
2205.000000	98.196273 
2204.000000	98.196377 
2203.000000	98.196842 
2202.000000	98.197717 
2201.000000	98.198880 
2200.000000	98.199584 
2199.000000	98.198710 
2198.000000	98.195873 
2197.000000	98.192040 
2196.000000	98.188847 
2195.000000	98.187221 
2194.000000	98.186831 
2193.000000	98.186983 
2192.000000	98.187734 
2191.000000	98.189580 
2190.000000	98.192262 
2189.000000	98.194789 
2188.000000	98.196726 
2187.000000	98.198152 
2186.000000	98.198004 
2185.000000	98.194559 
2184.000000	98.189180 
2183.000000	98.187599 
2182.000000	98.194359 
2181.000000	98.206530 
2180.000000	98.215293 
2179.000000	98.215195 
2178.000000	98.208928 
2177.000000	98.203302 
2176.000000	98.202393 
2175.000000	98.205454 
2174.000000	98.209396 
2173.000000	98.211728 
2172.000000	98.212439 
2171.000000	98.213816 
2170.000000	98.217142 
2169.000000	98.219551 
2168.000000	98.216595 
2167.000000	98.208497 
2166.000000	98.200774 
2165.000000	98.197024 
2164.000000	98.194423 
2163.000000	98.189443 
2162.000000	98.185826 
2161.000000	98.192588 
2160.000000	98.214708 
2159.000000	98.248170 
2158.000000	98.282705 
2157.000000	98.308734 
2156.000000	98.322240 
2155.000000	98.325120 
2154.000000	98.322965 
2153.000000	98.321389 
2152.000000	98.322451 
2151.000000	98.323957 
2150.000000	98.322346 
2149.000000	98.316766 
2148.000000	98.310684 
2147.000000	98.308930 
2146.000000	98.312811 
2145.000000	98.319139 
2144.000000	98.324754 
2143.000000	98.330341 
2142.000000	98.337798 
2141.000000	98.345409 
2140.000000	98.349064 
2139.000000	98.348578 
2138.000000	98.349532 
2137.000000	98.356999 
2136.000000	98.369043 
2135.000000	98.377972 
2134.000000	98.377417 
2133.000000	98.367691 
2132.000000	98.355394 
2131.000000	98.347965 
2130.000000	98.347720 
2129.000000	98.350692 
2128.000000	98.351291 
2127.000000	98.348058 
2126.000000	98.344255 
2125.000000	98.343264 
2124.000000	98.344726 
2123.000000	98.345504 
2122.000000	98.343099 
2121.000000	98.337225 
2120.000000	98.328888 
2119.000000	98.319214 
2118.000000	98.309460 
2117.000000	98.301359 
2116.000000	98.296168 
2115.000000	98.293124 
2114.000000	98.289618 
2113.000000	98.284037 
2112.000000	98.278480 
2111.000000	98.276978 
2110.000000	98.280731 
2109.000000	98.286600 
2108.000000	98.290926 
2107.000000	98.293236 
2106.000000	98.294991 
2105.000000	98.296809 
2104.000000	98.298689 
2103.000000	98.301093 
2102.000000	98.303514 
2101.000000	98.303226 
2100.000000	98.298265 
2099.000000	98.291311 
2098.000000	98.288178 
2097.000000	98.291902 
2096.000000	98.300096 
2095.000000	98.307911 
2094.000000	98.312200 
2093.000000	98.312545 
2092.000000	98.309975 
2091.000000	98.306158 
2090.000000	98.303066 
2089.000000	98.301932 
2088.000000	98.302250 
2087.000000	98.302163 
2086.000000	98.300118 
2085.000000	98.296271 
2084.000000	98.292422 
2083.000000	98.290436 
2082.000000	98.290671 
2081.000000	98.292109 
2080.000000	98.293939 
2079.000000	98.296247 
2078.000000	98.298753 
2077.000000	98.299939 
2076.000000	98.298673 
2075.000000	98.296113 
2074.000000	98.294595 
2073.000000	98.294610 
2072.000000	98.294373 
2071.000000	98.292434 
2070.000000	98.289499 
2069.000000	98.287350 
2068.000000	98.286925 
2067.000000	98.287853 
2066.000000	98.289000 
2065.000000	98.288879 
2064.000000	98.286448 
2063.000000	98.282368 
2062.000000	98.279169 
2061.000000	98.279188 
2060.000000	98.282629 
2059.000000	98.288020 
2058.000000	98.293623 
2057.000000	98.298162 
2056.000000	98.300601 
2055.000000	98.300104 
2054.000000	98.296684 
2053.000000	98.291623 
2052.000000	98.286886 
2051.000000	98.283834 
2050.000000	98.282580 
2049.000000	98.282566 
2048.000000	98.283615 
2047.000000	98.286127 
2046.000000	98.290044 
2045.000000	98.294164 
2044.000000	98.297045 
2043.000000	98.298408 
2042.000000	98.299158 
2041.000000	98.300279 
2040.000000	98.302206 
2039.000000	98.305138 
2038.000000	98.309011 
2037.000000	98.312888 
2036.000000	98.315365 
2035.000000	98.316098 
2034.000000	98.316580 
2033.000000	98.318868 
2032.000000	98.323439 
2031.000000	98.328437 
2030.000000	98.331008 
2029.000000	98.329680 
2028.000000	98.325648 
2027.000000	98.321742 
2026.000000	98.319737 
2025.000000	98.319373 
2024.000000	98.320143 
2023.000000	98.322981 
2022.000000	98.329088 
2021.000000	98.337190 
2020.000000	98.343305 
2019.000000	98.344250 
2018.000000	98.340298 
2017.000000	98.334624 
2016.000000	98.330407 
2015.000000	98.328634 
2014.000000	98.328160 
2013.000000	98.326988 
2012.000000	98.324363 
2011.000000	98.322191 
2010.000000	98.323455 
2009.000000	98.328836 
2008.000000	98.335741 
2007.000000	98.341153 
2006.000000	98.344256 
2005.000000	98.345462 
2004.000000	98.344947 
2003.000000	98.343544 
2002.000000	98.343426 
2001.000000	98.345492 
2000.000000	98.346779 
1999.000000	98.342817 
1998.000000	98.332438 
1997.000000	98.319461 
1996.000000	98.309664 
1995.000000	98.306112 
1994.000000	98.307732 
1993.000000	98.310775 
1992.000000	98.311740 
1991.000000	98.310176 
1990.000000	98.308620 
1989.000000	98.309513 
1988.000000	98.312359 
1987.000000	98.314017 
1986.000000	98.311833 
1985.000000	98.306236 
1984.000000	98.300059 
1983.000000	98.295640 
1982.000000	98.293229 
1981.000000	98.292295 
1980.000000	98.293462 
1979.000000	98.297875 
1978.000000	98.304601 
1977.000000	98.310271 
1976.000000	98.312311 
1975.000000	98.311608 
1974.000000	98.311142 
1973.000000	98.312916 
1972.000000	98.316717 
1971.000000	98.320957 
1970.000000	98.323781 
1969.000000	98.323797 
1968.000000	98.320768 
1967.000000	98.316065 
1966.000000	98.312109 
1965.000000	98.310701 
1964.000000	98.312187 
1963.000000	98.316011 
1962.000000	98.321209 
1961.000000	98.326192 
1960.000000	98.328933 
1959.000000	98.328307 
1958.000000	98.325237 
1957.000000	98.322345 
1956.000000	98.321634 
1955.000000	98.322806 
1954.000000	98.324088 
1953.000000	98.324335 
1952.000000	98.323902 
1951.000000	98.323624 
1950.000000	98.323858 
1949.000000	98.324660 
1948.000000	98.326091 
1947.000000	98.327892 
1946.000000	98.329197 
1945.000000	98.329137 
1944.000000	98.327594 
1943.000000	98.325192 
1942.000000	98.322759 
1941.000000	98.320862 
1940.000000	98.319671 
1939.000000	98.319002 
1938.000000	98.318549 
1937.000000	98.318338 
1936.000000	98.318715 
1935.000000	98.319554 
1934.000000	98.319919 
1933.000000	98.319252 
1932.000000	98.318439 
1931.000000	98.318827 
1930.000000	98.320458 
1929.000000	98.321867 
1928.000000	98.321923 
1927.000000	98.320889 
1926.000000	98.319554 
1925.000000	98.318301 
1924.000000	98.317163 
1923.000000	98.316202 
1922.000000	98.315128 
1921.000000	98.313265 
1920.000000	98.310715 
1919.000000	98.308579 
1918.000000	98.307295 
1917.000000	98.305688 
1916.000000	98.302884 
1915.000000	98.300149 
1914.000000	98.299047 
1913.000000	98.299136 
1912.000000	98.298594 
1911.000000	98.296874 
1910.000000	98.295195 
1909.000000	98.294429 
1908.000000	98.294066 
1907.000000	98.293195 
1906.000000	98.291438 
1905.000000	98.288813 
1904.000000	98.285575 
1903.000000	98.282655 
1902.000000	98.281117 
1901.000000	98.280897 
1900.000000	98.280875 
1899.000000	98.280186 
1898.000000	98.278976 
1897.000000	98.277781 
1896.000000	98.276624 
1895.000000	98.275146 
1894.000000	98.273202 
1893.000000	98.270964 
1892.000000	98.268798 
1891.000000	98.267154 
1890.000000	98.266236 
1889.000000	98.265700 
1888.000000	98.265104 
1887.000000	98.264615 
1886.000000	98.264554 
1885.000000	98.264382 
1884.000000	98.263018 
1883.000000	98.260336 
1882.000000	98.257786 
1881.000000	98.256847 
1880.000000	98.257536 
1879.000000	98.258495 
1878.000000	98.258369 
1877.000000	98.257219 
1876.000000	98.256304 
1875.000000	98.256658 
1874.000000	98.258220 
1873.000000	98.260061 
1872.000000	98.261399 
1871.000000	98.262212 
1870.000000	98.262703 
1869.000000	98.262772 
1868.000000	98.262461 
1867.000000	98.262555 
1866.000000	98.263543 
1865.000000	98.264457 
1864.000000	98.264144 
1863.000000	98.263145 
1862.000000	98.263122 
1861.000000	98.264627 
1860.000000	98.266681 
1859.000000	98.268560 
1858.000000	98.270667 
1857.000000	98.273310 
1856.000000	98.276144 
1855.000000	98.278833 
1854.000000	98.281105 
1853.000000	98.282355 
1852.000000	98.282671 
1851.000000	98.283453 
1850.000000	98.285722 
1849.000000	98.288809 
1848.000000	98.291279 
1847.000000	98.292889 
1846.000000	98.294508 
1845.000000	98.296476 
1844.000000	98.298139 
1843.000000	98.299232 
1842.000000	98.300320 
1841.000000	98.301733 
1840.000000	98.303524 
1839.000000	98.305709 
1838.000000	98.307838 
1837.000000	98.308976 
1836.000000	98.308756 
1835.000000	98.308222 
1834.000000	98.308763 
1833.000000	98.310449 
1832.000000	98.312332 
1831.000000	98.313498 
1830.000000	98.313765 
1829.000000	98.313784 
1828.000000	98.314302 
1827.000000	98.315503 
1826.000000	98.317121 
1825.000000	98.318640 
1824.000000	98.319526 
1823.000000	98.319641 
1822.000000	98.319396 
1821.000000	98.319113 
1820.000000	98.318710 
1819.000000	98.318241 
1818.000000	98.318550 
1817.000000	98.320256 
1816.000000	98.322176 
1815.000000	98.322869 
1814.000000	98.322805 
1813.000000	98.323655 
1812.000000	98.325467 
1811.000000	98.325842 
1810.000000	98.323676 
1809.000000	98.320792 
1808.000000	98.318916 
1807.000000	98.318186 
1806.000000	98.318510 
1805.000000	98.319741 
1804.000000	98.320587 
1803.000000	98.319434 
1802.000000	98.316023 
1801.000000	98.312033 
1800.000000	98.309165 
1799.000000	98.307743 
1798.000000	98.308149 
1797.000000	98.309831 
1796.000000	98.310404 
1795.000000	98.308717 
1794.000000	98.306635 
1793.000000	98.306728 
1792.000000	98.308216 
1791.000000	98.308192 
1790.000000	98.307057 
1789.000000	98.307149 
1788.000000	98.308965 
1787.000000	98.311453 
1786.000000	98.313858 
1785.000000	98.315585 
1784.000000	98.315601 
1783.000000	98.314564 
1782.000000	98.314358 
1781.000000	98.315953 
1780.000000	98.318968 
1779.000000	98.322486 
1778.000000	98.326713 
1777.000000	98.331218 
1776.000000	98.334261 
1775.000000	98.335050 
1774.000000	98.334534 
1773.000000	98.334892 
1772.000000	98.337040 
1771.000000	98.339024 
1770.000000	98.339417 
1769.000000	98.339390 
1768.000000	98.340508 
1767.000000	98.342702 
1766.000000	98.344731 
1765.000000	98.346263 
1764.000000	98.348013 
1763.000000	98.350115 
1762.000000	98.351680 
1761.000000	98.352471 
1760.000000	98.353160 
1759.000000	98.353951 
1758.000000	98.354594 
1757.000000	98.354910 
1756.000000	98.355686 
1755.000000	98.357017 
1754.000000	98.357546 
1753.000000	98.356371 
1752.000000	98.354617 
1751.000000	98.354650 
1750.000000	98.357105 
1749.000000	98.360236 
1748.000000	98.362353 
1747.000000	98.363527 
1746.000000	98.364118 
1745.000000	98.364577 
1744.000000	98.365556 
1743.000000	98.366547 
1742.000000	98.366322 
1741.000000	98.365164 
1740.000000	98.364806 
1739.000000	98.365952 
1738.000000	98.367013 
1737.000000	98.366737 
1736.000000	98.365502 
1735.000000	98.364597 
1734.000000	98.364231 
1733.000000	98.363282 
1732.000000	98.362657 
1731.000000	98.364372 
1730.000000	98.368432 
1729.000000	98.371860 
1728.000000	98.372610 
1727.000000	98.371447 
1726.000000	98.369938 
1725.000000	98.368657 
1724.000000	98.367440 
1723.000000	98.366218 
1722.000000	98.365654 
1721.000000	98.365671 
1720.000000	98.365499 
1719.000000	98.364482 
1718.000000	98.363040 
1717.000000	98.362215 
1716.000000	98.360449 
1715.000000	98.356546 
1714.000000	98.352918 
1713.000000	98.351050 
1712.000000	98.349593 
1711.000000	98.347817 
1710.000000	98.346447 
1709.000000	98.345352 
1708.000000	98.343602 
1707.000000	98.341301 
1706.000000	98.339617 
1705.000000	98.338291 
1704.000000	98.334720 
1703.000000	98.328280 
1702.000000	98.320938 
1701.000000	98.316146 
1700.000000	98.314097 
1699.000000	98.311231 
1698.000000	98.307715 
1697.000000	98.305453 
1696.000000	98.303830 
1695.000000	98.301398 
1694.000000	98.298243 
1693.000000	98.295130 
1692.000000	98.292111 
1691.000000	98.288912 
1690.000000	98.285442 
1689.000000	98.281659 
1688.000000	98.277618 
1687.000000	98.273577 
1686.000000	98.269982 
1685.000000	98.267356 
1684.000000	98.264786 
1683.000000	98.261101 
1682.000000	98.256790 
1681.000000	98.252388 
1680.000000	98.248322 
1679.000000	98.244640 
1678.000000	98.240950 
1677.000000	98.236783 
1676.000000	98.232559 
1675.000000	98.228890 
1674.000000	98.224813 
1673.000000	98.219480 
1672.000000	98.214108 
1671.000000	98.210562 
1670.000000	98.208988 
1669.000000	98.206703 
1668.000000	98.203180 
1667.000000	98.200438 
1666.000000	98.198165 
1665.000000	98.195434 
1664.000000	98.193211 
1663.000000	98.192750 
1662.000000	98.191748 
1661.000000	98.186271 
1660.000000	98.178412 
1659.000000	98.172993 
1658.000000	98.171447 
1657.000000	98.169035 
1656.000000	98.163435 
1655.000000	98.155662 
1654.000000	98.150090 
1653.000000	98.144423 
1652.000000	98.134001 
1651.000000	98.125229 
1650.000000	98.118394 
1649.000000	98.113642 
1648.000000	98.110979 
1647.000000	98.110606 
1646.000000	98.109588 
1645.000000	98.107900 
1644.000000	98.105363 
1643.000000	98.103524 
1642.000000	98.103593 
1641.000000	98.104760 
1640.000000	98.104675 
1639.000000	98.101550 
1638.000000	98.096729 
1637.000000	98.093498 
1636.000000	98.093095 
1635.000000	98.094746 
1634.000000	98.097316 
1633.000000	98.098924 
1632.000000	98.097883 
1631.000000	98.096180 
1630.000000	98.097581 
1629.000000	98.101844 
1628.000000	98.105787 
1627.000000	98.108886 
1626.000000	98.112617 
1625.000000	98.117076 
1624.000000	98.122414 
1623.000000	98.129799 
1622.000000	98.138434 
1621.000000	98.144214 
1620.000000	98.146072 
1619.000000	98.147480 
1618.000000	98.152147 
1617.000000	98.157588 
1616.000000	98.158532 
1615.000000	98.158078 
1614.000000	98.160387 
1613.000000	98.163355 
1612.000000	98.164286 
1611.000000	98.164869 
1610.000000	98.168140 
1609.000000	98.174626 
1608.000000	98.183974 
1607.000000	98.195815 
1606.000000	98.206731 
1605.000000	98.212930 
1604.000000	98.216258 
1603.000000	98.220925 
1602.000000	98.227346 
1601.000000	98.232944 
1600.000000	98.237420 
1599.000000	98.242844 
1598.000000	98.249099 
1597.000000	98.254239 
1596.000000	98.258249 
1595.000000	98.263308 
1594.000000	98.270064 
1593.000000	98.276221 
1592.000000	98.280368 
1591.000000	98.284139 
1590.000000	98.289014 
1589.000000	98.293892 
1588.000000	98.298056 
1587.000000	98.303119 
1586.000000	98.309502 
1585.000000	98.314073 
1584.000000	98.315640 
1583.000000	98.317542 
1582.000000	98.321664 
1581.000000	98.326134 
1580.000000	98.329632 
1579.000000	98.333940 
1578.000000	98.340737 
1577.000000	98.348909 
1576.000000	98.354764 
1575.000000	98.357694 
1574.000000	98.359354 
1573.000000	98.360206 
1572.000000	98.362541 
1571.000000	98.369118 
1570.000000	98.376969 
1569.000000	98.377117 
1568.000000	98.370535 
1567.000000	98.365343 
1566.000000	98.364085 
1565.000000	98.363996 
1564.000000	98.365062 
1563.000000	98.366275 
1562.000000	98.366293 
1561.000000	98.362897 
1560.000000	98.365022 
1559.000000	98.373403 
1558.000000	98.371778 
1557.000000	98.364029 
1556.000000	98.357533 
1555.000000	98.356301 
1554.000000	98.355215 
1553.000000	98.352883 
1552.000000	98.349531 
1551.000000	98.345861 
1550.000000	98.340130 
1549.000000	98.332866 
1548.000000	98.326872 
1547.000000	98.324465 
1546.000000	98.323724 
1545.000000	98.320808 
1544.000000	98.314319 
1543.000000	98.306408 
1542.000000	98.301296 
1541.000000	98.300775 
1540.000000	98.295048 
1539.000000	98.279476 
1538.000000	98.262758 
1537.000000	98.248447 
1536.000000	98.236158 
1535.000000	98.227241 
1534.000000	98.222747 
1533.000000	98.218719 
1532.000000	98.210965 
1531.000000	98.199602 
1530.000000	98.188620 
1529.000000	98.180595 
1528.000000	98.173770 
1527.000000	98.165173 
1526.000000	98.153993 
1525.000000	98.142111 
1524.000000	98.132134 
1523.000000	98.125367 
1522.000000	98.120505 
1521.000000	98.112813 
1520.000000	98.099697 
1519.000000	98.084027 
1518.000000	98.069096 
1517.000000	98.055761 
1516.000000	98.043258 
1515.000000	98.032138 
1514.000000	98.023406 
1513.000000	98.016796 
1512.000000	98.009866 
1511.000000	97.999124 
1510.000000	97.984426 
1509.000000	97.969123 
1508.000000	97.956976 
1507.000000	97.945512 
1506.000000	97.931754 
1505.000000	97.918358 
1504.000000	97.905882 
1503.000000	97.893559 
1502.000000	97.880713 
1501.000000	97.868449 
1500.000000	97.857709 
1499.000000	97.847626 
1498.000000	97.835397 
1497.000000	97.821217 
1496.000000	97.807904 
1495.000000	97.796851 
1494.000000	97.788104 
1493.000000	97.781734 
1492.000000	97.777683 
1491.000000	97.774559 
1490.000000	97.769503 
1489.000000	97.761257 
1488.000000	97.749692 
1487.000000	97.734870 
1486.000000	97.719479 
1485.000000	97.704065 
1484.000000	97.688196 
1483.000000	97.673725 
1482.000000	97.662196 
1481.000000	97.653176 
1480.000000	97.644208 
1479.000000	97.634261 
1478.000000	97.624392 
1477.000000	97.615266 
1476.000000	97.604453 
1475.000000	97.589944 
1474.000000	97.574579 
1473.000000	97.563324 
1472.000000	97.556854 
1471.000000	97.550476 
1470.000000	97.542057 
1469.000000	97.533008 
1468.000000	97.523881 
1467.000000	97.513901 
1466.000000	97.503688 
1465.000000	97.494820 
1464.000000	97.487458 
1463.000000	97.478454 
1462.000000	97.466093 
1461.000000	97.453347 
1460.000000	97.444682 
1459.000000	97.441445 
1458.000000	97.436280 
1457.000000	97.421013 
1456.000000	97.401039 
1455.000000	97.384048 
1454.000000	97.368676 
1453.000000	97.356244 
1452.000000	97.349773 
1451.000000	97.349783 
1450.000000	97.353727 
1449.000000	97.360772 
1448.000000	97.369063 
1447.000000	97.374062 
1446.000000	97.372985 
1445.000000	97.368782 
1444.000000	97.366786 
1443.000000	97.366822 
1442.000000	97.365667 
1441.000000	97.362244 
1440.000000	97.358198 
1439.000000	97.354124 
1438.000000	97.349245 
1437.000000	97.345613 
1436.000000	97.346128 
1435.000000	97.348107 
1434.000000	97.347799 
1433.000000	97.347766 
1432.000000	97.351697 
1431.000000	97.359498 
1430.000000	97.367121 
1429.000000	97.372333 
1428.000000	97.375613 
1427.000000	97.378182 
1426.000000	97.381412 
1425.000000	97.386672 
1424.000000	97.395244 
1423.000000	97.403333 
1422.000000	97.406493 
1421.000000	97.407572 
1420.000000	97.413404 
1419.000000	97.420632 
1418.000000	97.418057 
1417.000000	97.409058 
1416.000000	97.406225 
1415.000000	97.412456 
1414.000000	97.419751 
1413.000000	97.421513 
1412.000000	97.420393 
1411.000000	97.421673 
1410.000000	97.425127 
1409.000000	97.429310 
1408.000000	97.435731 
1407.000000	97.446372 
1406.000000	97.460371 
1405.000000	97.475648 
1404.000000	97.492664 
1403.000000	97.510232 
1402.000000	97.525640 
1401.000000	97.540761 
1400.000000	97.560838 
1399.000000	97.585815 
1398.000000	97.607003 
1397.000000	97.617429 
1396.000000	97.619376 
1395.000000	97.621755 
1394.000000	97.631748 
1393.000000	97.650841 
1392.000000	97.677532 
1391.000000	97.707498 
1390.000000	97.735075 
1389.000000	97.756529 
1388.000000	97.770926 
1387.000000	97.779094 
1386.000000	97.783505 
1385.000000	97.788524 
1384.000000	97.798507 
1383.000000	97.813900 
1382.000000	97.830979 
1381.000000	97.846399 
1380.000000	97.859967 
1379.000000	97.874020 
1378.000000	97.890601 
1377.000000	97.909771 
1376.000000	97.929907 
1375.000000	97.948821 
1374.000000	97.964860 
1373.000000	97.978887 
1372.000000	97.993545 
1371.000000	98.010612 
1370.000000	98.029491 
1369.000000	98.047077 
1368.000000	98.061982 
1367.000000	98.075572 
1366.000000	98.089967 
1365.000000	98.106457 
1364.000000	98.123812 
1363.000000	98.138243 
1362.000000	98.147667 
1361.000000	98.154768 
1360.000000	98.163854 
1359.000000	98.176810 
1358.000000	98.192186 
1357.000000	98.206937 
1356.000000	98.219123 
1355.000000	98.228722 
1354.000000	98.237043 
1353.000000	98.246366 
1352.000000	98.257565 
1351.000000	98.270209 
1350.000000	98.283641 
1349.000000	98.295169 
1348.000000	98.302604 
1347.000000	98.306514 
1346.000000	98.309944 
1345.000000	98.314998 
1344.000000	98.321450 
1343.000000	98.328608 
1342.000000	98.336887 
1341.000000	98.345793 
1340.000000	98.352255 
1339.000000	98.353527 
1338.000000	98.350718 
1337.000000	98.347779 
1336.000000	98.347450 
1335.000000	98.349313 
1334.000000	98.351787 
1333.000000	98.354472 
1332.000000	98.357755 
1331.000000	98.361677 
1330.000000	98.365720 
1329.000000	98.369215 
1328.000000	98.371702 
1327.000000	98.373339 
1326.000000	98.374303 
1325.000000	98.373532 
1324.000000	98.370423 
1323.000000	98.365728 
1322.000000	98.360844 
1321.000000	98.356960 
1320.000000	98.355163 
1319.000000	98.356166 
1318.000000	98.359565 
1317.000000	98.363966 
1316.000000	98.367606 
1315.000000	98.368756 
1314.000000	98.366526 
1313.000000	98.362553 
1312.000000	98.360486 
1311.000000	98.362295 
1310.000000	98.365867 
1309.000000	98.367899 
1308.000000	98.368053 
1307.000000	98.368859 
1306.000000	98.371836 
1305.000000	98.375294 
1304.000000	98.377329 
1303.000000	98.377648 
1302.000000	98.376402 
1301.000000	98.373313 
1300.000000	98.369392 
1299.000000	98.367360 
1298.000000	98.368656 
1297.000000	98.371062 
1296.000000	98.371093 
1295.000000	98.368473 
1294.000000	98.366260 
1293.000000	98.366948 
1292.000000	98.369863 
1291.000000	98.372534 
1290.000000	98.373531 
1289.000000	98.373254 
1288.000000	98.372569 
1287.000000	98.371617 
1286.000000	98.369997 
1285.000000	98.367772 
1284.000000	98.365919 
1283.000000	98.365285 
1282.000000	98.365409 
1281.000000	98.364887 
1280.000000	98.363191 
1279.000000	98.361775 
1278.000000	98.362758 
1277.000000	98.366663 
1276.000000	98.371520 
1275.000000	98.374545 
1274.000000	98.374521 
1273.000000	98.372751 
1272.000000	98.371723 
1271.000000	98.372622 
1270.000000	98.374129 
1269.000000	98.373945 
1268.000000	98.371435 
1267.000000	98.367953 
1266.000000	98.364736 
1265.000000	98.362183 
1264.000000	98.361148 
1263.000000	98.362887 
1262.000000	98.366866 
1261.000000	98.370190 
1260.000000	98.370973 
1259.000000	98.371154 
1258.000000	98.373545 
1257.000000	98.377044 
1256.000000	98.377101 
1255.000000	98.371506 
1254.000000	98.363720 
1253.000000	98.358980 
1252.000000	98.358137 
1251.000000	98.357512 
1250.000000	98.354608 
1249.000000	98.351857 
1248.000000	98.353596 
1247.000000	98.360153 
1246.000000	98.366232 
1245.000000	98.365721 
1244.000000	98.357407 
1243.000000	98.346172 
1242.000000	98.339449 
1241.000000	98.342004 
1240.000000	98.352299 
1239.000000	98.362917 
1238.000000	98.365694 
1237.000000	98.357763 
1236.000000	98.342606 
1235.000000	98.325510 
1234.000000	98.309009 
1233.000000	98.292807 
1232.000000	98.276226 
1231.000000	98.259123 
1230.000000	98.241543 
1229.000000	98.224032 
1228.000000	98.207331 
1227.000000	98.190235 
1226.000000	98.168729 
1225.000000	98.139110 
1224.000000	98.101649 
1223.000000	98.059780 
1222.000000	98.016114 
1221.000000	97.970756 
1220.000000	97.923139 
1219.000000	97.873346 
1218.000000	97.821091 
1217.000000	97.765035 
1216.000000	97.703669 
1215.000000	97.636082 
1214.000000	97.562458 
1213.000000	97.485399 
1212.000000	97.409769 
1211.000000	97.338278 
1210.000000	97.267406 
1209.000000	97.190771 
1208.000000	97.106911 
1207.000000	97.020941 
1206.000000	96.938030 
1205.000000	96.858081 
1204.000000	96.777843 
1203.000000	96.695510 
1202.000000	96.611818 
1201.000000	96.528557 
1200.000000	96.447153 
1199.000000	96.367224 
1198.000000	96.286066 
1197.000000	96.201510 
1196.000000	96.115172 
1195.000000	96.030599 
1194.000000	95.948294 
1193.000000	95.865147 
1192.000000	95.778905 
1191.000000	95.690236 
1190.000000	95.599975 
1189.000000	95.507345 
1188.000000	95.411689 
1187.000000	95.313478 
1186.000000	95.213077 
1185.000000	95.110751 
1184.000000	95.007667 
1183.000000	94.904344 
1182.000000	94.798726 
1181.000000	94.688724 
1180.000000	94.575664 
1179.000000	94.461483 
1178.000000	94.343575 
1177.000000	94.217291 
1176.000000	94.083179 
1175.000000	93.946675 
1174.000000	93.810522 
1173.000000	93.672759 
1172.000000	93.532585 
1171.000000	93.392149 
1170.000000	93.251641 
1169.000000	93.109154 
1168.000000	92.967420 
1167.000000	92.834914 
1166.000000	92.718853 
1165.000000	92.623564 
1164.000000	92.557060 
1163.000000	92.530717 
1162.000000	92.547681 
1161.000000	92.596159 
1160.000000	92.656486 
1159.000000	92.710338 
1158.000000	92.742524 
1157.000000	92.741736 
1156.000000	92.704561 
1155.000000	92.635833 
1154.000000	92.543052 
1153.000000	92.433363 
1152.000000	92.315909 
1151.000000	92.200718 
1150.000000	92.092003 
1149.000000	91.987047 
1148.000000	91.883513 
1147.000000	91.782421 
1146.000000	91.682360 
1145.000000	91.577666 
1144.000000	91.465972 
1143.000000	91.352202 
1142.000000	91.241679 
1141.000000	91.134034 
1140.000000	91.026654 
1139.000000	90.919060 
1138.000000	90.811224 
1137.000000	90.702531 
1136.000000	90.594495 
1135.000000	90.489368 
1134.000000	90.384409 
1133.000000	90.273512 
1132.000000	90.156236 
1131.000000	90.038923 
1130.000000	89.924957 
1129.000000	89.810577 
1128.000000	89.692448 
1127.000000	89.572257 
1126.000000	89.451112 
1125.000000	89.326461 
1124.000000	89.197816 
1123.000000	89.069245 
1122.000000	88.943213 
1121.000000	88.818030 
1120.000000	88.693499 
1119.000000	88.572088 
1118.000000	88.452452 
1117.000000	88.329764 
1116.000000	88.204836 
1115.000000	88.084818 
1114.000000	87.972300 
1113.000000	87.862079 
1112.000000	87.751115 
1111.000000	87.642434 
1110.000000	87.536530 
1109.000000	87.428769 
1108.000000	87.317977 
1107.000000	87.208082 
1106.000000	87.099409 
1105.000000	86.987750 
1104.000000	86.873704 
1103.000000	86.762931 
1102.000000	86.654976 
1101.000000	86.543442 
1100.000000	86.429129 
1099.000000	86.320978 
1098.000000	86.223118 
1097.000000	86.129833 
1096.000000	86.036660 
1095.000000	85.944435 
1094.000000	85.850456 
1093.000000	85.748201 
1092.000000	85.639736 
1091.000000	85.536892 
1090.000000	85.446335 
1089.000000	85.363708 
1088.000000	85.284426 
1087.000000	85.208525 
1086.000000	85.133180 
1085.000000	85.053443 
1084.000000	84.972970 
1083.000000	84.901205 
1082.000000	84.837433 
1081.000000	84.770798 
1080.000000	84.698495 
1079.000000	84.629920 
1078.000000	84.569590 
1077.000000	84.509862 
1076.000000	84.444059 
1075.000000	84.372718 
1074.000000	84.293466 
1073.000000	84.198921 
1072.000000	84.087799 
1071.000000	83.963461 
1070.000000	83.818226 
1069.000000	83.635722 
1068.000000	83.415073 
1067.000000	83.178980 
1066.000000	82.951246 
1065.000000	82.737863 
1064.000000	82.534972 
1063.000000	82.339010 
1062.000000	82.140961 
1061.000000	81.926384 
1060.000000	81.692081 
1059.000000	81.452527 
1058.000000	81.222309 
1057.000000	81.001932 
1056.000000	80.785877 
1055.000000	80.572014 
1054.000000	80.356975 
1053.000000	80.134640 
1052.000000	79.906127 
1051.000000	79.680199 
1050.000000	79.458439 
1049.000000	79.232833 
1048.000000	79.001550 
1047.000000	78.771727 
1046.000000	78.544238 
1045.000000	78.311922 
1044.000000	78.074716 
1043.000000	77.840817 
1042.000000	77.610922 
1041.000000	77.376835 
1040.000000	77.138187 
1039.000000	76.905461 
1038.000000	76.684622 
1037.000000	76.474401 
1036.000000	76.279371 
1035.000000	76.108007 
1034.000000	75.956317 
1033.000000	75.811017 
1032.000000	75.669737 
1031.000000	75.540048 
1030.000000	75.419880 
1029.000000	75.300764 
1028.000000	75.190548 
1027.000000	75.108651 
1026.000000	75.055408 
1025.000000	75.008556 
1024.000000	74.954119 
1023.000000	74.898647 
1022.000000	74.846903 
1021.000000	74.791109 
1020.000000	74.728164 
1019.000000	74.665906 
1018.000000	74.606385 
1017.000000	74.542826 
1016.000000	74.477476 
1015.000000	74.421934 
1014.000000	74.375856 
1013.000000	74.326271 
1012.000000	74.271631 
1011.000000	74.225013 
1010.000000	74.189992 
1009.000000	74.156040 
1008.000000	74.122295 
1007.000000	74.102927 
1006.000000	74.103200 
1005.000000	74.112174 
1004.000000	74.124576 
1003.000000	74.147903 
1002.000000	74.182136 
1001.000000	74.214897 
1000.000000	74.243776 
999.000000	 74.282272 
998.000000	 74.336302 
997.000000	 74.394976 
996.000000	 74.451210 
995.000000	 74.512010 
994.000000	 74.581971 
993.000000	 74.655835 
992.000000	 74.733143 
991.000000	 74.821059 
990.000000	 74.917317 
989.000000	 75.009644 
988.000000	 75.097598 
987.000000	 75.196070 
986.000000	 75.312419 
985.000000	 75.439400 
984.000000	 75.574568 
983.000000	 75.725884 
982.000000	 75.892674 
981.000000	 76.061409 
980.000000	 76.226914 
979.000000	 76.398991 
978.000000	 76.582304 
977.000000	 76.769204 
976.000000	 76.958368 
975.000000	 77.160963 
974.000000	 77.380869 
973.000000	 77.606694 
972.000000	 77.830641 
971.000000	 78.058796 
970.000000	 78.295871 
969.000000	 78.535585 
968.000000	 78.772651 
967.000000	 79.009948 
966.000000	 79.248651 
965.000000	 79.485189 
964.000000	 79.721695 
963.000000	 79.964988 
962.000000	 80.211962 
961.000000	 80.450783 
960.000000	 80.679388 
959.000000	 80.907408 
958.000000	 81.137005 
957.000000	 81.357930 
956.000000	 81.565708 
955.000000	 81.769175 
954.000000	 81.975226 
953.000000	 82.179990 
952.000000	 82.379211 
951.000000	 82.573512 
950.000000	 82.759788 
949.000000	 82.931222 
948.000000	 83.089472 
947.000000	 83.243839 
946.000000	 83.395480 
945.000000	 83.535736 
944.000000	 83.662708 
943.000000	 83.785718 
942.000000	 83.910520 
941.000000	 84.033881 
940.000000	 84.155974 
939.000000	 84.283497 
938.000000	 84.416268 
937.000000	 84.544670 
936.000000	 84.665232 
935.000000	 84.786106 
934.000000	 84.912960 
933.000000	 85.041809 
932.000000	 85.169802 
931.000000	 85.300577 
930.000000	 85.434561 
929.000000	 85.565635 
928.000000	 85.691681 
927.000000	 85.817705 
926.000000	 85.944982 
925.000000	 86.067260 
924.000000	 86.180389 
923.000000	 86.285814 
922.000000	 86.383210 
921.000000	 86.470571 
920.000000	 86.552976 
919.000000	 86.639714 
918.000000	 86.730388 
917.000000	 86.814771 
916.000000	 86.888947 
915.000000	 86.961843 
914.000000	 87.044313 
913.000000	 87.141525 
912.000000	 87.256406 
911.000000	 87.389728 
910.000000	 87.535987 
909.000000	 87.689805 
908.000000	 87.856189 
907.000000	 88.043942 
906.000000	 88.250830 
905.000000	 88.466711 
904.000000	 88.688600 
903.000000	 88.919574 
902.000000	 89.155662 
901.000000	 89.388482 
900.000000	 89.619350 
899.000000	 89.856347 
898.000000	 90.098251 
897.000000	 90.334712 
896.000000	 90.561056 
895.000000	 90.779425 
894.000000	 90.987362 
893.000000	 91.179821 
892.000000	 91.361490 
891.000000	 91.542587 
890.000000	 91.721842 
889.000000	 91.886459 
888.000000	 92.028784 
887.000000	 92.151113 
886.000000	 92.256307 
885.000000	 92.347149 
884.000000	 92.432859 
883.000000	 92.521104 
882.000000	 92.605076 
881.000000	 92.675049 
880.000000	 92.741631 
879.000000	 92.828833 
878.000000	 92.943070 
877.000000	 93.068642 
876.000000	 93.196070 
875.000000	 93.334308 
874.000000	 93.490937 
873.000000	 93.661671 
872.000000	 93.845766 
871.000000	 94.051554 
870.000000	 94.277905 
869.000000	 94.506595 
868.000000	 94.721454 
867.000000	 94.922135 
866.000000	 95.113616 
865.000000	 95.295727 
864.000000	 95.469667 
863.000000	 95.642841 
862.000000	 95.819176 
861.000000	 95.992823 
860.000000	 96.157152 
859.000000	 96.312623 
858.000000	 96.462096 
857.000000	 96.605782 
856.000000	 96.743659 
855.000000	 96.875391 
854.000000	 96.995779 
853.000000	 97.098094 
852.000000	 97.183948 
851.000000	 97.263252 
850.000000	 97.344098 
849.000000	 97.429509 
848.000000	 97.521614 
847.000000	 97.618366 
846.000000	 97.707460 
845.000000	 97.775867 
844.000000	 97.826045 
843.000000	 97.871769 
842.000000	 97.917867 
841.000000	 97.955630 
840.000000	 97.978080 
839.000000	 97.986472 
838.000000	 97.981288 
837.000000	 97.961691 
836.000000	 97.937188 
835.000000	 97.925279 
834.000000	 97.931119 
833.000000	 97.941234 
832.000000	 97.943271 
831.000000	 97.940776 
830.000000	 97.943220 
829.000000	 97.953676 
828.000000	 97.973974 
827.000000	 98.010084 
826.000000	 98.062184 
825.000000	 98.118786 
824.000000	 98.169590 
823.000000	 98.215093 
822.000000	 98.257098 
821.000000	 98.291080 
820.000000	 98.313975 
819.000000	 98.327762 
818.000000	 98.329271 
817.000000	 98.306097 
816.000000	 98.248474 
815.000000	 98.158027 
814.000000	 98.040026 
813.000000	 97.892851 
812.000000	 97.708187 
811.000000	 97.473981 
810.000000	 97.173254 
809.000000	 96.789002 
808.000000	 96.318261 
807.000000	 95.777966 
806.000000	 95.193349 
805.000000	 94.585771 
804.000000	 93.974516 
803.000000	 93.380632 
802.000000	 92.822694 
801.000000	 92.317662 
800.000000	 91.890065 
799.000000	 91.567759 
798.000000	 91.361433 
797.000000	 91.257987 
796.000000	 91.236343 
795.000000	 91.276548 
794.000000	 91.353203 
793.000000	 91.439069 
792.000000	 91.521205 
791.000000	 91.599732 
790.000000	 91.667980 
789.000000	 91.708144 
788.000000	 91.707831 
787.000000	 91.665042 
786.000000	 91.575196 
785.000000	 91.430219 
784.000000	 91.234733 
783.000000	 91.008411 
782.000000	 90.769723 
781.000000	 90.533651 
780.000000	 90.326914 
779.000000	 90.184010 
778.000000	 90.120869 
777.000000	 90.129743 
776.000000	 90.203848 
775.000000	 90.345416 
774.000000	 90.542843 
773.000000	 90.762784 
772.000000	 90.976530 
771.000000	 91.177768 
770.000000	 91.367187 
769.000000	 91.538366 
768.000000	 91.687611 
767.000000	 91.820063 
766.000000	 91.936521 
765.000000	 92.030328 
764.000000	 92.106487 
763.000000	 92.187567 
762.000000	 92.289793 
761.000000	 92.406758 
760.000000	 92.525505 
759.000000	 92.644260 
758.000000	 92.765401 
757.000000	 92.886364 
756.000000	 93.008991 
755.000000	 93.144475 
754.000000	 93.296376 
753.000000	 93.448179 
752.000000	 93.577948 
751.000000	 93.678329 
750.000000	 93.757456 
749.000000	 93.830153 
748.000000	 93.912879 
747.000000	 94.015194 
746.000000	 94.129243 
745.000000	 94.238160 
744.000000	 94.340202 
743.000000	 94.452649 
742.000000	 94.586767 
741.000000	 94.732758 
740.000000	 94.876411 
739.000000	 95.017055 
738.000000	 95.160136 
737.000000	 95.302751 
736.000000	 95.435454 
735.000000	 95.550846 
734.000000	 95.645154 
733.000000	 95.719648 
732.000000	 95.783928 
731.000000	 95.847938 
730.000000	 95.907742 
729.000000	 95.950350 
728.000000	 95.974185 
727.000000	 95.994339 
726.000000	 96.027094 
725.000000	 96.079052 
724.000000	 96.152171 
723.000000	 96.246376 
722.000000	 96.352792 
721.000000	 96.455373 
720.000000	 96.544759 
719.000000	 96.623121 
718.000000	 96.693282 
717.000000	 96.753848 
716.000000	 96.807635 
715.000000	 96.862270 
714.000000	 96.919618 
713.000000	 96.977137 
712.000000	 97.040724 
711.000000	 97.121246 
710.000000	 97.214736 
709.000000	 97.302150 
708.000000	 97.370548 
707.000000	 97.420412 
706.000000	 97.451142 
705.000000	 97.453738 
704.000000	 97.423008 
703.000000	 97.363511 
702.000000	 97.272715 
701.000000	 97.130594 
700.000000	 96.917290 
699.000000	 96.632607 
698.000000	 96.298887 
697.000000	 95.957695 
696.000000	 95.666354 
695.000000	 95.481440 
694.000000	 95.428114 
693.000000	 95.490056 
692.000000	 95.631733 
691.000000	 95.818982 
690.000000	 96.022706 
689.000000	 96.219414 
688.000000	 96.397238 
687.000000	 96.554769 
686.000000	 96.688381 
685.000000	 96.794027 
684.000000	 96.881538 
683.000000	 96.967055 
682.000000	 97.051573 
681.000000	 97.124569 
680.000000	 97.188960 
679.000000	 97.261010 
678.000000	 97.344484 
677.000000	 97.430712 
676.000000	 97.518114 
675.000000	 97.612549 
674.000000	 97.703731 
673.000000	 97.763554 
672.000000	 97.774742 
671.000000	 97.740027 
670.000000	 97.667711 
669.000000	 97.577142 
668.000000	 97.558224 
667.000000	 97.707372 
666.000000	 97.925164 
665.000000	 98.083091 
664.000000	 98.170959 
663.000000	 98.219229 
662.000000	 98.254896 
661.000000	 98.288914 
660.000000	 98.328191 
659.000000	 98.383590 
658.000000	 98.449931 
657.000000	 98.498963 
656.000000	 98.503524 
655.000000	 98.465067 
654.000000	 98.406849 
653.000000	 98.347216 
652.000000	 98.297154 
651.000000	 98.277183 
650.000000	 98.303907 

