4000.000000	96.277812 
3999.000000	96.277235 
3998.000000	96.275471 
3997.000000	96.273118 
3996.000000	96.271119 
3995.000000	96.270156 
3994.000000	96.270427 
3993.000000	96.271429 
3992.000000	96.272123 
3991.000000	96.271669 
3990.000000	96.270143 
3989.000000	96.268470 
3988.000000	96.267452 
3987.000000	96.267174 
3986.000000	96.267384 
3985.000000	96.267971 
3984.000000	96.268811 
3983.000000	96.269544 
3982.000000	96.270063 
3981.000000	96.270785 
3980.000000	96.271909 
3979.000000	96.272738 
3978.000000	96.272413 
3977.000000	96.271114 
3976.000000	96.269951 
3975.000000	96.269473 
3974.000000	96.269071 
3973.000000	96.268025 
3972.000000	96.266373 
3971.000000	96.264677 
3970.000000	96.263407 
3969.000000	96.262921 
3968.000000	96.263421 
3967.000000	96.264660 
3966.000000	96.265955 
3965.000000	96.266534 
3964.000000	96.265860 
3963.000000	96.263900 
3962.000000	96.261372 
3961.000000	96.259520 
3960.000000	96.259026 
3959.000000	96.259447 
3958.000000	96.259852 
3957.000000	96.259975 
3956.000000	96.260032 
3955.000000	96.259849 
3954.000000	96.258949 
3953.000000	96.257183 
3952.000000	96.254947 
3951.000000	96.252620 
3950.000000	96.250301 
3949.000000	96.248123 
3948.000000	96.246391 
3947.000000	96.245453 
3946.000000	96.245422 
3945.000000	96.245921 
3944.000000	96.246133 
3943.000000	96.245669 
3942.000000	96.245177 
3941.000000	96.245509 
3940.000000	96.246618 
3939.000000	96.247674 
3938.000000	96.247970 
3937.000000	96.247703 
3936.000000	96.247254 
3935.000000	96.246163 
3934.000000	96.243779 
3933.000000	96.240558 
3932.000000	96.238131 
3931.000000	96.237292 
3930.000000	96.237376 
3929.000000	96.237894 
3928.000000	96.239170 
3927.000000	96.241054 
3926.000000	96.241920 
3925.000000	96.240593 
3924.000000	96.238251 
3923.000000	96.236671 
3922.000000	96.235725 
3921.000000	96.234394 
3920.000000	96.232908 
3919.000000	96.232521 
3918.000000	96.233261 
3917.000000	96.233919 
3916.000000	96.234002 
3915.000000	96.234188 
3914.000000	96.234705 
3913.000000	96.235047 
3912.000000	96.234934 
3911.000000	96.234899 
3910.000000	96.235125 
3909.000000	96.235286 
3908.000000	96.235038 
3907.000000	96.234239 
3906.000000	96.232584 
3905.000000	96.229738 
3904.000000	96.226270 
3903.000000	96.223535 
3902.000000	96.222282 
3901.000000	96.222173 
3900.000000	96.222443 
3899.000000	96.222721 
3898.000000	96.222991 
3897.000000	96.223090 
3896.000000	96.222824 
3895.000000	96.222313 
3894.000000	96.221751 
3893.000000	96.221188 
3892.000000	96.220548 
3891.000000	96.219873 
3890.000000	96.219247 
3889.000000	96.218664 
3888.000000	96.218095 
3887.000000	96.217541 
3886.000000	96.217001 
3885.000000	96.216477 
3884.000000	96.215971 
3883.000000	96.215472 
3882.000000	96.214972 
3881.000000	96.214472 
3880.000000	96.213989 
3879.000000	96.213537 
3878.000000	96.213108 
3877.000000	96.212685 
3876.000000	96.212253 
3875.000000	96.211806 
3874.000000	96.211350 
3873.000000	96.210898 
3872.000000	96.210455 
3871.000000	96.210027 
3870.000000	96.209626 
3869.000000	96.209281 
3868.000000	96.209004 
3867.000000	96.208781 
3866.000000	96.208593 
3865.000000	96.208441 
3864.000000	96.208340 
3863.000000	96.208286 
3862.000000	96.208249 
3861.000000	96.208207 
3860.000000	96.208147 
3859.000000	96.208063 
3858.000000	96.207951 
3857.000000	96.207818 
3856.000000	96.207684 
3855.000000	96.207560 
3854.000000	96.207454 
3853.000000	96.207385 
3852.000000	96.207368 
3851.000000	96.207408 
3850.000000	96.207502 
3849.000000	96.207647 
3848.000000	96.207835 
3847.000000	96.208047 
3846.000000	96.208255 
3845.000000	96.208438 
3844.000000	96.208584 
3843.000000	96.208702 
3842.000000	96.208810 
3841.000000	96.208934 
3840.000000	96.209091 
3839.000000	96.209287 
3838.000000	96.209519 
3837.000000	96.209779 
3836.000000	96.210064 
3835.000000	96.210379 
3834.000000	96.210731 
3833.000000	96.211130 
3832.000000	96.211577 
3831.000000	96.212070 
3830.000000	96.212596 
3829.000000	96.213143 
3828.000000	96.213700 
3827.000000	96.214252 
3826.000000	96.214787 
3825.000000	96.215305 
3824.000000	96.215817 
3823.000000	96.216326 
3822.000000	96.216828 
3821.000000	96.217330 
3820.000000	96.217855 
3819.000000	96.218428 
3818.000000	96.219050 
3817.000000	96.219713 
3816.000000	96.220413 
3815.000000	96.221150 
3814.000000	96.221907 
3813.000000	96.222652 
3812.000000	96.223368 
3811.000000	96.224059 
3810.000000	96.224731 
3809.000000	96.225380 
3808.000000	96.225989 
3807.000000	96.226550 
3806.000000	96.227068 
3805.000000	96.227561 
3804.000000	96.228057 
3803.000000	96.228552 
3802.000000	96.229020 
3801.000000	96.229547 
3800.000000	96.230229 
3799.000000	96.230934 
3798.000000	96.231444 
3797.000000	96.231781 
3796.000000	96.232279 
3795.000000	96.233181 
3794.000000	96.234276 
3793.000000	96.235070 
3792.000000	96.235472 
3791.000000	96.235929 
3790.000000	96.236635 
3789.000000	96.237088 
3788.000000	96.236868 
3787.000000	96.236284 
3786.000000	96.235806 
3785.000000	96.235351 
3784.000000	96.234685 
3783.000000	96.234077 
3782.000000	96.233627 
3781.000000	96.232923 
3780.000000	96.231895 
3779.000000	96.231552 
3778.000000	96.232486 
3777.000000	96.233687 
3776.000000	96.233453 
3775.000000	96.231381 
3774.000000	96.228821 
3773.000000	96.227357 
3772.000000	96.226664 
3771.000000	96.225061 
3770.000000	96.222316 
3769.000000	96.220236 
3768.000000	96.219669 
3767.000000	96.219257 
3766.000000	96.217378 
3765.000000	96.214465 
3764.000000	96.212930 
3763.000000	96.213920 
3762.000000	96.215144 
3761.000000	96.213789 
3760.000000	96.210735 
3759.000000	96.209247 
3758.000000	96.207796 
3757.000000	96.202600 
3756.000000	96.194739 
3755.000000	96.187815 
3754.000000	96.181471 
3753.000000	96.172281 
3752.000000	96.163062 
3751.000000	96.160563 
3750.000000	96.160769 
3749.000000	96.154859 
3748.000000	96.147315 
3747.000000	96.148772 
3746.000000	96.155791 
3745.000000	96.155070 
3744.000000	96.153518 
3743.000000	96.161762 
3742.000000	96.167989 
3741.000000	96.159420 
3740.000000	96.141488 
3739.000000	96.133439 
3738.000000	96.141344 
3737.000000	96.147180 
3736.000000	96.137729 
3735.000000	96.126225 
3734.000000	96.129282 
3733.000000	96.140236 
3732.000000	96.145883 
3731.000000	96.146338 
3730.000000	96.147576 
3729.000000	96.149180 
3728.000000	96.145487 
3727.000000	96.135678 
3726.000000	96.128011 
3725.000000	96.127126 
3724.000000	96.127239 
3723.000000	96.123066 
3722.000000	96.117802 
3721.000000	96.115841 
3720.000000	96.114888 
3719.000000	96.111598 
3718.000000	96.104473 
3717.000000	96.094945 
3716.000000	96.085774 
3715.000000	96.075061 
3714.000000	96.057613 
3713.000000	96.032871 
3712.000000	96.008090 
3711.000000	95.989612 
3710.000000	95.973601 
3709.000000	95.953995 
3708.000000	95.929356 
3707.000000	95.901062 
3706.000000	95.871888 
3705.000000	95.843786 
3704.000000	95.816104 
3703.000000	95.786283 
3702.000000	95.752379 
3701.000000	95.715108 
3700.000000	95.677679 
3699.000000	95.644234 
3698.000000	95.616518 
3697.000000	95.594027 
3696.000000	95.579007 
3695.000000	95.572372 
3694.000000	95.568186 
3693.000000	95.560653 
3692.000000	95.551949 
3691.000000	95.548367 
3690.000000	95.549083 
3689.000000	95.549033 
3688.000000	95.547140 
3687.000000	95.544768 
3686.000000	95.540775 
3685.000000	95.530712 
3684.000000	95.514208 
3683.000000	95.499069 
3682.000000	95.490017 
3681.000000	95.476560 
3680.000000	95.446401 
3679.000000	95.403912 
3678.000000	95.363787 
3677.000000	95.323095 
3676.000000	95.269389 
3675.000000	95.213827 
3674.000000	95.171642 
3673.000000	95.139150 
3672.000000	95.103798 
3671.000000	95.059401 
3670.000000	95.017003 
3669.000000	94.987478 
3668.000000	94.959536 
3667.000000	94.920350 
3666.000000	94.874670 
3665.000000	94.832887 
3664.000000	94.797143 
3663.000000	94.761359 
3662.000000	94.717791 
3661.000000	94.663869 
3660.000000	94.605116 
3659.000000	94.547881 
3658.000000	94.492989 
3657.000000	94.434294 
3656.000000	94.370493 
3655.000000	94.308266 
3654.000000	94.252058 
3653.000000	94.199129 
3652.000000	94.141202 
3651.000000	94.074005 
3650.000000	94.006716 
3649.000000	93.951338 
3648.000000	93.907222 
3647.000000	93.869425 
3646.000000	93.837876 
3645.000000	93.812186 
3644.000000	93.787999 
3643.000000	93.761560 
3642.000000	93.732458 
3641.000000	93.702194 
3640.000000	93.669412 
3639.000000	93.629884 
3638.000000	93.583708 
3637.000000	93.535752 
3636.000000	93.487958 
3635.000000	93.434463 
3634.000000	93.371610 
3633.000000	93.306957 
3632.000000	93.251871 
3631.000000	93.206684 
3630.000000	93.160807 
3629.000000	93.115774 
3628.000000	93.083374 
3627.000000	93.058783 
3626.000000	93.029739 
3625.000000	92.996238 
3624.000000	92.967000 
3623.000000	92.949183 
3622.000000	92.941650 
3621.000000	92.937642 
3620.000000	92.935052 
3619.000000	92.939743 
3618.000000	92.955248 
3617.000000	92.980089 
3616.000000	93.015002 
3615.000000	93.059583 
3614.000000	93.108257 
3613.000000	93.154521 
3612.000000	93.194889 
3611.000000	93.228051 
3610.000000	93.254861 
3609.000000	93.279414 
3608.000000	93.306806 
3607.000000	93.337772 
3606.000000	93.367910 
3605.000000	93.395442 
3604.000000	93.424007 
3603.000000	93.456474 
3602.000000	93.490213 
3601.000000	93.518555 
3600.000000	93.538629 
3599.000000	93.552481 
3598.000000	93.563727 
3597.000000	93.575804 
3596.000000	93.592481 
3595.000000	93.612732 
3594.000000	93.631404 
3593.000000	93.644308 
3592.000000	93.651806 
3591.000000	93.658003 
3590.000000	93.665359 
3589.000000	93.672158 
3588.000000	93.677447 
3587.000000	93.684405 
3586.000000	93.694833 
3585.000000	93.707255 
3584.000000	93.721276 
3583.000000	93.737222 
3582.000000	93.754076 
3581.000000	93.768427 
3580.000000	93.777216 
3579.000000	93.779805 
3578.000000	93.777963 
3577.000000	93.774523 
3576.000000	93.771756 
3575.000000	93.770390 
3574.000000	93.768881 
3573.000000	93.765369 
3572.000000	93.758997 
3571.000000	93.750450 
3570.000000	93.739933 
3569.000000	93.725943 
3568.000000	93.709747 
3567.000000	93.698838 
3566.000000	93.698629 
3565.000000	93.705480 
3564.000000	93.712812 
3563.000000	93.717943 
3562.000000	93.721747 
3561.000000	93.725708 
3560.000000	93.729878 
3559.000000	93.733371 
3558.000000	93.735418 
3557.000000	93.736168 
3556.000000	93.736226 
3555.000000	93.735919 
3554.000000	93.734737 
3553.000000	93.732196 
3552.000000	93.728918 
3551.000000	93.725739 
3550.000000	93.722666 
3549.000000	93.719543 
3548.000000	93.717070 
3547.000000	93.716012 
3546.000000	93.715591 
3545.000000	93.714437 
3544.000000	93.713416 
3543.000000	93.715387 
3542.000000	93.721596 
3541.000000	93.730301 
3540.000000	93.738633 
3539.000000	93.744584 
3538.000000	93.747413 
3537.000000	93.747506 
3536.000000	93.746421 
3535.000000	93.745430 
3534.000000	93.744700 
3533.000000	93.743919 
3532.000000	93.743637 
3531.000000	93.744835 
3530.000000	93.747118 
3529.000000	93.748369 
3528.000000	93.746793 
3527.000000	93.742879 
3526.000000	93.738822 
3525.000000	93.736714 
3524.000000	93.737755 
3523.000000	93.742177 
3522.000000	93.748766 
3521.000000	93.755237 
3520.000000	93.759923 
3519.000000	93.762765 
3518.000000	93.764676 
3517.000000	93.766023 
3516.000000	93.766357 
3515.000000	93.765414 
3514.000000	93.764135 
3513.000000	93.763951 
3512.000000	93.765097 
3511.000000	93.766273 
3510.000000	93.766154 
3509.000000	93.764838 
3508.000000	93.763635 
3507.000000	93.763648 
3506.000000	93.764692 
3505.000000	93.765587 
3504.000000	93.765545 
3503.000000	93.764838 
3502.000000	93.764118 
3501.000000	93.763637 
3500.000000	93.763421 
3499.000000	93.763625 
3498.000000	93.764313 
3497.000000	93.765124 
3496.000000	93.765209 
3495.000000	93.763773 
3494.000000	93.761014 
3493.000000	93.758331 
3492.000000	93.756967 
3491.000000	93.756566 
3490.000000	93.755766 
3489.000000	93.753812 
3488.000000	93.750907 
3487.000000	93.747277 
3486.000000	93.742955 
3485.000000	93.738695 
3484.000000	93.735857 
3483.000000	93.734639 
3482.000000	93.733526 
3481.000000	93.731241 
3480.000000	93.728429 
3479.000000	93.726476 
3478.000000	93.725268 
3477.000000	93.723148 
3476.000000	93.718796 
3475.000000	93.712494 
3474.000000	93.705626 
3473.000000	93.699644 
3472.000000	93.695333 
3471.000000	93.692408 
3470.000000	93.689763 
3469.000000	93.686386 
3468.000000	93.682129 
3467.000000	93.677784 
3466.000000	93.674328 
3465.000000	93.671830 
3464.000000	93.669036 
3463.000000	93.664254 
3462.000000	93.657002 
3461.000000	93.648686 
3460.000000	93.641324 
3459.000000	93.635525 
3458.000000	93.630089 
3457.000000	93.623520 
3456.000000	93.615756 
3455.000000	93.608245 
3454.000000	93.602693 
3453.000000	93.599617 
3452.000000	93.598223 
3451.000000	93.597166 
3450.000000	93.595160 
3449.000000	93.591184 
3448.000000	93.584638 
3447.000000	93.575732 
3446.000000	93.565482 
3445.000000	93.555460 
3444.000000	93.547357 
3443.000000	93.542205 
3442.000000	93.539526 
3441.000000	93.537385 
3440.000000	93.533857 
3439.000000	93.528413 
3438.000000	93.521765 
3437.000000	93.514720 
3436.000000	93.507931 
3435.000000	93.502403 
3434.000000	93.499223 
3433.000000	93.498138 
3432.000000	93.497291 
3431.000000	93.494884 
3430.000000	93.490637 
3429.000000	93.485464 
3428.000000	93.480075 
3427.000000	93.474600 
3426.000000	93.469426 
3425.000000	93.465688 
3424.000000	93.464177 
3423.000000	93.463786 
3422.000000	93.461974 
3421.000000	93.457482 
3420.000000	93.451981 
3419.000000	93.448134 
3418.000000	93.446643 
3417.000000	93.446153 
3416.000000	93.445520 
3415.000000	93.444822 
3414.000000	93.444038 
3413.000000	93.442163 
3412.000000	93.438535 
3411.000000	93.434348 
3410.000000	93.431966 
3409.000000	93.432884 
3408.000000	93.436445 
3407.000000	93.440119 
3406.000000	93.441230 
3405.000000	93.439161 
3404.000000	93.435968 
3403.000000	93.434155 
3402.000000	93.434031 
3401.000000	93.433829 
3400.000000	93.432272 
3399.000000	93.430009 
3398.000000	93.428501 
3397.000000	93.428518 
3396.000000	93.429956 
3395.000000	93.432425 
3394.000000	93.435367 
3393.000000	93.437992 
3392.000000	93.439586 
3391.000000	93.439956 
3390.000000	93.439564 
3389.000000	93.439423 
3388.000000	93.440778 
3387.000000	93.444371 
3386.000000	93.449654 
3385.000000	93.454725 
3384.000000	93.457469 
3383.000000	93.457243 
3382.000000	93.455778 
3381.000000	93.455998 
3380.000000	93.459358 
3379.000000	93.464521 
3378.000000	93.469137 
3377.000000	93.472891 
3376.000000	93.477527 
3375.000000	93.483752 
3374.000000	93.489597 
3373.000000	93.492735 
3372.000000	93.493512 
3371.000000	93.494574 
3370.000000	93.497843 
3369.000000	93.502883 
3368.000000	93.508065 
3367.000000	93.512308 
3366.000000	93.515435 
3365.000000	93.517624 
3364.000000	93.519240 
3363.000000	93.520953 
3362.000000	93.523504 
3361.000000	93.527291 
3360.000000	93.532244 
3359.000000	93.537952 
3358.000000	93.543858 
3357.000000	93.549506 
3356.000000	93.554707 
3355.000000	93.559492 
3354.000000	93.564031 
3353.000000	93.568777 
3352.000000	93.574454 
3351.000000	93.581494 
3350.000000	93.589316 
3349.000000	93.596448 
3348.000000	93.601744 
3347.000000	93.605496 
3346.000000	93.609207 
3345.000000	93.614088 
3344.000000	93.619844 
3343.000000	93.625067 
3342.000000	93.628857 
3341.000000	93.631840 
3340.000000	93.635408 
3339.000000	93.640100 
3338.000000	93.645281 
3337.000000	93.650168 
3336.000000	93.654716 
3335.000000	93.659402 
3334.000000	93.664512 
3333.000000	93.669901 
3332.000000	93.675287 
3331.000000	93.680542 
3330.000000	93.685691 
3329.000000	93.690799 
3328.000000	93.695940 
3327.000000	93.701184 
3326.000000	93.706554 
3325.000000	93.711987 
3324.000000	93.717374 
3323.000000	93.722652 
3322.000000	93.727863 
3321.000000	93.733096 
3320.000000	93.738389 
3319.000000	93.743711 
3318.000000	93.749026 
3317.000000	93.754327 
3316.000000	93.759622 
3315.000000	93.764915 
3314.000000	93.770202 
3313.000000	93.775480 
3312.000000	93.780752 
3311.000000	93.786036 
3310.000000	93.791350 
3309.000000	93.796712 
3308.000000	93.802131 
3307.000000	93.807577 
3306.000000	93.812986 
3305.000000	93.818311 
3304.000000	93.823589 
3303.000000	93.828942 
3302.000000	93.834476 
3301.000000	93.840177 
3300.000000	93.845884 
3299.000000	93.851402 
3298.000000	93.856637 
3297.000000	93.861693 
3296.000000	93.866853 
3295.000000	93.872355 
3294.000000	93.878248 
3293.000000	93.884410 
3292.000000	93.890668 
3291.000000	93.896888 
3290.000000	93.902966 
3289.000000	93.908845 
3288.000000	93.914543 
3287.000000	93.920128 
3286.000000	93.925602 
3285.000000	93.930898 
3284.000000	93.936028 
3283.000000	93.941218 
3282.000000	93.946786 
3281.000000	93.952837 
3280.000000	93.959066 
3279.000000	93.964982 
3278.000000	93.970415 
3277.000000	93.975723 
3276.000000	93.981393 
3275.000000	93.987536 
3274.000000	93.993932 
3273.000000	94.000475 
3272.000000	94.007263 
3271.000000	94.014251 
3270.000000	94.021117 
3269.000000	94.027567 
3268.000000	94.033603 
3267.000000	94.039441 
3266.000000	94.045313 
3265.000000	94.051435 
3264.000000	94.057973 
3263.000000	94.064886 
3262.000000	94.071864 
3261.000000	94.078590 
3260.000000	94.084981 
3259.000000	94.091141 
3258.000000	94.097230 
3257.000000	94.103441 
3256.000000	94.109976 
3255.000000	94.116830 
3254.000000	94.123709 
3253.000000	94.130349 
3252.000000	94.136834 
3251.000000	94.143456 
3250.000000	94.150307 
3249.000000	94.157169 
3248.000000	94.163815 
3247.000000	94.170296 
3246.000000	94.176875 
3245.000000	94.183744 
3244.000000	94.190848 
3243.000000	94.197971 
3242.000000	94.204931 
3241.000000	94.211705 
3240.000000	94.218395 
3239.000000	94.225146 
3238.000000	94.232102 
3237.000000	94.239347 
3236.000000	94.246851 
3235.000000	94.254431 
3234.000000	94.261848 
3233.000000	94.268969 
3232.000000	94.275820 
3231.000000	94.282544 
3230.000000	94.289290 
3229.000000	94.296120 
3228.000000	94.303032 
3227.000000	94.310054 
3226.000000	94.317294 
3225.000000	94.324824 
3224.000000	94.332539 
3223.000000	94.340193 
3222.000000	94.347620 
3221.000000	94.354877 
3220.000000	94.362135 
3219.000000	94.369454 
3218.000000	94.376744 
3217.000000	94.383929 
3216.000000	94.391058 
3215.000000	94.398275 
3214.000000	94.405704 
3213.000000	94.413350 
3212.000000	94.421030 
3211.000000	94.428471 
3210.000000	94.435552 
3209.000000	94.442432 
3208.000000	94.449364 
3207.000000	94.456418 
3206.000000	94.463495 
3205.000000	94.470586 
3204.000000	94.477887 
3203.000000	94.485572 
3202.000000	94.493561 
3201.000000	94.501555 
3200.000000	94.509289 
3199.000000	94.516742 
3198.000000	94.524096 
3197.000000	94.531530 
3196.000000	94.539048 
3195.000000	94.546520 
3194.000000	94.553883 
3193.000000	94.561228 
3192.000000	94.568683 
3191.000000	94.576240 
3190.000000	94.583752 
3189.000000	94.591093 
3188.000000	94.598280 
3187.000000	94.605466 
3186.000000	94.612818 
3185.000000	94.620393 
3184.000000	94.628085 
3183.000000	94.635685 
3182.000000	94.643069 
3181.000000	94.650282 
3180.000000	94.657442 
3179.000000	94.664595 
3178.000000	94.671737 
3177.000000	94.678927 
3176.000000	94.686267 
3175.000000	94.693793 
3174.000000	94.701438 
3173.000000	94.709083 
3172.000000	94.716564 
3171.000000	94.723716 
3170.000000	94.730520 
3169.000000	94.737219 
3168.000000	94.744121 
3167.000000	94.751292 
3166.000000	94.758540 
3165.000000	94.765657 
3164.000000	94.772595 
3163.000000	94.779416 
3162.000000	94.786178 
3161.000000	94.792923 
3160.000000	94.799696 
3159.000000	94.806511 
3158.000000	94.813364 
3157.000000	94.820307 
3156.000000	94.827423 
3155.000000	94.834685 
3154.000000	94.841918 
3153.000000	94.849006 
3152.000000	94.855992 
3151.000000	94.862894 
3150.000000	94.869543 
3149.000000	94.875757 
3148.000000	94.881615 
3147.000000	94.887480 
3146.000000	94.893753 
3145.000000	94.900649 
3144.000000	94.908056 
3143.000000	94.915480 
3142.000000	94.922326 
3141.000000	94.928434 
3140.000000	94.934259 
3139.000000	94.940437 
3138.000000	94.947151 
3137.000000	94.954016 
3136.000000	94.960459 
3135.000000	94.966145 
3134.000000	94.971245 
3133.000000	94.976402 
3132.000000	94.982202 
3131.000000	94.988584 
3130.000000	94.995004 
3129.000000	95.001211 
3128.000000	95.007572 
3127.000000	95.014499 
3126.000000	95.021888 
3125.000000	95.029301 
3124.000000	95.036465 
3123.000000	95.043295 
3122.000000	95.049601 
3121.000000	95.055211 
3120.000000	95.060263 
3119.000000	95.065079 
3118.000000	95.069890 
3117.000000	95.074853 
3116.000000	95.080125 
3115.000000	95.085713 
3114.000000	95.091453 
3113.000000	95.097345 
3112.000000	95.103741 
3111.000000	95.110893 
3110.000000	95.118337 
3109.000000	95.125052 
3108.000000	95.130463 
3107.000000	95.135130 
3106.000000	95.140140 
3105.000000	95.145743 
3104.000000	95.150980 
3103.000000	95.154866 
3102.000000	95.157548 
3101.000000	95.160036 
3100.000000	95.162947 
3099.000000	95.166091 
3098.000000	95.169495 
3097.000000	95.174085 
3096.000000	95.180688 
3095.000000	95.188714 
3094.000000	95.196587 
3093.000000	95.203349 
3092.000000	95.209198 
3091.000000	95.214410 
3090.000000	95.218659 
3089.000000	95.221680 
3088.000000	95.223975 
3087.000000	95.226519 
3086.000000	95.230069 
3085.000000	95.234798 
3084.000000	95.240195 
3083.000000	95.245286 
3082.000000	95.249418 
3081.000000	95.252948 
3080.000000	95.256772 
3079.000000	95.261156 
3078.000000	95.265599 
3077.000000	95.269825 
3076.000000	95.274167 
3075.000000	95.278647 
3074.000000	95.282516 
3073.000000	95.285351 
3072.000000	95.288002 
3071.000000	95.291622 
3070.000000	95.296172 
3069.000000	95.300752 
3068.000000	95.304979 
3067.000000	95.309093 
3066.000000	95.312915 
3065.000000	95.315870 
3064.000000	95.318041 
3063.000000	95.320157 
3062.000000	95.322434 
3061.000000	95.324317 
3060.000000	95.325596 
3059.000000	95.327071 
3058.000000	95.329844 
3057.000000	95.334361 
3056.000000	95.340073 
3055.000000	95.345485 
3054.000000	95.348857 
3053.000000	95.349723 
3052.000000	95.349911 
3051.000000	95.352158 
3050.000000	95.357257 
3049.000000	95.363248 
3048.000000	95.367598 
3047.000000	95.369513 
3046.000000	95.369801 
3045.000000	95.369581 
3044.000000	95.369918 
3043.000000	95.372034 
3042.000000	95.376676 
3041.000000	95.383013 
3040.000000	95.388767 
3039.000000	95.392003 
3038.000000	95.392701 
3037.000000	95.392494 
3036.000000	95.392894 
3035.000000	95.393782 
3034.000000	95.393861 
3033.000000	95.392406 
3032.000000	95.390136 
3031.000000	95.388434 
3030.000000	95.388204 
3029.000000	95.389504 
3028.000000	95.391514 
3027.000000	95.392542 
3026.000000	95.390947 
3025.000000	95.386903 
3024.000000	95.382878 
3023.000000	95.381386 
3022.000000	95.382505 
3021.000000	95.384489 
3020.000000	95.386311 
3019.000000	95.388298 
3018.000000	95.390308 
3017.000000	95.390896 
3016.000000	95.389027 
3015.000000	95.385594 
3014.000000	95.382644 
3013.000000	95.381521 
3012.000000	95.382000 
3011.000000	95.382598 
3010.000000	95.381580 
3009.000000	95.378328 
3008.000000	95.373973 
3007.000000	95.370205 
3006.000000	95.367302 
3005.000000	95.364000 
3004.000000	95.359431 
3003.000000	95.354500 
3002.000000	95.351128 
3001.000000	95.350620 
3000.000000	95.352699 
2999.000000	95.355359 
2998.000000	95.355781 
2997.000000	95.352379 
2996.000000	95.346200 
2995.000000	95.339781 
2994.000000	95.334520 
2993.000000	95.329823 
2992.000000	95.324686 
2991.000000	95.319095 
2990.000000	95.313710 
2989.000000	95.309148 
2988.000000	95.306130 
2987.000000	95.305628 
2986.000000	95.308333 
2985.000000	95.314165 
2984.000000	95.322290 
2983.000000	95.331249 
2982.000000	95.339275 
2981.000000	95.345087 
2980.000000	95.348387 
2979.000000	95.349234 
2978.000000	95.347464 
2977.000000	95.343534 
2976.000000	95.339442 
2975.000000	95.337514 
2974.000000	95.338261 
2973.000000	95.340550 
2972.000000	95.343777 
2971.000000	95.348510 
2970.000000	95.354818 
2969.000000	95.361521 
2968.000000	95.367704 
2967.000000	95.373671 
2966.000000	95.379649 
2965.000000	95.384762 
2964.000000	95.388292 
2963.000000	95.391132 
2962.000000	95.395006 
2961.000000	95.400720 
2960.000000	95.407919 
2959.000000	95.415995 
2958.000000	95.424462 
2957.000000	95.432774 
2956.000000	95.440339 
2955.000000	95.446449 
2954.000000	95.450178 
2953.000000	95.451275 
2952.000000	95.451524 
2951.000000	95.454130 
2950.000000	95.460616 
2949.000000	95.468955 
2948.000000	95.475719 
2947.000000	95.479435 
2946.000000	95.480985 
2945.000000	95.481538 
2944.000000	95.481495 
2943.000000	95.481239 
2942.000000	95.481329 
2941.000000	95.481532 
2940.000000	95.480831 
2939.000000	95.478918 
2938.000000	95.476911 
2937.000000	95.476137 
2936.000000	95.476721 
2935.000000	95.477722 
2934.000000	95.478140 
2933.000000	95.477453 
2932.000000	95.475682 
2931.000000	95.473439 
2930.000000	95.471708 
2929.000000	95.471184 
2928.000000	95.471740 
2927.000000	95.472612 
2926.000000	95.473146 
2925.000000	95.473545 
2924.000000	95.474935 
2923.000000	95.478459 
2922.000000	95.483999 
2921.000000	95.489984 
2920.000000	95.495001 
2919.000000	95.499483 
2918.000000	95.505069 
2917.000000	95.512148 
2916.000000	95.518780 
2915.000000	95.522727 
2914.000000	95.524216 
2913.000000	95.525939 
2912.000000	95.530171 
2911.000000	95.536406 
2910.000000	95.542161 
2909.000000	95.545829 
2908.000000	95.548216 
2907.000000	95.551188 
2906.000000	95.555237 
2905.000000	95.558962 
2904.000000	95.560625 
2903.000000	95.560449 
2902.000000	95.560795 
2901.000000	95.564004 
2900.000000	95.570660 
2899.000000	95.579279 
2898.000000	95.587847 
2897.000000	95.595236 
2896.000000	95.601218 
2895.000000	95.605731 
2894.000000	95.608980 
2893.000000	95.612088 
2892.000000	95.616608 
2891.000000	95.622875 
2890.000000	95.629409 
2889.000000	95.634582 
2888.000000	95.638418 
2887.000000	95.642007 
2886.000000	95.645612 
2885.000000	95.648474 
2884.000000	95.650579 
2883.000000	95.653368 
2882.000000	95.658035 
2881.000000	95.663955 
2880.000000	95.669555 
2879.000000	95.674461 
2878.000000	95.679835 
2877.000000	95.686484 
2876.000000	95.693520 
2875.000000	95.699399 
2874.000000	95.703639 
2873.000000	95.706836 
2872.000000	95.709520 
2871.000000	95.711785 
2870.000000	95.713933 
2869.000000	95.716644 
2868.000000	95.720220 
2867.000000	95.724158 
2866.000000	95.727754 
2865.000000	95.730864 
2864.000000	95.733963 
2863.000000	95.737823 
2862.000000	95.743150 
2861.000000	95.750002 
2860.000000	95.757267 
2859.000000	95.763254 
2858.000000	95.767254 
2857.000000	95.770230 
2856.000000	95.773714 
2855.000000	95.778250 
2854.000000	95.783194 
2853.000000	95.787701 
2852.000000	95.791512 
2851.000000	95.795014 
2850.000000	95.799016 
2849.000000	95.804372 
2848.000000	95.811299 
2847.000000	95.818968 
2846.000000	95.826070 
2845.000000	95.831901 
2844.000000	95.836789 
2843.000000	95.841614 
2842.000000	95.847156 
2841.000000	95.853624 
2840.000000	95.860321 
2839.000000	95.865861 
2838.000000	95.869320 
2837.000000	95.871238 
2836.000000	95.873241 
2835.000000	95.876540 
2834.000000	95.881152 
2833.000000	95.886587 
2832.000000	95.892565 
2831.000000	95.898694 
2830.000000	95.903978 
2829.000000	95.907354 
2828.000000	95.908790 
2827.000000	95.909621 
2826.000000	95.911667 
2825.000000	95.915855 
2824.000000	95.921488 
2823.000000	95.926707 
2822.000000	95.929992 
2821.000000	95.931394 
2820.000000	95.932259 
2819.000000	95.933742 
2818.000000	95.935848 
2817.000000	95.938100 
2816.000000	95.940584 
2815.000000	95.943818 
2814.000000	95.947735 
2813.000000	95.951350 
2812.000000	95.953620 
2811.000000	95.954441 
2810.000000	95.954752 
2809.000000	95.955802 
2808.000000	95.958279 
2807.000000	95.962025 
2806.000000	95.966394 
2805.000000	95.970794 
2804.000000	95.974851 
2803.000000	95.978232 
2802.000000	95.980707 
2801.000000	95.982530 
2800.000000	95.984429 
2799.000000	95.986858 
2798.000000	95.989396 
2797.000000	95.991246 
2796.000000	95.992246 
2795.000000	95.993106 
2794.000000	95.994653 
2793.000000	95.997043 
2792.000000	95.999796 
2791.000000	96.002322 
2790.000000	96.004329 
2789.000000	96.005859 
2788.000000	96.007161 
2787.000000	96.008569 
2786.000000	96.010363 
2785.000000	96.012629 
2784.000000	96.015199 
2783.000000	96.017756 
2782.000000	96.020053 
2781.000000	96.022108 
2780.000000	96.024155 
2779.000000	96.026401 
2778.000000	96.028825 
2777.000000	96.031206 
2776.000000	96.033342 
2775.000000	96.035248 
2774.000000	96.037096 
2773.000000	96.038989 
2772.000000	96.040838 
2771.000000	96.042518 
2770.000000	96.044122 
2769.000000	96.045954 
2768.000000	96.048202 
2767.000000	96.050684 
2766.000000	96.052970 
2765.000000	96.054836 
2764.000000	96.056481 
2763.000000	96.058256 
2762.000000	96.060201 
2761.000000	96.062005 
2760.000000	96.063442 
2759.000000	96.064667 
2758.000000	96.066040 
2757.000000	96.067688 
2756.000000	96.069385 
2755.000000	96.070887 
2754.000000	96.072261 
2753.000000	96.073773 
2752.000000	96.075504 
2751.000000	96.077269 
2750.000000	96.078916 
2749.000000	96.080545 
2748.000000	96.082261 
2747.000000	96.083893 
2746.000000	96.085199 
2745.000000	96.086218 
2744.000000	96.087246 
2743.000000	96.088494 
2742.000000	96.089902 
2741.000000	96.091315 
2740.000000	96.092662 
2739.000000	96.093969 
2738.000000	96.095257 
2737.000000	96.096528 
2736.000000	96.097796 
2735.000000	96.099089 
2734.000000	96.100415 
2733.000000	96.101756 
2732.000000	96.103088 
2731.000000	96.104403 
2730.000000	96.105703 
2729.000000	96.106990 
2728.000000	96.108259 
2727.000000	96.109504 
2726.000000	96.110725 
2725.000000	96.111929 
2724.000000	96.113123 
2723.000000	96.114315 
2722.000000	96.115508 
2721.000000	96.116703 
2720.000000	96.117897 
2719.000000	96.119092 
2718.000000	96.120291 
2717.000000	96.121493 
2716.000000	96.122694 
2715.000000	96.123892 
2714.000000	96.125086 
2713.000000	96.126278 
2712.000000	96.127466 
2711.000000	96.128645 
2710.000000	96.129808 
2709.000000	96.130955 
2708.000000	96.132089 
2707.000000	96.133217 
2706.000000	96.134340 
2705.000000	96.135459 
2704.000000	96.136578 
2703.000000	96.137689 
2702.000000	96.138764 
2701.000000	96.139788 
2700.000000	96.140812 
2699.000000	96.141925 
2698.000000	96.143160 
2697.000000	96.144413 
2696.000000	96.145512 
2695.000000	96.146371 
2694.000000	96.147073 
2693.000000	96.147775 
2692.000000	96.148555 
2691.000000	96.149363 
2690.000000	96.150097 
2689.000000	96.150714 
2688.000000	96.151244 
2687.000000	96.151736 
2686.000000	96.152268 
2685.000000	96.152976 
2684.000000	96.153944 
2683.000000	96.155038 
2682.000000	96.155953 
2681.000000	96.156495 
2680.000000	96.156720 
2679.000000	96.156806 
2678.000000	96.156948 
2677.000000	96.157428 
2676.000000	96.158474 
2675.000000	96.159815 
2674.000000	96.160684 
2673.000000	96.160638 
2672.000000	96.160159 
2671.000000	96.160067 
2670.000000	96.160452 
2669.000000	96.160733 
2668.000000	96.160638 
2667.000000	96.160507 
2666.000000	96.160531 
2665.000000	96.160313 
2664.000000	96.159513 
2663.000000	96.158511 
2662.000000	96.158019 
2661.000000	96.158188 
2660.000000	96.158482 
2659.000000	96.158347 
2658.000000	96.157767 
2657.000000	96.157134 
2656.000000	96.156764 
2655.000000	96.156602 
2654.000000	96.156292 
2653.000000	96.155570 
2652.000000	96.154611 
2651.000000	96.153966 
2650.000000	96.154050 
2649.000000	96.154748 
2648.000000	96.155542 
2647.000000	96.155951 
2646.000000	96.155814 
2645.000000	96.155200 
2644.000000	96.154290 
2643.000000	96.153384 
2642.000000	96.152829 
2641.000000	96.152795 
2640.000000	96.153160 
2639.000000	96.153633 
2638.000000	96.153999 
2637.000000	96.154209 
2636.000000	96.154320 
2635.000000	96.154432 
2634.000000	96.154633 
2633.000000	96.154909 
2632.000000	96.155131 
2631.000000	96.155182 
2630.000000	96.155098 
2629.000000	96.155018 
2628.000000	96.155039 
2627.000000	96.155138 
2626.000000	96.155260 
2625.000000	96.155397 
2624.000000	96.155578 
2623.000000	96.155811 
2622.000000	96.156063 
2621.000000	96.156287 
2620.000000	96.156455 
2619.000000	96.156578 
2618.000000	96.156699 
2617.000000	96.156891 
2616.000000	96.157196 
2615.000000	96.157600 
2614.000000	96.158030 
2613.000000	96.158425 
2612.000000	96.158785 
2611.000000	96.159141 
2610.000000	96.159521 
2609.000000	96.159922 
2608.000000	96.160317 
2607.000000	96.160672 
2606.000000	96.160993 
2605.000000	96.161340 
2604.000000	96.161784 
2603.000000	96.162314 
2602.000000	96.162815 
2601.000000	96.163212 
2600.000000	96.163578 
2599.000000	96.164009 
2598.000000	96.164456 
2597.000000	96.164773 
2596.000000	96.164907 
2595.000000	96.164943 
2594.000000	96.164955 
2593.000000	96.164995 
2592.000000	96.165275 
2591.000000	96.166043 
2590.000000	96.167180 
2589.000000	96.168170 
2588.000000	96.168689 
2587.000000	96.168983 
2586.000000	96.169475 
2585.000000	96.170178 
2584.000000	96.170782 
2583.000000	96.171140 
2582.000000	96.171385 
2581.000000	96.171667 
2580.000000	96.172092 
2579.000000	96.172854 
2578.000000	96.174173 
2577.000000	96.175951 
2576.000000	96.177627 
2575.000000	96.178506 
2574.000000	96.178258 
2573.000000	96.177153 
2572.000000	96.175865 
2571.000000	96.174896 
2570.000000	96.174306 
2569.000000	96.174037 
2568.000000	96.174294 
2567.000000	96.175279 
2566.000000	96.176623 
2565.000000	96.177549 
2564.000000	96.177714 
2563.000000	96.177554 
2562.000000	96.177687 
2561.000000	96.178347 
2560.000000	96.179612 
2559.000000	96.181660 
2558.000000	96.184347 
2557.000000	96.186799 
2556.000000	96.188095 
2555.000000	96.188222 
2554.000000	96.187930 
2553.000000	96.187684 
2552.000000	96.187238 
2551.000000	96.186532 
2550.000000	96.186275 
2549.000000	96.187073 
2548.000000	96.188398 
2547.000000	96.189041 
2546.000000	96.188622 
2545.000000	96.188006 
2544.000000	96.188074 
2543.000000	96.188544 
2542.000000	96.188523 
2541.000000	96.187843 
2540.000000	96.187293 
2539.000000	96.187544 
2538.000000	96.188385 
2537.000000	96.189178 
2536.000000	96.189708 
2535.000000	96.190238 
2534.000000	96.190904 
2533.000000	96.191464 
2532.000000	96.191701 
2531.000000	96.191745 
2530.000000	96.191857 
2529.000000	96.192062 
2528.000000	96.192182 
2527.000000	96.192188 
2526.000000	96.192302 
2525.000000	96.192727 
2524.000000	96.193406 
2523.000000	96.194108 
2522.000000	96.194686 
2521.000000	96.195163 
2520.000000	96.195607 
2519.000000	96.196043 
2518.000000	96.196472 
2517.000000	96.196875 
2516.000000	96.197127 
2515.000000	96.197063 
2514.000000	96.196732 
2513.000000	96.196557 
2512.000000	96.196986 
2511.000000	96.198068 
2510.000000	96.199470 
2509.000000	96.200802 
2508.000000	96.201886 
2507.000000	96.202676 
2506.000000	96.203226 
2505.000000	96.203777 
2504.000000	96.204628 
2503.000000	96.205799 
2502.000000	96.206917 
2501.000000	96.207597 
2500.000000	96.207828 
2499.000000	96.207925 
2498.000000	96.208210 
2497.000000	96.208774 
2496.000000	96.209570 
2495.000000	96.210520 
2494.000000	96.211504 
2493.000000	96.212354 
2492.000000	96.212997 
2491.000000	96.213572 
2490.000000	96.214311 
2489.000000	96.215257 
2488.000000	96.216164 
2487.000000	96.216770 
2486.000000	96.217144 
2485.000000	96.217649 
2484.000000	96.218559 
2483.000000	96.219762 
2482.000000	96.220864 
2481.000000	96.221565 
2480.000000	96.221861 
2479.000000	96.221969 
2478.000000	96.222176 
2477.000000	96.222706 
2476.000000	96.223526 
2475.000000	96.224262 
2474.000000	96.224510 
2473.000000	96.224246 
2472.000000	96.223778 
2471.000000	96.223309 
2470.000000	96.222858 
2469.000000	96.222673 
2468.000000	96.223217 
2467.000000	96.224511 
2466.000000	96.225789 
2465.000000	96.226181 
2464.000000	96.225745 
2463.000000	96.225494 
2462.000000	96.226392 
2461.000000	96.228483 
2460.000000	96.230967 
2459.000000	96.232951 
2458.000000	96.233979 
2457.000000	96.233940 
2456.000000	96.232765 
2455.000000	96.230592 
2454.000000	96.228229 
2453.000000	96.226786 
2452.000000	96.226552 
2451.000000	96.226667 
2450.000000	96.226388 
2449.000000	96.226276 
2448.000000	96.227352 
2447.000000	96.229375 
2446.000000	96.230864 
2445.000000	96.230888 
2444.000000	96.229983 
2443.000000	96.229180 
2442.000000	96.228935 
2441.000000	96.229237 
2440.000000	96.230093 
2439.000000	96.231517 
2438.000000	96.233496 
2437.000000	96.236168 
2436.000000	96.239513 
2435.000000	96.242744 
2434.000000	96.244686 
2433.000000	96.244978 
2432.000000	96.244494 
2431.000000	96.244446 
2430.000000	96.245478 
2429.000000	96.247574 
2428.000000	96.250133 
2427.000000	96.252009 
2426.000000	96.252283 
2425.000000	96.251215 
2424.000000	96.249976 
2423.000000	96.249292 
2422.000000	96.249088 
2421.000000	96.249486 
2420.000000	96.251103 
2419.000000	96.253959 
2418.000000	96.256923 
2417.000000	96.259041 
2416.000000	96.260618 
2415.000000	96.262332 
2414.000000	96.264118 
2413.000000	96.265733 
2412.000000	96.267615 
2411.000000	96.270043 
2410.000000	96.272195 
2409.000000	96.273247 
2408.000000	96.273778 
2407.000000	96.274838 
2406.000000	96.276167 
2405.000000	96.276557 
2404.000000	96.275609 
2403.000000	96.274051 
2402.000000	96.272708 
2401.000000	96.272257 
2400.000000	96.273586 
2399.000000	96.277202 
2398.000000	96.282418 
2397.000000	96.287911 
2396.000000	96.292800 
2395.000000	96.296380 
2394.000000	96.297512 
2393.000000	96.295918 
2392.000000	96.293705 
2391.000000	96.293798 
2390.000000	96.296773 
2389.000000	96.300631 
2388.000000	96.303718 
2387.000000	96.306245 
2386.000000	96.308803 
2385.000000	96.311227 
2384.000000	96.313435 
2383.000000	96.315928 
2382.000000	96.318927 
2381.000000	96.322331 
2380.000000	96.326952 
2379.000000	96.334046 
2378.000000	96.342430 
2377.000000	96.347741 
2376.000000	96.346647 
2375.000000	96.340842 
2374.000000	96.335164 
2373.000000	96.331845 
2372.000000	96.329238 
2371.000000	96.326379 
2370.000000	96.325399 
2369.000000	96.327819 
2368.000000	96.330927 
2367.000000	96.330550 
2366.000000	96.326387 
2365.000000	96.322376 
2364.000000	96.321782 
2363.000000	96.323854 
2362.000000	96.326334 
2361.000000	96.329042 
2360.000000	96.333368 
2359.000000	96.338837 
2358.000000	96.342912 
2357.000000	96.344625 
2356.000000	96.345067 
2355.000000	96.343150 
2354.000000	96.335598 
2353.000000	96.323559 
2352.000000	96.313108 
2351.000000	96.307613 
2350.000000	96.305681 
2349.000000	96.304997 
2348.000000	96.302247 
2347.000000	96.293320 
2346.000000	96.280084 
2345.000000	96.270734 
2344.000000	96.268349 
2343.000000	96.269113 
2342.000000	96.271284 
2341.000000	96.276640 
2340.000000	96.284683 
2339.000000	96.291053 
2338.000000	96.292215 
2337.000000	96.289806 
2336.000000	96.288419 
2335.000000	96.289022 
2334.000000	96.286533 
2333.000000	96.276432 
2332.000000	96.261280 
2331.000000	96.247739 
2330.000000	96.238261 
2329.000000	96.230006 
2328.000000	96.220628 
2327.000000	96.209993 
2326.000000	96.197416 
2325.000000	96.182589 
2324.000000	96.169195 
2323.000000	96.162427 
2322.000000	96.161729 
2321.000000	96.161025 
2320.000000	96.157975 
2319.000000	96.157584 
2318.000000	96.163809 
2317.000000	96.172803 
2316.000000	96.177251 
2315.000000	96.173961 
2314.000000	96.164956 
2313.000000	96.153992 
2312.000000	96.144760 
2311.000000	96.139889 
2310.000000	96.138992 
2309.000000	96.138690 
2308.000000	96.136939 
2307.000000	96.135822 
2306.000000	96.137987 
2305.000000	96.142130 
2304.000000	96.144523 
2303.000000	96.144146 
2302.000000	96.143647 
2301.000000	96.145644 
2300.000000	96.149872 
2299.000000	96.153939 
2298.000000	96.155286 
2297.000000	96.152837 
2296.000000	96.148222 
2295.000000	96.144945 
2294.000000	96.145144 
2293.000000	96.147368 
2292.000000	96.148779 
2291.000000	96.148732 
2290.000000	96.149136 
2289.000000	96.151550 
2288.000000	96.155357 
2287.000000	96.158825 
2286.000000	96.161036 
2285.000000	96.162471 
2284.000000	96.164136 
2283.000000	96.166347 
2282.000000	96.168436 
2281.000000	96.169698 
2280.000000	96.170193 
2279.000000	96.170258 
2278.000000	96.169737 
2277.000000	96.168544 
2276.000000	96.167638 
2275.000000	96.168333 
2274.000000	96.170647 
2273.000000	96.173323 
2272.000000	96.175523 
2271.000000	96.177388 
2270.000000	96.178886 
2269.000000	96.179516 
2268.000000	96.179582 
2267.000000	96.180405 
2266.000000	96.182601 
2265.000000	96.185138 
2264.000000	96.186605 
2263.000000	96.186495 
2262.000000	96.184873 
2261.000000	96.181893 
2260.000000	96.178300 
2259.000000	96.175453 
2258.000000	96.174189 
2257.000000	96.174362 
2256.000000	96.175848 
2255.000000	96.178950 
2254.000000	96.183153 
2253.000000	96.186412 
2252.000000	96.186896 
2251.000000	96.184641 
2250.000000	96.180847 
2249.000000	96.176473 
2248.000000	96.172359 
2247.000000	96.169692 
2246.000000	96.169091 
2245.000000	96.169538 
2244.000000	96.169191 
2243.000000	96.167428 
2242.000000	96.165262 
2241.000000	96.163966 
2240.000000	96.163953 
2239.000000	96.164909 
2238.000000	96.166142 
2237.000000	96.166795 
2236.000000	96.166422 
2235.000000	96.165330 
2234.000000	96.164165 
2233.000000	96.163237 
2232.000000	96.162484 
2231.000000	96.161841 
2230.000000	96.161204 
2229.000000	96.160277 
2228.000000	96.158919 
2227.000000	96.157488 
2226.000000	96.156452 
2225.000000	96.155802 
2224.000000	96.155089 
2223.000000	96.154049 
2222.000000	96.152877 
2221.000000	96.151862 
2220.000000	96.150986 
2219.000000	96.150102 
2218.000000	96.149170 
2217.000000	96.148235 
2216.000000	96.147317 
2215.000000	96.146388 
2214.000000	96.145415 
2213.000000	96.144393 
2212.000000	96.143350 
2211.000000	96.142331 
2210.000000	96.141359 
2209.000000	96.140433 
2208.000000	96.139535 
2207.000000	96.138636 
2206.000000	96.137699 
2205.000000	96.136699 
2204.000000	96.135742 
2203.000000	96.135097 
2202.000000	96.134967 
2201.000000	96.135196 
2200.000000	96.135201 
2199.000000	96.134227 
2198.000000	96.131870 
2197.000000	96.128617 
2196.000000	96.125767 
2195.000000	96.124328 
2194.000000	96.124114 
2193.000000	96.124305 
2192.000000	96.124686 
2191.000000	96.125530 
2190.000000	96.126412 
2189.000000	96.126340 
2188.000000	96.125188 
2187.000000	96.123661 
2186.000000	96.121511 
2185.000000	96.117568 
2184.000000	96.112702 
2183.000000	96.111008 
2182.000000	96.115760 
2181.000000	96.124901 
2180.000000	96.131867 
2179.000000	96.132111 
2178.000000	96.126909 
2177.000000	96.121336 
2176.000000	96.119357 
2175.000000	96.121027 
2174.000000	96.123866 
2173.000000	96.126137 
2172.000000	96.128638 
2171.000000	96.132975 
2170.000000	96.138209 
2169.000000	96.140448 
2168.000000	96.136864 
2167.000000	96.129391 
2166.000000	96.122956 
2165.000000	96.120085 
2164.000000	96.118900 
2163.000000	96.117095 
2162.000000	96.116730 
2161.000000	96.123495 
2160.000000	96.141099 
2159.000000	96.166770 
2158.000000	96.192068 
2157.000000	96.209373 
2156.000000	96.216988 
2155.000000	96.217855 
2154.000000	96.216044 
2153.000000	96.215043 
2152.000000	96.216829 
2151.000000	96.220148 
2150.000000	96.220988 
2149.000000	96.217434 
2148.000000	96.213463 
2147.000000	96.214965 
2146.000000	96.222209 
2145.000000	96.229555 
2144.000000	96.233106 
2143.000000	96.234939 
2142.000000	96.238280 
2141.000000	96.242315 
2140.000000	96.244752 
2139.000000	96.247046 
2138.000000	96.253520 
2137.000000	96.265843 
2136.000000	96.280320 
2135.000000	96.290492 
2134.000000	96.291548 
2133.000000	96.283689 
2132.000000	96.273094 
2131.000000	96.267511 
2130.000000	96.269200 
2129.000000	96.273392 
2128.000000	96.274271 
2127.000000	96.271203 
2126.000000	96.268036 
2125.000000	96.267859 
2124.000000	96.270274 
2123.000000	96.273007 
2122.000000	96.274107 
2121.000000	96.272572 
2120.000000	96.268344 
2119.000000	96.262258 
2118.000000	96.255664 
2117.000000	96.250001 
2116.000000	96.246266 
2115.000000	96.244110 
2114.000000	96.241580 
2113.000000	96.237080 
2112.000000	96.232019 
2111.000000	96.229885 
2110.000000	96.232081 
2109.000000	96.236173 
2108.000000	96.238917 
2107.000000	96.239577 
2106.000000	96.239254 
2105.000000	96.238900 
2104.000000	96.239267 
2103.000000	96.240953 
2102.000000	96.242890 
2101.000000	96.242290 
2100.000000	96.238010 
2099.000000	96.233092 
2098.000000	96.232112 
2097.000000	96.236415 
2096.000000	96.243294 
2095.000000	96.248869 
2094.000000	96.251059 
2093.000000	96.250034 
2092.000000	96.247268 
2091.000000	96.244665 
2090.000000	96.243558 
2089.000000	96.244006 
2088.000000	96.245142 
2087.000000	96.245984 
2086.000000	96.245738 
2085.000000	96.243847 
2084.000000	96.240522 
2083.000000	96.237001 
2082.000000	96.234675 
2081.000000	96.234013 
2080.000000	96.234676 
2079.000000	96.236187 
2078.000000	96.237821 
2077.000000	96.238415 
2076.000000	96.237307 
2075.000000	96.235380 
2074.000000	96.234211 
2073.000000	96.234007 
2072.000000	96.233442 
2071.000000	96.231529 
2070.000000	96.228809 
2069.000000	96.226613 
2068.000000	96.225796 
2067.000000	96.226309 
2066.000000	96.227400 
2065.000000	96.227947 
2064.000000	96.227232 
2063.000000	96.225692 
2062.000000	96.224648 
2061.000000	96.225077 
2060.000000	96.226894 
2059.000000	96.229363 
2058.000000	96.231652 
2057.000000	96.233060 
2056.000000	96.233133 
2055.000000	96.231777 
2054.000000	96.229409 
2053.000000	96.226881 
2052.000000	96.225148 
2051.000000	96.224668 
2050.000000	96.225102 
2049.000000	96.225702 
2048.000000	96.226136 
2047.000000	96.226731 
2046.000000	96.227770 
2045.000000	96.229025 
2044.000000	96.230130 
2043.000000	96.231040 
2042.000000	96.231905 
2041.000000	96.232852 
2040.000000	96.234140 
2039.000000	96.236208 
2038.000000	96.239088 
2037.000000	96.241928 
2036.000000	96.243695 
2035.000000	96.244279 
2034.000000	96.244634 
2033.000000	96.245916 
2032.000000	96.248501 
2031.000000	96.251713 
2030.000000	96.254179 
2029.000000	96.254843 
2028.000000	96.253867 
2027.000000	96.252521 
2026.000000	96.251890 
2025.000000	96.252059 
2024.000000	96.252808 
2023.000000	96.254478 
2022.000000	96.257578 
2021.000000	96.261561 
2020.000000	96.264628 
2019.000000	96.265250 
2018.000000	96.263363 
2017.000000	96.260282 
2016.000000	96.257770 
2015.000000	96.256858 
2014.000000	96.257160 
2013.000000	96.257135 
2012.000000	96.255840 
2011.000000	96.254536 
2010.000000	96.255508 
2009.000000	96.259237 
2008.000000	96.263585 
2007.000000	96.266199 
2006.000000	96.266929 
2005.000000	96.267008 
2004.000000	96.267091 
2003.000000	96.267174 
2002.000000	96.267675 
2001.000000	96.269002 
2000.000000	96.270208 
1999.000000	96.269284 
1998.000000	96.265105 
1997.000000	96.258719 
1996.000000	96.252797 
1995.000000	96.249578 
1994.000000	96.249379 
1993.000000	96.250676 
1992.000000	96.251389 
1991.000000	96.250806 
1990.000000	96.250111 
1989.000000	96.250816 
1988.000000	96.252859 
1987.000000	96.254383 
1986.000000	96.253526 
1985.000000	96.250379 
1984.000000	96.246897 
1983.000000	96.244833 
1982.000000	96.244239 
1981.000000	96.244361 
1980.000000	96.245376 
1979.000000	96.247976 
1978.000000	96.251430 
1977.000000	96.253658 
1976.000000	96.253671 
1975.000000	96.252733 
1974.000000	96.252745 
1973.000000	96.254349 
1972.000000	96.256912 
1971.000000	96.259486 
1970.000000	96.261262 
1969.000000	96.261610 
1968.000000	96.260408 
1967.000000	96.258359 
1966.000000	96.256747 
1965.000000	96.256495 
1964.000000	96.257699 
1963.000000	96.259868 
1962.000000	96.262296 
1961.000000	96.264286 
1960.000000	96.265291 
1959.000000	96.265121 
1958.000000	96.264212 
1957.000000	96.263535 
1956.000000	96.263810 
1955.000000	96.264811 
1954.000000	96.265586 
1953.000000	96.265503 
1952.000000	96.264755 
1951.000000	96.263841 
1950.000000	96.263078 
1949.000000	96.262839 
1948.000000	96.263678 
1947.000000	96.265670 
1946.000000	96.267781 
1945.000000	96.268604 
1944.000000	96.267700 
1943.000000	96.265732 
1942.000000	96.263550 
1941.000000	96.261487 
1940.000000	96.259794 
1939.000000	96.258787 
1938.000000	96.258318 
1937.000000	96.257866 
1936.000000	96.257331 
1935.000000	96.256958 
1934.000000	96.256478 
1933.000000	96.255484 
1932.000000	96.254690 
1931.000000	96.255487 
1930.000000	96.257835 
1929.000000	96.259680 
1928.000000	96.259674 
1927.000000	96.258843 
1926.000000	96.258620 
1925.000000	96.258502 
1924.000000	96.256996 
1923.000000	96.254095 
1922.000000	96.250881 
1921.000000	96.247585 
1920.000000	96.244148 
1919.000000	96.241323 
1918.000000	96.239455 
1917.000000	96.237097 
1916.000000	96.233119 
1915.000000	96.229257 
1914.000000	96.227706 
1913.000000	96.227732 
1912.000000	96.226637 
1911.000000	96.223572 
1910.000000	96.220252 
1909.000000	96.218158 
1908.000000	96.217210 
1907.000000	96.216689 
1906.000000	96.215505 
1905.000000	96.211929 
1904.000000	96.205262 
1903.000000	96.198141 
1902.000000	96.194246 
1901.000000	96.193698 
1900.000000	96.193610 
1899.000000	96.192271 
1898.000000	96.190271 
1897.000000	96.188018 
1896.000000	96.184582 
1895.000000	96.179730 
1894.000000	96.174616 
1893.000000	96.169888 
1892.000000	96.165569 
1891.000000	96.162670 
1890.000000	96.162407 
1889.000000	96.163692 
1888.000000	96.163928 
1887.000000	96.163084 
1886.000000	96.163168 
1885.000000	96.163913 
1884.000000	96.162452 
1883.000000	96.157843 
1882.000000	96.152994 
1881.000000	96.151020 
1880.000000	96.151960 
1879.000000	96.153309 
1878.000000	96.152546 
1877.000000	96.149380 
1876.000000	96.145966 
1875.000000	96.145168 
1874.000000	96.147992 
1873.000000	96.152336 
1872.000000	96.155216 
1871.000000	96.155952 
1870.000000	96.155735 
1869.000000	96.155222 
1868.000000	96.154128 
1867.000000	96.153273 
1866.000000	96.153728 
1865.000000	96.153741 
1864.000000	96.150967 
1863.000000	96.147302 
1862.000000	96.147398 
1861.000000	96.152213 
1860.000000	96.157991 
1859.000000	96.162203 
1858.000000	96.166236 
1857.000000	96.170860 
1856.000000	96.174242 
1855.000000	96.175711 
1854.000000	96.176960 
1853.000000	96.178674 
1852.000000	96.180627 
1851.000000	96.184035 
1850.000000	96.189864 
1849.000000	96.196267 
1848.000000	96.200157 
1847.000000	96.201526 
1846.000000	96.203112 
1845.000000	96.206069 
1844.000000	96.208905 
1843.000000	96.210659 
1842.000000	96.212175 
1841.000000	96.214104 
1840.000000	96.216930 
1839.000000	96.221151 
1838.000000	96.225835 
1837.000000	96.227823 
1836.000000	96.225177 
1835.000000	96.221102 
1834.000000	96.220415 
1833.000000	96.223454 
1832.000000	96.227033 
1831.000000	96.228488 
1830.000000	96.228060 
1829.000000	96.227752 
1828.000000	96.228131 
1827.000000	96.229000 
1826.000000	96.230399 
1825.000000	96.231964 
1824.000000	96.232358 
1823.000000	96.231012 
1822.000000	96.229692 
1821.000000	96.229984 
1820.000000	96.230965 
1819.000000	96.231074 
1818.000000	96.231411 
1817.000000	96.233324 
1816.000000	96.234485 
1815.000000	96.232806 
1814.000000	96.230537 
1813.000000	96.231226 
1812.000000	96.233761 
1811.000000	96.233199 
1810.000000	96.229049 
1809.000000	96.225408 
1808.000000	96.223628 
1807.000000	96.222194 
1806.000000	96.221429 
1805.000000	96.222636 
1804.000000	96.224166 
1803.000000	96.222875 
1802.000000	96.218170 
1801.000000	96.213074 
1800.000000	96.209687 
1799.000000	96.207485 
1798.000000	96.207268 
1797.000000	96.209136 
1796.000000	96.210211 
1795.000000	96.208985 
1794.000000	96.207980 
1793.000000	96.210072 
1792.000000	96.213246 
1791.000000	96.213372 
1790.000000	96.212210 
1789.000000	96.213989 
1788.000000	96.218635 
1787.000000	96.222998 
1786.000000	96.225844 
1785.000000	96.228121 
1784.000000	96.229672 
1783.000000	96.230244 
1782.000000	96.230417 
1781.000000	96.231463 
1780.000000	96.234158 
1779.000000	96.237870 
1778.000000	96.242837 
1777.000000	96.248655 
1776.000000	96.253351 
1775.000000	96.255142 
1774.000000	96.254280 
1773.000000	96.254458 
1772.000000	96.259394 
1771.000000	96.265107 
1770.000000	96.266019 
1769.000000	96.263475 
1768.000000	96.262221 
1767.000000	96.263975 
1766.000000	96.266737 
1765.000000	96.269555 
1764.000000	96.273339 
1763.000000	96.277443 
1762.000000	96.279436 
1761.000000	96.279416 
1760.000000	96.279256 
1759.000000	96.279316 
1758.000000	96.278547 
1757.000000	96.276641 
1756.000000	96.276125 
1755.000000	96.276851 
1754.000000	96.274859 
1753.000000	96.268358 
1752.000000	96.261210 
1751.000000	96.259393 
1750.000000	96.263151 
1749.000000	96.267152 
1748.000000	96.268830 
1747.000000	96.269879 
1746.000000	96.270496 
1745.000000	96.270884 
1744.000000	96.273011 
1743.000000	96.276268 
1742.000000	96.277035 
1741.000000	96.274756 
1740.000000	96.273594 
1739.000000	96.275678 
1738.000000	96.276652 
1737.000000	96.272811 
1736.000000	96.265785 
1735.000000	96.259294 
1734.000000	96.256242 
1733.000000	96.253467 
1732.000000	96.249121 
1731.000000	96.248622 
1730.000000	96.254674 
1729.000000	96.261470 
1728.000000	96.263227 
1727.000000	96.260476 
1726.000000	96.256067 
1725.000000	96.251672 
1724.000000	96.247434 
1723.000000	96.244007 
1722.000000	96.242742 
1721.000000	96.241951 
1720.000000	96.237767 
1719.000000	96.228100 
1718.000000	96.217242 
1717.000000	96.211594 
1716.000000	96.205403 
1715.000000	96.194255 
1714.000000	96.184764 
1713.000000	96.179785 
1712.000000	96.174228 
1711.000000	96.167034 
1710.000000	96.161989 
1709.000000	96.159091 
1708.000000	96.153732 
1707.000000	96.144711 
1706.000000	96.137200 
1705.000000	96.132813 
1704.000000	96.123054 
1703.000000	96.103691 
1702.000000	96.081670 
1701.000000	96.067037 
1700.000000	96.059511 
1699.000000	96.043665 
1698.000000	96.021719 
1697.000000	96.006107 
1696.000000	95.999384 
1695.000000	95.994376 
1694.000000	95.985244 
1693.000000	95.973025 
1692.000000	95.959160 
1691.000000	95.944305 
1690.000000	95.928903 
1689.000000	95.912858 
1688.000000	95.896232 
1687.000000	95.879355 
1686.000000	95.863990 
1685.000000	95.852339 
1684.000000	95.843429 
1683.000000	95.831612 
1682.000000	95.814267 
1681.000000	95.793995 
1680.000000	95.777414 
1679.000000	95.766581 
1678.000000	95.757126 
1677.000000	95.744666 
1676.000000	95.730420 
1675.000000	95.717435 
1674.000000	95.700781 
1673.000000	95.677888 
1672.000000	95.655283 
1671.000000	95.639965 
1670.000000	95.630837 
1669.000000	95.619347 
1668.000000	95.603981 
1667.000000	95.590096 
1666.000000	95.577511 
1665.000000	95.563358 
1664.000000	95.548098 
1663.000000	95.534876 
1662.000000	95.520805 
1661.000000	95.498272 
1660.000000	95.471245 
1659.000000	95.451219 
1658.000000	95.440526 
1657.000000	95.431574 
1656.000000	95.417366 
1655.000000	95.398235 
1654.000000	95.378426 
1653.000000	95.366974 
1652.000000	95.351665 
1651.000000	95.329661 
1650.000000	95.307165 
1649.000000	95.288491 
1648.000000	95.273264 
1647.000000	95.262656 
1646.000000	95.255957 
1645.000000	95.247673 
1644.000000	95.236221 
1643.000000	95.225033 
1642.000000	95.217564 
1641.000000	95.213129 
1640.000000	95.208896 
1639.000000	95.201980 
1638.000000	95.193225 
1637.000000	95.187750 
1636.000000	95.191232 
1635.000000	95.202994 
1634.000000	95.211421 
1633.000000	95.211234 
1632.000000	95.205576 
1631.000000	95.201690 
1630.000000	95.204499 
1629.000000	95.212763 
1628.000000	95.222799 
1627.000000	95.234203 
1626.000000	95.246764 
1625.000000	95.259087 
1624.000000	95.272930 
1623.000000	95.292137 
1622.000000	95.313036 
1621.000000	95.326182 
1620.000000	95.331386 
1619.000000	95.336316 
1618.000000	95.347519 
1617.000000	95.363308 
1616.000000	95.378470 
1615.000000	95.392879 
1614.000000	95.406742 
1613.000000	95.416718 
1612.000000	95.422740 
1611.000000	95.429964 
1610.000000	95.441435 
1609.000000	95.454753 
1608.000000	95.469234 
1607.000000	95.486629 
1606.000000	95.503092 
1605.000000	95.513469 
1604.000000	95.521338 
1603.000000	95.533174 
1602.000000	95.548319 
1601.000000	95.561699 
1600.000000	95.573020 
1599.000000	95.585589 
1598.000000	95.598463 
1597.000000	95.608240 
1596.000000	95.615855 
1595.000000	95.625865 
1594.000000	95.639209 
1593.000000	95.651799 
1592.000000	95.661535 
1591.000000	95.671045 
1590.000000	95.682123 
1589.000000	95.693005 
1588.000000	95.703322 
1587.000000	95.715981 
1586.000000	95.731162 
1585.000000	95.744060 
1584.000000	95.753663 
1583.000000	95.764987 
1582.000000	95.779869 
1581.000000	95.794302 
1580.000000	95.805848 
1579.000000	95.816580 
1578.000000	95.829123 
1577.000000	95.844944 
1576.000000	95.864335 
1575.000000	95.884406 
1574.000000	95.899175 
1573.000000	95.907710 
1572.000000	95.916580 
1571.000000	95.932545 
1570.000000	95.952077 
1569.000000	95.962239 
1568.000000	95.962229 
1567.000000	95.963214 
1566.000000	95.969493 
1565.000000	95.977683 
1564.000000	95.987200 
1563.000000	95.996864 
1562.000000	96.005928 
1561.000000	96.008583 
1560.000000	96.011831 
1559.000000	96.028870 
1558.000000	96.047951 
1557.000000	96.048814 
1556.000000	96.041475 
1555.000000	96.040259 
1554.000000	96.043990 
1553.000000	96.046722 
1552.000000	96.047279 
1551.000000	96.045812 
1550.000000	96.042736 
1549.000000	96.039531 
1548.000000	96.038552 
1547.000000	96.041188 
1546.000000	96.043890 
1545.000000	96.042370 
1544.000000	96.037773 
1543.000000	96.033493 
1542.000000	96.030941 
1541.000000	96.030819 
1540.000000	96.028640 
1539.000000	96.021265 
1538.000000	96.009334 
1537.000000	95.994611 
1536.000000	95.979599 
1535.000000	95.969273 
1534.000000	95.966325 
1533.000000	95.966580 
1532.000000	95.961209 
1531.000000	95.948083 
1530.000000	95.933845 
1529.000000	95.922521 
1528.000000	95.911281 
1527.000000	95.897877 
1526.000000	95.883939 
1525.000000	95.872075 
1524.000000	95.862968 
1523.000000	95.856228 
1522.000000	95.851352 
1521.000000	95.844128 
1520.000000	95.828428 
1519.000000	95.805428 
1518.000000	95.781366 
1517.000000	95.761915 
1516.000000	95.748297 
1515.000000	95.737979 
1514.000000	95.729299 
1513.000000	95.721938 
1512.000000	95.713262 
1511.000000	95.698038 
1510.000000	95.675864 
1509.000000	95.650746 
1508.000000	95.629876 
1507.000000	95.617451 
1506.000000	95.610350 
1505.000000	95.598764 
1504.000000	95.581236 
1503.000000	95.561205 
1502.000000	95.541296 
1501.000000	95.523364 
1500.000000	95.507930 
1499.000000	95.492552 
1498.000000	95.474240 
1497.000000	95.455614 
1496.000000	95.440753 
1495.000000	95.428871 
1494.000000	95.417610 
1493.000000	95.406802 
1492.000000	95.396804 
1491.000000	95.386376 
1490.000000	95.373413 
1489.000000	95.357875 
1488.000000	95.339513 
1487.000000	95.318567 
1486.000000	95.298172 
1485.000000	95.277910 
1484.000000	95.256379 
1483.000000	95.235802 
1482.000000	95.218635 
1481.000000	95.204514 
1480.000000	95.189861 
1479.000000	95.172816 
1478.000000	95.154844 
1477.000000	95.137300 
1476.000000	95.117667 
1475.000000	95.092953 
1474.000000	95.065571 
1473.000000	95.043120 
1472.000000	95.029371 
1471.000000	95.016905 
1470.000000	95.000184 
1469.000000	94.981369 
1468.000000	94.962834 
1467.000000	94.944467 
1466.000000	94.926806 
1465.000000	94.911919 
1464.000000	94.899236 
1463.000000	94.882819 
1462.000000	94.860702 
1461.000000	94.838179 
1460.000000	94.820371 
1459.000000	94.804861 
1458.000000	94.782098 
1457.000000	94.752424 
1456.000000	94.728976 
1455.000000	94.712813 
1454.000000	94.696280 
1453.000000	94.680242 
1452.000000	94.670049 
1451.000000	94.665840 
1450.000000	94.663983 
1449.000000	94.664199 
1448.000000	94.666164 
1447.000000	94.665068 
1446.000000	94.656427 
1445.000000	94.644534 
1444.000000	94.637045 
1443.000000	94.632291 
1442.000000	94.624289 
1441.000000	94.612941 
1440.000000	94.603482 
1439.000000	94.596185 
1438.000000	94.585846 
1437.000000	94.572480 
1436.000000	94.562463 
1435.000000	94.553929 
1434.000000	94.542905 
1433.000000	94.534300 
1432.000000	94.533849 
1431.000000	94.539724 
1430.000000	94.545161 
1429.000000	94.549118 
1428.000000	94.554304 
1427.000000	94.560791 
1426.000000	94.566477 
1425.000000	94.573027 
1424.000000	94.586485 
1423.000000	94.603022 
1422.000000	94.613322 
1421.000000	94.619453 
1420.000000	94.633443 
1419.000000	94.654558 
1418.000000	94.666322 
1417.000000	94.669075 
1416.000000	94.679871 
1415.000000	94.703396 
1414.000000	94.728501 
1413.000000	94.746481 
1412.000000	94.762306 
1411.000000	94.782448 
1410.000000	94.804518 
1409.000000	94.826340 
1408.000000	94.850317 
1407.000000	94.877586 
1406.000000	94.905267 
1405.000000	94.932939 
1404.000000	94.965141 
1403.000000	94.999055 
1402.000000	95.027235 
1401.000000	95.052042 
1400.000000	95.083883 
1399.000000	95.125028 
1398.000000	95.163692 
1397.000000	95.192213 
1396.000000	95.217244 
1395.000000	95.248168 
1394.000000	95.283168 
1393.000000	95.316772 
1392.000000	95.352073 
1391.000000	95.391146 
1390.000000	95.428923 
1389.000000	95.460071 
1388.000000	95.484579 
1387.000000	95.505678 
1386.000000	95.525286 
1385.000000	95.545772 
1384.000000	95.571274 
1383.000000	95.601379 
1382.000000	95.630000 
1381.000000	95.652743 
1380.000000	95.670778 
1379.000000	95.688309 
1378.000000	95.708059 
1377.000000	95.729838 
1376.000000	95.751884 
1375.000000	95.772512 
1374.000000	95.790598 
1373.000000	95.806949 
1372.000000	95.823607 
1371.000000	95.842238 
1370.000000	95.862058 
1369.000000	95.880044 
1368.000000	95.895927 
1367.000000	95.911574 
1366.000000	95.928040 
1365.000000	95.945483 
1364.000000	95.962196 
1363.000000	95.974984 
1362.000000	95.983278 
1361.000000	95.991073 
1360.000000	96.003206 
1359.000000	96.021094 
1358.000000	96.041793 
1357.000000	96.060816 
1356.000000	96.075823 
1355.000000	96.087196 
1354.000000	96.096673 
1353.000000	96.106987 
1352.000000	96.118619 
1351.000000	96.130738 
1350.000000	96.143043 
1349.000000	96.154357 
1348.000000	96.164126 
1347.000000	96.173100 
1346.000000	96.182739 
1345.000000	96.193687 
1344.000000	96.205024 
1343.000000	96.215340 
1342.000000	96.223809 
1341.000000	96.229865 
1340.000000	96.233059 
1339.000000	96.234265 
1338.000000	96.235711 
1337.000000	96.239668 
1336.000000	96.246501 
1335.000000	96.253893 
1334.000000	96.259305 
1333.000000	96.262703 
1332.000000	96.265556 
1331.000000	96.268651 
1330.000000	96.271646 
1329.000000	96.274356 
1328.000000	96.277093 
1327.000000	96.280255 
1326.000000	96.283173 
1325.000000	96.283852 
1324.000000	96.281410 
1323.000000	96.276452 
1322.000000	96.270033 
1321.000000	96.263789 
1320.000000	96.260173 
1319.000000	96.260729 
1318.000000	96.264342 
1317.000000	96.268504 
1316.000000	96.271314 
1315.000000	96.271604 
1314.000000	96.268996 
1313.000000	96.265532 
1312.000000	96.264934 
1311.000000	96.268509 
1310.000000	96.273227 
1309.000000	96.275740 
1308.000000	96.276292 
1307.000000	96.277677 
1306.000000	96.281155 
1305.000000	96.285102 
1304.000000	96.287739 
1303.000000	96.288071 
1302.000000	96.285410 
1301.000000	96.280307 
1300.000000	96.275699 
1299.000000	96.274721 
1298.000000	96.277157 
1297.000000	96.279649 
1296.000000	96.279562 
1295.000000	96.277659 
1294.000000	96.276545 
1293.000000	96.277741 
1292.000000	96.280532 
1291.000000	96.282887 
1290.000000	96.283471 
1289.000000	96.282762 
1288.000000	96.281808 
1287.000000	96.280233 
1286.000000	96.276793 
1285.000000	96.272311 
1284.000000	96.270135 
1283.000000	96.272005 
1282.000000	96.275174 
1281.000000	96.275385 
1280.000000	96.272063 
1279.000000	96.268794 
1278.000000	96.268975 
1277.000000	96.272646 
1276.000000	96.277306 
1275.000000	96.280521 
1274.000000	96.281414 
1273.000000	96.280758 
1272.000000	96.280006 
1271.000000	96.279649 
1270.000000	96.278808 
1269.000000	96.276787 
1268.000000	96.274309 
1267.000000	96.271951 
1266.000000	96.268544 
1265.000000	96.263484 
1264.000000	96.259497 
1263.000000	96.260289 
1262.000000	96.265754 
1261.000000	96.271777 
1260.000000	96.275526 
1259.000000	96.278619 
1258.000000	96.283578 
1257.000000	96.289202 
1256.000000	96.291279 
1255.000000	96.287728 
1254.000000	96.281820 
1253.000000	96.279094 
1252.000000	96.281130 
1251.000000	96.283859 
1250.000000	96.282916 
1249.000000	96.279210 
1248.000000	96.277360 
1247.000000	96.279234 
1246.000000	96.281778 
1245.000000	96.281896 
1244.000000	96.280260 
1243.000000	96.278979 
1242.000000	96.278540 
1241.000000	96.279005 
1240.000000	96.281460 
1239.000000	96.285654 
1238.000000	96.288285 
1237.000000	96.286372 
1236.000000	96.280850 
1235.000000	96.274605 
1234.000000	96.268484 
1233.000000	96.261548 
1232.000000	96.253640 
1231.000000	96.244857 
1230.000000	96.233916 
1229.000000	96.219773 
1228.000000	96.203345 
1227.000000	96.184732 
1226.000000	96.160252 
1225.000000	96.125641 
1224.000000	96.081604 
1223.000000	96.033036 
1222.000000	95.982864 
1221.000000	95.929531 
1220.000000	95.870669 
1219.000000	95.806232 
1218.000000	95.737298 
1217.000000	95.664273 
1216.000000	95.586896 
1215.000000	95.504283 
1214.000000	95.415267 
1213.000000	95.320858 
1212.000000	95.225390 
1211.000000	95.131917 
1210.000000	95.037265 
1209.000000	94.935613 
1208.000000	94.826777 
1207.000000	94.716817 
1206.000000	94.610049 
1205.000000	94.504557 
1204.000000	94.396508 
1203.000000	94.285079 
1202.000000	94.172030 
1201.000000	94.059342 
1200.000000	93.948438 
1199.000000	93.839353 
1198.000000	93.729970 
1197.000000	93.618424 
1196.000000	93.505824 
1195.000000	93.394016 
1194.000000	93.281680 
1193.000000	93.165969 
1192.000000	93.047133 
1191.000000	92.927699 
1190.000000	92.807828 
1189.000000	92.685584 
1188.000000	92.561145 
1187.000000	92.436479 
1186.000000	92.311467 
1185.000000	92.184568 
1184.000000	92.056279 
1183.000000	91.927469 
1182.000000	91.795743 
1181.000000	91.658537 
1180.000000	91.518206 
1179.000000	91.378145 
1178.000000	91.235134 
1177.000000	91.082220 
1176.000000	90.918403 
1175.000000	90.748745 
1174.000000	90.575749 
1173.000000	90.398052 
1172.000000	90.217311 
1171.000000	90.037809 
1170.000000	89.858574 
1169.000000	89.674694 
1168.000000	89.488174 
1167.000000	89.309872 
1166.000000	89.150262 
1165.000000	89.017601 
1164.000000	88.925707 
1163.000000	88.891418 
1162.000000	88.918729 
1161.000000	88.991601 
1160.000000	89.083806 
1159.000000	89.169129 
1158.000000	89.223457 
1157.000000	89.229384 
1156.000000	89.184035 
1155.000000	89.097049 
1154.000000	88.979456 
1153.000000	88.839706 
1152.000000	88.688956 
1151.000000	88.539639 
1150.000000	88.395731 
1149.000000	88.252751 
1148.000000	88.109299 
1147.000000	87.969507 
1146.000000	87.832500 
1145.000000	87.690041 
1144.000000	87.538329 
1143.000000	87.382971 
1142.000000	87.228937 
1141.000000	87.074538 
1140.000000	86.918425 
1139.000000	86.763159 
1138.000000	86.608511 
1137.000000	86.450145 
1136.000000	86.287705 
1135.000000	86.125235 
1134.000000	85.961686 
1133.000000	85.791087 
1132.000000	85.614120 
1131.000000	85.438527 
1130.000000	85.265562 
1129.000000	85.087482 
1128.000000	84.901462 
1127.000000	84.714027 
1126.000000	84.528025 
1125.000000	84.337323 
1124.000000	84.138972 
1123.000000	83.939118 
1122.000000	83.742179 
1121.000000	83.545399 
1120.000000	83.348461 
1119.000000	83.156829 
1118.000000	82.971372 
1117.000000	82.786892 
1116.000000	82.604657 
1115.000000	82.433681 
1114.000000	82.275818 
1113.000000	82.122566 
1112.000000	81.969958 
1111.000000	81.822567 
1110.000000	81.679681 
1109.000000	81.532793 
1108.000000	81.379715 
1107.000000	81.226055 
1106.000000	81.070725 
1105.000000	80.905966 
1104.000000	80.733949 
1103.000000	80.566947 
1102.000000	80.407301 
1101.000000	80.245609 
1100.000000	80.079990 
1099.000000	79.919990 
1098.000000	79.768665 
1097.000000	79.617480 
1096.000000	79.463745 
1095.000000	79.314147 
1094.000000	79.167978 
1093.000000	79.016052 
1092.000000	78.860647 
1091.000000	78.717074 
1090.000000	78.590558 
1089.000000	78.470278 
1088.000000	78.350012 
1087.000000	78.234834 
1086.000000	78.123644 
1085.000000	78.006338 
1084.000000	77.883491 
1083.000000	77.768361 
1082.000000	77.664108 
1081.000000	77.559101 
1080.000000	77.449354 
1079.000000	77.344298 
1078.000000	77.244986 
1077.000000	77.137767 
1076.000000	77.015272 
1075.000000	76.882826 
1074.000000	76.739295 
1073.000000	76.573061 
1072.000000	76.381571 
1071.000000	76.172808 
1070.000000	75.942469 
1069.000000	75.672909 
1068.000000	75.361759 
1067.000000	75.030283 
1066.000000	74.696893 
1065.000000	74.363346 
1064.000000	74.032829 
1063.000000	73.716343 
1062.000000	73.411559 
1061.000000	73.099146 
1060.000000	72.770636 
1059.000000	72.439000 
1058.000000	72.113625 
1057.000000	71.786465 
1056.000000	71.450727 
1055.000000	71.110527 
1054.000000	70.763754 
1053.000000	70.398183 
1052.000000	70.014145 
1051.000000	69.628122 
1050.000000	69.244046 
1049.000000	68.846530 
1048.000000	68.431055 
1047.000000	68.012061 
1046.000000	67.594259 
1045.000000	67.165057 
1044.000000	66.721092 
1043.000000	66.274685 
1042.000000	65.828720 
1041.000000	65.372402 
1040.000000	64.908267 
1039.000000	64.455998 
1038.000000	64.022542 
1037.000000	63.596088 
1036.000000	63.175595 
1035.000000	62.777007 
1034.000000	62.403957 
1033.000000	62.042723 
1032.000000	61.692404 
1031.000000	61.368710 
1030.000000	61.071612 
1029.000000	60.782359 
1028.000000	60.499879 
1027.000000	60.246195 
1026.000000	60.027071 
1025.000000	59.820828 
1024.000000	59.614769 
1023.000000	59.419131 
1022.000000	59.235762 
1021.000000	59.047553 
1020.000000	58.849259 
1019.000000	58.656183 
1018.000000	58.472778 
1017.000000	58.284898 
1016.000000	58.091323 
1015.000000	57.909733 
1014.000000	57.742892 
1013.000000	57.572122 
1012.000000	57.392383 
1011.000000	57.220450 
1010.000000	57.060794 
1009.000000	56.898154 
1008.000000	56.732163 
1007.000000	56.584477 
1006.000000	56.462616 
1005.000000	56.350863 
1004.000000	56.244625 
1003.000000	56.158729 
1002.000000	56.093551 
1001.000000	56.029109 
1000.000000	55.962162 
999.000000	 55.913869 
998.000000	 55.891211 
997.000000	 55.875839 
996.000000	 55.859874 
995.000000	 55.857618 
994.000000	 55.872491 
993.000000	 55.887706 
992.000000	 55.899250 
991.000000	 55.923624 
990.000000	 55.963946 
989.000000	 56.003191 
988.000000	 56.039485 
987.000000	 56.092900 
986.000000	 56.168746 
985.000000	 56.249979 
984.000000	 56.334315 
983.000000	 56.442242 
982.000000	 56.578436 
981.000000	 56.721596 
980.000000	 56.862873 
979.000000	 57.019227 
978.000000	 57.198356 
977.000000	 57.386188 
976.000000	 57.579723 
975.000000	 57.796981 
974.000000	 58.042399 
973.000000	 58.296016 
972.000000	 58.548533 
971.000000	 58.814997 
970.000000	 59.102785 
969.000000	 59.397934 
968.000000	 59.693439 
967.000000	 60.000147 
966.000000	 60.319772 
965.000000	 60.637700 
964.000000	 60.951487 
963.000000	 61.276232 
962.000000	 61.613499 
961.000000	 61.945249 
960.000000	 62.266242 
959.000000	 62.591797 
958.000000	 62.925578 
957.000000	 63.250344 
956.000000	 63.559030 
955.000000	 63.865198 
954.000000	 64.174679 
953.000000	 64.475985 
952.000000	 64.766050 
951.000000	 65.055891 
950.000000	 65.343623 
949.000000	 65.611520 
948.000000	 65.856916 
947.000000	 66.096608 
946.000000	 66.333718 
945.000000	 66.549897 
944.000000	 66.738242 
943.000000	 66.914684 
942.000000	 67.088728 
941.000000	 67.251397 
940.000000	 67.400965 
939.000000	 67.552081 
938.000000	 67.709817 
937.000000	 67.861658 
936.000000	 68.004373 
935.000000	 68.152486 
934.000000	 68.311904 
933.000000	 68.471448 
932.000000	 68.628032 
931.000000	 68.793351 
930.000000	 68.968139 
929.000000	 69.136638 
928.000000	 69.294176 
927.000000	 69.453764 
926.000000	 69.618250 
925.000000	 69.772374 
924.000000	 69.909365 
923.000000	 70.039243 
922.000000	 70.164573 
921.000000	 70.274682 
920.000000	 70.370058 
919.000000	 70.465247 
918.000000	 70.561020 
917.000000	 70.641140 
916.000000	 70.703951 
915.000000	 70.770539 
914.000000	 70.855074 
913.000000	 70.954620 
912.000000	 71.074449 
911.000000	 71.234153 
910.000000	 71.440055 
909.000000	 71.679035 
908.000000	 71.946815 
907.000000	 72.254813 
906.000000	 72.603174 
905.000000	 72.975850 
904.000000	 73.368199 
903.000000	 73.790811 
902.000000	 74.240709 
901.000000	 74.697900 
900.000000	 75.155679 
899.000000	 75.625853 
898.000000	 76.109187 
897.000000	 76.588633 
896.000000	 77.055399 
895.000000	 77.513553 
894.000000	 77.956496 
893.000000	 78.368936 
892.000000	 78.756307 
891.000000	 79.142724 
890.000000	 79.533498 
889.000000	 79.906329 
888.000000	 80.244584 
887.000000	 80.552843 
886.000000	 80.836253 
885.000000	 81.092742 
884.000000	 81.330818 
883.000000	 81.567023 
882.000000	 81.799670 
881.000000	 82.013163 
880.000000	 82.213705 
879.000000	 82.430456 
878.000000	 82.674642 
877.000000	 82.929527 
876.000000	 83.189171 
875.000000	 83.473945 
874.000000	 83.797556 
873.000000	 84.151167 
872.000000	 84.530186 
871.000000	 84.944101 
870.000000	 85.387653 
869.000000	 85.831675 
868.000000	 86.254854 
867.000000	 86.660436 
866.000000	 87.054228 
865.000000	 87.431548 
864.000000	 87.794489 
863.000000	 88.157536 
862.000000	 88.524788 
861.000000	 88.881565 
860.000000	 89.217389 
859.000000	 89.538213 
858.000000	 89.849050 
857.000000	 90.143784 
856.000000	 90.419289 
855.000000	 90.680894 
854.000000	 90.927114 
853.000000	 91.147300 
852.000000	 91.341153 
851.000000	 91.523321 
850.000000	 91.702857 
849.000000	 91.874751 
848.000000	 92.035443 
847.000000	 92.187460 
846.000000	 92.324229 
845.000000	 92.430329 
844.000000	 92.502803 
843.000000	 92.553943 
842.000000	 92.588238 
841.000000	 92.595407 
840.000000	 92.570934 
839.000000	 92.523531 
838.000000	 92.456997 
837.000000	 92.365291 
836.000000	 92.253050 
835.000000	 92.141387 
834.000000	 92.044460 
833.000000	 91.958321 
832.000000	 91.881036 
831.000000	 91.824515 
830.000000	 91.796886 
829.000000	 91.792480 
828.000000	 91.810273 
827.000000	 91.863013 
826.000000	 91.955973 
825.000000	 92.075078 
824.000000	 92.206292 
823.000000	 92.346458 
822.000000	 92.487600 
821.000000	 92.614753 
820.000000	 92.726542 
819.000000	 92.834631 
818.000000	 92.936671 
817.000000	 93.009834 
816.000000	 93.036441 
815.000000	 93.018304 
814.000000	 92.960105 
813.000000	 92.854180 
812.000000	 92.686442 
811.000000	 92.441448 
810.000000	 92.097108 
809.000000	 91.631756 
808.000000	 91.044336 
807.000000	 90.355537 
806.000000	 89.586539 
805.000000	 88.753399 
804.000000	 87.885956 
803.000000	 87.030576 
802.000000	 86.226167 
801.000000	 85.498475 
800.000000	 84.882939 
799.000000	 84.423906 
798.000000	 84.138916 
797.000000	 84.008221 
796.000000	 84.006642 
795.000000	 84.117549 
794.000000	 84.310100 
793.000000	 84.537324 
792.000000	 84.769355 
791.000000	 85.001142 
790.000000	 85.219532 
789.000000	 85.391664 
788.000000	 85.494129 
787.000000	 85.525496 
786.000000	 85.481822 
785.000000	 85.347798 
784.000000	 85.122920 
783.000000	 84.832328 
782.000000	 84.504152 
781.000000	 84.162934 
780.000000	 83.852439 
779.000000	 83.632044 
778.000000	 83.534708 
777.000000	 83.553171 
776.000000	 83.674952 
775.000000	 83.898466 
774.000000	 84.203516 
773.000000	 84.541033 
772.000000	 84.871032 
771.000000	 85.185634 
770.000000	 85.483013 
769.000000	 85.747447 
768.000000	 85.968742 
767.000000	 86.153870 
766.000000	 86.304848 
765.000000	 86.410958 
764.000000	 86.477525 
763.000000	 86.536698 
762.000000	 86.612699 
761.000000	 86.698346 
760.000000	 86.780312 
759.000000	 86.864166 
758.000000	 86.959209 
757.000000	 87.062100 
756.000000	 87.172200 
755.000000	 87.301504 
754.000000	 87.452298 
753.000000	 87.603961 
752.000000	 87.737228 
751.000000	 87.855177 
750.000000	 87.969748 
749.000000	 88.086704 
748.000000	 88.214263 
747.000000	 88.365385 
746.000000	 88.538787 
745.000000	 88.717308 
744.000000	 88.897066 
743.000000	 89.098133 
742.000000	 89.334308 
741.000000	 89.593097 
740.000000	 89.857340 
739.000000	 90.125296 
738.000000	 90.396300 
737.000000	 90.656655 
736.000000	 90.894496 
735.000000	 91.112741 
734.000000	 91.315759 
733.000000	 91.498708 
732.000000	 91.658533 
731.000000	 91.799022 
730.000000	 91.917930 
729.000000	 92.007376 
728.000000	 92.074710 
727.000000	 92.144058 
726.000000	 92.230645 
725.000000	 92.332153 
724.000000	 92.448048 
723.000000	 92.584478 
722.000000	 92.734915 
721.000000	 92.879620 
720.000000	 93.012411 
719.000000	 93.144863 
718.000000	 93.277466 
717.000000	 93.393670 
716.000000	 93.488747 
715.000000	 93.577690 
714.000000	 93.667244 
713.000000	 93.746883 
712.000000	 93.817551 
711.000000	 93.900220 
710.000000	 94.001381 
709.000000	 94.096316 
708.000000	 94.162125 
707.000000	 94.201716 
706.000000	 94.220140 
705.000000	 94.204236 
704.000000	 94.142207 
703.000000	 94.037897 
702.000000	 93.887256 
701.000000	 93.662854 
700.000000	 93.341706 
699.000000	 92.933257 
698.000000	 92.470150 
697.000000	 91.997917 
696.000000	 91.586516 
695.000000	 91.318564 
694.000000	 91.238529 
693.000000	 91.324699 
692.000000	 91.521207 
691.000000	 91.779684 
690.000000	 92.061464 
689.000000	 92.329736 
688.000000	 92.564773 
687.000000	 92.771452 
686.000000	 92.955791 
685.000000	 93.112452 
684.000000	 93.245923 
683.000000	 93.376786 
682.000000	 93.512732 
681.000000	 93.638325 
680.000000	 93.746536 
679.000000	 93.856453 
678.000000	 93.982691 
677.000000	 94.116430 
676.000000	 94.250435 
675.000000	 94.391340 
674.000000	 94.533399 
673.000000	 94.653096 
672.000000	 94.744782 
671.000000	 94.842346 
670.000000	 94.990222 
669.000000	 95.188686 
668.000000	 95.391439 
667.000000	 95.554214 
666.000000	 95.659250 
665.000000	 95.716697 
664.000000	 95.759310 
663.000000	 95.816839 
662.000000	 95.902922 
661.000000	 95.996469 
660.000000	 96.086309 
659.000000	 96.184697 
658.000000	 96.287627 
657.000000	 96.358175 
656.000000	 96.377007 
655.000000	 96.364205 
654.000000	 96.337221 
653.000000	 96.288042 
652.000000	 96.225623 
651.000000	 96.196039 
650.000000	 96.222402 

