4000.000000	98.622578 
3999.000000	98.620687 
3998.000000	98.617709 
3997.000000	98.615027 
3996.000000	98.613694 
3995.000000	98.613843 
3994.000000	98.614848 
3993.000000	98.615812 
3992.000000	98.616085 
3991.000000	98.615469 
3990.000000	98.614262 
3989.000000	98.613089 
3988.000000	98.612445 
3987.000000	98.612477 
3986.000000	98.613207 
3985.000000	98.614630 
3984.000000	98.616455 
3983.000000	98.618121 
3982.000000	98.619450 
3981.000000	98.620858 
3980.000000	98.622423 
3979.000000	98.623250 
3978.000000	98.622478 
3977.000000	98.620567 
3976.000000	98.619023 
3975.000000	98.618691 
3974.000000	98.618907 
3973.000000	98.618520 
3972.000000	98.617162 
3971.000000	98.615357 
3970.000000	98.613837 
3969.000000	98.613115 
3968.000000	98.613460 
3967.000000	98.614757 
3966.000000	98.616457 
3965.000000	98.617794 
3964.000000	98.618082 
3963.000000	98.617044 
3962.000000	98.615070 
3961.000000	98.613023 
3960.000000	98.611516 
3959.000000	98.610543 
3958.000000	98.609853 
3957.000000	98.609440 
3956.000000	98.609338 
3955.000000	98.609085 
3954.000000	98.608105 
3953.000000	98.606411 
3952.000000	98.604677 
3951.000000	98.603509 
3950.000000	98.602833 
3949.000000	98.602202 
3948.000000	98.601302 
3947.000000	98.600226 
3946.000000	98.599383 
3945.000000	98.599111 
3944.000000	98.599297 
3943.000000	98.599364 
3942.000000	98.599085 
3941.000000	98.598977 
3940.000000	98.599555 
3939.000000	98.600588 
3938.000000	98.601231 
3937.000000	98.600873 
3936.000000	98.599611 
3935.000000	98.597840 
3934.000000	98.595990 
3933.000000	98.594444 
3932.000000	98.593507 
3931.000000	98.593081 
3930.000000	98.592800 
3929.000000	98.592777 
3928.000000	98.593498 
3927.000000	98.594967 
3926.000000	98.596264 
3925.000000	98.596256 
3924.000000	98.594897 
3923.000000	98.593138 
3922.000000	98.591620 
3921.000000	98.590409 
3920.000000	98.589674 
3919.000000	98.589892 
3918.000000	98.591029 
3917.000000	98.592233 
3916.000000	98.592834 
3915.000000	98.593010 
3914.000000	98.593214 
3913.000000	98.593482 
3912.000000	98.593598 
3911.000000	98.593705 
3910.000000	98.593987 
3909.000000	98.594312 
3908.000000	98.594501 
3907.000000	98.594292 
3906.000000	98.593395 
3905.000000	98.591173 
3904.000000	98.587254 
3903.000000	98.582614 
3902.000000	98.579170 
3901.000000	98.578206 
3900.000000	98.579527 
3899.000000	98.581828 
3898.000000	98.584078 
3897.000000	98.585904 
3896.000000	98.587075 
3895.000000	98.587688 
3894.000000	98.588203 
3893.000000	98.589000 
3892.000000	98.589576 
3891.000000	98.588903 
3890.000000	98.586992 
3889.000000	98.584794 
3888.000000	98.583190 
3887.000000	98.582339 
3886.000000	98.581961 
3885.000000	98.581754 
3884.000000	98.581432 
3883.000000	98.580582 
3882.000000	98.579231 
3881.000000	98.578179 
3880.000000	98.578166 
3879.000000	98.578837 
3878.000000	98.579344 
3877.000000	98.579477 
3876.000000	98.579754 
3875.000000	98.580363 
3874.000000	98.580784 
3873.000000	98.580552 
3872.000000	98.579808 
3871.000000	98.578890 
3870.000000	98.578077 
3869.000000	98.577760 
3868.000000	98.578031 
3867.000000	98.578434 
3866.000000	98.578504 
3865.000000	98.578313 
3864.000000	98.578314 
3863.000000	98.578635 
3862.000000	98.578923 
3861.000000	98.579061 
3860.000000	98.579294 
3859.000000	98.579710 
3858.000000	98.580112 
3857.000000	98.580283 
3856.000000	98.580257 
3855.000000	98.580211 
3854.000000	98.580146 
3853.000000	98.580007 
3852.000000	98.579950 
3851.000000	98.580095 
3850.000000	98.580336 
3849.000000	98.580610 
3848.000000	98.580969 
3847.000000	98.581475 
3846.000000	98.582013 
3845.000000	98.582383 
3844.000000	98.582527 
3843.000000	98.582522 
3842.000000	98.582450 
3841.000000	98.582455 
3840.000000	98.582663 
3839.000000	98.583125 
3838.000000	98.583795 
3837.000000	98.584439 
3836.000000	98.584871 
3835.000000	98.585084 
3834.000000	98.585206 
3833.000000	98.585423 
3832.000000	98.585829 
3831.000000	98.586414 
3830.000000	98.587125 
3829.000000	98.587902 
3828.000000	98.588846 
3827.000000	98.590099 
3826.000000	98.591386 
3825.000000	98.592153 
3824.000000	98.592004 
3823.000000	98.591086 
3822.000000	98.590142 
3821.000000	98.589796 
3820.000000	98.590099 
3819.000000	98.590548 
3818.000000	98.590584 
3817.000000	98.590331 
3816.000000	98.590618 
3815.000000	98.592014 
3814.000000	98.594034 
3813.000000	98.595555 
3812.000000	98.596081 
3811.000000	98.596266 
3810.000000	98.596923 
3809.000000	98.597933 
3808.000000	98.598441 
3807.000000	98.597980 
3806.000000	98.596952 
3805.000000	98.595828 
3804.000000	98.594416 
3803.000000	98.593034 
3802.000000	98.592686 
3801.000000	98.593804 
3800.000000	98.595752 
3799.000000	98.597026 
3798.000000	98.596848 
3797.000000	98.596377 
3796.000000	98.597408 
3795.000000	98.600208 
3794.000000	98.603184 
3793.000000	98.604790 
3792.000000	98.605128 
3791.000000	98.605563 
3790.000000	98.606694 
3789.000000	98.607580 
3788.000000	98.607331 
3787.000000	98.606395 
3786.000000	98.605948 
3785.000000	98.606472 
3784.000000	98.607300 
3783.000000	98.607385 
3782.000000	98.605850 
3781.000000	98.602647 
3780.000000	98.599359 
3779.000000	98.598470 
3778.000000	98.600881 
3777.000000	98.604807 
3776.000000	98.607426 
3775.000000	98.607343 
3774.000000	98.605280 
3773.000000	98.602782 
3772.000000	98.600821 
3771.000000	98.599239 
3770.000000	98.597597 
3769.000000	98.596257 
3768.000000	98.595555 
3767.000000	98.594819 
3766.000000	98.593597 
3765.000000	98.592499 
3764.000000	98.592720 
3763.000000	98.594295 
3762.000000	98.595542 
3761.000000	98.595006 
3760.000000	98.593025 
3759.000000	98.591465 
3758.000000	98.590286 
3757.000000	98.587321 
3756.000000	98.581790 
3755.000000	98.574426 
3754.000000	98.565969 
3753.000000	98.556916 
3752.000000	98.549070 
3751.000000	98.544636 
3750.000000	98.542679 
3749.000000	98.540939 
3748.000000	98.539717 
3747.000000	98.541052 
3746.000000	98.546435 
3745.000000	98.553700 
3744.000000	98.560711 
3743.000000	98.566670 
3742.000000	98.567921 
3741.000000	98.561124 
3740.000000	98.549477 
3739.000000	98.541903 
3738.000000	98.543957 
3737.000000	98.550757 
3736.000000	98.554316 
3735.000000	98.553867 
3734.000000	98.554318 
3733.000000	98.557006 
3732.000000	98.559635 
3731.000000	98.561992 
3730.000000	98.564707 
3729.000000	98.566659 
3728.000000	98.566822 
3727.000000	98.565995 
3726.000000	98.566071 
3725.000000	98.567425 
3724.000000	98.568645 
3723.000000	98.568753 
3722.000000	98.568188 
3721.000000	98.567455 
3720.000000	98.564846 
3719.000000	98.559783 
3718.000000	98.554390 
3717.000000	98.550436 
3716.000000	98.547672 
3715.000000	98.543629 
3714.000000	98.537201 
3713.000000	98.531539 
3712.000000	98.530416 
3711.000000	98.532739 
3710.000000	98.532964 
3709.000000	98.527475 
3708.000000	98.517129 
3707.000000	98.504158 
3706.000000	98.490451 
3705.000000	98.477356 
3704.000000	98.465637 
3703.000000	98.455145 
3702.000000	98.444173 
3701.000000	98.431191 
3700.000000	98.416787 
3699.000000	98.403373 
3698.000000	98.393286 
3697.000000	98.386697 
3696.000000	98.382311 
3695.000000	98.378677 
3694.000000	98.374192 
3693.000000	98.367710 
3692.000000	98.359121 
3691.000000	98.348915 
3690.000000	98.337178 
3689.000000	98.325569 
3688.000000	98.318105 
3687.000000	98.316267 
3686.000000	98.316831 
3685.000000	98.315698 
3684.000000	98.311822 
3683.000000	98.307555 
3682.000000	98.304903 
3681.000000	98.301518 
3680.000000	98.292793 
3679.000000	98.276567 
3678.000000	98.255631 
3677.000000	98.235157 
3676.000000	98.217663 
3675.000000	98.203595 
3674.000000	98.192295 
3673.000000	98.181441 
3672.000000	98.169330 
3671.000000	98.158631 
3670.000000	98.152586 
3669.000000	98.149858 
3668.000000	98.145772 
3667.000000	98.137298 
3666.000000	98.126059 
3665.000000	98.115710 
3664.000000	98.107629 
3663.000000	98.100614 
3662.000000	98.092262 
3661.000000	98.080260 
3660.000000	98.064272 
3659.000000	98.046147 
3658.000000	98.029415 
3657.000000	98.015984 
3656.000000	98.004293 
3655.000000	97.992164 
3654.000000	97.978214 
3653.000000	97.962090 
3652.000000	97.944506 
3651.000000	97.927272 
3650.000000	97.911875 
3649.000000	97.898581 
3648.000000	97.888212 
3647.000000	97.882350 
3646.000000	97.881853 
3645.000000	97.885941 
3644.000000	97.892529 
3643.000000	97.899375 
3642.000000	97.904132 
3641.000000	97.904470 
3640.000000	97.899499 
3639.000000	97.889962 
3638.000000	97.877990 
3637.000000	97.865563 
3636.000000	97.853131 
3635.000000	97.839289 
3634.000000	97.822479 
3633.000000	97.803576 
3632.000000	97.785308 
3631.000000	97.770107 
3630.000000	97.758193 
3629.000000	97.747006 
3628.000000	97.735016 
3627.000000	97.724481 
3626.000000	97.716611 
3625.000000	97.711282 
3624.000000	97.708736 
3623.000000	97.708463 
3622.000000	97.708664 
3621.000000	97.707412 
3620.000000	97.703757 
3619.000000	97.698444 
3618.000000	97.693897 
3617.000000	97.693337 
3616.000000	97.700085 
3615.000000	97.715840 
3614.000000	97.738256 
3613.000000	97.761443 
3612.000000	97.779795 
3611.000000	97.791113 
3610.000000	97.797316 
3609.000000	97.802178 
3608.000000	97.807541 
3607.000000	97.812892 
3606.000000	97.817736 
3605.000000	97.823740 
3604.000000	97.833665 
3603.000000	97.847842 
3602.000000	97.862687 
3601.000000	97.872929 
3600.000000	97.875918 
3599.000000	97.873860 
3598.000000	97.872037 
3597.000000	97.874723 
3596.000000	97.883155 
3595.000000	97.894223 
3594.000000	97.902211 
3593.000000	97.903617 
3592.000000	97.898859 
3591.000000	97.890664 
3590.000000	97.882736 
3589.000000	97.878483 
3588.000000	97.879073 
3587.000000	97.882746 
3586.000000	97.887329 
3585.000000	97.892668 
3584.000000	97.900242 
3583.000000	97.910582 
3582.000000	97.921935 
3581.000000	97.930703 
3580.000000	97.934090 
3579.000000	97.932246 
3578.000000	97.927934 
3577.000000	97.924336 
3576.000000	97.922832 
3575.000000	97.922878 
3574.000000	97.922875 
3573.000000	97.921547 
3572.000000	97.918392 
3571.000000	97.913508 
3570.000000	97.907594 
3569.000000	97.902114 
3568.000000	97.898762 
3567.000000	97.898242 
3566.000000	97.899782 
3565.000000	97.902044 
3564.000000	97.904145 
3563.000000	97.906094 
3562.000000	97.908187 
3561.000000	97.910314 
3560.000000	97.911796 
3559.000000	97.911955 
3558.000000	97.910848 
3557.000000	97.909343 
3556.000000	97.908385 
3555.000000	97.908347 
3554.000000	97.909002 
3553.000000	97.909689 
3552.000000	97.909725 
3551.000000	97.908708 
3550.000000	97.906806 
3549.000000	97.904804 
3548.000000	97.903535 
3547.000000	97.902899 
3546.000000	97.901937 
3545.000000	97.900264 
3544.000000	97.899042 
3543.000000	97.899761 
3542.000000	97.902490 
3541.000000	97.905896 
3540.000000	97.908592 
3539.000000	97.910023 
3538.000000	97.910284 
3537.000000	97.909619 
3536.000000	97.908374 
3535.000000	97.906892 
3534.000000	97.905412 
3533.000000	97.904172 
3532.000000	97.903513 
3531.000000	97.903670 
3530.000000	97.904327 
3529.000000	97.904624 
3528.000000	97.903865 
3527.000000	97.902161 
3526.000000	97.900351 
3525.000000	97.899324 
3524.000000	97.899460 
3523.000000	97.900573 
3522.000000	97.902107 
3521.000000	97.903452 
3520.000000	97.904328 
3519.000000	97.904802 
3518.000000	97.904992 
3517.000000	97.904778 
3516.000000	97.903969 
3515.000000	97.902736 
3514.000000	97.901688 
3513.000000	97.901364 
3512.000000	97.901716 
3511.000000	97.902136 
3510.000000	97.902049 
3509.000000	97.901451 
3508.000000	97.900796 
3507.000000	97.900433 
3506.000000	97.900253 
3505.000000	97.899868 
3504.000000	97.899052 
3503.000000	97.897947 
3502.000000	97.896911 
3501.000000	97.896194 
3500.000000	97.895801 
3499.000000	97.895594 
3498.000000	97.895403 
3497.000000	97.895094 
3496.000000	97.894581 
3495.000000	97.893891 
3494.000000	97.893215 
3493.000000	97.892810 
3492.000000	97.892756 
3491.000000	97.892829 
3490.000000	97.892692 
3489.000000	97.892222 
3488.000000	97.891517 
3487.000000	97.890639 
3486.000000	97.889542 
3485.000000	97.888318 
3484.000000	97.887240 
3483.000000	97.886432 
3482.000000	97.885723 
3481.000000	97.884938 
3480.000000	97.884167 
3479.000000	97.883567 
3478.000000	97.883027 
3477.000000	97.882216 
3476.000000	97.880952 
3475.000000	97.879388 
3474.000000	97.877878 
3473.000000	97.876672 
3472.000000	97.875755 
3471.000000	97.874906 
3470.000000	97.873888 
3469.000000	97.872659 
3468.000000	97.871409 
3467.000000	97.870369 
3466.000000	97.869593 
3465.000000	97.868886 
3464.000000	97.867922 
3463.000000	97.866479 
3462.000000	97.864579 
3461.000000	97.862499 
3460.000000	97.860611 
3459.000000	97.859097 
3458.000000	97.857816 
3457.000000	97.856449 
3456.000000	97.854824 
3455.000000	97.853092 
3454.000000	97.851577 
3453.000000	97.850459 
3452.000000	97.849635 
3451.000000	97.848843 
3450.000000	97.847849 
3449.000000	97.846550 
3448.000000	97.844937 
3447.000000	97.843065 
3446.000000	97.841057 
3445.000000	97.839111 
3444.000000	97.837436 
3443.000000	97.836123 
3442.000000	97.835060 
3441.000000	97.833960 
3440.000000	97.832570 
3439.000000	97.830827 
3438.000000	97.828839 
3437.000000	97.826787 
3436.000000	97.824887 
3435.000000	97.823381 
3434.000000	97.822411 
3433.000000	97.821831 
3432.000000	97.821242 
3431.000000	97.820369 
3430.000000	97.819239 
3429.000000	97.818009 
3428.000000	97.816700 
3427.000000	97.815230 
3426.000000	97.813692 
3425.000000	97.812407 
3424.000000	97.811605 
3423.000000	97.811128 
3422.000000	97.810535 
3421.000000	97.809551 
3420.000000	97.808324 
3419.000000	97.807237 
3418.000000	97.806493 
3417.000000	97.805969 
3416.000000	97.805404 
3415.000000	97.804623 
3414.000000	97.803571 
3413.000000	97.802266 
3412.000000	97.800878 
3411.000000	97.799743 
3410.000000	97.799153 
3409.000000	97.799128 
3408.000000	97.799391 
3407.000000	97.799555 
3406.000000	97.799349 
3405.000000	97.798707 
3404.000000	97.797777 
3403.000000	97.796780 
3402.000000	97.795834 
3401.000000	97.794939 
3400.000000	97.794141 
3399.000000	97.793571 
3398.000000	97.793265 
3397.000000	97.793117 
3396.000000	97.793104 
3395.000000	97.793408 
3394.000000	97.794135 
3393.000000	97.795058 
3392.000000	97.795765 
3391.000000	97.796031 
3390.000000	97.795952 
3389.000000	97.795800 
3388.000000	97.795874 
3387.000000	97.796399 
3386.000000	97.797371 
3385.000000	97.798410 
3384.000000	97.798951 
3383.000000	97.798773 
3382.000000	97.798315 
3381.000000	97.798339 
3380.000000	97.799132 
3379.000000	97.800269 
3378.000000	97.801178 
3377.000000	97.801880 
3376.000000	97.802850 
3375.000000	97.804214 
3374.000000	97.805422 
3373.000000	97.805857 
3372.000000	97.805581 
3371.000000	97.805358 
3370.000000	97.805920 
3369.000000	97.807360 
3368.000000	97.809237 
3367.000000	97.811028 
3366.000000	97.812477 
3365.000000	97.813599 
3364.000000	97.814527 
3363.000000	97.815379 
3362.000000	97.816215 
3361.000000	97.817117 
3360.000000	97.818282 
3359.000000	97.819920 
3358.000000	97.821980 
3357.000000	97.824057 
3356.000000	97.825683 
3355.000000	97.826740 
3354.000000	97.827531 
3353.000000	97.828507 
3352.000000	97.829961 
3351.000000	97.831957 
3350.000000	97.834378 
3349.000000	97.836960 
3348.000000	97.839399 
3347.000000	97.841546 
3346.000000	97.843429 
3345.000000	97.844971 
3344.000000	97.845831 
3343.000000	97.845734 
3342.000000	97.844927 
3341.000000	97.844252 
3340.000000	97.844475 
3339.000000	97.845556 
3338.000000	97.846840 
3337.000000	97.847827 
3336.000000	97.848661 
3335.000000	97.849816 
3334.000000	97.851431 
3333.000000	97.853140 
3332.000000	97.854497 
3331.000000	97.855414 
3330.000000	97.856135 
3329.000000	97.856914 
3328.000000	97.857876 
3327.000000	97.859099 
3326.000000	97.860613 
3325.000000	97.862288 
3324.000000	97.863837 
3323.000000	97.865054 
3322.000000	97.866004 
3321.000000	97.866940 
3320.000000	97.868027 
3319.000000	97.869218 
3318.000000	97.870379 
3317.000000	97.871455 
3316.000000	97.872498 
3315.000000	97.873568 
3314.000000	97.874657 
3313.000000	97.875712 
3312.000000	97.876701 
3311.000000	97.877656 
3310.000000	97.878639 
3309.000000	97.879673 
3308.000000	97.880730 
3307.000000	97.881766 
3306.000000	97.882770 
3305.000000	97.883767 
3304.000000	97.884787 
3303.000000	97.885845 
3302.000000	97.886944 
3301.000000	97.888079 
3300.000000	97.889232 
3299.000000	97.890367 
3298.000000	97.891447 
3297.000000	97.892469 
3296.000000	97.893487 
3295.000000	97.894570 
3294.000000	97.895751 
3293.000000	97.897003 
3292.000000	97.898282 
3291.000000	97.899567 
3290.000000	97.900849 
3289.000000	97.902107 
3288.000000	97.903308 
3287.000000	97.904436 
3286.000000	97.905510 
3285.000000	97.906553 
3284.000000	97.907573 
3283.000000	97.908587 
3282.000000	97.909639 
3281.000000	97.910766 
3280.000000	97.911928 
3279.000000	97.913024 
3278.000000	97.913997 
3277.000000	97.914915 
3276.000000	97.915901 
3275.000000	97.916986 
3274.000000	97.918086 
3273.000000	97.919163 
3272.000000	97.920317 
3271.000000	97.921649 
3270.000000	97.923125 
3269.000000	97.924574 
3268.000000	97.925845 
3267.000000	97.926924 
3266.000000	97.927938 
3265.000000	97.929074 
3264.000000	97.930424 
3263.000000	97.931920 
3262.000000	97.933383 
3261.000000	97.934685 
3260.000000	97.935822 
3259.000000	97.936841 
3258.000000	97.937778 
3257.000000	97.938702 
3256.000000	97.939774 
3255.000000	97.941118 
3254.000000	97.942652 
3253.000000	97.944135 
3252.000000	97.945443 
3251.000000	97.946692 
3250.000000	97.948025 
3249.000000	97.949368 
3248.000000	97.950504 
3247.000000	97.951375 
3246.000000	97.952182 
3245.000000	97.953169 
3244.000000	97.954359 
3243.000000	97.955592 
3242.000000	97.956751 
3241.000000	97.957861 
3240.000000	97.958976 
3239.000000	97.960139 
3238.000000	97.961470 
3237.000000	97.963130 
3236.000000	97.965113 
3235.000000	97.967139 
3234.000000	97.968876 
3233.000000	97.970234 
3232.000000	97.971373 
3231.000000	97.972511 
3230.000000	97.973728 
3229.000000	97.974981 
3228.000000	97.976242 
3227.000000	97.977603 
3226.000000	97.979247 
3225.000000	97.981260 
3224.000000	97.983472 
3223.000000	97.985584 
3222.000000	97.987406 
3221.000000	97.988939 
3220.000000	97.990264 
3219.000000	97.991449 
3218.000000	97.992617 
3217.000000	97.993945 
3216.000000	97.995523 
3215.000000	97.997287 
3214.000000	97.999138 
3213.000000	98.001019 
3212.000000	98.002858 
3211.000000	98.004524 
3210.000000	98.005935 
3209.000000	98.007182 
3208.000000	98.008466 
3207.000000	98.009905 
3206.000000	98.011472 
3205.000000	98.013137 
3204.000000	98.014980 
3203.000000	98.017107 
3202.000000	98.019457 
3201.000000	98.021761 
3200.000000	98.023741 
3199.000000	98.025361 
3198.000000	98.026859 
3197.000000	98.028515 
3196.000000	98.030356 
3195.000000	98.032200 
3194.000000	98.033981 
3193.000000	98.035896 
3192.000000	98.038136 
3191.000000	98.040558 
3190.000000	98.042761 
3189.000000	98.044490 
3188.000000	98.045842 
3187.000000	98.047194 
3186.000000	98.048891 
3185.000000	98.051011 
3184.000000	98.053337 
3183.000000	98.055560 
3182.000000	98.057576 
3181.000000	98.059503 
3180.000000	98.061411 
3179.000000	98.063194 
3178.000000	98.064784 
3177.000000	98.066360 
3176.000000	98.068199 
3175.000000	98.070401 
3174.000000	98.072872 
3173.000000	98.075460 
3172.000000	98.077963 
3171.000000	98.080101 
3170.000000	98.081731 
3169.000000	98.083075 
3168.000000	98.084533 
3167.000000	98.086238 
3166.000000	98.087968 
3165.000000	98.089488 
3164.000000	98.090784 
3163.000000	98.091979 
3162.000000	98.093200 
3161.000000	98.094553 
3160.000000	98.096092 
3159.000000	98.097787 
3158.000000	98.099558 
3157.000000	98.101339 
3156.000000	98.103084 
3155.000000	98.104745 
3154.000000	98.106319 
3153.000000	98.107882 
3152.000000	98.109506 
3151.000000	98.111165 
3150.000000	98.112761 
3149.000000	98.114244 
3148.000000	98.115651 
3147.000000	98.117063 
3146.000000	98.118552 
3145.000000	98.120136 
3144.000000	98.121780 
3143.000000	98.123399 
3142.000000	98.124919 
3141.000000	98.126323 
3140.000000	98.127667 
3139.000000	98.129053 
3138.000000	98.130539 
3137.000000	98.132099 
3136.000000	98.133628 
3135.000000	98.135026 
3134.000000	98.136266 
3133.000000	98.137437 
3132.000000	98.138692 
3131.000000	98.140098 
3130.000000	98.141568 
3129.000000	98.142996 
3128.000000	98.144426 
3127.000000	98.146004 
3126.000000	98.147795 
3125.000000	98.149682 
3124.000000	98.151459 
3123.000000	98.152981 
3122.000000	98.154228 
3121.000000	98.155311 
3120.000000	98.156422 
3119.000000	98.157676 
3118.000000	98.159015 
3117.000000	98.160327 
3116.000000	98.161643 
3115.000000	98.163098 
3114.000000	98.164718 
3113.000000	98.166388 
3112.000000	98.168091 
3111.000000	98.170044 
3110.000000	98.172436 
3109.000000	98.175086 
3108.000000	98.177548 
3107.000000	98.179565 
3106.000000	98.181198 
3105.000000	98.182460 
3104.000000	98.183039 
3103.000000	98.182661 
3102.000000	98.181611 
3101.000000	98.180594 
3100.000000	98.180121 
3099.000000	98.180357 
3098.000000	98.181547 
3097.000000	98.184114 
3096.000000	98.187972 
3095.000000	98.192011 
3094.000000	98.194888 
3093.000000	98.196220 
3092.000000	98.196690 
3091.000000	98.197078 
3090.000000	98.197545 
3089.000000	98.197901 
3088.000000	98.198099 
3087.000000	98.198347 
3086.000000	98.199038 
3085.000000	98.200542 
3084.000000	98.202690 
3083.000000	98.204506 
3082.000000	98.205070 
3081.000000	98.204733 
3080.000000	98.204863 
3079.000000	98.206107 
3078.000000	98.207763 
3077.000000	98.209374 
3076.000000	98.211852 
3075.000000	98.215854 
3074.000000	98.219948 
3073.000000	98.221941 
3072.000000	98.221593 
3071.000000	98.220573 
3070.000000	98.220011 
3069.000000	98.219689 
3068.000000	98.219630 
3067.000000	98.220607 
3066.000000	98.222548 
3065.000000	98.224011 
3064.000000	98.224002 
3063.000000	98.223021 
3062.000000	98.221668 
3061.000000	98.219515 
3060.000000	98.216326 
3059.000000	98.213484 
3058.000000	98.213171 
3057.000000	98.216313 
3056.000000	98.221571 
3055.000000	98.225834 
3054.000000	98.225900 
3053.000000	98.220935 
3052.000000	98.213995 
3051.000000	98.210044 
3050.000000	98.211267 
3049.000000	98.214977 
3048.000000	98.216762 
3047.000000	98.214845 
3046.000000	98.210512 
3045.000000	98.205642 
3044.000000	98.201545 
3043.000000	98.199758 
3042.000000	98.201672 
3041.000000	98.206367 
3040.000000	98.210052 
3039.000000	98.209040 
3038.000000	98.203089 
3037.000000	98.195112 
3036.000000	98.187829 
3035.000000	98.181454 
3034.000000	98.174826 
3033.000000	98.167657 
3032.000000	98.160732 
3031.000000	98.154526 
3030.000000	98.148818 
3029.000000	98.143485 
3028.000000	98.138220 
3027.000000	98.131345 
3026.000000	98.120605 
3025.000000	98.106215 
3024.000000	98.091979 
3023.000000	98.081838 
3022.000000	98.075845 
3021.000000	98.070961 
3020.000000	98.065095 
3019.000000	98.058470 
3018.000000	98.051150 
3017.000000	98.041491 
3016.000000	98.028139 
3015.000000	98.012231 
3014.000000	97.996656 
3013.000000	97.983716 
3012.000000	97.973763 
3011.000000	97.965123 
3010.000000	97.954989 
3009.000000	97.941565 
3008.000000	97.925937 
3007.000000	97.910994 
3006.000000	97.898019 
3005.000000	97.885390 
3004.000000	97.871262 
3003.000000	97.856380 
3002.000000	97.843201 
3001.000000	97.832992 
3000.000000	97.824762 
2999.000000	97.816498 
2998.000000	97.806608 
2997.000000	97.794638 
2996.000000	97.781371 
2995.000000	97.767821 
2994.000000	97.753550 
2993.000000	97.736486 
2992.000000	97.715280 
2991.000000	97.691717 
2990.000000	97.670239 
2989.000000	97.655280 
2988.000000	97.649224 
2987.000000	97.651910 
2986.000000	97.660905 
2985.000000	97.672503 
2984.000000	97.683449 
2983.000000	97.692185 
2982.000000	97.698518 
2981.000000	97.702571 
2980.000000	97.704270 
2979.000000	97.703347 
2978.000000	97.699521 
2977.000000	97.693198 
2976.000000	97.686330 
2975.000000	97.681882 
2974.000000	97.681818 
2973.000000	97.685999 
2972.000000	97.693161 
2971.000000	97.702085 
2970.000000	97.711382 
2969.000000	97.719471 
2968.000000	97.726053 
2967.000000	97.732952 
2966.000000	97.742185 
2965.000000	97.753570 
2964.000000	97.765250 
2963.000000	97.776055 
2962.000000	97.786049 
2961.000000	97.795033 
2960.000000	97.802220 
2959.000000	97.807866 
2958.000000	97.814009 
2957.000000	97.822594 
2956.000000	97.833093 
2955.000000	97.842527 
2954.000000	97.848140 
2953.000000	97.850328 
2952.000000	97.852927 
2951.000000	97.859912 
2950.000000	97.871166 
2949.000000	97.882021 
2948.000000	97.887624 
2947.000000	97.887233 
2946.000000	97.883985 
2945.000000	97.881475 
2944.000000	97.881493 
2943.000000	97.884251 
2942.000000	97.888798 
2941.000000	97.893020 
2940.000000	97.895021 
2939.000000	97.895303 
2938.000000	97.896517 
2937.000000	97.900373 
2936.000000	97.905519 
2935.000000	97.908907 
2934.000000	97.908511 
2933.000000	97.904380 
2932.000000	97.898194 
2931.000000	97.892576 
2930.000000	97.890018 
2929.000000	97.891288 
2928.000000	97.894731 
2927.000000	97.897543 
2926.000000	97.897852 
2925.000000	97.895811 
2924.000000	97.893231 
2923.000000	97.892189 
2922.000000	97.893319 
2921.000000	97.895152 
2920.000000	97.895711 
2919.000000	97.894865 
2918.000000	97.894196 
2917.000000	97.894146 
2916.000000	97.892471 
2915.000000	97.886743 
2914.000000	97.877954 
2913.000000	97.870260 
2912.000000	97.866873 
2911.000000	97.867018 
2910.000000	97.867344 
2909.000000	97.865808 
2908.000000	97.863642 
2907.000000	97.863398 
2906.000000	97.865332 
2905.000000	97.866022 
2904.000000	97.861290 
2903.000000	97.850873 
2902.000000	97.840486 
2901.000000	97.837302 
2900.000000	97.844046 
2899.000000	97.857514 
2898.000000	97.871926 
2897.000000	97.883594 
2896.000000	97.891784 
2895.000000	97.896701 
2894.000000	97.898744 
2893.000000	97.899744 
2892.000000	97.902785 
2891.000000	97.909344 
2890.000000	97.917457 
2889.000000	97.923960 
2888.000000	97.928049 
2887.000000	97.931218 
2886.000000	97.934115 
2885.000000	97.935687 
2884.000000	97.936122 
2883.000000	97.938446 
2882.000000	97.945392 
2881.000000	97.955897 
2880.000000	97.966636 
2879.000000	97.976482 
2878.000000	97.987114 
2877.000000	97.999108 
2876.000000	98.009929 
2875.000000	98.016993 
2874.000000	98.021005 
2873.000000	98.024809 
2872.000000	98.029958 
2871.000000	98.035872 
2870.000000	98.041720 
2869.000000	98.047477 
2868.000000	98.053249 
2867.000000	98.058926 
2866.000000	98.064686 
2865.000000	98.070922 
2864.000000	98.077645 
2863.000000	98.084873 
2862.000000	98.093509 
2861.000000	98.104581 
2860.000000	98.117349 
2859.000000	98.129465 
2858.000000	98.139626 
2857.000000	98.149161 
2856.000000	98.160211 
2855.000000	98.172839 
2854.000000	98.184813 
2853.000000	98.193889 
2852.000000	98.199528 
2851.000000	98.202812 
2850.000000	98.205489 
2849.000000	98.209022 
2848.000000	98.213834 
2847.000000	98.219136 
2846.000000	98.223760 
2845.000000	98.227388 
2844.000000	98.230858 
2843.000000	98.235197 
2842.000000	98.240478 
2841.000000	98.245648 
2840.000000	98.249390 
2839.000000	98.251278 
2838.000000	98.252247 
2837.000000	98.253927 
2836.000000	98.257374 
2835.000000	98.262418 
2834.000000	98.268210 
2833.000000	98.274187 
2832.000000	98.280193 
2831.000000	98.285783 
2830.000000	98.289949 
2829.000000	98.291956 
2828.000000	98.292383 
2827.000000	98.293002 
2826.000000	98.295481 
2825.000000	98.300106 
2824.000000	98.305593 
2823.000000	98.309910 
2822.000000	98.311554 
2821.000000	98.310575 
2820.000000	98.308664 
2819.000000	98.307952 
2818.000000	98.309376 
2817.000000	98.312246 
2816.000000	98.315347 
2815.000000	98.318060 
2814.000000	98.320197 
2813.000000	98.321253 
2812.000000	98.320584 
2811.000000	98.318364 
2810.000000	98.315928 
2809.000000	98.314888 
2808.000000	98.316045 
2807.000000	98.319234 
2806.000000	98.323765 
2805.000000	98.328687 
2804.000000	98.332900 
2803.000000	98.335504 
2802.000000	98.336346 
2801.000000	98.336195 
2800.000000	98.336226 
2799.000000	98.337116 
2798.000000	98.338638 
2797.000000	98.340141 
2796.000000	98.341318 
2795.000000	98.342372 
2794.000000	98.343569 
2793.000000	98.344898 
2792.000000	98.346241 
2791.000000	98.347587 
2790.000000	98.348875 
2789.000000	98.349868 
2788.000000	98.350442 
2787.000000	98.350866 
2786.000000	98.351605 
2785.000000	98.352839 
2784.000000	98.354346 
2783.000000	98.355800 
2782.000000	98.357053 
2781.000000	98.358163 
2780.000000	98.359242 
2779.000000	98.360364 
2778.000000	98.361535 
2777.000000	98.362700 
2776.000000	98.363779 
2775.000000	98.364758 
2774.000000	98.365707 
2773.000000	98.366699 
2772.000000	98.367731 
2771.000000	98.368767 
2770.000000	98.369813 
2769.000000	98.370920 
2768.000000	98.372089 
2767.000000	98.373227 
2766.000000	98.374239 
2765.000000	98.375122 
2764.000000	98.375972 
2763.000000	98.376878 
2762.000000	98.377833 
2761.000000	98.378749 
2760.000000	98.379560 
2759.000000	98.380302 
2758.000000	98.381075 
2757.000000	98.381908 
2756.000000	98.382711 
2755.000000	98.383397 
2754.000000	98.384002 
2753.000000	98.384651 
2752.000000	98.385409 
2751.000000	98.386236 
2750.000000	98.387071 
2749.000000	98.387904 
2748.000000	98.388714 
2747.000000	98.389400 
2746.000000	98.389889 
2745.000000	98.390238 
2744.000000	98.390624 
2743.000000	98.391162 
2742.000000	98.391831 
2741.000000	98.392531 
2740.000000	98.393193 
2739.000000	98.393824 
2738.000000	98.394435 
2737.000000	98.395016 
2736.000000	98.395571 
2735.000000	98.396160 
2734.000000	98.396844 
2733.000000	98.397618 
2732.000000	98.398409 
2731.000000	98.399143 
2730.000000	98.399809 
2729.000000	98.400445 
2728.000000	98.401077 
2727.000000	98.401681 
2726.000000	98.402217 
2725.000000	98.402686 
2724.000000	98.403155 
2723.000000	98.403700 
2722.000000	98.404321 
2721.000000	98.404952 
2720.000000	98.405545 
2719.000000	98.406145 
2718.000000	98.406833 
2717.000000	98.407607 
2716.000000	98.408357 
2715.000000	98.408991 
2714.000000	98.409560 
2713.000000	98.410193 
2712.000000	98.410916 
2711.000000	98.411617 
2710.000000	98.412207 
2709.000000	98.412748 
2708.000000	98.413364 
2707.000000	98.414092 
2706.000000	98.414873 
2705.000000	98.415659 
2704.000000	98.416436 
2703.000000	98.417149 
2702.000000	98.417716 
2701.000000	98.418166 
2700.000000	98.418731 
2699.000000	98.419659 
2698.000000	98.420932 
2697.000000	98.422175 
2696.000000	98.422962 
2695.000000	98.423223 
2694.000000	98.423298 
2693.000000	98.423564 
2692.000000	98.424019 
2691.000000	98.424373 
2690.000000	98.424451 
2689.000000	98.424379 
2688.000000	98.424379 
2687.000000	98.424518 
2686.000000	98.424781 
2685.000000	98.425259 
2684.000000	98.426055 
2683.000000	98.427068 
2682.000000	98.428009 
2681.000000	98.428671 
2680.000000	98.429083 
2679.000000	98.429397 
2678.000000	98.429727 
2677.000000	98.430108 
2676.000000	98.430513 
2675.000000	98.430809 
2674.000000	98.430813 
2673.000000	98.430520 
2672.000000	98.430220 
2671.000000	98.430260 
2670.000000	98.430692 
2669.000000	98.431266 
2668.000000	98.431725 
2667.000000	98.432037 
2666.000000	98.432265 
2665.000000	98.432373 
2664.000000	98.432308 
2663.000000	98.432173 
2662.000000	98.432157 
2661.000000	98.432294 
2660.000000	98.432419 
2659.000000	98.432370 
2658.000000	98.432165 
2657.000000	98.431948 
2656.000000	98.431845 
2655.000000	98.431864 
2654.000000	98.431901 
2653.000000	98.431828 
2652.000000	98.431614 
2651.000000	98.431397 
2650.000000	98.431378 
2649.000000	98.431634 
2648.000000	98.432058 
2647.000000	98.432424 
2646.000000	98.432545 
2645.000000	98.432336 
2644.000000	98.431826 
2643.000000	98.431201 
2642.000000	98.430744 
2641.000000	98.430618 
2640.000000	98.430738 
2639.000000	98.430917 
2638.000000	98.431114 
2637.000000	98.431401 
2636.000000	98.431765 
2635.000000	98.432127 
2634.000000	98.432490 
2633.000000	98.432887 
2632.000000	98.433183 
2631.000000	98.433145 
2630.000000	98.432754 
2629.000000	98.432294 
2628.000000	98.432070 
2627.000000	98.432151 
2626.000000	98.432487 
2625.000000	98.433072 
2624.000000	98.433830 
2623.000000	98.434496 
2622.000000	98.434784 
2621.000000	98.434592 
2620.000000	98.434004 
2619.000000	98.433183 
2618.000000	98.432408 
2617.000000	98.432063 
2616.000000	98.432358 
2615.000000	98.433097 
2614.000000	98.433837 
2613.000000	98.434306 
2612.000000	98.434556 
2611.000000	98.434797 
2610.000000	98.435222 
2609.000000	98.435928 
2608.000000	98.436803 
2607.000000	98.437511 
2606.000000	98.437767 
2605.000000	98.437606 
2604.000000	98.437241 
2603.000000	98.436775 
2602.000000	98.436242 
2601.000000	98.435823 
2600.000000	98.435729 
2599.000000	98.435894 
2598.000000	98.436026 
2597.000000	98.436009 
2596.000000	98.436025 
2595.000000	98.436205 
2594.000000	98.436396 
2593.000000	98.436408 
2592.000000	98.436341 
2591.000000	98.436408 
2590.000000	98.436538 
2589.000000	98.436434 
2588.000000	98.436039 
2587.000000	98.435718 
2586.000000	98.435885 
2585.000000	98.436610 
2584.000000	98.437619 
2583.000000	98.438506 
2582.000000	98.438914 
2581.000000	98.438675 
2580.000000	98.437950 
2579.000000	98.437253 
2578.000000	98.437148 
2577.000000	98.437774 
2576.000000	98.438665 
2575.000000	98.439083 
2574.000000	98.438684 
2573.000000	98.437809 
2572.000000	98.437090 
2571.000000	98.436749 
2570.000000	98.436460 
2569.000000	98.435904 
2568.000000	98.435283 
2567.000000	98.435058 
2566.000000	98.435291 
2565.000000	98.435559 
2564.000000	98.435530 
2563.000000	98.435363 
2562.000000	98.435435 
2561.000000	98.435961 
2560.000000	98.437011 
2559.000000	98.438624 
2558.000000	98.440557 
2557.000000	98.442117 
2556.000000	98.442704 
2555.000000	98.442471 
2554.000000	98.442156 
2553.000000	98.442158 
2552.000000	98.442147 
2551.000000	98.441859 
2550.000000	98.441714 
2549.000000	98.442186 
2548.000000	98.442871 
2547.000000	98.442851 
2546.000000	98.441961 
2545.000000	98.441080 
2544.000000	98.440953 
2543.000000	98.441233 
2542.000000	98.441097 
2541.000000	98.440476 
2540.000000	98.440156 
2539.000000	98.440689 
2538.000000	98.441754 
2537.000000	98.442662 
2536.000000	98.443208 
2535.000000	98.443706 
2534.000000	98.444313 
2533.000000	98.444701 
2532.000000	98.444517 
2531.000000	98.443894 
2530.000000	98.443341 
2529.000000	98.443179 
2528.000000	98.443293 
2527.000000	98.443485 
2526.000000	98.443830 
2525.000000	98.444502 
2524.000000	98.445421 
2523.000000	98.446270 
2522.000000	98.446831 
2521.000000	98.447163 
2520.000000	98.447439 
2519.000000	98.447752 
2518.000000	98.448071 
2517.000000	98.448318 
2516.000000	98.448433 
2515.000000	98.448431 
2514.000000	98.448426 
2513.000000	98.448582 
2512.000000	98.448963 
2511.000000	98.449500 
2510.000000	98.450073 
2509.000000	98.450603 
2508.000000	98.451071 
2507.000000	98.451480 
2506.000000	98.451857 
2505.000000	98.452251 
2504.000000	98.452686 
2503.000000	98.453144 
2502.000000	98.453598 
2501.000000	98.454040 
2500.000000	98.454481 
2499.000000	98.454932 
2498.000000	98.455395 
2497.000000	98.455865 
2496.000000	98.456329 
2495.000000	98.456787 
2494.000000	98.457244 
2493.000000	98.457690 
2492.000000	98.458110 
2491.000000	98.458504 
2490.000000	98.458911 
2489.000000	98.459364 
2488.000000	98.459833 
2487.000000	98.460222 
2486.000000	98.460474 
2485.000000	98.460636 
2484.000000	98.460830 
2483.000000	98.461137 
2482.000000	98.461547 
2481.000000	98.461995 
2480.000000	98.462415 
2479.000000	98.462738 
2478.000000	98.462966 
2477.000000	98.463256 
2476.000000	98.463737 
2475.000000	98.464241 
2474.000000	98.464478 
2473.000000	98.464493 
2472.000000	98.464628 
2471.000000	98.464907 
2470.000000	98.464878 
2469.000000	98.464272 
2468.000000	98.463501 
2467.000000	98.463206 
2466.000000	98.463539 
2465.000000	98.464142 
2464.000000	98.464695 
2463.000000	98.465351 
2462.000000	98.466626 
2461.000000	98.468884 
2460.000000	98.471815 
2459.000000	98.474466 
2458.000000	98.475865 
2457.000000	98.475596 
2456.000000	98.473794 
2455.000000	98.471058 
2454.000000	98.468449 
2453.000000	98.466952 
2452.000000	98.466590 
2451.000000	98.466416 
2450.000000	98.465804 
2449.000000	98.465334 
2448.000000	98.465809 
2447.000000	98.466857 
2446.000000	98.467308 
2445.000000	98.466753 
2444.000000	98.465908 
2443.000000	98.465515 
2442.000000	98.465693 
2441.000000	98.466359 
2440.000000	98.467488 
2439.000000	98.468909 
2438.000000	98.470481 
2437.000000	98.472476 
2436.000000	98.475088 
2435.000000	98.477585 
2434.000000	98.478733 
2433.000000	98.478227 
2432.000000	98.477102 
2431.000000	98.476626 
2430.000000	98.477220 
2429.000000	98.478637 
2428.000000	98.480432 
2427.000000	98.481974 
2426.000000	98.482557 
2425.000000	98.481905 
2424.000000	98.480409 
2423.000000	98.478783 
2422.000000	98.477706 
2421.000000	98.477890 
2420.000000	98.479860 
2419.000000	98.483195 
2418.000000	98.486498 
2417.000000	98.488720 
2416.000000	98.490037 
2415.000000	98.491083 
2414.000000	98.492002 
2413.000000	98.492860 
2412.000000	98.494095 
2411.000000	98.495716 
2410.000000	98.496789 
2409.000000	98.496704 
2408.000000	98.496293 
2407.000000	98.496672 
2406.000000	98.497576 
2405.000000	98.497852 
2404.000000	98.497163 
2403.000000	98.496144 
2402.000000	98.495328 
2401.000000	98.495060 
2400.000000	98.496025 
2399.000000	98.498691 
2398.000000	98.502449 
2397.000000	98.506071 
2396.000000	98.508867 
2395.000000	98.510698 
2394.000000	98.511256 
2393.000000	98.510492 
2392.000000	98.509472 
2391.000000	98.509721 
2390.000000	98.511554 
2389.000000	98.513900 
2388.000000	98.515862 
2387.000000	98.517595 
2386.000000	98.519539 
2385.000000	98.521564 
2384.000000	98.523220 
2383.000000	98.524133 
2382.000000	98.523913 
2381.000000	98.522373 
2380.000000	98.520047 
2379.000000	98.517864 
2378.000000	98.515983 
2377.000000	98.513689 
2376.000000	98.510961 
2375.000000	98.509337 
2374.000000	98.510205 
2373.000000	98.512934 
2372.000000	98.515532 
2371.000000	98.517050 
2370.000000	98.518164 
2369.000000	98.519294 
2368.000000	98.519604 
2367.000000	98.518351 
2366.000000	98.516062 
2365.000000	98.513873 
2364.000000	98.512414 
2363.000000	98.511873 
2362.000000	98.512486 
2361.000000	98.514203 
2360.000000	98.516367 
2359.000000	98.518013 
2358.000000	98.518399 
2357.000000	98.517408 
2356.000000	98.515545 
2355.000000	98.513548 
2354.000000	98.511559 
2353.000000	98.509746 
2352.000000	98.509045 
2351.000000	98.509958 
2350.000000	98.511721 
2349.000000	98.512950 
2348.000000	98.513173 
2347.000000	98.512898 
2346.000000	98.512921 
2345.000000	98.513690 
2344.000000	98.514915 
2343.000000	98.515954 
2342.000000	98.516314 
2341.000000	98.516124 
2340.000000	98.515963 
2339.000000	98.516139 
2338.000000	98.516364 
2337.000000	98.516268 
2336.000000	98.516210 
2335.000000	98.516753 
2334.000000	98.517612 
2333.000000	98.517968 
2332.000000	98.518019 
2331.000000	98.518644 
2330.000000	98.519993 
2329.000000	98.521127 
2328.000000	98.521786 
2327.000000	98.522584 
2326.000000	98.523787 
2325.000000	98.525380 
2324.000000	98.527525 
2323.000000	98.530482 
2322.000000	98.532923 
2321.000000	98.533043 
2320.000000	98.531184 
2319.000000	98.529947 
2318.000000	98.530968 
2317.000000	98.532615 
2316.000000	98.532613 
2315.000000	98.530912 
2314.000000	98.529680 
2313.000000	98.530434 
2312.000000	98.533217 
2311.000000	98.537248 
2310.000000	98.541219 
2309.000000	98.543542 
2308.000000	98.543681 
2307.000000	98.543170 
2306.000000	98.543649 
2305.000000	98.545061 
2304.000000	98.546294 
2303.000000	98.547335 
2302.000000	98.549254 
2301.000000	98.552353 
2300.000000	98.555326 
2299.000000	98.556169 
2298.000000	98.553502 
2297.000000	98.546889 
2296.000000	98.537571 
2295.000000	98.528474 
2294.000000	98.522332 
2293.000000	98.519645 
2292.000000	98.518876 
2291.000000	98.518687 
2290.000000	98.518853 
2289.000000	98.519546 
2288.000000	98.520209 
2287.000000	98.520015 
2286.000000	98.518762 
2285.000000	98.517381 
2284.000000	98.517219 
2283.000000	98.518628 
2282.000000	98.520118 
2281.000000	98.519636 
2280.000000	98.516691 
2279.000000	98.512697 
2278.000000	98.509336 
2277.000000	98.507201 
2276.000000	98.506243 
2275.000000	98.506336 
2274.000000	98.507226 
2273.000000	98.508703 
2272.000000	98.510933 
2271.000000	98.513883 
2270.000000	98.516522 
2269.000000	98.517645 
2268.000000	98.517408 
2267.000000	98.517035 
2266.000000	98.517071 
2265.000000	98.516968 
2264.000000	98.516279 
2263.000000	98.515205 
2262.000000	98.513936 
2261.000000	98.512444 
2260.000000	98.511004 
2259.000000	98.510094 
2258.000000	98.509734 
2257.000000	98.509517 
2256.000000	98.509264 
2255.000000	98.509147 
2254.000000	98.509213 
2253.000000	98.509152 
2252.000000	98.508669 
2251.000000	98.507837 
2250.000000	98.506905 
2249.000000	98.506048 
2248.000000	98.505336 
2247.000000	98.504780 
2246.000000	98.504312 
2245.000000	98.503850 
2244.000000	98.503367 
2243.000000	98.502888 
2242.000000	98.502435 
2241.000000	98.502023 
2240.000000	98.501660 
2239.000000	98.501334 
2238.000000	98.501023 
2237.000000	98.500704 
2236.000000	98.500365 
2235.000000	98.500002 
2234.000000	98.499617 
2233.000000	98.499219 
2232.000000	98.498813 
2231.000000	98.498399 
2230.000000	98.497972 
2229.000000	98.497519 
2228.000000	98.497036 
2227.000000	98.496528 
2226.000000	98.496000 
2225.000000	98.495448 
2224.000000	98.494869 
2223.000000	98.494276 
2222.000000	98.493694 
2221.000000	98.493158 
2220.000000	98.492685 
2219.000000	98.492261 
2218.000000	98.491855 
2217.000000	98.491462 
2216.000000	98.491120 
2215.000000	98.490853 
2214.000000	98.490631 
2213.000000	98.490411 
2212.000000	98.490201 
2211.000000	98.490068 
2210.000000	98.490062 
2209.000000	98.490162 
2208.000000	98.490289 
2207.000000	98.490377 
2206.000000	98.490417 
2205.000000	98.490446 
2204.000000	98.490505 
2203.000000	98.490629 
2202.000000	98.490855 
2201.000000	98.491120 
2200.000000	98.491180 
2199.000000	98.490810 
2198.000000	98.490022 
2197.000000	98.489127 
2196.000000	98.488496 
2195.000000	98.488283 
2194.000000	98.488389 
2193.000000	98.488659 
2192.000000	98.489095 
2191.000000	98.489708 
2190.000000	98.490186 
2189.000000	98.490087 
2188.000000	98.489462 
2187.000000	98.488871 
2186.000000	98.488514 
2185.000000	98.487833 
2184.000000	98.486608 
2183.000000	98.485990 
2182.000000	98.487359 
2181.000000	98.490478 
2180.000000	98.493299 
2179.000000	98.494172 
2178.000000	98.493353 
2177.000000	98.492445 
2176.000000	98.492849 
2175.000000	98.494848 
2174.000000	98.497667 
2173.000000	98.500002 
2172.000000	98.501125 
2171.000000	98.501619 
2170.000000	98.502500 
2169.000000	98.503536 
2168.000000	98.503392 
2167.000000	98.501797 
2166.000000	98.500324 
2165.000000	98.500069 
2164.000000	98.499678 
2163.000000	98.497200 
2162.000000	98.493530 
2161.000000	98.492253 
2160.000000	98.495768 
2159.000000	98.503134 
2158.000000	98.511561 
2157.000000	98.519088 
2156.000000	98.525168 
2155.000000	98.529668 
2154.000000	98.532580 
2153.000000	98.534396 
2152.000000	98.535740 
2151.000000	98.536226 
2150.000000	98.534637 
2149.000000	98.530942 
2148.000000	98.527458 
2147.000000	98.526826 
2146.000000	98.529098 
2145.000000	98.531922 
2144.000000	98.533732 
2143.000000	98.535452 
2142.000000	98.538379 
2141.000000	98.541884 
2140.000000	98.544469 
2139.000000	98.546230 
2138.000000	98.548747 
2137.000000	98.552528 
2136.000000	98.555751 
2135.000000	98.556055 
2134.000000	98.552852 
2133.000000	98.547938 
2132.000000	98.544399 
2131.000000	98.544170 
2130.000000	98.546689 
2129.000000	98.549662 
2128.000000	98.551238 
2127.000000	98.551470 
2126.000000	98.551531 
2125.000000	98.552148 
2124.000000	98.553114 
2123.000000	98.553865 
2122.000000	98.553966 
2121.000000	98.553254 
2120.000000	98.551992 
2119.000000	98.550800 
2118.000000	98.550197 
2117.000000	98.550257 
2116.000000	98.550663 
2115.000000	98.550935 
2114.000000	98.550589 
2113.000000	98.549452 
2112.000000	98.548047 
2111.000000	98.547387 
2110.000000	98.547999 
2109.000000	98.549396 
2108.000000	98.550590 
2107.000000	98.551088 
2106.000000	98.551083 
2105.000000	98.550999 
2104.000000	98.551221 
2103.000000	98.551972 
2102.000000	98.552987 
2101.000000	98.553457 
2100.000000	98.552829 
2099.000000	98.551639 
2098.000000	98.551182 
2097.000000	98.552096 
2096.000000	98.553913 
2095.000000	98.555763 
2094.000000	98.557181 
2093.000000	98.558093 
2092.000000	98.558472 
2091.000000	98.558440 
2090.000000	98.558438 
2089.000000	98.558884 
2088.000000	98.559685 
2087.000000	98.560299 
2086.000000	98.560291 
2085.000000	98.559716 
2084.000000	98.559057 
2083.000000	98.558829 
2082.000000	98.559164 
2081.000000	98.559789 
2080.000000	98.560534 
2079.000000	98.561689 
2078.000000	98.563459 
2077.000000	98.565230 
2076.000000	98.566053 
2075.000000	98.565947 
2074.000000	98.565896 
2073.000000	98.566167 
2072.000000	98.565741 
2071.000000	98.563897 
2070.000000	98.561423 
2069.000000	98.559748 
2068.000000	98.559565 
2067.000000	98.560733 
2066.000000	98.562653 
2065.000000	98.564099 
2064.000000	98.563612 
2063.000000	98.560968 
2062.000000	98.557929 
2061.000000	98.556847 
2060.000000	98.558439 
2059.000000	98.561785 
2058.000000	98.565422 
2057.000000	98.568059 
2056.000000	98.568844 
2055.000000	98.567617 
2054.000000	98.565255 
2053.000000	98.563218 
2052.000000	98.562396 
2051.000000	98.562503 
2050.000000	98.562684 
2049.000000	98.562491 
2048.000000	98.562231 
2047.000000	98.562474 
2046.000000	98.563421 
2045.000000	98.564856 
2044.000000	98.566554 
2043.000000	98.568468 
2042.000000	98.570534 
2041.000000	98.572543 
2040.000000	98.574439 
2039.000000	98.576524 
2038.000000	98.578973 
2037.000000	98.581248 
2036.000000	98.582452 
2035.000000	98.582317 
2034.000000	98.581588 
2033.000000	98.581415 
2032.000000	98.582340 
2031.000000	98.583946 
2030.000000	98.585231 
2029.000000	98.585442 
2028.000000	98.584670 
2027.000000	98.583608 
2026.000000	98.582793 
2025.000000	98.582330 
2024.000000	98.582303 
2023.000000	98.583026 
2022.000000	98.584647 
2021.000000	98.586671 
2020.000000	98.588055 
2019.000000	98.588128 
2018.000000	98.587004 
2017.000000	98.585409 
2016.000000	98.584177 
2015.000000	98.583634 
2014.000000	98.583536 
2013.000000	98.583317 
2012.000000	98.582685 
2011.000000	98.582037 
2010.000000	98.581999 
2009.000000	98.582622 
2008.000000	98.583316 
2007.000000	98.583518 
2006.000000	98.583245 
2005.000000	98.582795 
2004.000000	98.582302 
2003.000000	98.581771 
2002.000000	98.581342 
2001.000000	98.581121 
2000.000000	98.580803 
1999.000000	98.579852 
1998.000000	98.578120 
1997.000000	98.576019 
1996.000000	98.574155 
1995.000000	98.572838 
1994.000000	98.571999 
1993.000000	98.571352 
1992.000000	98.570631 
1991.000000	98.569835 
1990.000000	98.569204 
1989.000000	98.568894 
1988.000000	98.568755 
1987.000000	98.568467 
1986.000000	98.567849 
1985.000000	98.566992 
1984.000000	98.566179 
1983.000000	98.565623 
1982.000000	98.565303 
1981.000000	98.565044 
1980.000000	98.564708 
1979.000000	98.564301 
1978.000000	98.563882 
1977.000000	98.563466 
1976.000000	98.563029 
1975.000000	98.562594 
1974.000000	98.562250 
1973.000000	98.562073 
1972.000000	98.562041 
1971.000000	98.562022 
1970.000000	98.561812 
1969.000000	98.561242 
1968.000000	98.560276 
1967.000000	98.559045 
1966.000000	98.557865 
1965.000000	98.557051 
1964.000000	98.556735 
1963.000000	98.556838 
1962.000000	98.557151 
1961.000000	98.557419 
1960.000000	98.557398 
1959.000000	98.556960 
1958.000000	98.556212 
1957.000000	98.555494 
1956.000000	98.555081 
1955.000000	98.554955 
1954.000000	98.554850 
1953.000000	98.554529 
1952.000000	98.553980 
1951.000000	98.553308 
1950.000000	98.552631 
1949.000000	98.552131 
1948.000000	98.552041 
1947.000000	98.552395 
1946.000000	98.552773 
1945.000000	98.552578 
1944.000000	98.551533 
1943.000000	98.549818 
1942.000000	98.547850 
1941.000000	98.545985 
1940.000000	98.544450 
1939.000000	98.543291 
1938.000000	98.542414 
1937.000000	98.541893 
1936.000000	98.541967 
1935.000000	98.542486 
1934.000000	98.542704 
1933.000000	98.542154 
1932.000000	98.541348 
1931.000000	98.541150 
1930.000000	98.541639 
1929.000000	98.541970 
1928.000000	98.541497 
1927.000000	98.540442 
1926.000000	98.539354 
1925.000000	98.538421 
1924.000000	98.537527 
1923.000000	98.536713 
1922.000000	98.536106 
1921.000000	98.535577 
1920.000000	98.534948 
1919.000000	98.534243 
1918.000000	98.533373 
1917.000000	98.531955 
1916.000000	98.529965 
1915.000000	98.528174 
1914.000000	98.527301 
1913.000000	98.527139 
1912.000000	98.526826 
1911.000000	98.525990 
1910.000000	98.525047 
1909.000000	98.524416 
1908.000000	98.524068 
1907.000000	98.523705 
1906.000000	98.522978 
1905.000000	98.521616 
1904.000000	98.519695 
1903.000000	98.517819 
1902.000000	98.516621 
1901.000000	98.516085 
1900.000000	98.515703 
1899.000000	98.515138 
1898.000000	98.514478 
1897.000000	98.513870 
1896.000000	98.513179 
1895.000000	98.512185 
1894.000000	98.510837 
1893.000000	98.509225 
1892.000000	98.507532 
1891.000000	98.506100 
1890.000000	98.505262 
1889.000000	98.504914 
1888.000000	98.504644 
1887.000000	98.504392 
1886.000000	98.504450 
1885.000000	98.504639 
1884.000000	98.504208 
1883.000000	98.502854 
1882.000000	98.501356 
1881.000000	98.500738 
1880.000000	98.501128 
1879.000000	98.501731 
1878.000000	98.501697 
1877.000000	98.501032 
1876.000000	98.500525 
1875.000000	98.500939 
1874.000000	98.502391 
1873.000000	98.504234 
1872.000000	98.505616 
1871.000000	98.506178 
1870.000000	98.506072 
1869.000000	98.505605 
1868.000000	98.505163 
1867.000000	98.505360 
1866.000000	98.506416 
1865.000000	98.507358 
1864.000000	98.507032 
1863.000000	98.505909 
1862.000000	98.505767 
1861.000000	98.507374 
1860.000000	98.509743 
1859.000000	98.511962 
1858.000000	98.514365 
1857.000000	98.517213 
1856.000000	98.519916 
1855.000000	98.522025 
1854.000000	98.523617 
1853.000000	98.524451 
1852.000000	98.524530 
1851.000000	98.525024 
1850.000000	98.526965 
1849.000000	98.529851 
1848.000000	98.532286 
1847.000000	98.533991 
1846.000000	98.535873 
1845.000000	98.538304 
1844.000000	98.540558 
1843.000000	98.542235 
1842.000000	98.543749 
1841.000000	98.545280 
1840.000000	98.547014 
1839.000000	98.549412 
1838.000000	98.552302 
1837.000000	98.554261 
1836.000000	98.554162 
1835.000000	98.553128 
1834.000000	98.553359 
1833.000000	98.555242 
1832.000000	98.557368 
1831.000000	98.558350 
1830.000000	98.558180 
1829.000000	98.558172 
1828.000000	98.559163 
1827.000000	98.560696 
1826.000000	98.561969 
1825.000000	98.562652 
1824.000000	98.562919 
1823.000000	98.563074 
1822.000000	98.563379 
1821.000000	98.563650 
1820.000000	98.563275 
1819.000000	98.562064 
1818.000000	98.561091 
1817.000000	98.561567 
1816.000000	98.562939 
1815.000000	98.564036 
1814.000000	98.565048 
1813.000000	98.567019 
1812.000000	98.569520 
1811.000000	98.570257 
1810.000000	98.568521 
1809.000000	98.566288 
1808.000000	98.565127 
1807.000000	98.564849 
1806.000000	98.565251 
1805.000000	98.566642 
1804.000000	98.568533 
1803.000000	98.569618 
1802.000000	98.569023 
1801.000000	98.567144 
1800.000000	98.564654 
1799.000000	98.561829 
1798.000000	98.559799 
1797.000000	98.559266 
1796.000000	98.559067 
1795.000000	98.558250 
1794.000000	98.557797 
1793.000000	98.559167 
1792.000000	98.561225 
1791.000000	98.561565 
1790.000000	98.560951 
1789.000000	98.561728 
1788.000000	98.564244 
1787.000000	98.567087 
1786.000000	98.569284 
1785.000000	98.570846 
1784.000000	98.571670 
1783.000000	98.571983 
1782.000000	98.572271 
1781.000000	98.572850 
1780.000000	98.573913 
1779.000000	98.575411 
1778.000000	98.577620 
1777.000000	98.580332 
1776.000000	98.582634 
1775.000000	98.583929 
1774.000000	98.584234 
1773.000000	98.584442 
1772.000000	98.585559 
1771.000000	98.587101 
1770.000000	98.588036 
1769.000000	98.588464 
1768.000000	98.589162 
1767.000000	98.590499 
1766.000000	98.592170 
1765.000000	98.593891 
1764.000000	98.595629 
1763.000000	98.597122 
1762.000000	98.597981 
1761.000000	98.598467 
1760.000000	98.599204 
1759.000000	98.600265 
1758.000000	98.601292 
1757.000000	98.602008 
1756.000000	98.602842 
1755.000000	98.604002 
1754.000000	98.604790 
1753.000000	98.604528 
1752.000000	98.603608 
1751.000000	98.603542 
1750.000000	98.605156 
1749.000000	98.607627 
1748.000000	98.609608 
1747.000000	98.610827 
1746.000000	98.611386 
1745.000000	98.611501 
1744.000000	98.611722 
1743.000000	98.612136 
1742.000000	98.612222 
1741.000000	98.612118 
1740.000000	98.612836 
1739.000000	98.614800 
1738.000000	98.616800 
1737.000000	98.617683 
1736.000000	98.617188 
1735.000000	98.615519 
1734.000000	98.613380 
1733.000000	98.611595 
1732.000000	98.611007 
1731.000000	98.612552 
1730.000000	98.616242 
1729.000000	98.619661 
1728.000000	98.621070 
1727.000000	98.621054 
1726.000000	98.621012 
1725.000000	98.621446 
1724.000000	98.621916 
1723.000000	98.621772 
1722.000000	98.621401 
1721.000000	98.621247 
1720.000000	98.621265 
1719.000000	98.620666 
1718.000000	98.618977 
1717.000000	98.617116 
1716.000000	98.614215 
1715.000000	98.609538 
1714.000000	98.605925 
1713.000000	98.604926 
1712.000000	98.604649 
1711.000000	98.603825 
1710.000000	98.603106 
1709.000000	98.602553 
1708.000000	98.601331 
1707.000000	98.599407 
1706.000000	98.597764 
1705.000000	98.596261 
1704.000000	98.592319 
1703.000000	98.585272 
1702.000000	98.577137 
1701.000000	98.571977 
1700.000000	98.570804 
1699.000000	98.569259 
1698.000000	98.566696 
1697.000000	98.565325 
1696.000000	98.564532 
1695.000000	98.562698 
1694.000000	98.559974 
1693.000000	98.557187 
1692.000000	98.554367 
1691.000000	98.551081 
1690.000000	98.547352 
1689.000000	98.543460 
1688.000000	98.539709 
1687.000000	98.536381 
1686.000000	98.533760 
1685.000000	98.532083 
1684.000000	98.529940 
1683.000000	98.526323 
1682.000000	98.522074 
1681.000000	98.517717 
1680.000000	98.513729 
1679.000000	98.510191 
1678.000000	98.506812 
1677.000000	98.503107 
1676.000000	98.499322 
1675.000000	98.496036 
1674.000000	98.492584 
1673.000000	98.488156 
1672.000000	98.483671 
1671.000000	98.480630 
1670.000000	98.478986 
1669.000000	98.476445 
1668.000000	98.472787 
1667.000000	98.470053 
1666.000000	98.468178 
1665.000000	98.466097 
1664.000000	98.464009 
1663.000000	98.463103 
1662.000000	98.462548 
1661.000000	98.459073 
1660.000000	98.453050 
1659.000000	98.447751 
1658.000000	98.445234 
1657.000000	98.443295 
1656.000000	98.441237 
1655.000000	98.439369 
1654.000000	98.437881 
1653.000000	98.432811 
1652.000000	98.422350 
1651.000000	98.412299 
1650.000000	98.403868 
1649.000000	98.399047 
1648.000000	98.396661 
1647.000000	98.395838 
1646.000000	98.394865 
1645.000000	98.393764 
1644.000000	98.390519 
1643.000000	98.386437 
1642.000000	98.384167 
1641.000000	98.384462 
1640.000000	98.385666 
1639.000000	98.385591 
1638.000000	98.384253 
1637.000000	98.382738 
1636.000000	98.381106 
1635.000000	98.380874 
1634.000000	98.383081 
1633.000000	98.385280 
1632.000000	98.385013 
1631.000000	98.383488 
1630.000000	98.383869 
1629.000000	98.386405 
1628.000000	98.388858 
1627.000000	98.391043 
1626.000000	98.394275 
1625.000000	98.398510 
1624.000000	98.403468 
1623.000000	98.409661 
1622.000000	98.416217 
1621.000000	98.419659 
1620.000000	98.419644 
1619.000000	98.419885 
1618.000000	98.423630 
1617.000000	98.428442 
1616.000000	98.429706 
1615.000000	98.429840 
1614.000000	98.431963 
1613.000000	98.434165 
1612.000000	98.434191 
1611.000000	98.433945 
1610.000000	98.436504 
1609.000000	98.441834 
1608.000000	98.448865 
1607.000000	98.457638 
1606.000000	98.466162 
1605.000000	98.471439 
1604.000000	98.475040 
1603.000000	98.480727 
1602.000000	98.488555 
1601.000000	98.495136 
1600.000000	98.499305 
1599.000000	98.503432 
1598.000000	98.508715 
1597.000000	98.513783 
1596.000000	98.517686 
1595.000000	98.521631 
1594.000000	98.526669 
1593.000000	98.531524 
1592.000000	98.535031 
1591.000000	98.538521 
1590.000000	98.543537 
1589.000000	98.549117 
1588.000000	98.553992 
1587.000000	98.558905 
1586.000000	98.564236 
1585.000000	98.567749 
1584.000000	98.569040 
1583.000000	98.571460 
1582.000000	98.576246 
1581.000000	98.580876 
1580.000000	98.584134 
1579.000000	98.588557 
1578.000000	98.596010 
1577.000000	98.604273 
1576.000000	98.608913 
1575.000000	98.610257 
1574.000000	98.610914 
1573.000000	98.611634 
1572.000000	98.614329 
1571.000000	98.620450 
1570.000000	98.626611 
1569.000000	98.625298 
1568.000000	98.618627 
1567.000000	98.614390 
1566.000000	98.614475 
1565.000000	98.615358 
1564.000000	98.616532 
1563.000000	98.617886 
1562.000000	98.618853 
1561.000000	98.616095 
1560.000000	98.614952 
1559.000000	98.618102 
1558.000000	98.617715 
1557.000000	98.615165 
1556.000000	98.611138 
1555.000000	98.610085 
1554.000000	98.608793 
1553.000000	98.607661 
1552.000000	98.606212 
1551.000000	98.603384 
1550.000000	98.596742 
1549.000000	98.588224 
1548.000000	98.581875 
1547.000000	98.579351 
1546.000000	98.577694 
1545.000000	98.573563 
1544.000000	98.567508 
1543.000000	98.562494 
1542.000000	98.561136 
1541.000000	98.562855 
1540.000000	98.557788 
1539.000000	98.543212 
1538.000000	98.527436 
1537.000000	98.512980 
1536.000000	98.500208 
1535.000000	98.490868 
1534.000000	98.486526 
1533.000000	98.484648 
1532.000000	98.480838 
1531.000000	98.472606 
1530.000000	98.462184 
1529.000000	98.452496 
1528.000000	98.443430 
1527.000000	98.433861 
1526.000000	98.423927 
1525.000000	98.414914 
1524.000000	98.407724 
1523.000000	98.401957 
1522.000000	98.395835 
1521.000000	98.386689 
1520.000000	98.373716 
1519.000000	98.358853 
1518.000000	98.344462 
1517.000000	98.331956 
1516.000000	98.321373 
1515.000000	98.312819 
1514.000000	98.306025 
1513.000000	98.300472 
1512.000000	98.294472 
1511.000000	98.285211 
1510.000000	98.272352 
1509.000000	98.258447 
1508.000000	98.246386 
1507.000000	98.234329 
1506.000000	98.221882 
1505.000000	98.211090 
1504.000000	98.199889 
1503.000000	98.187842 
1502.000000	98.175204 
1501.000000	98.163503 
1500.000000	98.153807 
1499.000000	98.145188 
1498.000000	98.134414 
1497.000000	98.121514 
1496.000000	98.109621 
1495.000000	98.100174 
1494.000000	98.093061 
1493.000000	98.088503 
1492.000000	98.086461 
1491.000000	98.084965 
1490.000000	98.080681 
1489.000000	98.072832 
1488.000000	98.062013 
1487.000000	98.048362 
1486.000000	98.034308 
1485.000000	98.020400 
1484.000000	98.006408 
1483.000000	97.994215 
1482.000000	97.985130 
1481.000000	97.978295 
1480.000000	97.970758 
1479.000000	97.961123 
1478.000000	97.950624 
1477.000000	97.941036 
1476.000000	97.931247 
1475.000000	97.919031 
1474.000000	97.905422 
1473.000000	97.894596 
1472.000000	97.888953 
1471.000000	97.884902 
1470.000000	97.878792 
1469.000000	97.870738 
1468.000000	97.861564 
1467.000000	97.851555 
1466.000000	97.842387 
1465.000000	97.835977 
1464.000000	97.831748 
1463.000000	97.825362 
1462.000000	97.814726 
1461.000000	97.803407 
1460.000000	97.796277 
1459.000000	97.794104 
1458.000000	97.788689 
1457.000000	97.773713 
1456.000000	97.757167 
1455.000000	97.744846 
1454.000000	97.732991 
1453.000000	97.722797 
1452.000000	97.717698 
1451.000000	97.718823 
1450.000000	97.723757 
1449.000000	97.730988 
1448.000000	97.738430 
1447.000000	97.742603 
1446.000000	97.741689 
1445.000000	97.738248 
1444.000000	97.736990 
1443.000000	97.738017 
1442.000000	97.738543 
1441.000000	97.737285 
1440.000000	97.735381 
1439.000000	97.732962 
1438.000000	97.728289 
1437.000000	97.722724 
1436.000000	97.720909 
1435.000000	97.722415 
1434.000000	97.723243 
1433.000000	97.724346 
1432.000000	97.728115 
1431.000000	97.734449 
1430.000000	97.740612 
1429.000000	97.745340 
1428.000000	97.748872 
1427.000000	97.751610 
1426.000000	97.754220 
1425.000000	97.757522 
1424.000000	97.763111 
1423.000000	97.768956 
1422.000000	97.771686 
1421.000000	97.772821 
1420.000000	97.777053 
1419.000000	97.781831 
1418.000000	97.778984 
1417.000000	97.771589 
1416.000000	97.769571 
1415.000000	97.774931 
1414.000000	97.780660 
1413.000000	97.781184 
1412.000000	97.779027 
1411.000000	97.779055 
1410.000000	97.781227 
1409.000000	97.784156 
1408.000000	97.788722 
1407.000000	97.796364 
1406.000000	97.806874 
1405.000000	97.819724 
1404.000000	97.836125 
1403.000000	97.854222 
1402.000000	97.870024 
1401.000000	97.884278 
1400.000000	97.901572 
1399.000000	97.922192 
1398.000000	97.938565 
1397.000000	97.944340 
1396.000000	97.941973 
1395.000000	97.941151 
1394.000000	97.950022 
1393.000000	97.969571 
1392.000000	97.996579 
1391.000000	98.025755 
1390.000000	98.051406 
1389.000000	98.069875 
1388.000000	98.080624 
1387.000000	98.085893 
1386.000000	98.089556 
1385.000000	98.095485 
1384.000000	98.106167 
1383.000000	98.120799 
1382.000000	98.135839 
1381.000000	98.148884 
1380.000000	98.160444 
1379.000000	98.172988 
1378.000000	98.188346 
1377.000000	98.206053 
1376.000000	98.223721 
1375.000000	98.238905 
1374.000000	98.251131 
1373.000000	98.262984 
1372.000000	98.277332 
1371.000000	98.294544 
1370.000000	98.312774 
1369.000000	98.329177 
1368.000000	98.343565 
1367.000000	98.357782 
1366.000000	98.372856 
1365.000000	98.388515 
1364.000000	98.403243 
1363.000000	98.414708 
1362.000000	98.422378 
1361.000000	98.428836 
1360.000000	98.437411 
1359.000000	98.449836 
1358.000000	98.465183 
1357.000000	98.480462 
1356.000000	98.493203 
1355.000000	98.503096 
1354.000000	98.511491 
1353.000000	98.520288 
1352.000000	98.529626 
1351.000000	98.539064 
1350.000000	98.549206 
1349.000000	98.558724 
1348.000000	98.565546 
1347.000000	98.569452 
1346.000000	98.572991 
1345.000000	98.578355 
1344.000000	98.585287 
1343.000000	98.592468 
1342.000000	98.599522 
1341.000000	98.605938 
1340.000000	98.610012 
1339.000000	98.610902 
1338.000000	98.610046 
1337.000000	98.609365 
1336.000000	98.609334 
1335.000000	98.609403 
1334.000000	98.609655 
1333.000000	98.610848 
1332.000000	98.612899 
1331.000000	98.615048 
1330.000000	98.617084 
1329.000000	98.619247 
1328.000000	98.621368 
1327.000000	98.623374 
1326.000000	98.625509 
1325.000000	98.626852 
1324.000000	98.626155 
1323.000000	98.623030 
1322.000000	98.618465 
1321.000000	98.614279 
1320.000000	98.612280 
1319.000000	98.613323 
1318.000000	98.616883 
1317.000000	98.621482 
1316.000000	98.625123 
1315.000000	98.625765 
1314.000000	98.622640 
1313.000000	98.617952 
1312.000000	98.615718 
1311.000000	98.617710 
1310.000000	98.621396 
1309.000000	98.623088 
1308.000000	98.622010 
1307.000000	98.620553 
1306.000000	98.621090 
1305.000000	98.623411 
1304.000000	98.626157 
1303.000000	98.627990 
1302.000000	98.627698 
1301.000000	98.624796 
1300.000000	98.620949 
1299.000000	98.619120 
1298.000000	98.620387 
1297.000000	98.622480 
1296.000000	98.622437 
1295.000000	98.620257 
1294.000000	98.618588 
1293.000000	98.619458 
1292.000000	98.622293 
1291.000000	98.625003 
1290.000000	98.626267 
1289.000000	98.626302 
1288.000000	98.625786 
1287.000000	98.624760 
1286.000000	98.622812 
1285.000000	98.620264 
1284.000000	98.618588 
1283.000000	98.618811 
1282.000000	98.619874 
1281.000000	98.619441 
1280.000000	98.616654 
1279.000000	98.613538 
1278.000000	98.612973 
1277.000000	98.615758 
1276.000000	98.619935 
1275.000000	98.623054 
1274.000000	98.624388 
1273.000000	98.625036 
1272.000000	98.626277 
1271.000000	98.628016 
1270.000000	98.628772 
1269.000000	98.627239 
1268.000000	98.623831 
1267.000000	98.620174 
1266.000000	98.617059 
1265.000000	98.614206 
1264.000000	98.611953 
1263.000000	98.611602 
1262.000000	98.613545 
1261.000000	98.616304 
1260.000000	98.618688 
1259.000000	98.621682 
1258.000000	98.626072 
1257.000000	98.629412 
1256.000000	98.627697 
1255.000000	98.620544 
1254.000000	98.612605 
1253.000000	98.608349 
1252.000000	98.606781 
1251.000000	98.603585 
1250.000000	98.597779 
1249.000000	98.593765 
1248.000000	98.596030 
1247.000000	98.603320 
1246.000000	98.609108 
1245.000000	98.607493 
1244.000000	98.597901 
1243.000000	98.585264 
1242.000000	98.576970 
1241.000000	98.578254 
1240.000000	98.587945 
1239.000000	98.598340 
1238.000000	98.601187 
1237.000000	98.594489 
1236.000000	98.582449 
1235.000000	98.569435 
1234.000000	98.556225 
1233.000000	98.542128 
1232.000000	98.527579 
1231.000000	98.512934 
1230.000000	98.497136 
1229.000000	98.479703 
1228.000000	98.462007 
1227.000000	98.444272 
1226.000000	98.423016 
1225.000000	98.394190 
1224.000000	98.358057 
1223.000000	98.318583 
1222.000000	98.278407 
1221.000000	98.236690 
1220.000000	98.191781 
1219.000000	98.143583 
1218.000000	98.092667 
1217.000000	98.038936 
1216.000000	97.981692 
1215.000000	97.919954 
1214.000000	97.853122 
1213.000000	97.782893 
1212.000000	97.713607 
1211.000000	97.647879 
1210.000000	97.582364 
1209.000000	97.510978 
1208.000000	97.432555 
1207.000000	97.352437 
1206.000000	97.275922 
1205.000000	97.202777 
1204.000000	97.129140 
1203.000000	97.052287 
1202.000000	96.972457 
1201.000000	96.891966 
1200.000000	96.813479 
1199.000000	96.737644 
1198.000000	96.661875 
1197.000000	96.583107 
1196.000000	96.501526 
1195.000000	96.419695 
1194.000000	96.338615 
1193.000000	96.257013 
1192.000000	96.174209 
1191.000000	96.090729 
1190.000000	96.005999 
1189.000000	95.918285 
1188.000000	95.827262 
1187.000000	95.734172 
1186.000000	95.639455 
1185.000000	95.542672 
1184.000000	95.444338 
1183.000000	95.345081 
1182.000000	95.243605 
1181.000000	95.138390 
1180.000000	95.030472 
1179.000000	94.921080 
1178.000000	94.807626 
1177.000000	94.686404 
1176.000000	94.558531 
1175.000000	94.428551 
1174.000000	94.297712 
1173.000000	94.163903 
1172.000000	94.028147 
1171.000000	93.894926 
1170.000000	93.765299 
1169.000000	93.636115 
1168.000000	93.507903 
1167.000000	93.387900 
1166.000000	93.283886 
1165.000000	93.201223 
1164.000000	93.147296 
1163.000000	93.131027 
1162.000000	93.153445 
1161.000000	93.202593 
1160.000000	93.259727 
1159.000000	93.307012 
1158.000000	93.329680 
1157.000000	93.318052 
1156.000000	93.271148 
1155.000000	93.195215 
1154.000000	93.097436 
1153.000000	92.984141 
1152.000000	92.864495 
1151.000000	92.749151 
1150.000000	92.642458 
1149.000000	92.540952 
1148.000000	92.441284 
1147.000000	92.344092 
1146.000000	92.248551 
1145.000000	92.149873 
1144.000000	92.045605 
1143.000000	91.939198 
1142.000000	91.834322 
1141.000000	91.730407 
1140.000000	91.626238 
1139.000000	91.522885 
1138.000000	91.420608 
1137.000000	91.317723 
1136.000000	91.214495 
1135.000000	91.113199 
1134.000000	91.012770 
1133.000000	90.908862 
1132.000000	90.800712 
1131.000000	90.692134 
1130.000000	90.584320 
1129.000000	90.473966 
1128.000000	90.360093 
1127.000000	90.245995 
1126.000000	90.132376 
1125.000000	90.015283 
1124.000000	89.893272 
1123.000000	89.770306 
1122.000000	89.649288 
1121.000000	89.529004 
1120.000000	89.409387 
1119.000000	89.292835 
1118.000000	89.178507 
1117.000000	89.062830 
1116.000000	88.947472 
1115.000000	88.838879 
1114.000000	88.737959 
1113.000000	88.638507 
1112.000000	88.537707 
1111.000000	88.439028 
1110.000000	88.342979 
1109.000000	88.244869 
1108.000000	88.143618 
1107.000000	88.043156 
1106.000000	87.943621 
1105.000000	87.840607 
1104.000000	87.734687 
1103.000000	87.632067 
1102.000000	87.533883 
1101.000000	87.435570 
1100.000000	87.337724 
1099.000000	87.246084 
1098.000000	87.161187 
1097.000000	87.076942 
1096.000000	86.991757 
1095.000000	86.908976 
1094.000000	86.825463 
1093.000000	86.732644 
1092.000000	86.631859 
1091.000000	86.536418 
1090.000000	86.454916 
1089.000000	86.383271 
1088.000000	86.315194 
1087.000000	86.248629 
1086.000000	86.180055 
1085.000000	86.105402 
1084.000000	86.029451 
1083.000000	85.962017 
1082.000000	85.902311 
1081.000000	85.839620 
1080.000000	85.771590 
1079.000000	85.708105 
1078.000000	85.653939 
1077.000000	85.601054 
1076.000000	85.541720 
1075.000000	85.475919 
1074.000000	85.402406 
1073.000000	85.315455 
1072.000000	85.213164 
1071.000000	85.095465 
1070.000000	84.951684 
1069.000000	84.766061 
1068.000000	84.541191 
1067.000000	84.303076 
1066.000000	84.077157 
1065.000000	83.870148 
1064.000000	83.678280 
1063.000000	83.496209 
1062.000000	83.310906 
1061.000000	83.103901 
1060.000000	82.870843 
1059.000000	82.628645 
1058.000000	82.395871 
1057.000000	82.175602 
1056.000000	81.962200 
1055.000000	81.751771 
1054.000000	81.539500 
1053.000000	81.319285 
1052.000000	81.093559 
1051.000000	80.872583 
1050.000000	80.658161 
1049.000000	80.440419 
1048.000000	80.214644 
1047.000000	79.986514 
1046.000000	79.758179 
1045.000000	79.525234 
1044.000000	79.289755 
1043.000000	79.060701 
1042.000000	78.838548 
1041.000000	78.614312 
1040.000000	78.386776 
1039.000000	78.166368 
1038.000000	77.959713 
1037.000000	77.765361 
1036.000000	77.586168 
1035.000000	77.429545 
1034.000000	77.293339 
1033.000000	77.167225 
1032.000000	77.048667 
1031.000000	76.941144 
1030.000000	76.838541 
1029.000000	76.731773 
1028.000000	76.630735 
1027.000000	76.557260 
1026.000000	76.513854 
1025.000000	76.479965 
1024.000000	76.441287 
1023.000000	76.401508 
1022.000000	76.362758 
1021.000000	76.317855 
1020.000000	76.266728 
1019.000000	76.219164 
1018.000000	76.176208 
1017.000000	76.128421 
1016.000000	76.076107 
1015.000000	76.030975 
1014.000000	75.994560 
1013.000000	75.955988 
1012.000000	75.914501 
1011.000000	75.882648 
1010.000000	75.863290 
1009.000000	75.845166 
1008.000000	75.825863 
1007.000000	75.817866 
1006.000000	75.826995 
1005.000000	75.845703 
1004.000000	75.871817 
1003.000000	75.912310 
1002.000000	75.963704 
1001.000000	76.010944 
1000.000000	76.052066 
999.000000	 76.102959 
998.000000	 76.171194 
997.000000	 76.245493 
996.000000	 76.317333 
995.000000	 76.393241 
994.000000	 76.478754 
993.000000	 76.569008 
992.000000	 76.661673 
991.000000	 76.761470 
990.000000	 76.866547 
989.000000	 76.968235 
988.000000	 77.069071 
987.000000	 77.183015 
986.000000	 77.313662 
985.000000	 77.450667 
984.000000	 77.591337 
983.000000	 77.746034 
982.000000	 77.917444 
981.000000	 78.094270 
980.000000	 78.271122 
979.000000	 78.456023 
978.000000	 78.652268 
977.000000	 78.851550 
976.000000	 79.051307 
975.000000	 79.261001 
974.000000	 79.484467 
973.000000	 79.712625 
972.000000	 79.939832 
971.000000	 80.171649 
970.000000	 80.410569 
969.000000	 80.649433 
968.000000	 80.884515 
967.000000	 81.120747 
966.000000	 81.359434 
965.000000	 81.595071 
964.000000	 81.828080 
963.000000	 82.065939 
962.000000	 82.307778 
961.000000	 82.542524 
960.000000	 82.766190 
959.000000	 82.986537 
958.000000	 83.206894 
957.000000	 83.419946 
956.000000	 83.621898 
955.000000	 83.818788 
954.000000	 84.014248 
953.000000	 84.203970 
952.000000	 84.386314 
951.000000	 84.565554 
950.000000	 84.741061 
949.000000	 84.905933 
948.000000	 85.059514 
947.000000	 85.208651 
946.000000	 85.353820 
945.000000	 85.487152 
944.000000	 85.607371 
943.000000	 85.723686 
942.000000	 85.841411 
941.000000	 85.956515 
940.000000	 86.068049 
939.000000	 86.182530 
938.000000	 86.301539 
937.000000	 86.417702 
936.000000	 86.527921 
935.000000	 86.638909 
934.000000	 86.755207 
933.000000	 86.873041 
932.000000	 86.990252 
931.000000	 87.110904 
930.000000	 87.235543 
929.000000	 87.357379 
928.000000	 87.472600 
927.000000	 87.585063 
926.000000	 87.697212 
925.000000	 87.805248 
924.000000	 87.905917 
923.000000	 87.999438 
922.000000	 88.084424 
921.000000	 88.159309 
920.000000	 88.229777 
919.000000	 88.304638 
918.000000	 88.382995 
917.000000	 88.455477 
916.000000	 88.519586 
915.000000	 88.584163 
914.000000	 88.657922 
913.000000	 88.743706 
912.000000	 88.844403 
911.000000	 88.963408 
910.000000	 89.098027 
909.000000	 89.242658 
908.000000	 89.398847 
907.000000	 89.572090 
906.000000	 89.760059 
905.000000	 89.955266 
904.000000	 90.157439 
903.000000	 90.370636 
902.000000	 90.589788 
901.000000	 90.803807 
900.000000	 91.011601 
899.000000	 91.221800 
898.000000	 91.436759 
897.000000	 91.648913 
896.000000	 91.852276 
895.000000	 92.045410 
894.000000	 92.224644 
893.000000	 92.387617 
892.000000	 92.542713 
891.000000	 92.701663 
890.000000	 92.862316 
889.000000	 93.010792 
888.000000	 93.139874 
887.000000	 93.253011 
886.000000	 93.352389 
885.000000	 93.437308 
884.000000	 93.513487 
883.000000	 93.588812 
882.000000	 93.660064 
881.000000	 93.720243 
880.000000	 93.779485 
879.000000	 93.860041 
878.000000	 93.967204 
877.000000	 94.083913 
876.000000	 94.198843 
875.000000	 94.321027 
874.000000	 94.460572 
873.000000	 94.614014 
872.000000	 94.776799 
871.000000	 94.952758 
870.000000	 95.141560 
869.000000	 95.330834 
868.000000	 95.509631 
867.000000	 95.678682 
866.000000	 95.841411 
865.000000	 95.996309 
864.000000	 96.144509 
863.000000	 96.294064 
862.000000	 96.449128 
861.000000	 96.603068 
860.000000	 96.748451 
859.000000	 96.886270 
858.000000	 97.020313 
857.000000	 97.149664 
856.000000	 97.271336 
855.000000	 97.383725 
854.000000	 97.483850 
853.000000	 97.567941 
852.000000	 97.638193 
851.000000	 97.703116 
850.000000	 97.769237 
849.000000	 97.838281 
848.000000	 97.911939 
847.000000	 97.990298 
846.000000	 98.065238 
845.000000	 98.126060 
844.000000	 98.173550 
843.000000	 98.218494 
842.000000	 98.264225 
841.000000	 98.300957 
840.000000	 98.319933 
839.000000	 98.322633 
838.000000	 98.313327 
837.000000	 98.293945 
836.000000	 98.271098 
835.000000	 98.257398 
834.000000	 98.258592 
833.000000	 98.267146 
832.000000	 98.274299 
831.000000	 98.280962 
830.000000	 98.291857 
829.000000	 98.307197 
828.000000	 98.326563 
827.000000	 98.353845 
826.000000	 98.391845 
825.000000	 98.438078 
824.000000	 98.489993 
823.000000	 98.546278 
822.000000	 98.600147 
821.000000	 98.641589 
820.000000	 98.668971 
819.000000	 98.688024 
818.000000	 98.696941 
817.000000	 98.682405 
816.000000	 98.633912 
815.000000	 98.553820 
814.000000	 98.448925 
813.000000	 98.318274 
812.000000	 98.152576 
811.000000	 97.938579 
810.000000	 97.660287 
809.000000	 97.303657 
808.000000	 96.866960 
807.000000	 96.363911 
806.000000	 95.814809 
805.000000	 95.240165 
804.000000	 94.664173 
803.000000	 94.113689 
802.000000	 93.608169 
801.000000	 93.160029 
800.000000	 92.787871 
799.000000	 92.515059 
798.000000	 92.348600 
797.000000	 92.272036 
796.000000	 92.264019 
795.000000	 92.310085 
794.000000	 92.392888 
793.000000	 92.488591 
792.000000	 92.580948 
791.000000	 92.666042 
790.000000	 92.737974 
789.000000	 92.782562 
788.000000	 92.789224 
787.000000	 92.755864 
786.000000	 92.678160 
785.000000	 92.547746 
784.000000	 92.366959 
783.000000	 92.154411 
782.000000	 91.932198 
781.000000	 91.719496 
780.000000	 91.540337 
779.000000	 91.420566 
778.000000	 91.370441 
777.000000	 91.383786 
776.000000	 91.457208 
775.000000	 91.592745 
774.000000	 91.777397 
773.000000	 91.979837 
772.000000	 92.175983 
771.000000	 92.362602 
770.000000	 92.540214 
769.000000	 92.700122 
768.000000	 92.835967 
767.000000	 92.951896 
766.000000	 93.050917 
765.000000	 93.130029 
764.000000	 93.195284 
763.000000	 93.266660 
762.000000	 93.357447 
761.000000	 93.460585 
760.000000	 93.563702 
759.000000	 93.665486 
758.000000	 93.769364 
757.000000	 93.874434 
756.000000	 93.982739 
755.000000	 94.103739 
754.000000	 94.240096 
753.000000	 94.376683 
752.000000	 94.492722 
751.000000	 94.579745 
750.000000	 94.644618 
749.000000	 94.703238 
748.000000	 94.773926 
747.000000	 94.866093 
746.000000	 94.970392 
745.000000	 95.069373 
744.000000	 95.160813 
743.000000	 95.259684 
742.000000	 95.375253 
741.000000	 95.500377 
740.000000	 95.627152 
739.000000	 95.757750 
738.000000	 95.892812 
737.000000	 96.022092 
736.000000	 96.134903 
735.000000	 96.230316 
734.000000	 96.311949 
733.000000	 96.382591 
732.000000	 96.447300 
731.000000	 96.510344 
730.000000	 96.565665 
729.000000	 96.602658 
728.000000	 96.623763 
727.000000	 96.645430 
726.000000	 96.680774 
725.000000	 96.731541 
724.000000	 96.797478 
723.000000	 96.879387 
722.000000	 96.969190 
721.000000	 97.050686 
720.000000	 97.116808 
719.000000	 97.175836 
718.000000	 97.235680 
717.000000	 97.294612 
716.000000	 97.352215 
715.000000	 97.414314 
714.000000	 97.481146 
713.000000	 97.544640 
712.000000	 97.603106 
711.000000	 97.665282 
710.000000	 97.733858 
709.000000	 97.799752 
708.000000	 97.856288 
707.000000	 97.905537 
706.000000	 97.945915 
705.000000	 97.965385 
704.000000	 97.953687 
703.000000	 97.910512 
702.000000	 97.831822 
701.000000	 97.700253 
700.000000	 97.500916 
699.000000	 97.237822 
698.000000	 96.932834 
697.000000	 96.620545 
696.000000	 96.348850 
695.000000	 96.169443 
694.000000	 96.109428 
693.000000	 96.156902 
692.000000	 96.278980 
691.000000	 96.442926 
690.000000	 96.621430 
689.000000	 96.792615 
688.000000	 96.945931 
687.000000	 97.082242 
686.000000	 97.199954 
685.000000	 97.292921 
684.000000	 97.365661 
683.000000	 97.432941 
682.000000	 97.501439 
681.000000	 97.567243 
680.000000	 97.633519 
679.000000	 97.710897 
678.000000	 97.796601 
677.000000	 97.876796 
676.000000	 97.947639 
675.000000	 98.019152 
674.000000	 98.090248 
673.000000	 98.137980 
672.000000	 98.141164 
671.000000	 98.096373 
670.000000	 98.012406 
669.000000	 97.913370 
668.000000	 97.886525 
667.000000	 98.021353 
666.000000	 98.221942 
665.000000	 98.362460 
664.000000	 98.435256 
663.000000	 98.475235 
662.000000	 98.514047 
661.000000	 98.559977 
660.000000	 98.608010 
659.000000	 98.656158 
658.000000	 98.698855 
657.000000	 98.722357 
656.000000	 98.715595 
655.000000	 98.684501 
654.000000	 98.644072 
653.000000	 98.601598 
652.000000	 98.563061 
651.000000	 98.547267 
650.000000	 98.566825 

