4000.000000	97.764387 
3999.000000	97.763775 
3998.000000	97.762005 
3997.000000	97.759475 
3996.000000	97.757028 
3995.000000	97.755467 
3994.000000	97.755255 
3993.000000	97.756306 
3992.000000	97.757805 
3991.000000	97.758625 
3990.000000	97.758221 
3989.000000	97.756985 
3988.000000	97.755836 
3987.000000	97.755490 
3986.000000	97.756103 
3985.000000	97.757313 
3984.000000	97.758430 
3983.000000	97.758868 
3982.000000	97.758636 
3981.000000	97.758322 
3980.000000	97.758338 
3979.000000	97.758397 
3978.000000	97.758055 
3977.000000	97.757477 
3976.000000	97.757222 
3975.000000	97.757324 
3974.000000	97.757107 
3973.000000	97.756007 
3972.000000	97.754163 
3971.000000	97.752217 
3970.000000	97.750787 
3969.000000	97.750252 
3968.000000	97.750754 
3967.000000	97.751984 
3966.000000	97.753208 
3965.000000	97.753757 
3964.000000	97.753363 
3963.000000	97.752190 
3962.000000	97.750698 
3961.000000	97.749366 
3960.000000	97.748385 
3959.000000	97.747703 
3958.000000	97.747292 
3957.000000	97.747267 
3956.000000	97.747572 
3955.000000	97.747618 
3954.000000	97.746764 
3953.000000	97.744939 
3952.000000	97.742684 
3951.000000	97.740668 
3950.000000	97.739163 
3949.000000	97.738122 
3948.000000	97.737360 
3947.000000	97.736763 
3946.000000	97.736488 
3945.000000	97.736865 
3944.000000	97.737896 
3943.000000	97.738865 
3942.000000	97.739163 
3941.000000	97.739030 
3940.000000	97.739080 
3939.000000	97.739509 
3938.000000	97.739903 
3937.000000	97.739769 
3936.000000	97.739025 
3935.000000	97.737830 
3934.000000	97.736472 
3933.000000	97.735283 
3932.000000	97.734499 
3931.000000	97.733948 
3930.000000	97.733274 
3929.000000	97.732663 
3928.000000	97.732697 
3927.000000	97.733533 
3926.000000	97.734432 
3925.000000	97.734308 
3924.000000	97.732915 
3923.000000	97.730939 
3922.000000	97.729108 
3921.000000	97.727764 
3920.000000	97.727092 
3919.000000	97.727209 
3918.000000	97.727810 
3917.000000	97.728176 
3916.000000	97.727922 
3915.000000	97.727353 
3914.000000	97.726980 
3913.000000	97.726953 
3912.000000	97.727065 
3911.000000	97.727141 
3910.000000	97.727021 
3909.000000	97.726556 
3908.000000	97.725802 
3907.000000	97.724865 
3906.000000	97.723751 
3905.000000	97.722112 
3904.000000	97.719666 
3903.000000	97.716868 
3902.000000	97.714725 
3901.000000	97.713891 
3900.000000	97.714199 
3899.000000	97.714883 
3898.000000	97.715316 
3897.000000	97.715306 
3896.000000	97.714861 
3895.000000	97.714197 
3894.000000	97.713666 
3893.000000	97.713472 
3892.000000	97.713348 
3891.000000	97.712756 
3890.000000	97.711587 
3889.000000	97.710167 
3888.000000	97.708945 
3887.000000	97.708157 
3886.000000	97.707754 
3885.000000	97.707500 
3884.000000	97.707135 
3883.000000	97.706524 
3882.000000	97.705751 
3881.000000	97.705055 
3880.000000	97.704593 
3879.000000	97.704269 
3878.000000	97.703911 
3877.000000	97.703513 
3876.000000	97.703178 
3875.000000	97.702907 
3874.000000	97.702593 
3873.000000	97.702190 
3872.000000	97.701761 
3871.000000	97.701367 
3870.000000	97.701027 
3869.000000	97.700746 
3868.000000	97.700515 
3867.000000	97.700322 
3866.000000	97.700163 
3865.000000	97.700040 
3864.000000	97.699955 
3863.000000	97.699900 
3862.000000	97.699864 
3861.000000	97.699832 
3860.000000	97.699796 
3859.000000	97.699747 
3858.000000	97.699676 
3857.000000	97.699586 
3856.000000	97.699488 
3855.000000	97.699407 
3854.000000	97.699355 
3853.000000	97.699317 
3852.000000	97.699296 
3851.000000	97.699321 
3850.000000	97.699399 
3849.000000	97.699530 
3848.000000	97.699726 
3847.000000	97.699987 
3846.000000	97.700256 
3845.000000	97.700459 
3844.000000	97.700563 
3843.000000	97.700595 
3842.000000	97.700612 
3841.000000	97.700703 
3840.000000	97.700937 
3839.000000	97.701329 
3838.000000	97.701827 
3837.000000	97.702299 
3836.000000	97.702655 
3835.000000	97.702907 
3834.000000	97.703145 
3833.000000	97.703476 
3832.000000	97.703926 
3831.000000	97.704425 
3830.000000	97.704881 
3829.000000	97.705274 
3828.000000	97.705719 
3827.000000	97.706344 
3826.000000	97.707030 
3825.000000	97.707498 
3824.000000	97.707592 
3823.000000	97.707490 
3822.000000	97.707565 
3821.000000	97.707895 
3820.000000	97.708275 
3819.000000	97.708513 
3818.000000	97.708630 
3817.000000	97.708930 
3816.000000	97.709777 
3815.000000	97.711189 
3814.000000	97.712653 
3813.000000	97.713561 
3812.000000	97.713780 
3811.000000	97.713849 
3810.000000	97.714356 
3809.000000	97.715259 
3808.000000	97.715983 
3807.000000	97.716059 
3806.000000	97.715505 
3805.000000	97.714532 
3804.000000	97.713252 
3803.000000	97.712463 
3802.000000	97.713135 
3801.000000	97.714957 
3800.000000	97.716637 
3799.000000	97.717014 
3798.000000	97.716224 
3797.000000	97.715968 
3796.000000	97.717795 
3795.000000	97.721391 
3794.000000	97.724798 
3793.000000	97.726571 
3792.000000	97.727081 
3791.000000	97.727778 
3790.000000	97.729047 
3789.000000	97.729766 
3788.000000	97.729218 
3787.000000	97.728133 
3786.000000	97.727509 
3785.000000	97.727184 
3784.000000	97.726204 
3783.000000	97.724314 
3782.000000	97.722208 
3781.000000	97.721029 
3780.000000	97.721728 
3779.000000	97.724483 
3778.000000	97.728199 
3777.000000	97.731072 
3776.000000	97.731777 
3775.000000	97.730212 
3774.000000	97.727309 
3773.000000	97.724251 
3772.000000	97.721944 
3771.000000	97.720502 
3770.000000	97.719358 
3769.000000	97.718218 
3768.000000	97.717254 
3767.000000	97.716547 
3766.000000	97.716238 
3765.000000	97.716340 
3764.000000	97.716716 
3763.000000	97.716823 
3762.000000	97.715827 
3761.000000	97.713781 
3760.000000	97.711972 
3759.000000	97.711949 
3758.000000	97.712389 
3757.000000	97.709687 
3756.000000	97.702357 
3755.000000	97.691650 
3754.000000	97.679895 
3753.000000	97.669619 
3752.000000	97.663950 
3751.000000	97.664181 
3750.000000	97.666189 
3749.000000	97.664989 
3748.000000	97.661095 
3747.000000	97.659105 
3746.000000	97.663494 
3745.000000	97.672717 
3744.000000	97.682371 
3743.000000	97.689009 
3742.000000	97.687731 
3741.000000	97.675587 
3740.000000	97.657676 
3739.000000	97.645606 
3738.000000	97.647048 
3737.000000	97.657079 
3736.000000	97.665719 
3735.000000	97.669689 
3734.000000	97.672333 
3733.000000	97.674990 
3732.000000	97.676680 
3731.000000	97.678402 
3730.000000	97.680380 
3729.000000	97.680277 
3728.000000	97.677346 
3727.000000	97.674268 
3726.000000	97.674288 
3725.000000	97.677111 
3724.000000	97.679848 
3723.000000	97.681074 
3722.000000	97.681429 
3721.000000	97.681200 
3720.000000	97.677755 
3719.000000	97.670131 
3718.000000	97.660996 
3717.000000	97.652316 
3716.000000	97.643517 
3715.000000	97.631671 
3714.000000	97.615700 
3713.000000	97.599535 
3712.000000	97.587845 
3711.000000	97.580546 
3710.000000	97.572971 
3709.000000	97.561448 
3708.000000	97.545662 
3707.000000	97.526162 
3706.000000	97.504142 
3705.000000	97.482058 
3704.000000	97.462477 
3703.000000	97.445791 
3702.000000	97.428387 
3701.000000	97.406186 
3700.000000	97.379233 
3699.000000	97.351683 
3698.000000	97.328411 
3697.000000	97.311187 
3696.000000	97.298918 
3695.000000	97.289331 
3694.000000	97.279753 
3693.000000	97.268788 
3692.000000	97.257238 
3691.000000	97.246864 
3690.000000	97.237668 
3689.000000	97.229432 
3688.000000	97.223864 
3687.000000	97.220938 
3686.000000	97.217361 
3685.000000	97.210495 
3684.000000	97.201314 
3683.000000	97.193521 
3682.000000	97.188745 
3681.000000	97.182468 
3680.000000	97.167732 
3679.000000	97.141660 
3678.000000	97.108723 
3677.000000	97.077610 
3676.000000	97.053352 
3675.000000	97.035566 
3674.000000	97.020658 
3673.000000	97.004624 
3672.000000	96.986641 
3671.000000	96.971468 
3670.000000	96.962653 
3669.000000	96.957053 
3668.000000	96.948740 
3667.000000	96.935241 
3666.000000	96.919347 
3665.000000	96.904945 
3664.000000	96.892473 
3663.000000	96.879911 
3662.000000	96.865246 
3661.000000	96.847261 
3660.000000	96.826264 
3659.000000	96.803785 
3658.000000	96.782756 
3657.000000	96.764951 
3656.000000	96.749289 
3655.000000	96.734112 
3654.000000	96.717568 
3653.000000	96.698122 
3652.000000	96.675374 
3651.000000	96.650708 
3650.000000	96.626355 
3649.000000	96.604984 
3648.000000	96.590012 
3647.000000	96.583305 
3646.000000	96.583995 
3645.000000	96.589402 
3644.000000	96.596230 
3643.000000	96.601727 
3642.000000	96.603727 
3641.000000	96.600609 
3640.000000	96.592398 
3639.000000	96.580096 
3638.000000	96.565202 
3637.000000	96.548950 
3636.000000	96.531885 
3635.000000	96.513523 
3634.000000	96.492977 
3633.000000	96.470779 
3632.000000	96.448293 
3631.000000	96.426121 
3630.000000	96.403223 
3629.000000	96.377975 
3628.000000	96.352900 
3627.000000	96.333742 
3626.000000	96.321562 
3625.000000	96.314618 
3624.000000	96.311898 
3623.000000	96.311926 
3622.000000	96.312155 
3621.000000	96.310598 
3620.000000	96.306939 
3619.000000	96.302686 
3618.000000	96.300642 
3617.000000	96.303838 
3616.000000	96.315104 
3615.000000	96.335381 
3614.000000	96.361022 
3613.000000	96.385164 
3612.000000	96.402667 
3611.000000	96.412717 
3610.000000	96.418569 
3609.000000	96.425258 
3608.000000	96.435377 
3607.000000	96.447941 
3606.000000	96.460805 
3605.000000	96.474134 
3604.000000	96.490528 
3603.000000	96.511055 
3602.000000	96.532408 
3601.000000	96.548508 
3600.000000	96.555618 
3599.000000	96.555779 
3598.000000	96.555187 
3597.000000	96.559017 
3596.000000	96.568815 
3595.000000	96.581264 
3594.000000	96.590551 
3593.000000	96.593727 
3592.000000	96.591821 
3591.000000	96.587499 
3590.000000	96.583836 
3589.000000	96.583414 
3588.000000	96.586528 
3587.000000	96.590948 
3586.000000	96.594958 
3585.000000	96.599328 
3584.000000	96.606550 
3583.000000	96.618023 
3582.000000	96.632400 
3581.000000	96.645306 
3580.000000	96.652125 
3579.000000	96.651507 
3578.000000	96.646469 
3577.000000	96.642129 
3576.000000	96.641545 
3575.000000	96.643975 
3574.000000	96.646040 
3573.000000	96.644886 
3572.000000	96.639719 
3571.000000	96.631296 
3570.000000	96.621344 
3569.000000	96.612613 
3568.000000	96.607890 
3567.000000	96.607810 
3566.000000	96.610367 
3565.000000	96.613227 
3564.000000	96.615742 
3563.000000	96.618842 
3562.000000	96.623115 
3561.000000	96.627666 
3560.000000	96.630698 
3559.000000	96.631124 
3558.000000	96.629535 
3557.000000	96.627727 
3556.000000	96.627215 
3555.000000	96.628224 
3554.000000	96.629826 
3553.000000	96.630570 
3552.000000	96.629487 
3551.000000	96.626599 
3550.000000	96.622927 
3549.000000	96.620129 
3548.000000	96.619506 
3547.000000	96.620591 
3546.000000	96.621321 
3545.000000	96.620285 
3544.000000	96.618487 
3543.000000	96.617954 
3542.000000	96.619222 
3541.000000	96.621100 
3540.000000	96.622343 
3539.000000	96.622646 
3538.000000	96.622256 
3537.000000	96.621317 
3536.000000	96.619971 
3535.000000	96.618458 
3534.000000	96.617037 
3533.000000	96.615942 
3532.000000	96.615345 
3531.000000	96.615272 
3530.000000	96.615442 
3529.000000	96.615297 
3528.000000	96.614363 
3527.000000	96.612617 
3526.000000	96.610554 
3525.000000	96.608853 
3524.000000	96.607918 
3523.000000	96.607733 
3522.000000	96.607978 
3521.000000	96.608299 
3520.000000	96.608580 
3519.000000	96.608828 
3518.000000	96.608867 
3517.000000	96.608266 
3516.000000	96.606758 
3515.000000	96.604649 
3514.000000	96.602694 
3513.000000	96.601458 
3512.000000	96.600829 
3511.000000	96.600142 
3510.000000	96.598801 
3509.000000	96.596827 
3508.000000	96.594795 
3507.000000	96.593241 
3506.000000	96.592213 
3505.000000	96.591316 
3504.000000	96.590098 
3503.000000	96.588362 
3502.000000	96.586268 
3501.000000	96.584214 
3500.000000	96.582610 
3499.000000	96.581626 
3498.000000	96.581052 
3497.000000	96.580439 
3496.000000	96.579401 
3495.000000	96.577844 
3494.000000	96.575940 
3493.000000	96.573914 
3492.000000	96.571835 
3491.000000	96.569551 
3490.000000	96.566966 
3489.000000	96.564265 
3488.000000	96.561613 
3487.000000	96.558752 
3486.000000	96.555319 
3485.000000	96.551591 
3484.000000	96.548476 
3483.000000	96.546576 
3482.000000	96.545576 
3481.000000	96.544703 
3480.000000	96.543539 
3479.000000	96.542062 
3478.000000	96.540134 
3477.000000	96.537441 
3476.000000	96.533858 
3475.000000	96.529686 
3474.000000	96.525536 
3473.000000	96.522030 
3472.000000	96.519430 
3471.000000	96.517395 
3470.000000	96.515148 
3469.000000	96.512177 
3468.000000	96.508714 
3467.000000	96.505456 
3466.000000	96.502876 
3465.000000	96.500846 
3464.000000	96.498807 
3463.000000	96.496197 
3462.000000	96.492827 
3461.000000	96.488982 
3460.000000	96.485175 
3459.000000	96.481643 
3458.000000	96.478129 
3457.000000	96.474220 
3456.000000	96.469920 
3455.000000	96.465765 
3454.000000	96.462343 
3453.000000	96.459775 
3452.000000	96.457689 
3451.000000	96.455579 
3450.000000	96.453124 
3449.000000	96.450199 
3448.000000	96.446721 
3447.000000	96.442670 
3446.000000	96.438248 
3445.000000	96.433959 
3444.000000	96.430363 
3443.000000	96.427687 
3442.000000	96.425639 
3441.000000	96.423578 
3440.000000	96.421009 
3439.000000	96.417861 
3438.000000	96.414347 
3437.000000	96.410687 
3436.000000	96.407084 
3435.000000	96.403833 
3434.000000	96.401246 
3433.000000	96.399342 
3432.000000	96.397746 
3431.000000	96.396028 
3430.000000	96.394024 
3429.000000	96.391772 
3428.000000	96.389234 
3427.000000	96.386298 
3426.000000	96.383100 
3425.000000	96.380155 
3424.000000	96.377903 
3423.000000	96.376167 
3422.000000	96.374208 
3421.000000	96.371492 
3420.000000	96.368259 
3419.000000	96.365254 
3418.000000	96.362967 
3417.000000	96.361374 
3416.000000	96.360257 
3415.000000	96.359382 
3414.000000	96.358334 
3413.000000	96.356527 
3412.000000	96.353701 
3411.000000	96.350353 
3410.000000	96.347454 
3409.000000	96.345647 
3408.000000	96.344806 
3407.000000	96.344260 
3406.000000	96.343389 
3405.000000	96.342094 
3404.000000	96.340722 
3403.000000	96.339523 
3402.000000	96.338322 
3401.000000	96.336858 
3400.000000	96.335329 
3399.000000	96.334256 
3398.000000	96.333775 
3397.000000	96.333430 
3396.000000	96.332785 
3395.000000	96.331953 
3394.000000	96.331236 
3393.000000	96.330527 
3392.000000	96.329394 
3391.000000	96.327672 
3390.000000	96.325742 
3389.000000	96.324238 
3388.000000	96.323693 
3387.000000	96.324360 
3386.000000	96.326035 
3385.000000	96.327854 
3384.000000	96.328643 
3383.000000	96.327839 
3382.000000	96.326114 
3381.000000	96.324852 
3380.000000	96.324730 
3379.000000	96.325135 
3378.000000	96.325205 
3377.000000	96.325218 
3376.000000	96.326258 
3375.000000	96.328511 
3374.000000	96.330575 
3373.000000	96.330931 
3372.000000	96.329692 
3371.000000	96.328460 
3370.000000	96.328577 
3369.000000	96.329944 
3368.000000	96.331564 
3367.000000	96.332685 
3366.000000	96.333177 
3365.000000	96.333175 
3364.000000	96.332821 
3363.000000	96.332346 
3362.000000	96.332127 
3361.000000	96.332529 
3360.000000	96.333736 
3359.000000	96.335659 
3358.000000	96.337928 
3357.000000	96.340025 
3356.000000	96.341606 
3355.000000	96.342789 
3354.000000	96.344146 
3353.000000	96.346343 
3352.000000	96.349632 
3351.000000	96.353599 
3350.000000	96.357362 
3349.000000	96.360113 
3348.000000	96.361642 
3347.000000	96.362422 
3346.000000	96.363193 
3345.000000	96.364311 
3344.000000	96.365448 
3343.000000	96.366051 
3342.000000	96.366142 
3341.000000	96.366537 
3340.000000	96.367941 
3339.000000	96.369932 
3338.000000	96.371342 
3337.000000	96.371612 
3336.000000	96.371383 
3335.000000	96.371619 
3334.000000	96.372566 
3333.000000	96.373776 
3332.000000	96.374878 
3331.000000	96.375999 
3330.000000	96.377432 
3329.000000	96.379192 
3328.000000	96.381057 
3327.000000	96.382888 
3326.000000	96.384722 
3325.000000	96.386584 
3324.000000	96.388345 
3323.000000	96.389844 
3322.000000	96.391100 
3321.000000	96.392323 
3320.000000	96.393711 
3319.000000	96.395279 
3318.000000	96.396903 
3317.000000	96.398454 
3316.000000	96.399888 
3315.000000	96.401229 
3314.000000	96.402538 
3313.000000	96.403867 
3312.000000	96.405240 
3311.000000	96.406649 
3310.000000	96.408076 
3309.000000	96.409505 
3308.000000	96.410911 
3307.000000	96.412257 
3306.000000	96.413536 
3305.000000	96.414786 
3304.000000	96.416057 
3303.000000	96.417377 
3302.000000	96.418748 
3301.000000	96.420153 
3300.000000	96.421570 
3299.000000	96.422968 
3298.000000	96.424332 
3297.000000	96.425664 
3296.000000	96.426997 
3295.000000	96.428371 
3294.000000	96.429806 
3293.000000	96.431292 
3292.000000	96.432796 
3291.000000	96.434282 
3290.000000	96.435729 
3289.000000	96.437126 
3288.000000	96.438475 
3287.000000	96.439788 
3286.000000	96.441078 
3285.000000	96.442347 
3284.000000	96.443588 
3283.000000	96.444804 
3282.000000	96.446028 
3281.000000	96.447311 
3280.000000	96.448670 
3279.000000	96.450044 
3278.000000	96.451355 
3277.000000	96.452615 
3276.000000	96.453916 
3275.000000	96.455304 
3274.000000	96.456718 
3273.000000	96.458107 
3272.000000	96.459524 
3271.000000	96.461056 
3270.000000	96.462697 
3269.000000	96.464336 
3268.000000	96.465857 
3267.000000	96.467234 
3266.000000	96.468545 
3265.000000	96.469938 
3264.000000	96.471518 
3263.000000	96.473274 
3262.000000	96.475060 
3261.000000	96.476716 
3260.000000	96.478184 
3259.000000	96.479508 
3258.000000	96.480759 
3257.000000	96.482031 
3256.000000	96.483461 
3255.000000	96.485120 
3254.000000	96.486874 
3253.000000	96.488511 
3252.000000	96.490015 
3251.000000	96.491596 
3250.000000	96.493399 
3249.000000	96.495295 
3248.000000	96.497011 
3247.000000	96.498437 
3246.000000	96.499713 
3245.000000	96.501087 
3244.000000	96.502692 
3243.000000	96.504471 
3242.000000	96.506255 
3241.000000	96.507908 
3240.000000	96.509443 
3239.000000	96.511037 
3238.000000	96.512954 
3237.000000	96.515391 
3236.000000	96.518327 
3235.000000	96.521431 
3234.000000	96.524170 
3233.000000	96.526167 
3232.000000	96.527469 
3231.000000	96.528553 
3230.000000	96.529935 
3229.000000	96.531744 
3228.000000	96.533774 
3227.000000	96.535887 
3226.000000	96.538286 
3225.000000	96.541240 
3224.000000	96.544604 
3223.000000	96.547831 
3222.000000	96.550487 
3221.000000	96.552634 
3220.000000	96.554590 
3219.000000	96.556434 
3218.000000	96.557987 
3217.000000	96.559227 
3216.000000	96.560465 
3215.000000	96.562095 
3214.000000	96.564334 
3213.000000	96.567164 
3212.000000	96.570326 
3211.000000	96.573401 
3210.000000	96.576098 
3209.000000	96.578507 
3208.000000	96.580968 
3207.000000	96.583656 
3206.000000	96.586446 
3205.000000	96.589242 
3204.000000	96.592210 
3203.000000	96.595596 
3202.000000	96.599389 
3201.000000	96.603263 
3200.000000	96.606871 
3199.000000	96.610207 
3198.000000	96.613610 
3197.000000	96.617303 
3196.000000	96.620953 
3195.000000	96.623944 
3194.000000	96.626188 
3193.000000	96.628436 
3192.000000	96.631527 
3191.000000	96.635423 
3190.000000	96.639227 
3189.000000	96.642169 
3188.000000	96.644336 
3187.000000	96.646484 
3186.000000	96.649304 
3185.000000	96.652922 
3184.000000	96.656911 
3183.000000	96.660703 
3182.000000	96.664101 
3181.000000	96.667272 
3180.000000	96.670364 
3179.000000	96.673352 
3178.000000	96.676311 
3177.000000	96.679559 
3176.000000	96.683336 
3175.000000	96.687539 
3174.000000	96.691923 
3173.000000	96.696362 
3172.000000	96.700722 
3171.000000	96.704694 
3170.000000	96.708053 
3169.000000	96.710993 
3168.000000	96.713997 
3167.000000	96.717329 
3166.000000	96.720852 
3165.000000	96.724319 
3164.000000	96.727631 
3163.000000	96.730796 
3162.000000	96.733848 
3161.000000	96.736870 
3160.000000	96.739994 
3159.000000	96.743302 
3158.000000	96.746799 
3157.000000	96.750459 
3156.000000	96.754237 
3155.000000	96.758006 
3154.000000	96.761614 
3153.000000	96.765038 
3152.000000	96.768398 
3151.000000	96.771783 
3150.000000	96.775134 
3149.000000	96.778351 
3148.000000	96.781462 
3147.000000	96.784636 
3146.000000	96.788054 
3145.000000	96.791768 
3144.000000	96.795665 
3143.000000	96.799495 
3142.000000	96.803044 
3141.000000	96.806278 
3140.000000	96.809344 
3139.000000	96.812467 
3138.000000	96.815758 
3137.000000	96.819181 
3136.000000	96.822618 
3135.000000	96.825943 
3134.000000	96.829090 
3133.000000	96.832099 
3132.000000	96.835087 
3131.000000	96.838137 
3130.000000	96.841267 
3129.000000	96.844529 
3128.000000	96.848046 
3127.000000	96.851881 
3126.000000	96.855940 
3125.000000	96.860045 
3124.000000	96.864021 
3123.000000	96.867686 
3122.000000	96.870914 
3121.000000	96.873803 
3120.000000	96.876669 
3119.000000	96.879729 
3118.000000	96.882920 
3117.000000	96.886131 
3116.000000	96.889428 
3115.000000	96.892887 
3114.000000	96.896356 
3113.000000	96.899652 
3112.000000	96.902967 
3111.000000	96.906793 
3110.000000	96.911303 
3109.000000	96.915989 
3108.000000	96.920134 
3107.000000	96.923602 
3106.000000	96.926857 
3105.000000	96.930161 
3104.000000	96.932994 
3103.000000	96.934631 
3102.000000	96.935173 
3101.000000	96.935592 
3100.000000	96.936679 
3099.000000	96.938467 
3098.000000	96.940913 
3097.000000	96.944595 
3096.000000	96.950029 
3095.000000	96.956507 
3094.000000	96.962461 
3093.000000	96.967058 
3092.000000	96.970790 
3091.000000	96.974296 
3090.000000	96.977333 
3089.000000	96.979371 
3088.000000	96.980657 
3087.000000	96.982280 
3086.000000	96.985287 
3085.000000	96.989739 
3084.000000	96.994302 
3083.000000	96.996956 
3082.000000	96.996936 
3081.000000	96.996080 
3080.000000	96.997298 
3079.000000	97.001386 
3078.000000	97.006504 
3077.000000	97.010996 
3076.000000	97.015222 
3075.000000	97.019808 
3074.000000	97.023857 
3073.000000	97.026385 
3072.000000	97.028227 
3071.000000	97.030717 
3070.000000	97.033291 
3069.000000	97.034382 
3068.000000	97.034305 
3067.000000	97.035252 
3066.000000	97.038267 
3065.000000	97.041868 
3064.000000	97.043957 
3063.000000	97.043728 
3062.000000	97.041478 
3061.000000	97.038034 
3060.000000	97.034932 
3059.000000	97.034120 
3058.000000	97.036844 
3057.000000	97.042912 
3056.000000	97.050567 
3055.000000	97.056445 
3054.000000	97.056782 
3053.000000	97.050719 
3052.000000	97.042557 
3051.000000	97.038816 
3050.000000	97.041988 
3049.000000	97.048291 
3048.000000	97.051984 
3047.000000	97.050560 
3046.000000	97.045146 
3045.000000	97.037941 
3044.000000	97.031092 
3043.000000	97.027081 
3042.000000	97.027645 
3041.000000	97.031424 
3040.000000	97.033930 
3039.000000	97.031115 
3038.000000	97.022922 
3037.000000	97.012748 
3036.000000	97.003424 
3035.000000	96.994381 
3034.000000	96.983253 
3033.000000	96.969393 
3032.000000	96.954739 
3031.000000	96.941667 
3030.000000	96.931066 
3029.000000	96.922299 
3028.000000	96.913476 
3027.000000	96.901466 
3026.000000	96.883576 
3025.000000	96.860670 
3024.000000	96.837548 
3023.000000	96.818571 
3022.000000	96.803466 
3021.000000	96.788923 
3020.000000	96.773301 
3019.000000	96.757639 
3018.000000	96.742206 
3017.000000	96.724568 
3016.000000	96.702271 
3015.000000	96.676044 
3014.000000	96.649311 
3013.000000	96.625108 
3012.000000	96.603802 
3011.000000	96.583013 
3010.000000	96.559422 
3009.000000	96.531528 
3008.000000	96.501028 
3007.000000	96.470992 
3006.000000	96.442666 
3005.000000	96.414965 
3004.000000	96.387039 
3003.000000	96.359974 
3002.000000	96.335441 
3001.000000	96.313809 
3000.000000	96.294154 
2999.000000	96.275147 
2998.000000	96.255474 
2997.000000	96.234646 
2996.000000	96.213932 
2995.000000	96.194782 
2994.000000	96.174916 
2993.000000	96.147558 
2992.000000	96.107449 
2991.000000	96.058283 
2990.000000	96.012479 
2989.000000	95.982403 
2988.000000	95.972198 
2987.000000	95.977472 
2986.000000	95.990755 
2985.000000	96.006423 
2984.000000	96.021466 
2983.000000	96.034005 
2982.000000	96.042741 
2981.000000	96.047484 
2980.000000	96.048978 
2979.000000	96.047676 
2978.000000	96.043246 
2977.000000	96.035730 
2976.000000	96.026742 
2975.000000	96.018814 
2974.000000	96.013776 
2973.000000	96.012431 
2972.000000	96.015495 
2971.000000	96.023690 
2970.000000	96.036618 
2969.000000	96.052588 
2968.000000	96.070142 
2967.000000	96.089000 
2966.000000	96.108909 
2965.000000	96.128484 
2964.000000	96.146240 
2963.000000	96.162251 
2962.000000	96.177760 
2961.000000	96.193398 
2960.000000	96.208901 
2959.000000	96.224531 
2958.000000	96.241521 
2957.000000	96.260437 
2956.000000	96.279688 
2955.000000	96.296445 
2954.000000	96.309255 
2953.000000	96.319761 
2952.000000	96.331722 
2951.000000	96.347728 
2950.000000	96.366257 
2949.000000	96.382248 
2948.000000	96.391329 
2947.000000	96.393480 
2946.000000	96.392525 
2945.000000	96.392515 
2944.000000	96.394998 
2943.000000	96.399421 
2942.000000	96.404467 
2941.000000	96.408251 
2940.000000	96.408834 
2939.000000	96.406059 
2938.000000	96.402198 
2937.000000	96.399655 
2936.000000	96.398311 
2935.000000	96.395895 
2934.000000	96.390588 
2933.000000	96.382377 
2932.000000	96.372393 
2931.000000	96.362229 
2930.000000	96.353899 
2929.000000	96.349074 
2928.000000	96.347558 
2927.000000	96.347137 
2926.000000	96.345628 
2925.000000	96.342997 
2924.000000	96.341181 
2923.000000	96.342118 
2922.000000	96.346127 
2921.000000	96.351901 
2920.000000	96.357841 
2919.000000	96.363435 
2918.000000	96.369111 
2917.000000	96.374397 
2916.000000	96.376756 
2915.000000	96.373457 
2914.000000	96.365028 
2913.000000	96.355859 
2912.000000	96.350472 
2911.000000	96.349508 
2910.000000	96.350090 
2909.000000	96.349727 
2908.000000	96.348861 
2907.000000	96.349150 
2906.000000	96.349881 
2905.000000	96.346931 
2904.000000	96.336382 
2903.000000	96.319792 
2902.000000	96.306347 
2901.000000	96.306718 
2900.000000	96.324781 
2899.000000	96.354760 
2898.000000	96.385760 
2897.000000	96.409972 
2896.000000	96.425848 
2895.000000	96.435297 
2894.000000	96.440999 
2893.000000	96.446465 
2892.000000	96.455397 
2891.000000	96.468617 
2890.000000	96.482755 
2889.000000	96.493784 
2888.000000	96.501212 
2887.000000	96.507295 
2886.000000	96.513124 
2885.000000	96.518075 
2884.000000	96.523246 
2883.000000	96.532587 
2882.000000	96.548897 
2881.000000	96.570260 
2880.000000	96.592150 
2879.000000	96.612375 
2878.000000	96.631972 
2877.000000	96.651676 
2876.000000	96.669802 
2875.000000	96.684399 
2874.000000	96.695855 
2873.000000	96.706160 
2872.000000	96.716508 
2871.000000	96.726767 
2870.000000	96.736840 
2869.000000	96.747317 
2868.000000	96.758835 
2867.000000	96.771638 
2866.000000	96.785749 
2865.000000	96.800849 
2864.000000	96.816096 
2863.000000	96.831053 
2862.000000	96.846715 
2861.000000	96.864422 
2860.000000	96.883475 
2859.000000	96.901203 
2858.000000	96.916228 
2857.000000	96.930591 
2856.000000	96.947327 
2855.000000	96.966553 
2854.000000	96.985349 
2853.000000	97.001246 
2852.000000	97.014550 
2851.000000	97.027291 
2850.000000	97.041113 
2849.000000	97.056523 
2848.000000	97.073170 
2847.000000	97.090072 
2846.000000	97.105876 
2845.000000	97.119596 
2844.000000	97.131368 
2843.000000	97.142495 
2842.000000	97.154546 
2841.000000	97.167876 
2840.000000	97.180811 
2839.000000	97.190974 
2838.000000	97.197885 
2837.000000	97.203754 
2836.000000	97.211188 
2835.000000	97.220601 
2834.000000	97.230683 
2833.000000	97.240815 
2832.000000	97.251565 
2831.000000	97.262668 
2830.000000	97.271938 
2829.000000	97.277046 
2828.000000	97.277948 
2827.000000	97.277253 
2826.000000	97.278551 
2825.000000	97.284185 
2824.000000	97.293686 
2823.000000	97.303847 
2822.000000	97.311023 
2821.000000	97.314008 
2820.000000	97.314504 
2819.000000	97.314766 
2818.000000	97.315519 
2817.000000	97.316614 
2816.000000	97.318690 
2815.000000	97.322885 
2814.000000	97.328916 
2813.000000	97.334449 
2812.000000	97.336986 
2811.000000	97.336219 
2810.000000	97.334416 
2809.000000	97.334521 
2808.000000	97.337863 
2807.000000	97.343641 
2806.000000	97.350308 
2805.000000	97.356926 
2804.000000	97.362962 
2803.000000	97.367481 
2802.000000	97.369689 
2801.000000	97.370341 
2800.000000	97.371572 
2799.000000	97.374675 
2798.000000	97.378602 
2797.000000	97.381235 
2796.000000	97.381724 
2795.000000	97.381029 
2794.000000	97.380641 
2793.000000	97.381446 
2792.000000	97.383659 
2791.000000	97.386963 
2790.000000	97.390467 
2789.000000	97.393108 
2788.000000	97.394560 
2787.000000	97.395590 
2786.000000	97.397297 
2785.000000	97.400042 
2784.000000	97.403208 
2783.000000	97.405879 
2782.000000	97.407680 
2781.000000	97.409015 
2780.000000	97.410561 
2779.000000	97.412624 
2778.000000	97.415018 
2777.000000	97.417375 
2776.000000	97.419472 
2775.000000	97.421334 
2774.000000	97.423125 
2773.000000	97.424970 
2772.000000	97.426851 
2771.000000	97.428688 
2770.000000	97.430484 
2769.000000	97.432337 
2768.000000	97.434312 
2767.000000	97.436344 
2766.000000	97.438284 
2765.000000	97.440064 
2764.000000	97.441749 
2763.000000	97.443421 
2762.000000	97.445078 
2761.000000	97.446686 
2760.000000	97.448269 
2759.000000	97.449892 
2758.000000	97.451591 
2757.000000	97.453307 
2756.000000	97.454930 
2755.000000	97.456421 
2754.000000	97.457864 
2753.000000	97.459399 
2752.000000	97.461075 
2751.000000	97.462795 
2750.000000	97.464430 
2749.000000	97.465990 
2748.000000	97.467561 
2747.000000	97.469091 
2746.000000	97.470428 
2745.000000	97.471568 
2744.000000	97.472713 
2743.000000	97.474034 
2742.000000	97.475494 
2741.000000	97.476939 
2740.000000	97.478305 
2739.000000	97.479644 
2738.000000	97.480980 
2737.000000	97.482274 
2736.000000	97.483513 
2735.000000	97.484764 
2734.000000	97.486105 
2733.000000	97.487546 
2732.000000	97.489040 
2731.000000	97.490535 
2730.000000	97.492020 
2729.000000	97.493503 
2728.000000	97.494967 
2727.000000	97.496356 
2726.000000	97.497628 
2725.000000	97.498813 
2724.000000	97.499997 
2723.000000	97.501234 
2722.000000	97.502506 
2721.000000	97.503773 
2720.000000	97.505025 
2719.000000	97.506277 
2718.000000	97.507538 
2717.000000	97.508794 
2716.000000	97.510029 
2715.000000	97.511244 
2714.000000	97.512457 
2713.000000	97.513697 
2712.000000	97.514961 
2711.000000	97.516212 
2710.000000	97.517411 
2709.000000	97.518561 
2708.000000	97.519708 
2707.000000	97.520890 
2706.000000	97.522115 
2705.000000	97.523362 
2704.000000	97.524586 
2703.000000	97.525720 
2702.000000	97.526718 
2701.000000	97.527640 
2700.000000	97.528658 
2699.000000	97.529920 
2698.000000	97.531422 
2697.000000	97.532927 
2696.000000	97.534144 
2695.000000	97.534978 
2694.000000	97.535604 
2693.000000	97.536311 
2692.000000	97.537202 
2691.000000	97.538136 
2690.000000	97.538923 
2689.000000	97.539514 
2688.000000	97.539989 
2687.000000	97.540444 
2686.000000	97.540945 
2685.000000	97.541577 
2684.000000	97.542386 
2683.000000	97.543263 
2682.000000	97.543998 
2681.000000	97.544514 
2680.000000	97.544954 
2679.000000	97.545522 
2678.000000	97.546316 
2677.000000	97.547370 
2676.000000	97.548637 
2675.000000	97.549824 
2674.000000	97.550479 
2673.000000	97.550459 
2672.000000	97.550155 
2671.000000	97.550011 
2670.000000	97.549991 
2669.000000	97.549844 
2668.000000	97.549660 
2667.000000	97.549765 
2666.000000	97.550141 
2665.000000	97.550349 
2664.000000	97.550143 
2663.000000	97.549842 
2662.000000	97.549913 
2661.000000	97.550367 
2660.000000	97.550781 
2659.000000	97.550816 
2658.000000	97.550527 
2657.000000	97.550205 
2656.000000	97.550073 
2655.000000	97.550124 
2654.000000	97.550162 
2653.000000	97.549976 
2652.000000	97.549574 
2651.000000	97.549243 
2650.000000	97.549314 
2649.000000	97.549853 
2648.000000	97.550592 
2647.000000	97.551134 
2646.000000	97.551201 
2645.000000	97.550683 
2644.000000	97.549637 
2643.000000	97.548381 
2642.000000	97.547433 
2641.000000	97.547127 
2640.000000	97.547335 
2639.000000	97.547639 
2638.000000	97.547824 
2637.000000	97.548021 
2636.000000	97.548367 
2635.000000	97.548807 
2634.000000	97.549257 
2633.000000	97.549719 
2632.000000	97.550117 
2631.000000	97.550205 
2630.000000	97.549833 
2629.000000	97.549192 
2628.000000	97.548665 
2627.000000	97.548440 
2626.000000	97.548431 
2625.000000	97.548546 
2624.000000	97.548832 
2623.000000	97.549303 
2622.000000	97.549772 
2621.000000	97.549946 
2620.000000	97.549641 
2619.000000	97.548877 
2618.000000	97.547916 
2617.000000	97.547210 
2616.000000	97.547115 
2615.000000	97.547626 
2614.000000	97.548424 
2613.000000	97.549198 
2612.000000	97.549857 
2611.000000	97.550427 
2610.000000	97.550916 
2609.000000	97.551300 
2608.000000	97.551516 
2607.000000	97.551462 
2606.000000	97.551160 
2605.000000	97.550861 
2604.000000	97.550795 
2603.000000	97.550866 
2602.000000	97.550849 
2601.000000	97.550844 
2600.000000	97.551157 
2599.000000	97.551667 
2598.000000	97.551780 
2597.000000	97.551215 
2596.000000	97.550403 
2595.000000	97.549912 
2594.000000	97.549732 
2593.000000	97.549574 
2592.000000	97.549608 
2591.000000	97.550221 
2590.000000	97.551153 
2589.000000	97.551567 
2588.000000	97.551206 
2587.000000	97.550877 
2586.000000	97.551463 
2585.000000	97.552949 
2584.000000	97.554585 
2583.000000	97.555657 
2582.000000	97.555926 
2581.000000	97.555620 
2580.000000	97.555334 
2579.000000	97.555711 
2578.000000	97.556961 
2577.000000	97.558663 
2576.000000	97.560069 
2575.000000	97.560593 
2574.000000	97.560093 
2573.000000	97.558952 
2572.000000	97.557850 
2571.000000	97.557158 
2570.000000	97.556629 
2569.000000	97.555925 
2568.000000	97.555323 
2567.000000	97.555428 
2566.000000	97.556265 
2565.000000	97.557178 
2564.000000	97.557693 
2563.000000	97.557964 
2562.000000	97.558258 
2561.000000	97.558638 
2560.000000	97.559403 
2559.000000	97.561194 
2558.000000	97.564134 
2557.000000	97.567219 
2556.000000	97.569208 
2555.000000	97.569898 
2554.000000	97.570015 
2553.000000	97.570051 
2552.000000	97.569835 
2551.000000	97.569439 
2550.000000	97.569577 
2549.000000	97.570566 
2548.000000	97.571446 
2547.000000	97.570980 
2546.000000	97.569296 
2545.000000	97.567893 
2544.000000	97.567817 
2543.000000	97.568531 
2542.000000	97.568888 
2541.000000	97.568748 
2540.000000	97.568942 
2539.000000	97.569881 
2538.000000	97.570971 
2537.000000	97.571556 
2536.000000	97.571838 
2535.000000	97.572435 
2534.000000	97.573372 
2533.000000	97.574002 
2532.000000	97.573891 
2531.000000	97.573312 
2530.000000	97.572784 
2529.000000	97.572442 
2528.000000	97.572096 
2527.000000	97.571772 
2526.000000	97.571873 
2525.000000	97.572731 
2524.000000	97.574196 
2523.000000	97.575718 
2522.000000	97.576775 
2521.000000	97.577195 
2520.000000	97.577135 
2519.000000	97.576912 
2518.000000	97.576804 
2517.000000	97.576840 
2516.000000	97.576727 
2515.000000	97.576140 
2514.000000	97.575215 
2513.000000	97.574658 
2512.000000	97.575077 
2511.000000	97.576403 
2510.000000	97.578048 
2509.000000	97.579481 
2508.000000	97.580515 
2507.000000	97.581123 
2506.000000	97.581403 
2505.000000	97.581745 
2504.000000	97.582647 
2503.000000	97.584130 
2502.000000	97.585514 
2501.000000	97.586086 
2500.000000	97.585856 
2499.000000	97.585456 
2498.000000	97.585429 
2497.000000	97.585764 
2496.000000	97.586200 
2495.000000	97.586645 
2494.000000	97.587138 
2493.000000	97.587607 
2492.000000	97.587961 
2491.000000	97.588401 
2490.000000	97.589325 
2489.000000	97.590791 
2488.000000	97.592219 
2487.000000	97.592913 
2486.000000	97.592825 
2485.000000	97.592629 
2484.000000	97.593026 
2483.000000	97.594100 
2482.000000	97.595412 
2481.000000	97.596483 
2480.000000	97.597072 
2479.000000	97.597174 
2478.000000	97.597075 
2477.000000	97.597269 
2476.000000	97.597964 
2475.000000	97.598731 
2474.000000	97.598953 
2473.000000	97.598549 
2472.000000	97.597910 
2471.000000	97.597189 
2470.000000	97.596171 
2469.000000	97.594942 
2468.000000	97.594128 
2467.000000	97.594135 
2466.000000	97.594576 
2465.000000	97.594765 
2464.000000	97.594679 
2463.000000	97.595138 
2462.000000	97.597064 
2461.000000	97.600641 
2460.000000	97.604993 
2459.000000	97.608634 
2458.000000	97.610423 
2457.000000	97.610163 
2456.000000	97.608343 
2455.000000	97.605676 
2454.000000	97.603035 
2453.000000	97.601293 
2452.000000	97.600711 
2451.000000	97.600724 
2450.000000	97.600813 
2449.000000	97.601330 
2448.000000	97.602788 
2447.000000	97.604595 
2446.000000	97.605384 
2445.000000	97.604639 
2444.000000	97.603214 
2443.000000	97.602173 
2442.000000	97.601820 
2441.000000	97.602033 
2440.000000	97.602756 
2439.000000	97.603951 
2438.000000	97.605632 
2437.000000	97.608063 
2436.000000	97.611308 
2435.000000	97.614533 
2434.000000	97.616489 
2433.000000	97.616846 
2432.000000	97.616520 
2431.000000	97.616600 
2430.000000	97.617450 
2429.000000	97.618923 
2428.000000	97.620699 
2427.000000	97.622157 
2426.000000	97.622593 
2425.000000	97.621897 
2424.000000	97.620706 
2423.000000	97.619761 
2422.000000	97.619465 
2421.000000	97.620082 
2420.000000	97.621737 
2419.000000	97.624042 
2418.000000	97.626206 
2417.000000	97.627868 
2416.000000	97.629291 
2415.000000	97.630613 
2414.000000	97.631528 
2413.000000	97.631923 
2412.000000	97.632251 
2411.000000	97.632923 
2410.000000	97.633777 
2409.000000	97.634548 
2408.000000	97.635415 
2407.000000	97.636643 
2406.000000	97.638035 
2405.000000	97.639129 
2404.000000	97.639756 
2403.000000	97.640120 
2402.000000	97.640545 
2401.000000	97.641285 
2400.000000	97.642438 
2399.000000	97.643892 
2398.000000	97.645412 
2397.000000	97.646880 
2396.000000	97.648357 
2395.000000	97.649808 
2394.000000	97.650904 
2393.000000	97.651488 
2392.000000	97.651850 
2391.000000	97.652451 
2390.000000	97.653336 
2389.000000	97.654228 
2388.000000	97.654977 
2387.000000	97.655646 
2386.000000	97.656310 
2385.000000	97.656966 
2384.000000	97.657587 
2383.000000	97.658156 
2382.000000	97.658669 
2381.000000	97.659143 
2380.000000	97.659612 
2379.000000	97.660086 
2378.000000	97.660537 
2377.000000	97.660929 
2376.000000	97.661259 
2375.000000	97.661545 
2374.000000	97.661800 
2373.000000	97.662020 
2372.000000	97.662201 
2371.000000	97.662349 
2370.000000	97.662468 
2369.000000	97.662551 
2368.000000	97.662582 
2367.000000	97.662552 
2366.000000	97.662465 
2365.000000	97.662344 
2364.000000	97.662212 
2363.000000	97.662081 
2362.000000	97.661951 
2361.000000	97.661813 
2360.000000	97.661651 
2359.000000	97.661448 
2358.000000	97.661185 
2357.000000	97.660854 
2356.000000	97.660454 
2355.000000	97.659997 
2354.000000	97.659499 
2353.000000	97.658986 
2352.000000	97.658489 
2351.000000	97.658023 
2350.000000	97.657577 
2349.000000	97.657127 
2348.000000	97.656665 
2347.000000	97.656218 
2346.000000	97.655822 
2345.000000	97.655494 
2344.000000	97.655224 
2343.000000	97.654986 
2342.000000	97.654765 
2341.000000	97.654557 
2340.000000	97.654359 
2339.000000	97.654161 
2338.000000	97.653947 
2337.000000	97.653703 
2336.000000	97.653423 
2335.000000	97.653120 
2334.000000	97.652802 
2333.000000	97.652450 
2332.000000	97.652060 
2331.000000	97.651702 
2330.000000	97.651415 
2329.000000	97.651109 
2328.000000	97.650665 
2327.000000	97.650080 
2326.000000	97.649426 
2325.000000	97.648771 
2324.000000	97.648381 
2323.000000	97.648521 
2322.000000	97.648990 
2321.000000	97.649090 
2320.000000	97.648530 
2319.000000	97.647928 
2318.000000	97.647878 
2317.000000	97.648104 
2316.000000	97.647923 
2315.000000	97.647442 
2314.000000	97.647244 
2313.000000	97.647507 
2312.000000	97.648047 
2311.000000	97.649109 
2310.000000	97.650731 
2309.000000	97.651810 
2308.000000	97.651262 
2307.000000	97.649702 
2306.000000	97.648705 
2305.000000	97.648793 
2304.000000	97.649335 
2303.000000	97.649873 
2302.000000	97.650651 
2301.000000	97.651620 
2300.000000	97.651795 
2299.000000	97.650023 
2298.000000	97.645685 
2297.000000	97.638997 
2296.000000	97.631449 
2295.000000	97.625237 
2294.000000	97.621660 
2293.000000	97.620057 
2292.000000	97.619105 
2291.000000	97.618241 
2290.000000	97.617671 
2289.000000	97.617429 
2288.000000	97.617231 
2287.000000	97.616783 
2286.000000	97.615997 
2285.000000	97.615094 
2284.000000	97.614715 
2283.000000	97.615237 
2282.000000	97.615901 
2281.000000	97.615340 
2280.000000	97.613003 
2279.000000	97.609547 
2278.000000	97.606100 
2277.000000	97.603753 
2276.000000	97.603404 
2275.000000	97.605124 
2274.000000	97.607694 
2273.000000	97.609667 
2272.000000	97.610768 
2271.000000	97.611480 
2270.000000	97.611720 
2269.000000	97.610994 
2268.000000	97.609613 
2267.000000	97.608589 
2266.000000	97.608283 
2265.000000	97.608105 
2264.000000	97.607527 
2263.000000	97.606589 
2262.000000	97.605400 
2261.000000	97.603921 
2260.000000	97.602369 
2259.000000	97.601158 
2258.000000	97.600394 
2257.000000	97.599855 
2256.000000	97.599419 
2255.000000	97.599126 
2254.000000	97.598896 
2253.000000	97.598477 
2252.000000	97.597745 
2251.000000	97.596830 
2250.000000	97.595907 
2249.000000	97.595052 
2248.000000	97.594263 
2247.000000	97.593521 
2246.000000	97.592801 
2245.000000	97.592095 
2244.000000	97.591399 
2243.000000	97.590712 
2242.000000	97.590050 
2241.000000	97.589438 
2240.000000	97.588885 
2239.000000	97.588383 
2238.000000	97.587903 
2237.000000	97.587416 
2236.000000	97.586898 
2235.000000	97.586338 
2234.000000	97.585735 
2233.000000	97.585097 
2232.000000	97.584432 
2231.000000	97.583744 
2230.000000	97.583036 
2229.000000	97.582304 
2228.000000	97.581546 
2227.000000	97.580766 
2226.000000	97.579967 
2225.000000	97.579144 
2224.000000	97.578298 
2223.000000	97.577427 
2222.000000	97.576546 
2221.000000	97.575723 
2220.000000	97.574995 
2219.000000	97.574312 
2218.000000	97.573579 
2217.000000	97.572762 
2216.000000	97.571922 
2215.000000	97.571118 
2214.000000	97.570312 
2213.000000	97.569406 
2212.000000	97.568381 
2211.000000	97.567408 
2210.000000	97.566717 
2209.000000	97.566381 
2208.000000	97.566242 
2207.000000	97.566044 
2206.000000	97.565647 
2205.000000	97.565117 
2204.000000	97.564650 
2203.000000	97.564401 
2202.000000	97.564361 
2201.000000	97.564323 
2200.000000	97.563920 
2199.000000	97.562799 
2198.000000	97.560863 
2197.000000	97.558484 
2196.000000	97.556341 
2195.000000	97.554849 
2194.000000	97.553862 
2193.000000	97.553103 
2192.000000	97.552737 
2191.000000	97.553123 
2190.000000	97.554033 
2189.000000	97.554601 
2188.000000	97.554258 
2187.000000	97.553142 
2186.000000	97.551465 
2185.000000	97.549227 
2184.000000	97.547099 
2183.000000	97.546765 
2182.000000	97.549334 
2181.000000	97.553727 
2180.000000	97.557101 
2179.000000	97.557663 
2178.000000	97.556036 
2177.000000	97.554328 
2176.000000	97.554121 
2175.000000	97.555435 
2174.000000	97.557315 
2173.000000	97.559067 
2172.000000	97.561009 
2171.000000	97.563849 
2170.000000	97.567151 
2169.000000	97.568862 
2168.000000	97.567296 
2167.000000	97.563493 
2166.000000	97.560670 
2165.000000	97.560643 
2164.000000	97.561948 
2163.000000	97.562277 
2162.000000	97.562069 
2161.000000	97.564182 
2160.000000	97.570398 
2159.000000	97.579634 
2158.000000	97.589203 
2157.000000	97.596955 
2156.000000	97.602020 
2155.000000	97.604585 
2154.000000	97.605766 
2153.000000	97.607170 
2152.000000	97.609499 
2151.000000	97.611424 
2150.000000	97.610699 
2149.000000	97.607011 
2148.000000	97.603326 
2147.000000	97.603323 
2146.000000	97.607623 
2145.000000	97.613506 
2144.000000	97.618409 
2143.000000	97.622573 
2142.000000	97.627178 
2141.000000	97.631425 
2140.000000	97.633393 
2139.000000	97.633441 
2138.000000	97.634706 
2137.000000	97.639469 
2136.000000	97.646126 
2135.000000	97.650568 
2134.000000	97.650160 
2133.000000	97.645796 
2132.000000	97.640980 
2131.000000	97.638778 
2130.000000	97.639493 
2129.000000	97.641145 
2128.000000	97.641849 
2127.000000	97.641694 
2126.000000	97.642241 
2125.000000	97.644499 
2124.000000	97.647759 
2123.000000	97.650263 
2122.000000	97.650634 
2121.000000	97.648740 
2120.000000	97.645599 
2119.000000	97.642661 
2118.000000	97.640934 
2117.000000	97.640585 
2116.000000	97.641031 
2115.000000	97.641187 
2114.000000	97.639912 
2113.000000	97.636907 
2112.000000	97.633465 
2111.000000	97.631739 
2110.000000	97.632779 
2109.000000	97.635579 
2108.000000	97.638198 
2107.000000	97.639560 
2106.000000	97.639817 
2105.000000	97.639650 
2104.000000	97.639846 
2103.000000	97.640906 
2102.000000	97.642320 
2101.000000	97.642613 
2100.000000	97.640896 
2099.000000	97.638238 
2098.000000	97.636902 
2097.000000	97.638008 
2096.000000	97.640715 
2095.000000	97.643296 
2094.000000	97.644625 
2093.000000	97.644590 
2092.000000	97.643626 
2091.000000	97.642479 
2090.000000	97.641986 
2089.000000	97.642468 
2088.000000	97.643317 
2087.000000	97.643466 
2086.000000	97.642383 
2085.000000	97.640489 
2084.000000	97.638762 
2083.000000	97.637893 
2082.000000	97.637745 
2081.000000	97.637614 
2080.000000	97.637122 
2079.000000	97.636667 
2078.000000	97.636713 
2077.000000	97.636843 
2076.000000	97.636177 
2075.000000	97.634714 
2074.000000	97.633474 
2073.000000	97.632931 
2072.000000	97.632223 
2071.000000	97.630362 
2070.000000	97.627581 
2069.000000	97.625025 
2068.000000	97.623573 
2067.000000	97.623283 
2066.000000	97.623609 
2065.000000	97.623704 
2064.000000	97.622845 
2063.000000	97.621055 
2062.000000	97.619257 
2061.000000	97.618546 
2060.000000	97.619212 
2059.000000	97.620727 
2058.000000	97.622250 
2057.000000	97.623103 
2056.000000	97.622934 
2055.000000	97.621675 
2054.000000	97.619708 
2053.000000	97.617842 
2052.000000	97.616762 
2051.000000	97.616506 
2050.000000	97.616576 
2049.000000	97.616541 
2048.000000	97.616460 
2047.000000	97.616607 
2046.000000	97.616985 
2045.000000	97.617317 
2044.000000	97.617424 
2043.000000	97.617442 
2042.000000	97.617676 
2041.000000	97.618366 
2040.000000	97.619603 
2039.000000	97.621378 
2038.000000	97.623508 
2037.000000	97.625461 
2036.000000	97.626576 
2035.000000	97.626629 
2034.000000	97.626209 
2033.000000	97.626451 
2032.000000	97.628110 
2031.000000	97.630830 
2030.000000	97.633195 
2029.000000	97.633859 
2028.000000	97.632658 
2027.000000	97.630617 
2026.000000	97.628850 
2025.000000	97.627825 
2024.000000	97.627846 
2023.000000	97.629587 
2022.000000	97.633541 
2021.000000	97.638801 
2020.000000	97.642919 
2019.000000	97.643726 
2018.000000	97.640790 
2017.000000	97.635579 
2016.000000	97.630553 
2015.000000	97.627525 
2014.000000	97.626630 
2013.000000	97.626423 
2012.000000	97.625508 
2011.000000	97.624436 
2010.000000	97.625058 
2009.000000	97.627796 
2008.000000	97.630695 
2007.000000	97.631927 
2006.000000	97.632069 
2005.000000	97.632733 
2004.000000	97.634146 
2003.000000	97.635584 
2002.000000	97.637235 
2001.000000	97.639591 
2000.000000	97.641218 
1999.000000	97.639184 
1998.000000	97.632128 
1997.000000	97.622003 
1996.000000	97.612759 
1995.000000	97.607362 
1994.000000	97.606293 
1993.000000	97.607828 
1992.000000	97.609120 
1991.000000	97.608515 
1990.000000	97.607149 
1989.000000	97.607466 
1988.000000	97.610091 
1987.000000	97.612777 
1986.000000	97.612727 
1985.000000	97.609535 
1984.000000	97.605214 
1983.000000	97.601858 
1982.000000	97.600095 
1981.000000	97.599716 
1980.000000	97.600739 
1979.000000	97.603089 
1978.000000	97.605680 
1977.000000	97.607005 
1976.000000	97.606794 
1975.000000	97.606391 
1974.000000	97.607320 
1973.000000	97.609912 
1972.000000	97.613199 
1971.000000	97.615770 
1970.000000	97.616702 
1969.000000	97.615877 
1968.000000	97.613838 
1967.000000	97.611527 
1966.000000	97.610043 
1965.000000	97.610176 
1964.000000	97.611980 
1963.000000	97.614801 
1962.000000	97.617702 
1961.000000	97.619905 
1960.000000	97.620952 
1959.000000	97.620797 
1958.000000	97.619990 
1957.000000	97.619566 
1956.000000	97.620237 
1955.000000	97.621782 
1954.000000	97.623290 
1953.000000	97.624115 
1952.000000	97.624391 
1951.000000	97.624557 
1950.000000	97.624829 
1949.000000	97.625322 
1948.000000	97.626255 
1947.000000	97.627685 
1946.000000	97.629191 
1945.000000	97.630153 
1944.000000	97.630331 
1943.000000	97.629959 
1942.000000	97.629434 
1941.000000	97.629016 
1940.000000	97.628849 
1939.000000	97.628997 
1938.000000	97.629438 
1937.000000	97.630215 
1936.000000	97.631436 
1935.000000	97.632886 
1934.000000	97.633919 
1933.000000	97.634202 
1932.000000	97.634282 
1931.000000	97.634963 
1930.000000	97.636285 
1929.000000	97.637480 
1928.000000	97.638078 
1927.000000	97.638424 
1926.000000	97.638939 
1925.000000	97.639453 
1924.000000	97.639585 
1923.000000	97.639389 
1922.000000	97.639146 
1921.000000	97.638868 
1920.000000	97.638575 
1919.000000	97.638527 
1918.000000	97.638695 
1917.000000	97.638459 
1916.000000	97.637514 
1915.000000	97.636594 
1914.000000	97.636518 
1913.000000	97.637009 
1912.000000	97.637122 
1911.000000	97.636671 
1910.000000	97.636402 
1909.000000	97.636801 
1908.000000	97.637582 
1907.000000	97.638215 
1906.000000	97.638363 
1905.000000	97.637801 
1904.000000	97.636522 
1903.000000	97.635117 
1902.000000	97.634385 
1901.000000	97.634448 
1900.000000	97.634769 
1899.000000	97.634864 
1898.000000	97.634672 
1897.000000	97.634305 
1896.000000	97.633773 
1895.000000	97.633097 
1894.000000	97.632407 
1893.000000	97.631746 
1892.000000	97.631065 
1891.000000	97.630454 
1890.000000	97.630115 
1889.000000	97.630050 
1888.000000	97.630129 
1887.000000	97.630444 
1886.000000	97.631135 
1885.000000	97.631853 
1884.000000	97.631967 
1883.000000	97.631358 
1882.000000	97.630688 
1881.000000	97.630690 
1880.000000	97.631383 
1879.000000	97.632159 
1878.000000	97.632448 
1877.000000	97.632335 
1876.000000	97.632438 
1875.000000	97.633244 
1874.000000	97.634739 
1873.000000	97.636452 
1872.000000	97.637882 
1871.000000	97.638901 
1870.000000	97.639689 
1869.000000	97.640471 
1868.000000	97.641355 
1867.000000	97.642461 
1866.000000	97.643787 
1865.000000	97.644859 
1864.000000	97.645237 
1863.000000	97.645376 
1862.000000	97.646356 
1861.000000	97.648553 
1860.000000	97.651211 
1859.000000	97.653484 
1858.000000	97.655454 
1857.000000	97.657531 
1856.000000	97.659739 
1855.000000	97.661951 
1854.000000	97.664124 
1853.000000	97.666052 
1852.000000	97.667619 
1851.000000	97.669172 
1850.000000	97.671069 
1849.000000	97.673143 
1848.000000	97.674952 
1847.000000	97.676511 
1846.000000	97.678288 
1845.000000	97.680488 
1844.000000	97.682686 
1843.000000	97.684481 
1842.000000	97.685999 
1841.000000	97.687528 
1840.000000	97.689394 
1839.000000	97.691846 
1838.000000	97.694593 
1837.000000	97.696726 
1836.000000	97.697678 
1835.000000	97.698103 
1834.000000	97.699210 
1833.000000	97.701235 
1832.000000	97.703488 
1831.000000	97.705195 
1830.000000	97.706042 
1829.000000	97.706341 
1828.000000	97.706614 
1827.000000	97.707154 
1826.000000	97.708107 
1825.000000	97.709524 
1824.000000	97.711174 
1823.000000	97.712710 
1822.000000	97.714132 
1821.000000	97.715327 
1820.000000	97.715645 
1819.000000	97.714705 
1818.000000	97.713695 
1817.000000	97.714315 
1816.000000	97.716129 
1815.000000	97.717530 
1814.000000	97.718477 
1813.000000	97.720387 
1812.000000	97.723168 
1811.000000	97.724154 
1810.000000	97.722388 
1809.000000	97.720373 
1808.000000	97.719944 
1807.000000	97.720575 
1806.000000	97.721855 
1805.000000	97.723858 
1804.000000	97.725166 
1803.000000	97.723626 
1802.000000	97.719218 
1801.000000	97.714976 
1800.000000	97.712935 
1799.000000	97.711835 
1798.000000	97.711240 
1797.000000	97.711834 
1796.000000	97.712393 
1795.000000	97.711352 
1794.000000	97.709551 
1793.000000	97.709530 
1792.000000	97.711305 
1791.000000	97.712462 
1790.000000	97.713436 
1789.000000	97.716234 
1788.000000	97.720283 
1787.000000	97.723309 
1786.000000	97.724799 
1785.000000	97.726037 
1784.000000	97.727259 
1783.000000	97.728187 
1782.000000	97.729075 
1781.000000	97.730606 
1780.000000	97.733173 
1779.000000	97.736312 
1778.000000	97.740128 
1777.000000	97.744428 
1776.000000	97.747903 
1775.000000	97.749566 
1774.000000	97.749395 
1773.000000	97.748946 
1772.000000	97.749995 
1771.000000	97.751488 
1770.000000	97.751583 
1769.000000	97.751151 
1768.000000	97.752286 
1767.000000	97.755016 
1766.000000	97.757383 
1765.000000	97.758567 
1764.000000	97.759576 
1763.000000	97.760972 
1762.000000	97.761869 
1761.000000	97.761912 
1760.000000	97.761870 
1759.000000	97.761971 
1758.000000	97.761766 
1757.000000	97.761072 
1756.000000	97.761024 
1755.000000	97.761619 
1754.000000	97.760710 
1753.000000	97.756927 
1752.000000	97.752227 
1751.000000	97.750732 
1750.000000	97.753594 
1749.000000	97.757708 
1748.000000	97.760036 
1747.000000	97.760537 
1746.000000	97.759828 
1745.000000	97.758673 
1744.000000	97.758707 
1743.000000	97.760520 
1742.000000	97.762505 
1741.000000	97.763324 
1740.000000	97.763564 
1739.000000	97.764118 
1738.000000	97.763779 
1737.000000	97.761197 
1736.000000	97.756527 
1735.000000	97.751505 
1734.000000	97.748250 
1733.000000	97.746874 
1732.000000	97.747189 
1731.000000	97.750505 
1730.000000	97.757065 
1729.000000	97.763119 
1728.000000	97.765748 
1727.000000	97.765655 
1726.000000	97.765011 
1725.000000	97.764587 
1724.000000	97.763985 
1723.000000	97.762909 
1722.000000	97.762261 
1721.000000	97.762084 
1720.000000	97.761141 
1719.000000	97.757532 
1718.000000	97.751293 
1717.000000	97.746164 
1716.000000	97.741873 
1715.000000	97.735919 
1714.000000	97.731613 
1713.000000	97.731134 
1712.000000	97.731190 
1711.000000	97.729668 
1710.000000	97.728107 
1709.000000	97.727271 
1708.000000	97.725746 
1707.000000	97.722987 
1706.000000	97.720990 
1705.000000	97.720353 
1704.000000	97.715693 
1703.000000	97.704098 
1702.000000	97.688818 
1701.000000	97.678435 
1700.000000	97.674951 
1699.000000	97.668642 
1698.000000	97.659294 
1697.000000	97.653775 
1696.000000	97.652056 
1695.000000	97.649262 
1694.000000	97.644258 
1693.000000	97.638943 
1692.000000	97.633219 
1691.000000	97.625854 
1690.000000	97.617047 
1689.000000	97.608006 
1688.000000	97.599399 
1687.000000	97.591054 
1686.000000	97.583181 
1685.000000	97.577624 
1684.000000	97.572758 
1683.000000	97.565859 
1682.000000	97.557604 
1681.000000	97.548376 
1680.000000	97.540799 
1679.000000	97.535975 
1678.000000	97.532282 
1677.000000	97.526822 
1676.000000	97.519700 
1675.000000	97.512339 
1674.000000	97.503002 
1673.000000	97.490665 
1672.000000	97.478801 
1671.000000	97.471343 
1670.000000	97.467696 
1669.000000	97.462132 
1668.000000	97.454084 
1667.000000	97.448095 
1666.000000	97.444123 
1665.000000	97.439997 
1664.000000	97.435693 
1663.000000	97.432026 
1662.000000	97.426505 
1661.000000	97.415104 
1660.000000	97.401216 
1659.000000	97.391542 
1658.000000	97.388511 
1657.000000	97.386508 
1656.000000	97.382593 
1655.000000	97.377096 
1654.000000	97.371223 
1653.000000	97.359078 
1652.000000	97.339524 
1651.000000	97.323917 
1650.000000	97.311996 
1649.000000	97.302946 
1648.000000	97.295688 
1647.000000	97.292363 
1646.000000	97.291573 
1645.000000	97.291161 
1644.000000	97.287745 
1643.000000	97.282890 
1642.000000	97.279482 
1641.000000	97.278736 
1640.000000	97.279247 
1639.000000	97.278829 
1638.000000	97.277332 
1637.000000	97.275681 
1636.000000	97.273821 
1635.000000	97.273713 
1634.000000	97.276785 
1633.000000	97.280030 
1632.000000	97.280634 
1631.000000	97.280689 
1630.000000	97.284545 
1629.000000	97.291944 
1628.000000	97.299234 
1627.000000	97.305651 
1626.000000	97.312265 
1625.000000	97.318190 
1624.000000	97.323029 
1623.000000	97.329697 
1622.000000	97.339976 
1621.000000	97.349806 
1620.000000	97.356801 
1619.000000	97.363859 
1618.000000	97.374095 
1617.000000	97.383575 
1616.000000	97.386469 
1615.000000	97.387442 
1614.000000	97.391344 
1613.000000	97.395246 
1612.000000	97.396367 
1611.000000	97.397761 
1610.000000	97.403404 
1609.000000	97.412452 
1608.000000	97.422979 
1607.000000	97.435432 
1606.000000	97.447778 
1605.000000	97.455891 
1604.000000	97.460780 
1603.000000	97.467089 
1602.000000	97.476000 
1601.000000	97.484548 
1600.000000	97.491659 
1599.000000	97.499501 
1598.000000	97.508323 
1597.000000	97.515876 
1596.000000	97.521728 
1595.000000	97.528474 
1594.000000	97.537485 
1593.000000	97.546242 
1592.000000	97.552476 
1591.000000	97.557653 
1590.000000	97.563858 
1589.000000	97.570335 
1588.000000	97.576224 
1587.000000	97.583275 
1586.000000	97.592149 
1585.000000	97.599420 
1584.000000	97.603458 
1583.000000	97.607892 
1582.000000	97.615192 
1581.000000	97.623006 
1580.000000	97.629114 
1579.000000	97.635584 
1578.000000	97.645374 
1577.000000	97.657655 
1576.000000	97.667799 
1575.000000	97.675000 
1574.000000	97.681071 
1573.000000	97.686126 
1572.000000	97.692217 
1571.000000	97.701737 
1570.000000	97.711608 
1569.000000	97.713395 
1568.000000	97.708814 
1567.000000	97.706762 
1566.000000	97.709967 
1565.000000	97.714513 
1564.000000	97.719507 
1563.000000	97.724604 
1562.000000	97.728963 
1561.000000	97.728776 
1560.000000	97.727755 
1559.000000	97.730962 
1558.000000	97.733948 
1557.000000	97.734726 
1556.000000	97.732922 
1555.000000	97.735050 
1554.000000	97.737304 
1553.000000	97.738031 
1552.000000	97.735886 
1551.000000	97.732584 
1550.000000	97.728888 
1549.000000	97.726450 
1548.000000	97.725873 
1547.000000	97.726551 
1546.000000	97.726146 
1545.000000	97.723513 
1544.000000	97.720544 
1543.000000	97.719576 
1542.000000	97.721934 
1541.000000	97.727248 
1540.000000	97.727186 
1539.000000	97.718904 
1538.000000	97.709717 
1537.000000	97.701529 
1536.000000	97.693849 
1535.000000	97.687964 
1534.000000	97.686073 
1533.000000	97.687055 
1532.000000	97.687311 
1531.000000	97.684101 
1530.000000	97.679018 
1529.000000	97.674054 
1528.000000	97.668591 
1527.000000	97.662356 
1526.000000	97.656969 
1525.000000	97.653801 
1524.000000	97.652068 
1523.000000	97.650038 
1522.000000	97.646939 
1521.000000	97.642185 
1520.000000	97.634773 
1519.000000	97.624787 
1518.000000	97.613886 
1517.000000	97.604556 
1516.000000	97.597897 
1515.000000	97.593262 
1514.000000	97.589227 
1513.000000	97.585216 
1512.000000	97.580473 
1511.000000	97.573000 
1510.000000	97.562383 
1509.000000	97.551163 
1508.000000	97.543511 
1507.000000	97.539103 
1506.000000	97.534599 
1505.000000	97.528762 
1504.000000	97.521000 
1503.000000	97.512231 
1502.000000	97.502960 
1501.000000	97.494462 
1500.000000	97.487230 
1499.000000	97.480052 
1498.000000	97.470438 
1497.000000	97.459485 
1496.000000	97.450523 
1495.000000	97.443900 
1494.000000	97.437969 
1493.000000	97.432202 
1492.000000	97.427116 
1491.000000	97.422688 
1490.000000	97.417798 
1489.000000	97.412148 
1488.000000	97.404947 
1487.000000	97.394908 
1486.000000	97.383664 
1485.000000	97.371696 
1484.000000	97.358764 
1483.000000	97.346639 
1482.000000	97.337068 
1481.000000	97.329952 
1480.000000	97.322766 
1479.000000	97.313645 
1478.000000	97.303214 
1477.000000	97.293233 
1476.000000	97.283172 
1475.000000	97.271010 
1474.000000	97.257435 
1473.000000	97.246715 
1472.000000	97.241648 
1471.000000	97.238690 
1470.000000	97.233935 
1469.000000	97.227399 
1468.000000	97.219856 
1467.000000	97.211121 
1466.000000	97.201917 
1465.000000	97.194307 
1464.000000	97.189113 
1463.000000	97.183102 
1462.000000	97.173671 
1461.000000	97.162813 
1460.000000	97.154097 
1459.000000	97.147980 
1458.000000	97.137242 
1457.000000	97.116870 
1456.000000	97.096078 
1455.000000	97.081811 
1454.000000	97.069811 
1453.000000	97.059152 
1452.000000	97.052115 
1451.000000	97.050101 
1450.000000	97.051891 
1449.000000	97.057475 
1448.000000	97.065952 
1447.000000	97.072876 
1446.000000	97.073774 
1445.000000	97.069764 
1444.000000	97.065816 
1443.000000	97.063115 
1442.000000	97.059781 
1441.000000	97.055079 
1440.000000	97.049904 
1439.000000	97.043094 
1438.000000	97.031200 
1437.000000	97.015924 
1436.000000	97.005930 
1435.000000	97.003129 
1434.000000	97.001259 
1433.000000	96.998739 
1432.000000	96.997402 
1431.000000	96.997328 
1430.000000	96.995508 
1429.000000	96.990902 
1428.000000	96.985496 
1427.000000	96.980737 
1426.000000	96.976017 
1425.000000	96.970673 
1424.000000	96.967282 
1423.000000	96.965590 
1422.000000	96.960703 
1421.000000	96.950235 
1420.000000	96.937322 
1419.000000	96.923411 
1418.000000	96.905430 
1417.000000	96.886533 
1416.000000	96.874211 
1415.000000	96.869051 
1414.000000	96.863277 
1413.000000	96.851043 
1412.000000	96.836045 
1411.000000	96.825166 
1410.000000	96.818760 
1409.000000	96.814187 
1408.000000	96.811808 
1407.000000	96.813692 
1406.000000	96.819906 
1405.000000	96.829802 
1404.000000	96.845174 
1403.000000	96.864355 
1402.000000	96.881588 
1401.000000	96.895655 
1400.000000	96.911510 
1399.000000	96.930818 
1398.000000	96.943871 
1397.000000	96.939063 
1396.000000	96.917290 
1395.000000	96.895714 
1394.000000	96.894099 
1393.000000	96.917521 
1392.000000	96.957164 
1391.000000	96.999222 
1390.000000	97.032177 
1389.000000	97.050822 
1388.000000	97.056612 
1387.000000	97.055489 
1386.000000	97.053830 
1385.000000	97.055577 
1384.000000	97.062580 
1383.000000	97.074146 
1382.000000	97.087267 
1381.000000	97.099809 
1380.000000	97.112259 
1379.000000	97.126873 
1378.000000	97.144964 
1377.000000	97.165634 
1376.000000	97.187047 
1375.000000	97.208106 
1374.000000	97.228557 
1373.000000	97.248980 
1372.000000	97.270161 
1371.000000	97.292484 
1370.000000	97.315450 
1369.000000	97.337074 
1368.000000	97.356803 
1367.000000	97.375590 
1366.000000	97.394035 
1365.000000	97.412271 
1364.000000	97.429774 
1363.000000	97.445153 
1362.000000	97.458117 
1361.000000	97.470816 
1360.000000	97.486110 
1359.000000	97.505324 
1358.000000	97.527012 
1357.000000	97.547856 
1356.000000	97.565536 
1355.000000	97.580012 
1354.000000	97.592706 
1353.000000	97.605934 
1352.000000	97.620479 
1351.000000	97.635623 
1350.000000	97.650920 
1349.000000	97.664339 
1348.000000	97.674192 
1347.000000	97.681298 
1346.000000	97.688656 
1345.000000	97.697766 
1344.000000	97.707199 
1343.000000	97.714838 
1342.000000	97.720241 
1341.000000	97.723823 
1340.000000	97.725924 
1339.000000	97.727873 
1338.000000	97.731645 
1337.000000	97.737773 
1336.000000	97.744549 
1335.000000	97.749295 
1334.000000	97.750972 
1333.000000	97.751326 
1332.000000	97.752776 
1331.000000	97.756050 
1330.000000	97.759818 
1329.000000	97.762258 
1328.000000	97.762888 
1327.000000	97.763232 
1326.000000	97.764880 
1325.000000	97.766707 
1324.000000	97.766780 
1323.000000	97.764438 
1322.000000	97.760399 
1321.000000	97.756126 
1320.000000	97.753503 
1319.000000	97.753612 
1318.000000	97.755492 
1317.000000	97.757217 
1316.000000	97.757713 
1315.000000	97.756791 
1314.000000	97.754529 
1313.000000	97.752359 
1312.000000	97.753014 
1311.000000	97.757300 
1310.000000	97.761891 
1309.000000	97.762895 
1308.000000	97.760718 
1307.000000	97.759644 
1306.000000	97.762609 
1305.000000	97.767864 
1304.000000	97.772207 
1303.000000	97.773872 
1302.000000	97.772448 
1301.000000	97.768423 
1300.000000	97.764038 
1299.000000	97.762286 
1298.000000	97.763829 
1297.000000	97.766161 
1296.000000	97.766546 
1295.000000	97.764975 
1294.000000	97.763274 
1293.000000	97.762840 
1292.000000	97.763936 
1291.000000	97.766035 
1290.000000	97.768165 
1289.000000	97.769441 
1288.000000	97.769566 
1287.000000	97.768599 
1286.000000	97.766487 
1285.000000	97.763736 
1284.000000	97.762225 
1283.000000	97.763544 
1282.000000	97.766387 
1281.000000	97.767294 
1280.000000	97.764739 
1279.000000	97.761134 
1278.000000	97.759919 
1277.000000	97.762069 
1276.000000	97.765793 
1275.000000	97.768793 
1274.000000	97.769935 
1273.000000	97.769526 
1272.000000	97.768616 
1271.000000	97.767689 
1270.000000	97.765844 
1269.000000	97.761880 
1268.000000	97.756255 
1267.000000	97.750745 
1266.000000	97.745957 
1265.000000	97.741081 
1264.000000	97.736277 
1263.000000	97.733153 
1262.000000	97.732062 
1261.000000	97.730847 
1260.000000	97.727945 
1259.000000	97.725146 
1258.000000	97.724790 
1257.000000	97.725700 
1256.000000	97.724245 
1255.000000	97.719252 
1254.000000	97.713602 
1253.000000	97.710274 
1252.000000	97.708555 
1251.000000	97.705926 
1250.000000	97.702927 
1249.000000	97.704268 
1248.000000	97.714271 
1247.000000	97.731313 
1246.000000	97.747011 
1245.000000	97.751891 
1244.000000	97.742989 
1243.000000	97.727598 
1242.000000	97.719764 
1241.000000	97.730260 
1240.000000	97.756981 
1239.000000	97.785009 
1238.000000	97.798638 
1237.000000	97.794078 
1236.000000	97.779395 
1235.000000	97.763719 
1234.000000	97.749767 
1233.000000	97.736659 
1232.000000	97.725033 
1231.000000	97.716159 
1230.000000	97.709186 
1229.000000	97.702861 
1228.000000	97.698012 
1227.000000	97.695193 
1226.000000	97.691620 
1225.000000	97.683701 
1224.000000	97.671489 
1223.000000	97.657643 
1222.000000	97.642845 
1221.000000	97.625134 
1220.000000	97.603366 
1219.000000	97.578773 
1218.000000	97.553182 
1217.000000	97.527502 
1216.000000	97.501120 
1215.000000	97.471131 
1214.000000	97.434020 
1213.000000	97.390732 
1212.000000	97.347920 
1211.000000	97.310216 
1210.000000	97.272854 
1209.000000	97.226581 
1208.000000	97.168996 
1207.000000	97.106516 
1206.000000	97.045473 
1205.000000	96.985719 
1204.000000	96.923738 
1203.000000	96.857743 
1202.000000	96.788324 
1201.000000	96.717242 
1200.000000	96.646883 
1199.000000	96.578597 
1198.000000	96.510753 
1197.000000	96.440701 
1196.000000	96.368501 
1195.000000	96.296172 
1194.000000	96.223738 
1193.000000	96.148895 
1192.000000	96.070539 
1191.000000	95.989522 
1190.000000	95.905895 
1189.000000	95.818468 
1188.000000	95.727233 
1187.000000	95.633466 
1186.000000	95.537696 
1185.000000	95.440229 
1184.000000	95.342718 
1183.000000	95.246021 
1182.000000	95.147607 
1181.000000	95.044552 
1180.000000	94.937772 
1179.000000	94.829444 
1178.000000	94.717844 
1177.000000	94.599615 
1176.000000	94.475825 
1175.000000	94.350400 
1174.000000	94.223599 
1173.000000	94.092822 
1172.000000	93.959301 
1171.000000	93.827378 
1170.000000	93.697263 
1169.000000	93.565682 
1168.000000	93.434667 
1167.000000	93.313145 
1166.000000	93.209139 
1165.000000	93.127509 
1164.000000	93.075876 
1163.000000	93.063696 
1162.000000	93.091564 
1161.000000	93.146493 
1160.000000	93.209247 
1159.000000	93.261512 
1158.000000	93.287017 
1157.000000	93.274756 
1156.000000	93.224735 
1155.000000	93.146104 
1154.000000	93.048191 
1153.000000	92.937273 
1152.000000	92.821180 
1151.000000	92.709019 
1150.000000	92.603889 
1149.000000	92.502284 
1148.000000	92.402440 
1147.000000	92.306377 
1146.000000	92.212253 
1145.000000	92.112899 
1144.000000	92.005296 
1143.000000	91.894816 
1142.000000	91.786910 
1141.000000	91.680822 
1140.000000	91.574248 
1139.000000	91.467605 
1138.000000	91.360702 
1137.000000	91.251376 
1136.000000	91.140027 
1135.000000	91.029609 
1134.000000	90.919209 
1133.000000	90.804106 
1132.000000	90.683887 
1131.000000	90.563537 
1130.000000	90.444755 
1129.000000	90.323565 
1128.000000	90.198421 
1127.000000	90.072862 
1126.000000	89.947845 
1125.000000	89.819216 
1124.000000	89.685260 
1123.000000	89.549345 
1122.000000	89.413012 
1121.000000	89.274374 
1120.000000	89.135374 
1119.000000	89.001832 
1118.000000	88.873927 
1117.000000	88.745828 
1116.000000	88.617049 
1115.000000	88.494567 
1114.000000	88.380940 
1113.000000	88.270253 
1112.000000	88.158748 
1111.000000	88.049112 
1110.000000	87.941446 
1109.000000	87.830624 
1108.000000	87.715380 
1107.000000	87.599640 
1106.000000	87.482955 
1105.000000	87.360212 
1104.000000	87.232600 
1103.000000	87.108071 
1102.000000	86.988401 
1101.000000	86.867771 
1100.000000	86.745570 
1099.000000	86.627750 
1098.000000	86.515785 
1097.000000	86.403892 
1096.000000	86.290111 
1095.000000	86.176722 
1094.000000	86.058537 
1093.000000	85.925000 
1092.000000	85.777446 
1091.000000	85.630994 
1090.000000	85.495572 
1089.000000	85.367269 
1088.000000	85.240790 
1087.000000	85.116507 
1086.000000	84.992254 
1085.000000	84.862499 
1084.000000	84.729491 
1083.000000	84.601848 
1082.000000	84.479272 
1081.000000	84.352744 
1080.000000	84.222402 
1079.000000	84.099867 
1078.000000	83.989300 
1077.000000	83.881252 
1076.000000	83.768748 
1075.000000	83.653877 
1074.000000	83.535418 
1073.000000	83.405955 
1072.000000	83.263325 
1071.000000	83.106876 
1070.000000	82.920127 
1069.000000	82.679687 
1068.000000	82.390205 
1067.000000	82.093049 
1066.000000	81.829233 
1065.000000	81.605564 
1064.000000	81.403641 
1063.000000	81.202372 
1062.000000	80.981212 
1061.000000	80.721453 
1060.000000	80.422285 
1059.000000	80.107518 
1058.000000	79.804759 
1057.000000	79.523128 
1056.000000	79.255324 
1055.000000	78.989147 
1054.000000	78.711201 
1053.000000	78.412869 
1052.000000	78.100836 
1051.000000	77.791135 
1050.000000	77.488136 
1049.000000	77.182804 
1048.000000	76.873223 
1047.000000	76.568273 
1046.000000	76.269354 
1045.000000	75.968115 
1044.000000	75.664238 
1043.000000	75.366866 
1042.000000	75.076083 
1041.000000	74.781348 
1040.000000	74.481968 
1039.000000	74.192045 
1038.000000	73.922073 
1037.000000	73.672053 
1036.000000	73.443181 
1035.000000	73.237502 
1034.000000	73.045591 
1033.000000	72.853881 
1032.000000	72.663360 
1031.000000	72.481432 
1030.000000	72.300653 
1029.000000	72.111757 
1028.000000	71.934442 
1027.000000	71.803866 
1026.000000	71.723665 
1025.000000	71.660056 
1024.000000	71.585915 
1023.000000	71.502826 
1022.000000	71.415884 
1021.000000	71.318633 
1020.000000	71.211470 
1019.000000	71.107141 
1018.000000	71.008476 
1017.000000	70.904501 
1016.000000	70.795024 
1015.000000	70.694480 
1014.000000	70.605604 
1013.000000	70.514553 
1012.000000	70.417844 
1011.000000	70.328643 
1010.000000	70.250609 
1009.000000	70.171608 
1008.000000	70.089996 
1007.000000	70.021731 
1006.000000	69.974590 
1005.000000	69.939598 
1004.000000	69.913165 
1003.000000	69.902545 
1002.000000	69.904227 
1001.000000	69.903321 
1000.000000	69.900769 
999.000000	 69.915404 
998.000000	 69.952484 
997.000000	 69.995323 
996.000000	 70.034081 
995.000000	 70.077806 
994.000000	 70.131678 
993.000000	 70.187647 
992.000000	 70.244000 
991.000000	 70.309521 
990.000000	 70.382244 
989.000000	 70.448668 
988.000000	 70.509677 
987.000000	 70.582541 
986.000000	 70.672312 
985.000000	 70.766911 
984.000000	 70.865073 
983.000000	 70.981846 
982.000000	 71.120175 
981.000000	 71.263881 
980.000000	 71.405994 
979.000000	 71.558584 
978.000000	 71.727021 
977.000000	 71.900610 
976.000000	 72.076870 
975.000000	 72.269691 
974.000000	 72.484270 
973.000000	 72.707618 
972.000000	 72.932371 
971.000000	 73.167322 
970.000000	 73.416152 
969.000000	 73.668118 
968.000000	 73.917878 
967.000000	 74.173486 
966.000000	 74.437524 
965.000000	 74.701072 
964.000000	 74.962667 
963.000000	 75.232376 
962.000000	 75.510868 
961.000000	 75.784888 
960.000000	 76.049163 
959.000000	 76.312491 
958.000000	 76.576950 
957.000000	 76.831892 
956.000000	 77.074255 
955.000000	 77.314592 
954.000000	 77.557046 
953.000000	 77.792663 
952.000000	 78.017666 
951.000000	 78.238749 
950.000000	 78.455481 
949.000000	 78.657069 
948.000000	 78.841444 
947.000000	 79.018283 
946.000000	 79.188879 
945.000000	 79.342742 
944.000000	 79.478754 
943.000000	 79.609715 
942.000000	 79.740541 
941.000000	 79.861561 
940.000000	 79.969348 
939.000000	 80.074647 
938.000000	 80.183552 
937.000000	 80.289761 
936.000000	 80.391874 
935.000000	 80.499414 
934.000000	 80.615051 
933.000000	 80.729082 
932.000000	 80.837812 
931.000000	 80.949412 
930.000000	 81.065828 
929.000000	 81.177146 
928.000000	 81.280031 
927.000000	 81.383633 
926.000000	 81.490696 
925.000000	 81.590109 
924.000000	 81.674597 
923.000000	 81.749296 
922.000000	 81.817635 
921.000000	 81.875876 
920.000000	 81.926813 
919.000000	 81.981038 
918.000000	 82.038301 
917.000000	 82.084807 
916.000000	 82.115812 
915.000000	 82.145273 
914.000000	 82.187526 
913.000000	 82.245384 
912.000000	 82.321224 
911.000000	 82.422683 
910.000000	 82.551051 
909.000000	 82.699545 
908.000000	 82.867900 
907.000000	 83.063532 
906.000000	 83.285436 
905.000000	 83.523093 
904.000000	 83.773134 
903.000000	 84.040029 
902.000000	 84.319281 
901.000000	 84.598590 
900.000000	 84.877327 
899.000000	 85.166311 
898.000000	 85.466384 
897.000000	 85.764401 
896.000000	 86.051153 
895.000000	 86.325857 
894.000000	 86.584339 
893.000000	 86.822824 
892.000000	 87.053440 
891.000000	 87.295029 
890.000000	 87.545731 
889.000000	 87.783352 
888.000000	 87.994906 
887.000000	 88.187659 
886.000000	 88.370742 
885.000000	 88.545344 
884.000000	 88.714204 
883.000000	 88.880438 
882.000000	 89.035434 
881.000000	 89.169556 
880.000000	 89.296950 
879.000000	 89.446321 
878.000000	 89.622763 
877.000000	 89.802596 
876.000000	 89.970806 
875.000000	 90.138447 
874.000000	 90.317334 
873.000000	 90.504480 
872.000000	 90.700576 
871.000000	 90.918223 
870.000000	 91.159878 
869.000000	 91.408359 
868.000000	 91.649653 
867.000000	 91.887346 
866.000000	 92.126841 
865.000000	 92.363482 
864.000000	 92.594871 
863.000000	 92.828195 
862.000000	 93.065769 
861.000000	 93.297150 
860.000000	 93.514148 
859.000000	 93.721470 
858.000000	 93.925614 
857.000000	 94.124310 
856.000000	 94.312701 
855.000000	 94.489256 
854.000000	 94.651153 
853.000000	 94.794749 
852.000000	 94.924578 
851.000000	 95.051608 
850.000000	 95.179892 
849.000000	 95.305005 
848.000000	 95.425700 
847.000000	 95.544144 
846.000000	 95.654462 
845.000000	 95.746015 
844.000000	 95.819709 
843.000000	 95.886529 
842.000000	 95.948103 
841.000000	 95.993408 
840.000000	 96.016606 
839.000000	 96.022780 
838.000000	 96.014296 
837.000000	 95.988265 
836.000000	 95.951374 
835.000000	 95.920348 
834.000000	 95.901239 
833.000000	 95.883348 
832.000000	 95.860289 
831.000000	 95.842237 
830.000000	 95.840136 
829.000000	 95.852385 
828.000000	 95.875813 
827.000000	 95.915684 
826.000000	 95.974952 
825.000000	 96.046127 
824.000000	 96.121923 
823.000000	 96.201023 
822.000000	 96.278375 
821.000000	 96.345492 
820.000000	 96.403992 
819.000000	 96.462574 
818.000000	 96.517482 
817.000000	 96.550718 
816.000000	 96.550603 
815.000000	 96.520867 
814.000000	 96.466358 
813.000000	 96.382136 
812.000000	 96.259845 
811.000000	 96.091891 
810.000000	 95.865570 
809.000000	 95.566262 
808.000000	 95.192200 
807.000000	 94.756552 
806.000000	 94.273271 
805.000000	 93.753763 
804.000000	 93.219590 
803.000000	 92.701401 
802.000000	 92.219214 
801.000000	 91.779941 
800.000000	 91.398737 
799.000000	 91.102403 
798.000000	 90.903481 
797.000000	 90.789205 
796.000000	 90.742261 
795.000000	 90.753230 
794.000000	 90.807531 
793.000000	 90.882027 
792.000000	 90.962208 
791.000000	 91.044191 
790.000000	 91.115610 
789.000000	 91.155515 
788.000000	 91.158418 
787.000000	 91.137495 
786.000000	 91.097665 
785.000000	 91.024918 
784.000000	 90.908526 
783.000000	 90.755274 
782.000000	 90.577467 
781.000000	 90.388098 
780.000000	 90.213196 
779.000000	 90.085712 
778.000000	 90.018147 
777.000000	 90.000661 
776.000000	 90.030399 
775.000000	 90.117740 
774.000000	 90.256487 
773.000000	 90.414874 
772.000000	 90.568204 
771.000000	 90.718021 
770.000000	 90.868737 
769.000000	 91.008754 
768.000000	 91.126665 
767.000000	 91.224781 
766.000000	 91.304762 
765.000000	 91.360309 
764.000000	 91.396250 
763.000000	 91.434984 
762.000000	 91.490745 
761.000000	 91.554612 
760.000000	 91.615770 
759.000000	 91.679108 
758.000000	 91.750953 
757.000000	 91.827294 
756.000000	 91.909089 
755.000000	 92.010143 
754.000000	 92.134738 
753.000000	 92.262995 
752.000000	 92.372243 
751.000000	 92.460581 
750.000000	 92.540252 
749.000000	 92.622204 
748.000000	 92.715873 
747.000000	 92.827937 
746.000000	 92.950487 
745.000000	 93.065115 
744.000000	 93.168854 
743.000000	 93.282043 
742.000000	 93.421949 
741.000000	 93.583778 
740.000000	 93.755443 
739.000000	 93.934067 
738.000000	 94.117726 
737.000000	 94.295989 
736.000000	 94.459915 
735.000000	 94.609976 
734.000000	 94.746733 
733.000000	 94.865898 
732.000000	 94.967609 
731.000000	 95.057061 
730.000000	 95.132110 
729.000000	 95.185470 
728.000000	 95.222728 
727.000000	 95.262876 
726.000000	 95.317718 
725.000000	 95.385306 
724.000000	 95.464655 
723.000000	 95.558260 
722.000000	 95.657197 
721.000000	 95.744102 
720.000000	 95.817493 
719.000000	 95.893686 
718.000000	 95.977730 
717.000000	 96.054721 
716.000000	 96.116399 
715.000000	 96.173244 
714.000000	 96.232756 
713.000000	 96.287997 
712.000000	 96.338016 
711.000000	 96.397344 
710.000000	 96.471794 
709.000000	 96.544625 
708.000000	 96.598867 
707.000000	 96.635563 
706.000000	 96.658462 
705.000000	 96.658978 
704.000000	 96.630344 
703.000000	 96.579617 
702.000000	 96.508140 
701.000000	 96.394141 
700.000000	 96.210859 
699.000000	 95.951891 
698.000000	 95.633266 
697.000000	 95.288467 
696.000000	 94.972503 
695.000000	 94.750904 
694.000000	 94.661493 
693.000000	 94.691922 
692.000000	 94.800799 
691.000000	 94.949118 
690.000000	 95.109345 
689.000000	 95.262694 
688.000000	 95.402639 
687.000000	 95.532822 
686.000000	 95.652250 
685.000000	 95.754917 
684.000000	 95.846325 
683.000000	 95.940537 
682.000000	 96.038351 
681.000000	 96.127728 
680.000000	 96.208184 
679.000000	 96.293228 
678.000000	 96.385438 
677.000000	 96.475558 
676.000000	 96.568023 
675.000000	 96.677542 
674.000000	 96.795044 
673.000000	 96.884870 
672.000000	 96.923499 
671.000000	 96.916213 
670.000000	 96.879729 
669.000000	 96.843722 
668.000000	 96.883065 
667.000000	 97.050056 
666.000000	 97.258380 
665.000000	 97.410001 
664.000000	 97.498819 
663.000000	 97.557960 
662.000000	 97.614164 
661.000000	 97.667164 
660.000000	 97.713978 
659.000000	 97.766412 
658.000000	 97.824807 
657.000000	 97.863322 
656.000000	 97.863275 
655.000000	 97.836916 
654.000000	 97.801699 
653.000000	 97.756323 
652.000000	 97.705880 
651.000000	 97.683513 
650.000000	 97.709294 

