4000.000000	97.431234 
3999.000000	97.430046 
3998.000000	97.426814 
3997.000000	97.422551 
3996.000000	97.418832 
3995.000000	97.416746 
3994.000000	97.416539 
3993.000000	97.417586 
3992.000000	97.418671 
3991.000000	97.418774 
3990.000000	97.417880 
3989.000000	97.416863 
3988.000000	97.416484 
3987.000000	97.416784 
3986.000000	97.417492 
3985.000000	97.418540 
3984.000000	97.419822 
3983.000000	97.420883 
3982.000000	97.421405 
3981.000000	97.421681 
3980.000000	97.422023 
3979.000000	97.422059 
3978.000000	97.421250 
3977.000000	97.419879 
3976.000000	97.418873 
3975.000000	97.418554 
3974.000000	97.418196 
3973.000000	97.416955 
3972.000000	97.414645 
3971.000000	97.411663 
3970.000000	97.408683 
3969.000000	97.406653 
3968.000000	97.406458 
3967.000000	97.408131 
3966.000000	97.410617 
3965.000000	97.412499 
3964.000000	97.412837 
3963.000000	97.411503 
3962.000000	97.409174 
3961.000000	97.406954 
3960.000000	97.405496 
3959.000000	97.404586 
3958.000000	97.403686 
3957.000000	97.402741 
3956.000000	97.402005 
3955.000000	97.401290 
3954.000000	97.400158 
3953.000000	97.398521 
3952.000000	97.396774 
3951.000000	97.395269 
3950.000000	97.393923 
3949.000000	97.392492 
3948.000000	97.390850 
3947.000000	97.389199 
3946.000000	97.388051 
3945.000000	97.387806 
3944.000000	97.388177 
3943.000000	97.388275 
3942.000000	97.387840 
3941.000000	97.387613 
3940.000000	97.388232 
3939.000000	97.389315 
3938.000000	97.389783 
3937.000000	97.389100 
3936.000000	97.387636 
3935.000000	97.385735 
3934.000000	97.383454 
3933.000000	97.381051 
3932.000000	97.379223 
3931.000000	97.378101 
3930.000000	97.377060 
3929.000000	97.376102 
3928.000000	97.376173 
3927.000000	97.377720 
3926.000000	97.379353 
3925.000000	97.379030 
3924.000000	97.376602 
3923.000000	97.373601 
3922.000000	97.370953 
3921.000000	97.368679 
3920.000000	97.367196 
3919.000000	97.367439 
3918.000000	97.369126 
3917.000000	97.370549 
3916.000000	97.370718 
3915.000000	97.370471 
3914.000000	97.370866 
3913.000000	97.371867 
3912.000000	97.372762 
3911.000000	97.373248 
3910.000000	97.373071 
3909.000000	97.371974 
3908.000000	97.370172 
3907.000000	97.368041 
3906.000000	97.365510 
3905.000000	97.361478 
3904.000000	97.355470 
3903.000000	97.349270 
3902.000000	97.345549 
3901.000000	97.345318 
3900.000000	97.347387 
3899.000000	97.349831 
3898.000000	97.351766 
3897.000000	97.352983 
3896.000000	97.353188 
3895.000000	97.352695 
3894.000000	97.352439 
3893.000000	97.353025 
3892.000000	97.353392 
3891.000000	97.351882 
3890.000000	97.348619 
3889.000000	97.345366 
3888.000000	97.343613 
3887.000000	97.343177 
3886.000000	97.342988 
3885.000000	97.342491 
3884.000000	97.341692 
3883.000000	97.340432 
3882.000000	97.338728 
3881.000000	97.337235 
3880.000000	97.336636 
3879.000000	97.336645 
3878.000000	97.336518 
3877.000000	97.336127 
3876.000000	97.335810 
3875.000000	97.335424 
3874.000000	97.334525 
3873.000000	97.333223 
3872.000000	97.332006 
3871.000000	97.330830 
3870.000000	97.329401 
3869.000000	97.328196 
3868.000000	97.327782 
3867.000000	97.327888 
3866.000000	97.327776 
3865.000000	97.327325 
3864.000000	97.327160 
3863.000000	97.327449 
3862.000000	97.327426 
3861.000000	97.326783 
3860.000000	97.326077 
3859.000000	97.325732 
3858.000000	97.325408 
3857.000000	97.324637 
3856.000000	97.323687 
3855.000000	97.322923 
3854.000000	97.321589 
3853.000000	97.319555 
3852.000000	97.318159 
3851.000000	97.318102 
3850.000000	97.318698 
3849.000000	97.319453 
3848.000000	97.320675 
3847.000000	97.322666 
3846.000000	97.324436 
3845.000000	97.324654 
3844.000000	97.323035 
3843.000000	97.320133 
3842.000000	97.316760 
3841.000000	97.314062 
3840.000000	97.312728 
3839.000000	97.313040 
3838.000000	97.314732 
3837.000000	97.316439 
3836.000000	97.317116 
3835.000000	97.317120 
3834.000000	97.317613 
3833.000000	97.319203 
3832.000000	97.321306 
3831.000000	97.323127 
3830.000000	97.324470 
3829.000000	97.325699 
3828.000000	97.327317 
3827.000000	97.328922 
3826.000000	97.328939 
3825.000000	97.326709 
3824.000000	97.323130 
3823.000000	97.319821 
3822.000000	97.317512 
3821.000000	97.315717 
3820.000000	97.314538 
3819.000000	97.314356 
3818.000000	97.315301 
3817.000000	97.317315 
3816.000000	97.321019 
3815.000000	97.327244 
3814.000000	97.334317 
3813.000000	97.338488 
3812.000000	97.338189 
3811.000000	97.336240 
3810.000000	97.336565 
3809.000000	97.339527 
3808.000000	97.341193 
3807.000000	97.338149 
3806.000000	97.331569 
3805.000000	97.325078 
3804.000000	97.320607 
3803.000000	97.318939 
3802.000000	97.319814 
3801.000000	97.322561 
3800.000000	97.326195 
3799.000000	97.328203 
3798.000000	97.327755 
3797.000000	97.327944 
3796.000000	97.332721 
3795.000000	97.341902 
3794.000000	97.350715 
3793.000000	97.355087 
3792.000000	97.355927 
3791.000000	97.357174 
3790.000000	97.359963 
3789.000000	97.361601 
3788.000000	97.360393 
3787.000000	97.357903 
3786.000000	97.355985 
3785.000000	97.353943 
3784.000000	97.350313 
3783.000000	97.345877 
3782.000000	97.342292 
3781.000000	97.340140 
3780.000000	97.339396 
3779.000000	97.340965 
3778.000000	97.345186 
3777.000000	97.350179 
3776.000000	97.352473 
3775.000000	97.349913 
3774.000000	97.343810 
3773.000000	97.337826 
3772.000000	97.334194 
3771.000000	97.331546 
3770.000000	97.327833 
3769.000000	97.323702 
3768.000000	97.320580 
3767.000000	97.318322 
3766.000000	97.316310 
3765.000000	97.314969 
3764.000000	97.315935 
3763.000000	97.319258 
3762.000000	97.321569 
3761.000000	97.319846 
3760.000000	97.315590 
3759.000000	97.312991 
3758.000000	97.310490 
3757.000000	97.303047 
3756.000000	97.290721 
3755.000000	97.276975 
3754.000000	97.262949 
3753.000000	97.247751 
3752.000000	97.235135 
3751.000000	97.231135 
3750.000000	97.232073 
3749.000000	97.229097 
3748.000000	97.223662 
3747.000000	97.224585 
3746.000000	97.234437 
3745.000000	97.244399 
3744.000000	97.250911 
3743.000000	97.257858 
3742.000000	97.261869 
3741.000000	97.256620 
3740.000000	97.244827 
3739.000000	97.238258 
3738.000000	97.242930 
3737.000000	97.249751 
3736.000000	97.249195 
3735.000000	97.246347 
3734.000000	97.251026 
3733.000000	97.261185 
3732.000000	97.268888 
3731.000000	97.272582 
3730.000000	97.274784 
3729.000000	97.276022 
3728.000000	97.275447 
3727.000000	97.274005 
3726.000000	97.275129 
3725.000000	97.279907 
3724.000000	97.285040 
3723.000000	97.287664 
3722.000000	97.288732 
3721.000000	97.290249 
3720.000000	97.291138 
3719.000000	97.290335 
3718.000000	97.287767 
3717.000000	97.283413 
3716.000000	97.278173 
3715.000000	97.271922 
3714.000000	97.263743 
3713.000000	97.254508 
3712.000000	97.247229 
3711.000000	97.244512 
3710.000000	97.245619 
3709.000000	97.248517 
3708.000000	97.251358 
3707.000000	97.251896 
3706.000000	97.249367 
3705.000000	97.245344 
3704.000000	97.242090 
3703.000000	97.240056 
3702.000000	97.236469 
3701.000000	97.228115 
3700.000000	97.215315 
3699.000000	97.202253 
3698.000000	97.192885 
3697.000000	97.187316 
3696.000000	97.183933 
3695.000000	97.180986 
3694.000000	97.175910 
3693.000000	97.167596 
3692.000000	97.158675 
3691.000000	97.152952 
3690.000000	97.149446 
3689.000000	97.144656 
3688.000000	97.139196 
3687.000000	97.136355 
3686.000000	97.136716 
3685.000000	97.136938 
3684.000000	97.134183 
3683.000000	97.130079 
3682.000000	97.127203 
3681.000000	97.121916 
3680.000000	97.107684 
3679.000000	97.084253 
3678.000000	97.059924 
3677.000000	97.040902 
3676.000000	97.024604 
3675.000000	97.009812 
3674.000000	96.998160 
3673.000000	96.988816 
3672.000000	96.979513 
3671.000000	96.971325 
3670.000000	96.967899 
3669.000000	96.969671 
3668.000000	96.970536 
3667.000000	96.965455 
3666.000000	96.957228 
3665.000000	96.951214 
3664.000000	96.948564 
3663.000000	96.946586 
3662.000000	96.941416 
3661.000000	96.930232 
3660.000000	96.913700 
3659.000000	96.894936 
3658.000000	96.877588 
3657.000000	96.861664 
3656.000000	96.844741 
3655.000000	96.826376 
3654.000000	96.807357 
3653.000000	96.787950 
3652.000000	96.767010 
3651.000000	96.743496 
3650.000000	96.718947 
3649.000000	96.697294 
3648.000000	96.682373 
3647.000000	96.676755 
3646.000000	96.681065 
3645.000000	96.692666 
3644.000000	96.706192 
3643.000000	96.716598 
3642.000000	96.721041 
3641.000000	96.719207 
3640.000000	96.712244 
3639.000000	96.700983 
3638.000000	96.687094 
3637.000000	96.673253 
3636.000000	96.660893 
3635.000000	96.647872 
3634.000000	96.631331 
3633.000000	96.612562 
3632.000000	96.595320 
3631.000000	96.580192 
3630.000000	96.563122 
3629.000000	96.543798 
3628.000000	96.529785 
3627.000000	96.525640 
3626.000000	96.528073 
3625.000000	96.534044 
3624.000000	96.543862 
3623.000000	96.557640 
3622.000000	96.571745 
3621.000000	96.579007 
3620.000000	96.573846 
3619.000000	96.557974 
3618.000000	96.539135 
3617.000000	96.525376 
3616.000000	96.522202 
3615.000000	96.530345 
3614.000000	96.545036 
3613.000000	96.559763 
3612.000000	96.570638 
3611.000000	96.576623 
3610.000000	96.578898 
3609.000000	96.580827 
3608.000000	96.586043 
3607.000000	96.595633 
3606.000000	96.607507 
3605.000000	96.620157 
3604.000000	96.634488 
3603.000000	96.650665 
3602.000000	96.665656 
3601.000000	96.674717 
3600.000000	96.676478 
3599.000000	96.674144 
3598.000000	96.671997 
3597.000000	96.671859 
3596.000000	96.673814 
3595.000000	96.675859 
3594.000000	96.675674 
3593.000000	96.673206 
3592.000000	96.670177 
3591.000000	96.668252 
3590.000000	96.668045 
3589.000000	96.668934 
3588.000000	96.670259 
3587.000000	96.672360 
3586.000000	96.675620 
3585.000000	96.679909 
3584.000000	96.685983 
3583.000000	96.694759 
3582.000000	96.705937 
3581.000000	96.716826 
3580.000000	96.724186 
3579.000000	96.726661 
3578.000000	96.725471 
3577.000000	96.723160 
3576.000000	96.721622 
3575.000000	96.721331 
3574.000000	96.721269 
3573.000000	96.720229 
3572.000000	96.717282 
3571.000000	96.711961 
3570.000000	96.704163 
3569.000000	96.694298 
3568.000000	96.684163 
3567.000000	96.677176 
3566.000000	96.675402 
3565.000000	96.677673 
3564.000000	96.681876 
3563.000000	96.687333 
3562.000000	96.693943 
3561.000000	96.700694 
3560.000000	96.705635 
3559.000000	96.707513 
3558.000000	96.706825 
3557.000000	96.705279 
3556.000000	96.704253 
3555.000000	96.703908 
3554.000000	96.703366 
3553.000000	96.701588 
3552.000000	96.698499 
3551.000000	96.695033 
3550.000000	96.692404 
3549.000000	96.691449 
3548.000000	96.692170 
3547.000000	96.693274 
3546.000000	96.692797 
3545.000000	96.690070 
3544.000000	96.686923 
3543.000000	96.685929 
3542.000000	96.687679 
3541.000000	96.690718 
3540.000000	96.693504 
3539.000000	96.695544 
3538.000000	96.696789 
3537.000000	96.696893 
3536.000000	96.695721 
3535.000000	96.693654 
3534.000000	96.691326 
3533.000000	96.689274 
3532.000000	96.687961 
3531.000000	96.687681 
3530.000000	96.688121 
3529.000000	96.688340 
3528.000000	96.687546 
3527.000000	96.685884 
3526.000000	96.684258 
3525.000000	96.683448 
3524.000000	96.683597 
3523.000000	96.684374 
3522.000000	96.685314 
3521.000000	96.686047 
3520.000000	96.686430 
3519.000000	96.686462 
3518.000000	96.686180 
3517.000000	96.685531 
3516.000000	96.684486 
3515.000000	96.683220 
3514.000000	96.682128 
3513.000000	96.681524 
3512.000000	96.681274 
3511.000000	96.680850 
3510.000000	96.679849 
3509.000000	96.678396 
3508.000000	96.677013 
3507.000000	96.676085 
3506.000000	96.675542 
3505.000000	96.675012 
3504.000000	96.674221 
3503.000000	96.673211 
3502.000000	96.672208 
3501.000000	96.671366 
3500.000000	96.670708 
3499.000000	96.670174 
3498.000000	96.669631 
3497.000000	96.668902 
3496.000000	96.667875 
3495.000000	96.666609 
3494.000000	96.665342 
3493.000000	96.664311 
3492.000000	96.663548 
3491.000000	96.662825 
3490.000000	96.661890 
3489.000000	96.660726 
3488.000000	96.659491 
3487.000000	96.658257 
3486.000000	96.656980 
3485.000000	96.655696 
3484.000000	96.654549 
3483.000000	96.653534 
3482.000000	96.652408 
3481.000000	96.650978 
3480.000000	96.649373 
3479.000000	96.647901 
3478.000000	96.646686 
3477.000000	96.645536 
3476.000000	96.644158 
3475.000000	96.642449 
3474.000000	96.640597 
3473.000000	96.638959 
3472.000000	96.637806 
3471.000000	96.637113 
3470.000000	96.636519 
3469.000000	96.635619 
3468.000000	96.634249 
3467.000000	96.632547 
3466.000000	96.630828 
3465.000000	96.629321 
3464.000000	96.627968 
3463.000000	96.626455 
3462.000000	96.624491 
3461.000000	96.622109 
3460.000000	96.619668 
3459.000000	96.617501 
3458.000000	96.615613 
3457.000000	96.613733 
3456.000000	96.611658 
3455.000000	96.609484 
3454.000000	96.607552 
3453.000000	96.606137 
3452.000000	96.605225 
3451.000000	96.604584 
3450.000000	96.603903 
3449.000000	96.602872 
3448.000000	96.601242 
3447.000000	96.598967 
3446.000000	96.596309 
3445.000000	96.593775 
3444.000000	96.591842 
3443.000000	96.590662 
3442.000000	96.589954 
3441.000000	96.589168 
3440.000000	96.587947 
3439.000000	96.586364 
3438.000000	96.584715 
3437.000000	96.583156 
3436.000000	96.581669 
3435.000000	96.580313 
3434.000000	96.579299 
3433.000000	96.578691 
3432.000000	96.578243 
3431.000000	96.577636 
3430.000000	96.576752 
3429.000000	96.575664 
3428.000000	96.574443 
3427.000000	96.573122 
3426.000000	96.571819 
3425.000000	96.570734 
3424.000000	96.569975 
3423.000000	96.569420 
3422.000000	96.568820 
3421.000000	96.568053 
3420.000000	96.567215 
3419.000000	96.566477 
3418.000000	96.565905 
3417.000000	96.565459 
3416.000000	96.565077 
3415.000000	96.564698 
3414.000000	96.564255 
3413.000000	96.563708 
3412.000000	96.563090 
3411.000000	96.562506 
3410.000000	96.562051 
3409.000000	96.561735 
3408.000000	96.561500 
3407.000000	96.561270 
3406.000000	96.561008 
3405.000000	96.560721 
3404.000000	96.560448 
3403.000000	96.560227 
3402.000000	96.560074 
3401.000000	96.559980 
3400.000000	96.559926 
3399.000000	96.559897 
3398.000000	96.559863 
3397.000000	96.559783 
3396.000000	96.559652 
3395.000000	96.559538 
3394.000000	96.559526 
3393.000000	96.559625 
3392.000000	96.559757 
3391.000000	96.559836 
3390.000000	96.559874 
3389.000000	96.559998 
3388.000000	96.560358 
3387.000000	96.561009 
3386.000000	96.561841 
3385.000000	96.562604 
3384.000000	96.563039 
3383.000000	96.563039 
3382.000000	96.562810 
3381.000000	96.562811 
3380.000000	96.563349 
3379.000000	96.564270 
3378.000000	96.565128 
3377.000000	96.565812 
3376.000000	96.566706 
3375.000000	96.568061 
3374.000000	96.569453 
3373.000000	96.570214 
3372.000000	96.570297 
3371.000000	96.570434 
3370.000000	96.571294 
3369.000000	96.572747 
3368.000000	96.574078 
3367.000000	96.574747 
3366.000000	96.574767 
3365.000000	96.574509 
3364.000000	96.574391 
3363.000000	96.574728 
3362.000000	96.575657 
3361.000000	96.577110 
3360.000000	96.578905 
3359.000000	96.580872 
3358.000000	96.582863 
3357.000000	96.584701 
3356.000000	96.586212 
3355.000000	96.587419 
3354.000000	96.588687 
3353.000000	96.590562 
3352.000000	96.593301 
3351.000000	96.596494 
3350.000000	96.599234 
3349.000000	96.600822 
3348.000000	96.601360 
3347.000000	96.601691 
3346.000000	96.602691 
3345.000000	96.604537 
3344.000000	96.606618 
3343.000000	96.608137 
3342.000000	96.608851 
3341.000000	96.609284 
3340.000000	96.610130 
3339.000000	96.611441 
3338.000000	96.612662 
3337.000000	96.613377 
3336.000000	96.613792 
3335.000000	96.614416 
3334.000000	96.615490 
3333.000000	96.616820 
3332.000000	96.618073 
3331.000000	96.619077 
3330.000000	96.619872 
3329.000000	96.620617 
3328.000000	96.621520 
3327.000000	96.622756 
3326.000000	96.624354 
3325.000000	96.626119 
3324.000000	96.627717 
3323.000000	96.628928 
3322.000000	96.629815 
3321.000000	96.630623 
3320.000000	96.631553 
3319.000000	96.632618 
3318.000000	96.633723 
3317.000000	96.634809 
3316.000000	96.635893 
3315.000000	96.637006 
3314.000000	96.638145 
3313.000000	96.639306 
3312.000000	96.640505 
3311.000000	96.641760 
3310.000000	96.643062 
3309.000000	96.644369 
3308.000000	96.645610 
3307.000000	96.646688 
3306.000000	96.647570 
3305.000000	96.648336 
3304.000000	96.649134 
3303.000000	96.650083 
3302.000000	96.651187 
3301.000000	96.652380 
3300.000000	96.653567 
3299.000000	96.654678 
3298.000000	96.655701 
3297.000000	96.656673 
3296.000000	96.657674 
3295.000000	96.658777 
3294.000000	96.660002 
3293.000000	96.661315 
3292.000000	96.662655 
3291.000000	96.663968 
3290.000000	96.665225 
3289.000000	96.666425 
3288.000000	96.667590 
3287.000000	96.668759 
3286.000000	96.669946 
3285.000000	96.671133 
3284.000000	96.672287 
3283.000000	96.673400 
3282.000000	96.674500 
3281.000000	96.675626 
3280.000000	96.676789 
3279.000000	96.677970 
3278.000000	96.679152 
3277.000000	96.680347 
3276.000000	96.681571 
3275.000000	96.682815 
3274.000000	96.684062 
3273.000000	96.685310 
3272.000000	96.686574 
3271.000000	96.687856 
3270.000000	96.689143 
3269.000000	96.690423 
3268.000000	96.691695 
3267.000000	96.692966 
3266.000000	96.694247 
3265.000000	96.695551 
3264.000000	96.696885 
3263.000000	96.698246 
3262.000000	96.699624 
3261.000000	96.701003 
3260.000000	96.702372 
3259.000000	96.703730 
3258.000000	96.705084 
3257.000000	96.706445 
3256.000000	96.707822 
3255.000000	96.709218 
3254.000000	96.710628 
3253.000000	96.712041 
3252.000000	96.713452 
3251.000000	96.714863 
3250.000000	96.716277 
3249.000000	96.717694 
3248.000000	96.719107 
3247.000000	96.720513 
3246.000000	96.721917 
3245.000000	96.723330 
3244.000000	96.724763 
3243.000000	96.726216 
3242.000000	96.727680 
3241.000000	96.729144 
3240.000000	96.730608 
3239.000000	96.732085 
3238.000000	96.733600 
3237.000000	96.735177 
3236.000000	96.736818 
3235.000000	96.738494 
3234.000000	96.740143 
3233.000000	96.741718 
3232.000000	96.743210 
3231.000000	96.744669 
3230.000000	96.746159 
3229.000000	96.747685 
3228.000000	96.749205 
3227.000000	96.750704 
3226.000000	96.752247 
3225.000000	96.753922 
3224.000000	96.755724 
3223.000000	96.757541 
3222.000000	96.759273 
3221.000000	96.760917 
3220.000000	96.762538 
3219.000000	96.764161 
3218.000000	96.765760 
3217.000000	96.767325 
3216.000000	96.768893 
3215.000000	96.770513 
3214.000000	96.772206 
3213.000000	96.773952 
3212.000000	96.775703 
3211.000000	96.777408 
3210.000000	96.779046 
3209.000000	96.780642 
3208.000000	96.782239 
3207.000000	96.783848 
3206.000000	96.785457 
3205.000000	96.787094 
3204.000000	96.788846 
3203.000000	96.790775 
3202.000000	96.792850 
3201.000000	96.794946 
3200.000000	96.796915 
3199.000000	96.798683 
3198.000000	96.800305 
3197.000000	96.801921 
3196.000000	96.803624 
3195.000000	96.805399 
3194.000000	96.807223 
3193.000000	96.809165 
3192.000000	96.811299 
3191.000000	96.813534 
3190.000000	96.815621 
3189.000000	96.817393 
3188.000000	96.818890 
3187.000000	96.820331 
3186.000000	96.821973 
3185.000000	96.823951 
3184.000000	96.826195 
3183.000000	96.828467 
3182.000000	96.830584 
3181.000000	96.832550 
3180.000000	96.834425 
3179.000000	96.836168 
3178.000000	96.837729 
3177.000000	96.839251 
3176.000000	96.841012 
3175.000000	96.843167 
3174.000000	96.845685 
3173.000000	96.848461 
3172.000000	96.851316 
3171.000000	96.853946 
3170.000000	96.856112 
3169.000000	96.857914 
3168.000000	96.859690 
3167.000000	96.861579 
3166.000000	96.863393 
3165.000000	96.864989 
3164.000000	96.866481 
3163.000000	96.868054 
3162.000000	96.869769 
3161.000000	96.871620 
3160.000000	96.873619 
3159.000000	96.875729 
3158.000000	96.877842 
3157.000000	96.879903 
3156.000000	96.881940 
3155.000000	96.883956 
3154.000000	96.885905 
3153.000000	96.887825 
3152.000000	96.889843 
3151.000000	96.891957 
3150.000000	96.893953 
3149.000000	96.895630 
3148.000000	96.897036 
3147.000000	96.898447 
3146.000000	96.900134 
3145.000000	96.902177 
3144.000000	96.904460 
3143.000000	96.906741 
3142.000000	96.908791 
3141.000000	96.910582 
3140.000000	96.912329 
3139.000000	96.914305 
3138.000000	96.916572 
3137.000000	96.918910 
3136.000000	96.920998 
3135.000000	96.922664 
3134.000000	96.923981 
3133.000000	96.925213 
3132.000000	96.926617 
3131.000000	96.928266 
3130.000000	96.930082 
3129.000000	96.932035 
3128.000000	96.934218 
3127.000000	96.936694 
3126.000000	96.939372 
3125.000000	96.942050 
3124.000000	96.944504 
3123.000000	96.946553 
3122.000000	96.948103 
3121.000000	96.949272 
3120.000000	96.950409 
3119.000000	96.951869 
3118.000000	96.953767 
3117.000000	96.955963 
3116.000000	96.958206 
3115.000000	96.960277 
3114.000000	96.962086 
3113.000000	96.963752 
3112.000000	96.965600 
3111.000000	96.967922 
3110.000000	96.970659 
3109.000000	96.973339 
3108.000000	96.975490 
3107.000000	96.977107 
3106.000000	96.978575 
3105.000000	96.980139 
3104.000000	96.981620 
3103.000000	96.982789 
3102.000000	96.983745 
3101.000000	96.984717 
3100.000000	96.985665 
3099.000000	96.986403 
3098.000000	96.987148 
3097.000000	96.988553 
3096.000000	96.990958 
3095.000000	96.993904 
3094.000000	96.996614 
3093.000000	96.998774 
3092.000000	97.000600 
3091.000000	97.002305 
3090.000000	97.003819 
3089.000000	97.005031 
3088.000000	97.006009 
3087.000000	97.006975 
3086.000000	97.008182 
3085.000000	97.009749 
3084.000000	97.011510 
3083.000000	97.013098 
3082.000000	97.014307 
3081.000000	97.015322 
3080.000000	97.016517 
3079.000000	97.018017 
3078.000000	97.019598 
3077.000000	97.021014 
3076.000000	97.022269 
3075.000000	97.023466 
3074.000000	97.024589 
3073.000000	97.025616 
3072.000000	97.026695 
3071.000000	97.027947 
3070.000000	97.029200 
3069.000000	97.030169 
3068.000000	97.030881 
3067.000000	97.031649 
3066.000000	97.032617 
3065.000000	97.033596 
3064.000000	97.034369 
3063.000000	97.034932 
3062.000000	97.035343 
3061.000000	97.035583 
3060.000000	97.035694 
3059.000000	97.035941 
3058.000000	97.036695 
3057.000000	97.038141 
3056.000000	97.040033 
3055.000000	97.041661 
3054.000000	97.042294 
3053.000000	97.041826 
3052.000000	97.041095 
3051.000000	97.041260 
3050.000000	97.042673 
3049.000000	97.044539 
3048.000000	97.045711 
3047.000000	97.045716 
3046.000000	97.044843 
3045.000000	97.043662 
3044.000000	97.042754 
3043.000000	97.042722 
3042.000000	97.043909 
3041.000000	97.045846 
3040.000000	97.047215 
3039.000000	97.046909 
3038.000000	97.045142 
3037.000000	97.043305 
3036.000000	97.042515 
3035.000000	97.042408 
3034.000000	97.041721 
3033.000000	97.039877 
3032.000000	97.037564 
3031.000000	97.035815 
3030.000000	97.035011 
3029.000000	97.034873 
3028.000000	97.034811 
3027.000000	97.033922 
3026.000000	97.031290 
3025.000000	97.027018 
3024.000000	97.022751 
3023.000000	97.020324 
3022.000000	97.019942 
3021.000000	97.020364 
3020.000000	97.020659 
3019.000000	97.020841 
3018.000000	97.020730 
3017.000000	97.019368 
3016.000000	97.016197 
3015.000000	97.012064 
3014.000000	97.008537 
3013.000000	97.006521 
3012.000000	97.005714 
3011.000000	97.004863 
3010.000000	97.002469 
3009.000000	96.997908 
3008.000000	96.992134 
3007.000000	96.986852 
3006.000000	96.982753 
3005.000000	96.979146 
3004.000000	96.975375 
3003.000000	96.971921 
3002.000000	96.969883 
3001.000000	96.969879 
3000.000000	96.971518 
2999.000000	96.973225 
2998.000000	96.972601 
2997.000000	96.968031 
2996.000000	96.960471 
2995.000000	96.953036 
2994.000000	96.948208 
2993.000000	96.945782 
2992.000000	96.943641 
2991.000000	96.939989 
2990.000000	96.934593 
2989.000000	96.928693 
2988.000000	96.924260 
2987.000000	96.922817 
2986.000000	96.924431 
2985.000000	96.927971 
2984.000000	96.932387 
2983.000000	96.937353 
2982.000000	96.942640 
2981.000000	96.947464 
2980.000000	96.950751 
2979.000000	96.951668 
2978.000000	96.949835 
2977.000000	96.945707 
2976.000000	96.941046 
2975.000000	96.938279 
2974.000000	96.938789 
2973.000000	96.942092 
2972.000000	96.946796 
2971.000000	96.951848 
2970.000000	96.956625 
2969.000000	96.960618 
2968.000000	96.963705 
2967.000000	96.966365 
2966.000000	96.969053 
2965.000000	96.971632 
2964.000000	96.973789 
2963.000000	96.975667 
2962.000000	96.977705 
2961.000000	96.980161 
2960.000000	96.983249 
2959.000000	96.987401 
2958.000000	96.992801 
2957.000000	96.998698 
2956.000000	97.003537 
2955.000000	97.005949 
2954.000000	97.005763 
2953.000000	97.004470 
2952.000000	97.004697 
2951.000000	97.008389 
2950.000000	97.014843 
2949.000000	97.020885 
2948.000000	97.023742 
2947.000000	97.023548 
2946.000000	97.022720 
2945.000000	97.023171 
2944.000000	97.024668 
2943.000000	97.025828 
2942.000000	97.025782 
2941.000000	97.024628 
2940.000000	97.023072 
2939.000000	97.022115 
2938.000000	97.022627 
2937.000000	97.024607 
2936.000000	97.026948 
2935.000000	97.028305 
2934.000000	97.028204 
2933.000000	97.027153 
2932.000000	97.025930 
2931.000000	97.025111 
2930.000000	97.025120 
2929.000000	97.026238 
2928.000000	97.028264 
2927.000000	97.030360 
2926.000000	97.031556 
2925.000000	97.031633 
2924.000000	97.031464 
2923.000000	97.032311 
2922.000000	97.034621 
2921.000000	97.037556 
2920.000000	97.039863 
2919.000000	97.041180 
2918.000000	97.042105 
2917.000000	97.042932 
2916.000000	97.042908 
2915.000000	97.041296 
2914.000000	97.038911 
2913.000000	97.037750 
2912.000000	97.038780 
2911.000000	97.040651 
2910.000000	97.041120 
2909.000000	97.039575 
2908.000000	97.037664 
2907.000000	97.037325 
2906.000000	97.038733 
2905.000000	97.040269 
2904.000000	97.040222 
2903.000000	97.038289 
2902.000000	97.036102 
2901.000000	97.035666 
2900.000000	97.037858 
2899.000000	97.042149 
2898.000000	97.047307 
2897.000000	97.052428 
2896.000000	97.056917 
2895.000000	97.060034 
2894.000000	97.061329 
2893.000000	97.061631 
2892.000000	97.062713 
2891.000000	97.065383 
2890.000000	97.068531 
2889.000000	97.070729 
2888.000000	97.072258 
2887.000000	97.074490 
2886.000000	97.077508 
2885.000000	97.079693 
2884.000000	97.080113 
2883.000000	97.080154 
2882.000000	97.081839 
2881.000000	97.085348 
2880.000000	97.089328 
2879.000000	97.093224 
2878.000000	97.097918 
2877.000000	97.103853 
2876.000000	97.109768 
2875.000000	97.113992 
2874.000000	97.116236 
2873.000000	97.117433 
2872.000000	97.118363 
2871.000000	97.119172 
2870.000000	97.119994 
2869.000000	97.121200 
2868.000000	97.122905 
2867.000000	97.124769 
2866.000000	97.126453 
2865.000000	97.127937 
2864.000000	97.129458 
2863.000000	97.131497 
2862.000000	97.134749 
2861.000000	97.139528 
2860.000000	97.145032 
2859.000000	97.149817 
2858.000000	97.153304 
2857.000000	97.156355 
2856.000000	97.160124 
2855.000000	97.164612 
2854.000000	97.168735 
2853.000000	97.171636 
2852.000000	97.173475 
2851.000000	97.175032 
2850.000000	97.176861 
2849.000000	97.178916 
2848.000000	97.180798 
2847.000000	97.182178 
2846.000000	97.183032 
2845.000000	97.183594 
2844.000000	97.184236 
2843.000000	97.185493 
2842.000000	97.187989 
2841.000000	97.191869 
2840.000000	97.196241 
2839.000000	97.199657 
2838.000000	97.201518 
2837.000000	97.202645 
2836.000000	97.204171 
2835.000000	97.206202 
2834.000000	97.208109 
2833.000000	97.209874 
2832.000000	97.212349 
2831.000000	97.216004 
2830.000000	97.220007 
2829.000000	97.222935 
2828.000000	97.224169 
2827.000000	97.224347 
2826.000000	97.224711 
2825.000000	97.226077 
2824.000000	97.228275 
2823.000000	97.230392 
2822.000000	97.231616 
2821.000000	97.231909 
2820.000000	97.231880 
2819.000000	97.232098 
2818.000000	97.232726 
2817.000000	97.233745 
2816.000000	97.235143 
2815.000000	97.236711 
2814.000000	97.237905 
2813.000000	97.238211 
2812.000000	97.237646 
2811.000000	97.236823 
2810.000000	97.236522 
2809.000000	97.237190 
2808.000000	97.238776 
2807.000000	97.240919 
2806.000000	97.243264 
2805.000000	97.245598 
2804.000000	97.247689 
2803.000000	97.249196 
2802.000000	97.249967 
2801.000000	97.250342 
2800.000000	97.250944 
2799.000000	97.252042 
2798.000000	97.253302 
2797.000000	97.254241 
2796.000000	97.254708 
2795.000000	97.254889 
2794.000000	97.255061 
2793.000000	97.255455 
2792.000000	97.256221 
2791.000000	97.257345 
2790.000000	97.258607 
2789.000000	97.259714 
2788.000000	97.260533 
2787.000000	97.261172 
2786.000000	97.261819 
2785.000000	97.262573 
2784.000000	97.263394 
2783.000000	97.264200 
2782.000000	97.264973 
2781.000000	97.265755 
2780.000000	97.266580 
2779.000000	97.267439 
2778.000000	97.268301 
2777.000000	97.269143 
2776.000000	97.269962 
2775.000000	97.270763 
2774.000000	97.271554 
2773.000000	97.272340 
2772.000000	97.273121 
2771.000000	97.273898 
2770.000000	97.274674 
2769.000000	97.275451 
2768.000000	97.276225 
2767.000000	97.276988 
2766.000000	97.277733 
2765.000000	97.278455 
2764.000000	97.279155 
2763.000000	97.279837 
2762.000000	97.280504 
2761.000000	97.281157 
2760.000000	97.281801 
2759.000000	97.282443 
2758.000000	97.283090 
2757.000000	97.283740 
2756.000000	97.284390 
2755.000000	97.285034 
2754.000000	97.285675 
2753.000000	97.286315 
2752.000000	97.286952 
2751.000000	97.287578 
2750.000000	97.288186 
2749.000000	97.288772 
2748.000000	97.289338 
2747.000000	97.289884 
2746.000000	97.290412 
2745.000000	97.290927 
2744.000000	97.291436 
2743.000000	97.291944 
2742.000000	97.292449 
2741.000000	97.292948 
2740.000000	97.293439 
2739.000000	97.293925 
2738.000000	97.294409 
2737.000000	97.294889 
2736.000000	97.295368 
2735.000000	97.295848 
2734.000000	97.296335 
2733.000000	97.296833 
2732.000000	97.297341 
2731.000000	97.297857 
2730.000000	97.298376 
2729.000000	97.298894 
2728.000000	97.299406 
2727.000000	97.299907 
2726.000000	97.300394 
2725.000000	97.300871 
2724.000000	97.301345 
2723.000000	97.301822 
2722.000000	97.302304 
2721.000000	97.302790 
2720.000000	97.303277 
2719.000000	97.303768 
2718.000000	97.304264 
2717.000000	97.304762 
2716.000000	97.305257 
2715.000000	97.305743 
2714.000000	97.306221 
2713.000000	97.306693 
2712.000000	97.307159 
2711.000000	97.307619 
2710.000000	97.308074 
2709.000000	97.308527 
2708.000000	97.308988 
2707.000000	97.309460 
2706.000000	97.309941 
2705.000000	97.310422 
2704.000000	97.310898 
2703.000000	97.311364 
2702.000000	97.311818 
2701.000000	97.312262 
2700.000000	97.312699 
2699.000000	97.313130 
2698.000000	97.313549 
2697.000000	97.313947 
2696.000000	97.314314 
2695.000000	97.314647 
2694.000000	97.314949 
2693.000000	97.315226 
2692.000000	97.315479 
2691.000000	97.315706 
2690.000000	97.315904 
2689.000000	97.316072 
2688.000000	97.316209 
2687.000000	97.316313 
2686.000000	97.316385 
2685.000000	97.316436 
2684.000000	97.316486 
2683.000000	97.316544 
2682.000000	97.316580 
2681.000000	97.316551 
2680.000000	97.316465 
2679.000000	97.316397 
2678.000000	97.316399 
2677.000000	97.316468 
2676.000000	97.316593 
2675.000000	97.316711 
2674.000000	97.316646 
2673.000000	97.316283 
2672.000000	97.315812 
2671.000000	97.315580 
2670.000000	97.315647 
2669.000000	97.315746 
2668.000000	97.315713 
2667.000000	97.315650 
2666.000000	97.315507 
2665.000000	97.314901 
2664.000000	97.313640 
2663.000000	97.312205 
2662.000000	97.311383 
2661.000000	97.311454 
2660.000000	97.311945 
2659.000000	97.312069 
2658.000000	97.311365 
2657.000000	97.309936 
2656.000000	97.308283 
2655.000000	97.306864 
2654.000000	97.305726 
2653.000000	97.304705 
2652.000000	97.303954 
2651.000000	97.303947 
2650.000000	97.304787 
2649.000000	97.305747 
2648.000000	97.305888 
2647.000000	97.304980 
2646.000000	97.303501 
2645.000000	97.301937 
2644.000000	97.300401 
2643.000000	97.298943 
2642.000000	97.297774 
2641.000000	97.297029 
2640.000000	97.296653 
2639.000000	97.296655 
2638.000000	97.297183 
2637.000000	97.298193 
2636.000000	97.299304 
2635.000000	97.300174 
2634.000000	97.300791 
2633.000000	97.301183 
2632.000000	97.301084 
2631.000000	97.300242 
2630.000000	97.298941 
2629.000000	97.297859 
2628.000000	97.297357 
2627.000000	97.297190 
2626.000000	97.297008 
2625.000000	97.296855 
2624.000000	97.297017 
2623.000000	97.297553 
2622.000000	97.298133 
2621.000000	97.298288 
2620.000000	97.297725 
2619.000000	97.296480 
2618.000000	97.294983 
2617.000000	97.293879 
2616.000000	97.293531 
2615.000000	97.293735 
2614.000000	97.293911 
2613.000000	97.293673 
2612.000000	97.293150 
2611.000000	97.292746 
2610.000000	97.292735 
2609.000000	97.293111 
2608.000000	97.293660 
2607.000000	97.294097 
2606.000000	97.294244 
2605.000000	97.294114 
2604.000000	97.293786 
2603.000000	97.293270 
2602.000000	97.292604 
2601.000000	97.292027 
2600.000000	97.291812 
2599.000000	97.291899 
2598.000000	97.291871 
2597.000000	97.291422 
2596.000000	97.290676 
2595.000000	97.289983 
2594.000000	97.289509 
2593.000000	97.289226 
2592.000000	97.289233 
2591.000000	97.289673 
2590.000000	97.290320 
2589.000000	97.290611 
2588.000000	97.290263 
2587.000000	97.289631 
2586.000000	97.289329 
2585.000000	97.289636 
2584.000000	97.290387 
2583.000000	97.291211 
2582.000000	97.291740 
2581.000000	97.291788 
2580.000000	97.291513 
2579.000000	97.291323 
2578.000000	97.291463 
2577.000000	97.291722 
2576.000000	97.291682 
2575.000000	97.291166 
2574.000000	97.290383 
2573.000000	97.289686 
2572.000000	97.289173 
2571.000000	97.288534 
2570.000000	97.287420 
2569.000000	97.286027 
2568.000000	97.285162 
2567.000000	97.285441 
2566.000000	97.286548 
2565.000000	97.287472 
2564.000000	97.287555 
2563.000000	97.287035 
2562.000000	97.286552 
2561.000000	97.286521 
2560.000000	97.287079 
2559.000000	97.288259 
2558.000000	97.289838 
2557.000000	97.291210 
2556.000000	97.291856 
2555.000000	97.291887 
2554.000000	97.291838 
2553.000000	97.291880 
2552.000000	97.291611 
2551.000000	97.290830 
2550.000000	97.290035 
2549.000000	97.289824 
2548.000000	97.290050 
2547.000000	97.290012 
2546.000000	97.289465 
2545.000000	97.288954 
2544.000000	97.288991 
2543.000000	97.289310 
2542.000000	97.289271 
2541.000000	97.288821 
2540.000000	97.288571 
2539.000000	97.288916 
2538.000000	97.289517 
2537.000000	97.289770 
2536.000000	97.289606 
2535.000000	97.289514 
2534.000000	97.289872 
2533.000000	97.290494 
2532.000000	97.290897 
2531.000000	97.290850 
2530.000000	97.290477 
2529.000000	97.289993 
2528.000000	97.289492 
2527.000000	97.289034 
2526.000000	97.288763 
2525.000000	97.288827 
2524.000000	97.289231 
2523.000000	97.289809 
2522.000000	97.290374 
2521.000000	97.290828 
2520.000000	97.291142 
2519.000000	97.291262 
2518.000000	97.291102 
2517.000000	97.290574 
2516.000000	97.289615 
2515.000000	97.288291 
2514.000000	97.287002 
2513.000000	97.286386 
2512.000000	97.286796 
2511.000000	97.287948 
2510.000000	97.289233 
2509.000000	97.290326 
2508.000000	97.291224 
2507.000000	97.291832 
2506.000000	97.292024 
2505.000000	97.292163 
2504.000000	97.292956 
2503.000000	97.294468 
2502.000000	97.295702 
2501.000000	97.295676 
2500.000000	97.294502 
2499.000000	97.293068 
2498.000000	97.291914 
2497.000000	97.290959 
2496.000000	97.290297 
2495.000000	97.290382 
2494.000000	97.291252 
2493.000000	97.292141 
2492.000000	97.292377 
2491.000000	97.292319 
2490.000000	97.292891 
2489.000000	97.294324 
2488.000000	97.295754 
2487.000000	97.296189 
2486.000000	97.295615 
2485.000000	97.294960 
2484.000000	97.295123 
2483.000000	97.296162 
2482.000000	97.297442 
2481.000000	97.298352 
2480.000000	97.298765 
2479.000000	97.298892 
2478.000000	97.298964 
2477.000000	97.299092 
2476.000000	97.299220 
2475.000000	97.299104 
2474.000000	97.298461 
2473.000000	97.297277 
2472.000000	97.295932 
2471.000000	97.294861 
2470.000000	97.294271 
2469.000000	97.294187 
2468.000000	97.294534 
2467.000000	97.295036 
2466.000000	97.295251 
2465.000000	97.294957 
2464.000000	97.294497 
2463.000000	97.294563 
2462.000000	97.295607 
2461.000000	97.297513 
2460.000000	97.299689 
2459.000000	97.301387 
2458.000000	97.301974 
2457.000000	97.301176 
2456.000000	97.299225 
2455.000000	97.296881 
2454.000000	97.295072 
2453.000000	97.294193 
2452.000000	97.293813 
2451.000000	97.293256 
2450.000000	97.292576 
2449.000000	97.292591 
2448.000000	97.293740 
2447.000000	97.295323 
2446.000000	97.296209 
2445.000000	97.296079 
2444.000000	97.295494 
2443.000000	97.295056 
2442.000000	97.294994 
2441.000000	97.295404 
2440.000000	97.296255 
2439.000000	97.297265 
2438.000000	97.298263 
2437.000000	97.299600 
2436.000000	97.301653 
2435.000000	97.303972 
2434.000000	97.305444 
2433.000000	97.305507 
2432.000000	97.304745 
2431.000000	97.304316 
2430.000000	97.304887 
2429.000000	97.306345 
2428.000000	97.308090 
2427.000000	97.309365 
2426.000000	97.309650 
2425.000000	97.308997 
2424.000000	97.308007 
2423.000000	97.307283 
2422.000000	97.307036 
2421.000000	97.307291 
2420.000000	97.308105 
2419.000000	97.309354 
2418.000000	97.310651 
2417.000000	97.311884 
2416.000000	97.313387 
2415.000000	97.315240 
2414.000000	97.316820 
2413.000000	97.317601 
2412.000000	97.317936 
2411.000000	97.318454 
2410.000000	97.319121 
2409.000000	97.319714 
2408.000000	97.320562 
2407.000000	97.321874 
2406.000000	97.322881 
2405.000000	97.322578 
2404.000000	97.321044 
2403.000000	97.319346 
2402.000000	97.318415 
2401.000000	97.318602 
2400.000000	97.319950 
2399.000000	97.322098 
2398.000000	97.324107 
2397.000000	97.325313 
2396.000000	97.326036 
2395.000000	97.326823 
2394.000000	97.327327 
2393.000000	97.326712 
2392.000000	97.325038 
2391.000000	97.323392 
2390.000000	97.322569 
2389.000000	97.322287 
2388.000000	97.321896 
2387.000000	97.321092 
2386.000000	97.319820 
2385.000000	97.318136 
2384.000000	97.316485 
2383.000000	97.315582 
2382.000000	97.315817 
2381.000000	97.317150 
2380.000000	97.319539 
2379.000000	97.322913 
2378.000000	97.326437 
2377.000000	97.328444 
2376.000000	97.327872 
2375.000000	97.325314 
2374.000000	97.322159 
2373.000000	97.318873 
2372.000000	97.315099 
2371.000000	97.311287 
2370.000000	97.308939 
2369.000000	97.308887 
2368.000000	97.310182 
2367.000000	97.310871 
2366.000000	97.309898 
2365.000000	97.307660 
2364.000000	97.305098 
2363.000000	97.302897 
2362.000000	97.301545 
2361.000000	97.301294 
2360.000000	97.301185 
2359.000000	97.299411 
2358.000000	97.295613 
2357.000000	97.292164 
2356.000000	97.291799 
2355.000000	97.294668 
2354.000000	97.298152 
2353.000000	97.299031 
2352.000000	97.296115 
2351.000000	97.290089 
2350.000000	97.282270 
2349.000000	97.274814 
2348.000000	97.270596 
2347.000000	97.270592 
2346.000000	97.271448 
2345.000000	97.269283 
2344.000000	97.264036 
2343.000000	97.258370 
2342.000000	97.255463 
2341.000000	97.257245 
2340.000000	97.262649 
2339.000000	97.267421 
2338.000000	97.267773 
2337.000000	97.263184 
2336.000000	97.256255 
2335.000000	97.249818 
2334.000000	97.244888 
2333.000000	97.240098 
2332.000000	97.234126 
2331.000000	97.226749 
2330.000000	97.217673 
2329.000000	97.205604 
2328.000000	97.190583 
2327.000000	97.176051 
2326.000000	97.165490 
2325.000000	97.159470 
2324.000000	97.156834 
2323.000000	97.156867 
2322.000000	97.158355 
2321.000000	97.158613 
2320.000000	97.157455 
2319.000000	97.158657 
2318.000000	97.165450 
2317.000000	97.175648 
2316.000000	97.184034 
2315.000000	97.187492 
2314.000000	97.186152 
2313.000000	97.181427 
2312.000000	97.175281 
2311.000000	97.170505 
2310.000000	97.168379 
2309.000000	97.167136 
2308.000000	97.164610 
2307.000000	97.161872 
2306.000000	97.161457 
2305.000000	97.163115 
2304.000000	97.164186 
2303.000000	97.163806 
2302.000000	97.164227 
2301.000000	97.167236 
2300.000000	97.171596 
2299.000000	97.174213 
2298.000000	97.173050 
2297.000000	97.168726 
2296.000000	97.164094 
2295.000000	97.162516 
2294.000000	97.165111 
2293.000000	97.169917 
2292.000000	97.173817 
2291.000000	97.175582 
2290.000000	97.176119 
2289.000000	97.176826 
2288.000000	97.178227 
2287.000000	97.180105 
2286.000000	97.181957 
2285.000000	97.183476 
2284.000000	97.184886 
2283.000000	97.186520 
2282.000000	97.188076 
2281.000000	97.188710 
2280.000000	97.187972 
2279.000000	97.186149 
2278.000000	97.183869 
2277.000000	97.181765 
2276.000000	97.180572 
2275.000000	97.180802 
2274.000000	97.182136 
2273.000000	97.183789 
2272.000000	97.185608 
2271.000000	97.187993 
2270.000000	97.190500 
2269.000000	97.191730 
2268.000000	97.191148 
2267.000000	97.189967 
2266.000000	97.189402 
2265.000000	97.189120 
2264.000000	97.188155 
2263.000000	97.186319 
2262.000000	97.184011 
2261.000000	97.181542 
2260.000000	97.179325 
2259.000000	97.177989 
2258.000000	97.177639 
2257.000000	97.177581 
2256.000000	97.177342 
2255.000000	97.177338 
2254.000000	97.177915 
2253.000000	97.178281 
2252.000000	97.177277 
2251.000000	97.174725 
2250.000000	97.171332 
2249.000000	97.167820 
2248.000000	97.164724 
2247.000000	97.162527 
2246.000000	97.161283 
2245.000000	97.160409 
2244.000000	97.159160 
2243.000000	97.157388 
2242.000000	97.155452 
2241.000000	97.153684 
2240.000000	97.152140 
2239.000000	97.150723 
2238.000000	97.149310 
2237.000000	97.147766 
2236.000000	97.146018 
2235.000000	97.144141 
2234.000000	97.142286 
2233.000000	97.140522 
2232.000000	97.138801 
2231.000000	97.137047 
2230.000000	97.135206 
2229.000000	97.133246 
2228.000000	97.131187 
2227.000000	97.129112 
2226.000000	97.127103 
2225.000000	97.125164 
2224.000000	97.123240 
2223.000000	97.121268 
2222.000000	97.119256 
2221.000000	97.117260 
2220.000000	97.115292 
2219.000000	97.113320 
2218.000000	97.111329 
2217.000000	97.109353 
2216.000000	97.107427 
2215.000000	97.105545 
2214.000000	97.103659 
2213.000000	97.101731 
2212.000000	97.099762 
2211.000000	97.097801 
2210.000000	97.095908 
2209.000000	97.094088 
2208.000000	97.092284 
2207.000000	97.090436 
2206.000000	97.088548 
2205.000000	97.086698 
2204.000000	97.085072 
2203.000000	97.083963 
2202.000000	97.083496 
2201.000000	97.083262 
2200.000000	97.082243 
2199.000000	97.079592 
2198.000000	97.075443 
2197.000000	97.070829 
2196.000000	97.066818 
2195.000000	97.063845 
2194.000000	97.061882 
2193.000000	97.060939 
2192.000000	97.060994 
2191.000000	97.061340 
2190.000000	97.060554 
2189.000000	97.057847 
2188.000000	97.054325 
2187.000000	97.051819 
2186.000000	97.050187 
2185.000000	97.047192 
2184.000000	97.042137 
2183.000000	97.038288 
2182.000000	97.039473 
2181.000000	97.044847 
2180.000000	97.048894 
2179.000000	97.047429 
2178.000000	97.041722 
2177.000000	97.036443 
2176.000000	97.034860 
2175.000000	97.036672 
2174.000000	97.039316 
2173.000000	97.040395 
2172.000000	97.039730 
2171.000000	97.039600 
2170.000000	97.042205 
2169.000000	97.046665 
2168.000000	97.049646 
2167.000000	97.049216 
2166.000000	97.046270 
2165.000000	97.041481 
2164.000000	97.033365 
2163.000000	97.021875 
2162.000000	97.012644 
2161.000000	97.013779 
2160.000000	97.028193 
2159.000000	97.050615 
2158.000000	97.071726 
2157.000000	97.085729 
2156.000000	97.092637 
2155.000000	97.095216 
2154.000000	97.096207 
2153.000000	97.097679 
2152.000000	97.100842 
2151.000000	97.105172 
2150.000000	97.108313 
2149.000000	97.108592 
2148.000000	97.108128 
2147.000000	97.111684 
2146.000000	97.121159 
2145.000000	97.132622 
2144.000000	97.140654 
2143.000000	97.144515 
2142.000000	97.147562 
2141.000000	97.151642 
2140.000000	97.155311 
2139.000000	97.158027 
2138.000000	97.162637 
2137.000000	97.171596 
2136.000000	97.182582 
2135.000000	97.190092 
2134.000000	97.190803 
2133.000000	97.186311 
2132.000000	97.181561 
2131.000000	97.180923 
2130.000000	97.185193 
2129.000000	97.191510 
2128.000000	97.196276 
2127.000000	97.198575 
2126.000000	97.200370 
2125.000000	97.203444 
2124.000000	97.207056 
2123.000000	97.208932 
2122.000000	97.207596 
2121.000000	97.203194 
2120.000000	97.196834 
2119.000000	97.189913 
2118.000000	97.184039 
2117.000000	97.180651 
2116.000000	97.179839 
2115.000000	97.179810 
2114.000000	97.177983 
2113.000000	97.173529 
2112.000000	97.168831 
2111.000000	97.167425 
2110.000000	97.170363 
2109.000000	97.175396 
2108.000000	97.179719 
2107.000000	97.182391 
2106.000000	97.183684 
2105.000000	97.183870 
2104.000000	97.183717 
2103.000000	97.184491 
2102.000000	97.185812 
2101.000000	97.184851 
2100.000000	97.179705 
2099.000000	97.172767 
2098.000000	97.169004 
2097.000000	97.170713 
2096.000000	97.175741 
2095.000000	97.180215 
2094.000000	97.182000 
2093.000000	97.181135 
2092.000000	97.178412 
2091.000000	97.174897 
2090.000000	97.171944 
2089.000000	97.170361 
2088.000000	97.169579 
2087.000000	97.168185 
2086.000000	97.165285 
2085.000000	97.161133 
2084.000000	97.156749 
2083.000000	97.153122 
2082.000000	97.150630 
2081.000000	97.149068 
2080.000000	97.148211 
2079.000000	97.148170 
2078.000000	97.148851 
2077.000000	97.149307 
2076.000000	97.148415 
2075.000000	97.146229 
2074.000000	97.143798 
2073.000000	97.141354 
2072.000000	97.137795 
2071.000000	97.132476 
2070.000000	97.126542 
2069.000000	97.121833 
2068.000000	97.119111 
2067.000000	97.117777 
2066.000000	97.116654 
2065.000000	97.114657 
2064.000000	97.111351 
2063.000000	97.107512 
2062.000000	97.104801 
2061.000000	97.104214 
2060.000000	97.105108 
2059.000000	97.106045 
2058.000000	97.106017 
2057.000000	97.104685 
2056.000000	97.101853 
2055.000000	97.097336 
2054.000000	97.091561 
2053.000000	97.085783 
2052.000000	97.081383 
2051.000000	97.078852 
2050.000000	97.077611 
2049.000000	97.076587 
2048.000000	97.075178 
2047.000000	97.073553 
2046.000000	97.072009 
2045.000000	97.070468 
2044.000000	97.068734 
2043.000000	97.066930 
2042.000000	97.065383 
2041.000000	97.064187 
2040.000000	97.063199 
2039.000000	97.062495 
2038.000000	97.062329 
2037.000000	97.062448 
2036.000000	97.062038 
2035.000000	97.060651 
2034.000000	97.058891 
2033.000000	97.057909 
2032.000000	97.058258 
2031.000000	97.059365 
2030.000000	97.059893 
2029.000000	97.058710 
2028.000000	97.055782 
2027.000000	97.052253 
2026.000000	97.049425 
2025.000000	97.047783 
2024.000000	97.047344 
2023.000000	97.048521 
2022.000000	97.051819 
2021.000000	97.056451 
2020.000000	97.059983 
2019.000000	97.060185 
2018.000000	97.056773 
2017.000000	97.051555 
2016.000000	97.047041 
2015.000000	97.044611 
2014.000000	97.043722 
2013.000000	97.042432 
2012.000000	97.039662 
2011.000000	97.037291 
2010.000000	97.038530 
2009.000000	97.043770 
2008.000000	97.049256 
2007.000000	97.051242 
2006.000000	97.050308 
2005.000000	97.049895 
2004.000000	97.051816 
2003.000000	97.055110 
2002.000000	97.058402 
2001.000000	97.060753 
2000.000000	97.060500 
1999.000000	97.055682 
1998.000000	97.046242 
1997.000000	97.035080 
1996.000000	97.026325 
1995.000000	97.022520 
1994.000000	97.023451 
1993.000000	97.026543 
1992.000000	97.028520 
1991.000000	97.028237 
1990.000000	97.027700 
1989.000000	97.029487 
1988.000000	97.033442 
1987.000000	97.036495 
1986.000000	97.035815 
1985.000000	97.031564 
1984.000000	97.026320 
1983.000000	97.022374 
1982.000000	97.020170 
1981.000000	97.019147 
1980.000000	97.019383 
1979.000000	97.021681 
1978.000000	97.025839 
1977.000000	97.029882 
1976.000000	97.031826 
1975.000000	97.031888 
1974.000000	97.032221 
1973.000000	97.034719 
1972.000000	97.039476 
1971.000000	97.045089 
1970.000000	97.049768 
1969.000000	97.052163 
1968.000000	97.051828 
1967.000000	97.049626 
1966.000000	97.047734 
1965.000000	97.048327 
1964.000000	97.052078 
1963.000000	97.058040 
1962.000000	97.064552 
1961.000000	97.070071 
1960.000000	97.073641 
1959.000000	97.075151 
1958.000000	97.075487 
1957.000000	97.076245 
1956.000000	97.078548 
1955.000000	97.082151 
1954.000000	97.085867 
1953.000000	97.088846 
1952.000000	97.091146 
1951.000000	97.093159 
1950.000000	97.095188 
1949.000000	97.097652 
1948.000000	97.101047 
1947.000000	97.105316 
1946.000000	97.109490 
1945.000000	97.112453 
1944.000000	97.113928 
1943.000000	97.114503 
1942.000000	97.115045 
1941.000000	97.116110 
1940.000000	97.117838 
1939.000000	97.120031 
1938.000000	97.122359 
1937.000000	97.124775 
1936.000000	97.127581 
1935.000000	97.130791 
1934.000000	97.133737 
1933.000000	97.135807 
1932.000000	97.137399 
1931.000000	97.139551 
1930.000000	97.142650 
1929.000000	97.145809 
1928.000000	97.147954 
1927.000000	97.149002 
1926.000000	97.149627 
1925.000000	97.150417 
1924.000000	97.151543 
1923.000000	97.153052 
1922.000000	97.154697 
1921.000000	97.155847 
1920.000000	97.156318 
1919.000000	97.156775 
1918.000000	97.157671 
1917.000000	97.158258 
1916.000000	97.157827 
1915.000000	97.157301 
1914.000000	97.158059 
1913.000000	97.160014 
1912.000000	97.161888 
1911.000000	97.163120 
1910.000000	97.164338 
1909.000000	97.165865 
1908.000000	97.167218 
1907.000000	97.167948 
1906.000000	97.167912 
1905.000000	97.166841 
1904.000000	97.164671 
1903.000000	97.162455 
1902.000000	97.161600 
1901.000000	97.162175 
1900.000000	97.163178 
1899.000000	97.164024 
1898.000000	97.164833 
1897.000000	97.165555 
1896.000000	97.165693 
1895.000000	97.165098 
1894.000000	97.164180 
1893.000000	97.163225 
1892.000000	97.162301 
1891.000000	97.161802 
1890.000000	97.162211 
1889.000000	97.163244 
1888.000000	97.164189 
1887.000000	97.164972 
1886.000000	97.165924 
1885.000000	97.166822 
1884.000000	97.167096 
1883.000000	97.166750 
1882.000000	97.166481 
1881.000000	97.166873 
1880.000000	97.167831 
1879.000000	97.168885 
1878.000000	97.169697 
1877.000000	97.170320 
1876.000000	97.170997 
1875.000000	97.171905 
1874.000000	97.173050 
1873.000000	97.174269 
1872.000000	97.175364 
1871.000000	97.176280 
1870.000000	97.177111 
1869.000000	97.177954 
1868.000000	97.178848 
1867.000000	97.179860 
1866.000000	97.181035 
1865.000000	97.182267 
1864.000000	97.183435 
1863.000000	97.184601 
1862.000000	97.185968 
1861.000000	97.187592 
1860.000000	97.189308 
1859.000000	97.190968 
1858.000000	97.192617 
1857.000000	97.194311 
1856.000000	97.196019 
1855.000000	97.197716 
1854.000000	97.199419 
1853.000000	97.201116 
1852.000000	97.202808 
1851.000000	97.204574 
1850.000000	97.206476 
1849.000000	97.208459 
1848.000000	97.210375 
1847.000000	97.212158 
1846.000000	97.213866 
1845.000000	97.215590 
1844.000000	97.217310 
1843.000000	97.218976 
1842.000000	97.220656 
1841.000000	97.222428 
1840.000000	97.224322 
1839.000000	97.226366 
1838.000000	97.228451 
1837.000000	97.230237 
1836.000000	97.231472 
1835.000000	97.232369 
1834.000000	97.233462 
1833.000000	97.234887 
1832.000000	97.236386 
1831.000000	97.237673 
1830.000000	97.238647 
1829.000000	97.239461 
1828.000000	97.240413 
1827.000000	97.241745 
1826.000000	97.243554 
1825.000000	97.245628 
1824.000000	97.247368 
1823.000000	97.248393 
1822.000000	97.249055 
1821.000000	97.249827 
1820.000000	97.250614 
1819.000000	97.251165 
1818.000000	97.252062 
1817.000000	97.254035 
1816.000000	97.256224 
1815.000000	97.257393 
1814.000000	97.257953 
1813.000000	97.259287 
1812.000000	97.261164 
1811.000000	97.261444 
1810.000000	97.259809 
1809.000000	97.258418 
1808.000000	97.258209 
1807.000000	97.258308 
1806.000000	97.258660 
1805.000000	97.260079 
1804.000000	97.262077 
1803.000000	97.263031 
1802.000000	97.262212 
1801.000000	97.260657 
1800.000000	97.259313 
1799.000000	97.258035 
1798.000000	97.257483 
1797.000000	97.258050 
1796.000000	97.258241 
1795.000000	97.256992 
1794.000000	97.255643 
1793.000000	97.256324 
1792.000000	97.258261 
1791.000000	97.259096 
1790.000000	97.259695 
1789.000000	97.261928 
1788.000000	97.265113 
1787.000000	97.267363 
1786.000000	97.268280 
1785.000000	97.268674 
1784.000000	97.268785 
1783.000000	97.268941 
1782.000000	97.269686 
1781.000000	97.271039 
1780.000000	97.272468 
1779.000000	97.273659 
1778.000000	97.275496 
1777.000000	97.278366 
1776.000000	97.281183 
1775.000000	97.282746 
1774.000000	97.282837 
1773.000000	97.282654 
1772.000000	97.283269 
1771.000000	97.283984 
1770.000000	97.284226 
1769.000000	97.284787 
1768.000000	97.286406 
1767.000000	97.288658 
1766.000000	97.290586 
1765.000000	97.292086 
1764.000000	97.293704 
1763.000000	97.295475 
1762.000000	97.296803 
1761.000000	97.297638 
1760.000000	97.298536 
1759.000000	97.299546 
1758.000000	97.300343 
1757.000000	97.300864 
1756.000000	97.301779 
1755.000000	97.302956 
1754.000000	97.303029 
1753.000000	97.301210 
1752.000000	97.298842 
1751.000000	97.298528 
1750.000000	97.300973 
1749.000000	97.304501 
1748.000000	97.307505 
1747.000000	97.309810 
1746.000000	97.311286 
1745.000000	97.312235 
1744.000000	97.313683 
1743.000000	97.315394 
1742.000000	97.315937 
1741.000000	97.315408 
1740.000000	97.315760 
1739.000000	97.317841 
1738.000000	97.319725 
1737.000000	97.319902 
1736.000000	97.318562 
1735.000000	97.317287 
1734.000000	97.317204 
1733.000000	97.316907 
1732.000000	97.316448 
1731.000000	97.318069 
1730.000000	97.322402 
1729.000000	97.326834 
1728.000000	97.329287 
1727.000000	97.330057 
1726.000000	97.330092 
1725.000000	97.329637 
1724.000000	97.328702 
1723.000000	97.327611 
1722.000000	97.327265 
1721.000000	97.327636 
1720.000000	97.327865 
1719.000000	97.327072 
1718.000000	97.325317 
1717.000000	97.323314 
1716.000000	97.319921 
1715.000000	97.315244 
1714.000000	97.312588 
1713.000000	97.312605 
1712.000000	97.312320 
1711.000000	97.310491 
1710.000000	97.308646 
1709.000000	97.307428 
1708.000000	97.305780 
1707.000000	97.303374 
1706.000000	97.301502 
1705.000000	97.300317 
1704.000000	97.297050 
1703.000000	97.290695 
1702.000000	97.282875 
1701.000000	97.277686 
1700.000000	97.276023 
1699.000000	97.273407 
1698.000000	97.269762 
1697.000000	97.267788 
1696.000000	97.266984 
1695.000000	97.265210 
1694.000000	97.262156 
1693.000000	97.258985 
1692.000000	97.256018 
1691.000000	97.252826 
1690.000000	97.249219 
1689.000000	97.245310 
1688.000000	97.241259 
1687.000000	97.237102 
1686.000000	97.232859 
1685.000000	97.229311 
1684.000000	97.225983 
1683.000000	97.221692 
1682.000000	97.217133 
1681.000000	97.212879 
1680.000000	97.209373 
1679.000000	97.206292 
1678.000000	97.202653 
1677.000000	97.197685 
1676.000000	97.192396 
1675.000000	97.188260 
1674.000000	97.183994 
1673.000000	97.178098 
1672.000000	97.172087 
1671.000000	97.168449 
1670.000000	97.167447 
1669.000000	97.165778 
1668.000000	97.162631 
1667.000000	97.160273 
1666.000000	97.158258 
1665.000000	97.155300 
1664.000000	97.152444 
1663.000000	97.151583 
1662.000000	97.150595 
1661.000000	97.145166 
1660.000000	97.137487 
1659.000000	97.132579 
1658.000000	97.131966 
1657.000000	97.131329 
1656.000000	97.128944 
1655.000000	97.124185 
1654.000000	97.119030 
1653.000000	97.110803 
1652.000000	97.095971 
1651.000000	97.082841 
1650.000000	97.073226 
1649.000000	97.068332 
1648.000000	97.066782 
1647.000000	97.066816 
1646.000000	97.065632 
1645.000000	97.064388 
1644.000000	97.062472 
1643.000000	97.060681 
1642.000000	97.060656 
1641.000000	97.062644 
1640.000000	97.064801 
1639.000000	97.064496 
1638.000000	97.060950 
1637.000000	97.055587 
1636.000000	97.050905 
1635.000000	97.050223 
1634.000000	97.054094 
1633.000000	97.058451 
1632.000000	97.059229 
1631.000000	97.057336 
1630.000000	97.056993 
1629.000000	97.059688 
1628.000000	97.063686 
1627.000000	97.068051 
1626.000000	97.072487 
1625.000000	97.075658 
1624.000000	97.077863 
1623.000000	97.081760 
1622.000000	97.087834 
1621.000000	97.092481 
1620.000000	97.094905 
1619.000000	97.098070 
1618.000000	97.104008 
1617.000000	97.108959 
1616.000000	97.108062 
1615.000000	97.105662 
1614.000000	97.106398 
1613.000000	97.107888 
1612.000000	97.107659 
1611.000000	97.108368 
1610.000000	97.112866 
1609.000000	97.119442 
1608.000000	97.126397 
1607.000000	97.135235 
1606.000000	97.145011 
1605.000000	97.151978 
1604.000000	97.156221 
1603.000000	97.160535 
1602.000000	97.165282 
1601.000000	97.168641 
1600.000000	97.170935 
1599.000000	97.174542 
1598.000000	97.179722 
1597.000000	97.184795 
1596.000000	97.189240 
1595.000000	97.194166 
1594.000000	97.199761 
1593.000000	97.204387 
1592.000000	97.207352 
1591.000000	97.210155 
1590.000000	97.213888 
1589.000000	97.217646 
1588.000000	97.221026 
1587.000000	97.225449 
1586.000000	97.231156 
1585.000000	97.235569 
1584.000000	97.237830 
1583.000000	97.240549 
1582.000000	97.244902 
1581.000000	97.249195 
1580.000000	97.252677 
1579.000000	97.257123 
1578.000000	97.263628 
1577.000000	97.270711 
1576.000000	97.275549 
1575.000000	97.277975 
1574.000000	97.279200 
1573.000000	97.279588 
1572.000000	97.280534 
1571.000000	97.283776 
1570.000000	97.288281 
1569.000000	97.289125 
1568.000000	97.286876 
1567.000000	97.285975 
1566.000000	97.287358 
1565.000000	97.288982 
1564.000000	97.291097 
1563.000000	97.293078 
1562.000000	97.293353 
1561.000000	97.288506 
1560.000000	97.284268 
1559.000000	97.287255 
1558.000000	97.290258 
1557.000000	97.290996 
1556.000000	97.291093 
1555.000000	97.293271 
1554.000000	97.294729 
1553.000000	97.294762 
1552.000000	97.293785 
1551.000000	97.292959 
1550.000000	97.291693 
1549.000000	97.289842 
1548.000000	97.288087 
1547.000000	97.287314 
1546.000000	97.286989 
1545.000000	97.286166 
1544.000000	97.284581 
1543.000000	97.282690 
1542.000000	97.281860 
1541.000000	97.283175 
1540.000000	97.282696 
1539.000000	97.278308 
1538.000000	97.272992 
1537.000000	97.267500 
1536.000000	97.261917 
1535.000000	97.257407 
1534.000000	97.255372 
1533.000000	97.254840 
1532.000000	97.253303 
1531.000000	97.249631 
1530.000000	97.245030 
1529.000000	97.240829 
1528.000000	97.236990 
1527.000000	97.233052 
1526.000000	97.229092 
1525.000000	97.225529 
1524.000000	97.222548 
1523.000000	97.220085 
1522.000000	97.217972 
1521.000000	97.214989 
1520.000000	97.209771 
1519.000000	97.202869 
1518.000000	97.196106 
1517.000000	97.190822 
1516.000000	97.186759 
1515.000000	97.183157 
1514.000000	97.179889 
1513.000000	97.177209 
1512.000000	97.174524 
1511.000000	97.170220 
1510.000000	97.163856 
1509.000000	97.156932 
1508.000000	97.151957 
1507.000000	97.148738 
1506.000000	97.145304 
1505.000000	97.141524 
1504.000000	97.137131 
1503.000000	97.132143 
1502.000000	97.126608 
1501.000000	97.121136 
1500.000000	97.116228 
1499.000000	97.111673 
1498.000000	97.106447 
1497.000000	97.101350 
1496.000000	97.097800 
1495.000000	97.095179 
1494.000000	97.092462 
1493.000000	97.089922 
1492.000000	97.088291 
1491.000000	97.087713 
1490.000000	97.087187 
1489.000000	97.085661 
1488.000000	97.081920 
1487.000000	97.075495 
1486.000000	97.068803 
1485.000000	97.062591 
1484.000000	97.056147 
1483.000000	97.050309 
1482.000000	97.046224 
1481.000000	97.043629 
1480.000000	97.040142 
1479.000000	97.034350 
1478.000000	97.027588 
1477.000000	97.022123 
1476.000000	97.017100 
1475.000000	97.009748 
1474.000000	97.000556 
1473.000000	96.994139 
1472.000000	96.993293 
1471.000000	96.994613 
1470.000000	96.994542 
1469.000000	96.992623 
1468.000000	96.988640 
1467.000000	96.982165 
1466.000000	96.974950 
1465.000000	96.970329 
1464.000000	96.969170 
1463.000000	96.967358 
1462.000000	96.961835 
1461.000000	96.954540 
1460.000000	96.949059 
1459.000000	96.946167 
1458.000000	96.940883 
1457.000000	96.930965 
1456.000000	96.923014 
1455.000000	96.919022 
1454.000000	96.914405 
1453.000000	96.910728 
1452.000000	96.910803 
1451.000000	96.914164 
1450.000000	96.918037 
1449.000000	96.922611 
1448.000000	96.927902 
1447.000000	96.931079 
1446.000000	96.930010 
1445.000000	96.927425 
1444.000000	96.927746 
1443.000000	96.929861 
1442.000000	96.930081 
1441.000000	96.927635 
1440.000000	96.924438 
1439.000000	96.920449 
1438.000000	96.914017 
1437.000000	96.908118 
1436.000000	96.907858 
1435.000000	96.910878 
1434.000000	96.911906 
1433.000000	96.912027 
1432.000000	96.914265 
1431.000000	96.918767 
1430.000000	96.922697 
1429.000000	96.925302 
1428.000000	96.927883 
1427.000000	96.930954 
1426.000000	96.934122 
1425.000000	96.937882 
1424.000000	96.944397 
1423.000000	96.951384 
1422.000000	96.954189 
1421.000000	96.953441 
1420.000000	96.955148 
1419.000000	96.959638 
1418.000000	96.959508 
1417.000000	96.956506 
1416.000000	96.959037 
1415.000000	96.967933 
1414.000000	96.976249 
1413.000000	96.979365 
1412.000000	96.980162 
1411.000000	96.982645 
1410.000000	96.986084 
1409.000000	96.989396 
1408.000000	96.993683 
1407.000000	96.999583 
1406.000000	97.005750 
1405.000000	97.011719 
1404.000000	97.020005 
1403.000000	97.029640 
1402.000000	97.036200 
1401.000000	97.039796 
1400.000000	97.045856 
1399.000000	97.057145 
1398.000000	97.068960 
1397.000000	97.076640 
1396.000000	97.081874 
1395.000000	97.089036 
1394.000000	97.098318 
1393.000000	97.107516 
1392.000000	97.117355 
1391.000000	97.128360 
1390.000000	97.138575 
1389.000000	97.146003 
1388.000000	97.150750 
1387.000000	97.154380 
1386.000000	97.158158 
1385.000000	97.163209 
1384.000000	97.171004 
1383.000000	97.181216 
1382.000000	97.191063 
1381.000000	97.198363 
1380.000000	97.203496 
1379.000000	97.208820 
1378.000000	97.216163 
1377.000000	97.225386 
1376.000000	97.235089 
1375.000000	97.243768 
1374.000000	97.250290 
1373.000000	97.255393 
1372.000000	97.261360 
1371.000000	97.269574 
1370.000000	97.279038 
1369.000000	97.286759 
1368.000000	97.292136 
1367.000000	97.297078 
1366.000000	97.302964 
1365.000000	97.309940 
1364.000000	97.317172 
1363.000000	97.322761 
1362.000000	97.325550 
1361.000000	97.327023 
1360.000000	97.330209 
1359.000000	97.337333 
1358.000000	97.347939 
1357.000000	97.359018 
1356.000000	97.367703 
1355.000000	97.373141 
1354.000000	97.376320 
1353.000000	97.379614 
1352.000000	97.384335 
1351.000000	97.390736 
1350.000000	97.398723 
1349.000000	97.405884 
1348.000000	97.410327 
1347.000000	97.412707 
1346.000000	97.415255 
1345.000000	97.418665 
1344.000000	97.421893 
1343.000000	97.424356 
1342.000000	97.426855 
1341.000000	97.429572 
1340.000000	97.431088 
1339.000000	97.430605 
1338.000000	97.429303 
1337.000000	97.428764 
1336.000000	97.429126 
1335.000000	97.429099 
1334.000000	97.427803 
1333.000000	97.426078 
1332.000000	97.425462 
1331.000000	97.426715 
1330.000000	97.429204 
1329.000000	97.431530 
1328.000000	97.432783 
1327.000000	97.433364 
1326.000000	97.433777 
1325.000000	97.432882 
1324.000000	97.430124 
1323.000000	97.426501 
1322.000000	97.423179 
1321.000000	97.420475 
1320.000000	97.418705 
1319.000000	97.418342 
1318.000000	97.419131 
1317.000000	97.420354 
1316.000000	97.421639 
1315.000000	97.422623 
1314.000000	97.422496 
1313.000000	97.421431 
1312.000000	97.421227 
1311.000000	97.423024 
1310.000000	97.425338 
1309.000000	97.426274 
1308.000000	97.426339 
1307.000000	97.427594 
1306.000000	97.430558 
1305.000000	97.433415 
1304.000000	97.435058 
1303.000000	97.435500 
1302.000000	97.434344 
1301.000000	97.431171 
1300.000000	97.427663 
1299.000000	97.426635 
1298.000000	97.428488 
1297.000000	97.430541 
1296.000000	97.430381 
1295.000000	97.428569 
1294.000000	97.427212 
1293.000000	97.427506 
1292.000000	97.429219 
1291.000000	97.431260 
1290.000000	97.432344 
1289.000000	97.431961 
1288.000000	97.430858 
1287.000000	97.429969 
1286.000000	97.429103 
1285.000000	97.427837 
1284.000000	97.427204 
1283.000000	97.428525 
1282.000000	97.430803 
1281.000000	97.431014 
1280.000000	97.427609 
1279.000000	97.422601 
1278.000000	97.419454 
1277.000000	97.419907 
1276.000000	97.423084 
1275.000000	97.427025 
1274.000000	97.430251 
1273.000000	97.432512 
1272.000000	97.434384 
1271.000000	97.435917 
1270.000000	97.436065 
1269.000000	97.434125 
1268.000000	97.431204 
1267.000000	97.428726 
1266.000000	97.426067 
1265.000000	97.422149 
1264.000000	97.418624 
1263.000000	97.418482 
1262.000000	97.421505 
1261.000000	97.423930 
1260.000000	97.423769 
1259.000000	97.423848 
1258.000000	97.427359 
1257.000000	97.432823 
1256.000000	97.435565 
1255.000000	97.433557 
1254.000000	97.430002 
1253.000000	97.429680 
1252.000000	97.433261 
1251.000000	97.436365 
1250.000000	97.434600 
1249.000000	97.428803 
1248.000000	97.424188 
1247.000000	97.424196 
1246.000000	97.426767 
1245.000000	97.427828 
1244.000000	97.426234 
1243.000000	97.423567 
1242.000000	97.421095 
1241.000000	97.419319 
1240.000000	97.419030 
1239.000000	97.420123 
1238.000000	97.420139 
1237.000000	97.416460 
1236.000000	97.409488 
1235.000000	97.401763 
1234.000000	97.394567 
1233.000000	97.387352 
1232.000000	97.379664 
1231.000000	97.371355 
1230.000000	97.361727 
1229.000000	97.350776 
1228.000000	97.340202 
1227.000000	97.330668 
1226.000000	97.318999 
1225.000000	97.300897 
1224.000000	97.275972 
1223.000000	97.247562 
1222.000000	97.218048 
1221.000000	97.187030 
1220.000000	97.154090 
1219.000000	97.120339 
1218.000000	97.086371 
1217.000000	97.050926 
1216.000000	97.012083 
1215.000000	96.968403 
1214.000000	96.919555 
1213.000000	96.867944 
1212.000000	96.818506 
1211.000000	96.773519 
1210.000000	96.728493 
1209.000000	96.677037 
1208.000000	96.619406 
1207.000000	96.562283 
1206.000000	96.509793 
1205.000000	96.458681 
1204.000000	96.403580 
1203.000000	96.343437 
1202.000000	96.281248 
1201.000000	96.220147 
1200.000000	96.161287 
1199.000000	96.103649 
1198.000000	96.044627 
1197.000000	95.982435 
1196.000000	95.918226 
1195.000000	95.854329 
1194.000000	95.790877 
1193.000000	95.726168 
1192.000000	95.659809 
1191.000000	95.592706 
1190.000000	95.524224 
1189.000000	95.452285 
1188.000000	95.376382 
1187.000000	95.297967 
1186.000000	95.218098 
1185.000000	95.137224 
1184.000000	95.056535 
1183.000000	94.976472 
1182.000000	94.894606 
1181.000000	94.808163 
1180.000000	94.718005 
1179.000000	94.626765 
1178.000000	94.533841 
1177.000000	94.436076 
1176.000000	94.332637 
1175.000000	94.225218 
1174.000000	94.114377 
1173.000000	94.000374 
1172.000000	93.887110 
1171.000000	93.779561 
1170.000000	93.677049 
1169.000000	93.574747 
1168.000000	93.472772 
1167.000000	93.378463 
1166.000000	93.299192 
1165.000000	93.239013 
1164.000000	93.203031 
1163.000000	93.197545 
1162.000000	93.222278 
1161.000000	93.266506 
1160.000000	93.314569 
1159.000000	93.351964 
1158.000000	93.366882 
1157.000000	93.352463 
1156.000000	93.310043 
1155.000000	93.246735 
1154.000000	93.168875 
1153.000000	93.080953 
1152.000000	92.989846 
1151.000000	92.903542 
1150.000000	92.824007 
1149.000000	92.746883 
1148.000000	92.669660 
1147.000000	92.594398 
1146.000000	92.521111 
1145.000000	92.445171 
1144.000000	92.364220 
1143.000000	92.282095 
1142.000000	92.202698 
1141.000000	92.124733 
1140.000000	92.045407 
1139.000000	91.964925 
1138.000000	91.884739 
1137.000000	91.805308 
1136.000000	91.727450 
1135.000000	91.651902 
1134.000000	91.576266 
1133.000000	91.496832 
1132.000000	91.414362 
1131.000000	91.333240 
1130.000000	91.254268 
1129.000000	91.173809 
1128.000000	91.090895 
1127.000000	91.008949 
1126.000000	90.928939 
1125.000000	90.846945 
1124.000000	90.760627 
1123.000000	90.672633 
1122.000000	90.585570 
1121.000000	90.498888 
1120.000000	90.412515 
1119.000000	90.328081 
1118.000000	90.245091 
1117.000000	90.161809 
1116.000000	90.080997 
1115.000000	90.008088 
1114.000000	89.942391 
1113.000000	89.877167 
1112.000000	89.809635 
1111.000000	89.743204 
1110.000000	89.678605 
1109.000000	89.611384 
1108.000000	89.540057 
1107.000000	89.468426 
1106.000000	89.398403 
1105.000000	89.327920 
1104.000000	89.256858 
1103.000000	89.187581 
1102.000000	89.118238 
1101.000000	89.044561 
1100.000000	88.968775 
1099.000000	88.897487 
1098.000000	88.832736 
1097.000000	88.770604 
1096.000000	88.709785 
1095.000000	88.651477 
1094.000000	88.591663 
1093.000000	88.524136 
1092.000000	88.452163 
1091.000000	88.386825 
1090.000000	88.332444 
1089.000000	88.283214 
1088.000000	88.234439 
1087.000000	88.186412 
1086.000000	88.137025 
1085.000000	88.082400 
1084.000000	88.026266 
1083.000000	87.977119 
1082.000000	87.934099 
1081.000000	87.886920 
1080.000000	87.831697 
1079.000000	87.775496 
1078.000000	87.722999 
1077.000000	87.669659 
1076.000000	87.610400 
1075.000000	87.544114 
1074.000000	87.467501 
1073.000000	87.375448 
1072.000000	87.269306 
1071.000000	87.154044 
1070.000000	87.025840 
1069.000000	86.874456 
1068.000000	86.700142 
1067.000000	86.516644 
1066.000000	86.334968 
1065.000000	86.155508 
1064.000000	85.978354 
1063.000000	85.807368 
1062.000000	85.639490 
1061.000000	85.463272 
1060.000000	85.274021 
1059.000000	85.079788 
1058.000000	84.888082 
1057.000000	84.697302 
1056.000000	84.504968 
1055.000000	84.312782 
1054.000000	84.119064 
1053.000000	83.917370 
1052.000000	83.707548 
1051.000000	83.497631 
1050.000000	83.290733 
1049.000000	83.081926 
1048.000000	82.870758 
1047.000000	82.662965 
1046.000000	82.457960 
1045.000000	82.248898 
1044.000000	82.036380 
1043.000000	81.828489 
1042.000000	81.626273 
1041.000000	81.422967 
1040.000000	81.218921 
1039.000000	81.023223 
1038.000000	80.838958 
1037.000000	80.661339 
1036.000000	80.491833 
1035.000000	80.339064 
1034.000000	80.204086 
1033.000000	80.079766 
1032.000000	79.965645 
1031.000000	79.867583 
1030.000000	79.782275 
1029.000000	79.699393 
1028.000000	79.620424 
1027.000000	79.557643 
1026.000000	79.512390 
1025.000000	79.471652 
1024.000000	79.428114 
1023.000000	79.386360 
1022.000000	79.347413 
1021.000000	79.305170 
1020.000000	79.260448 
1019.000000	79.221090 
1018.000000	79.185982 
1017.000000	79.146083 
1016.000000	79.102747 
1015.000000	79.067199 
1014.000000	79.040406 
1013.000000	79.011935 
1012.000000	78.980577 
1011.000000	78.957315 
1010.000000	78.945542 
1009.000000	78.937264 
1008.000000	78.931570 
1007.000000	78.938052 
1006.000000	78.958891 
1005.000000	78.985991 
1004.000000	79.018523 
1003.000000	79.064364 
1002.000000	79.121087 
1001.000000	79.174897 
1000.000000	79.222776 
999.000000	 79.277214 
998.000000	 79.344476 
997.000000	 79.416088 
996.000000	 79.486373 
995.000000	 79.561305 
994.000000	 79.645146 
993.000000	 79.734252 
992.000000	 79.827918 
991.000000	 79.929675 
990.000000	 80.035071 
989.000000	 80.134282 
988.000000	 80.229537 
987.000000	 80.333885 
986.000000	 80.451012 
985.000000	 80.573097 
984.000000	 80.699792 
983.000000	 80.840728 
982.000000	 80.996303 
981.000000	 81.154441 
980.000000	 81.310349 
979.000000	 81.471902 
978.000000	 81.641578 
977.000000	 81.811226 
976.000000	 81.979635 
975.000000	 82.157660 
974.000000	 82.349680 
973.000000	 82.545846 
972.000000	 82.738794 
971.000000	 82.933415 
970.000000	 83.133939 
969.000000	 83.334866 
968.000000	 83.530515 
967.000000	 83.721828 
966.000000	 83.909605 
965.000000	 84.092521 
964.000000	 84.274668 
963.000000	 84.462897 
962.000000	 84.653989 
961.000000	 84.836621 
960.000000	 85.008023 
959.000000	 85.176161 
958.000000	 85.343892 
957.000000	 85.504531 
956.000000	 85.655755 
955.000000	 85.804380 
954.000000	 85.953921 
953.000000	 86.099727 
952.000000	 86.239441 
951.000000	 86.375935 
950.000000	 86.507313 
949.000000	 86.626745 
948.000000	 86.735242 
947.000000	 86.842187 
946.000000	 86.949776 
945.000000	 87.049043 
944.000000	 87.135018 
943.000000	 87.214249 
942.000000	 87.293818 
941.000000	 87.373830 
940.000000	 87.454284 
939.000000	 87.538025 
938.000000	 87.623097 
937.000000	 87.702914 
936.000000	 87.777638 
935.000000	 87.855378 
934.000000	 87.939284 
933.000000	 88.023710 
932.000000	 88.105574 
931.000000	 88.188703 
930.000000	 88.274167 
929.000000	 88.356915 
928.000000	 88.435234 
927.000000	 88.513615 
926.000000	 88.593185 
925.000000	 88.668418 
924.000000	 88.735760 
923.000000	 88.796951 
922.000000	 88.852657 
921.000000	 88.901993 
920.000000	 88.949077 
919.000000	 89.000287 
918.000000	 89.054061 
917.000000	 89.103155 
916.000000	 89.147789 
915.000000	 89.196796 
914.000000	 89.255468 
913.000000	 89.322607 
912.000000	 89.399667 
911.000000	 89.491756 
910.000000	 89.598818 
909.000000	 89.716387 
908.000000	 89.845197 
907.000000	 89.989389 
906.000000	 90.146069 
905.000000	 90.307958 
904.000000	 90.475033 
903.000000	 90.651214 
902.000000	 90.831013 
901.000000	 91.002958 
900.000000	 91.166030 
899.000000	 91.329793 
898.000000	 91.498436 
897.000000	 91.666663 
896.000000	 91.830536 
895.000000	 91.989332 
894.000000	 92.137536 
893.000000	 92.268875 
892.000000	 92.388918 
891.000000	 92.510823 
890.000000	 92.637251 
889.000000	 92.758303 
888.000000	 92.867736 
887.000000	 92.968818 
886.000000	 93.064027 
885.000000	 93.151591 
884.000000	 93.232694 
883.000000	 93.309692 
882.000000	 93.377880 
881.000000	 93.433458 
880.000000	 93.489480 
879.000000	 93.567063 
878.000000	 93.668321 
877.000000	 93.774762 
876.000000	 93.875302 
875.000000	 93.978302 
874.000000	 94.092058 
873.000000	 94.212356 
872.000000	 94.335852 
871.000000	 94.467994 
870.000000	 94.608980 
869.000000	 94.746382 
868.000000	 94.870306 
867.000000	 94.984531 
866.000000	 95.096347 
865.000000	 95.206308 
864.000000	 95.314461 
863.000000	 95.426378 
862.000000	 95.545473 
861.000000	 95.666619 
860.000000	 95.782907 
859.000000	 95.892133 
858.000000	 95.993574 
857.000000	 96.086163 
856.000000	 96.172809 
855.000000	 96.258481 
854.000000	 96.340906 
853.000000	 96.411316 
852.000000	 96.467559 
851.000000	 96.518820 
850.000000	 96.574674 
849.000000	 96.636688 
848.000000	 96.702254 
847.000000	 96.767937 
846.000000	 96.827475 
845.000000	 96.875752 
844.000000	 96.916587 
843.000000	 96.957880 
842.000000	 96.998019 
841.000000	 97.026678 
840.000000	 97.039789 
839.000000	 97.043081 
838.000000	 97.040253 
837.000000	 97.030099 
836.000000	 97.018049 
835.000000	 97.017529 
834.000000	 97.033784 
833.000000	 97.056696 
832.000000	 97.075330 
831.000000	 97.090085 
830.000000	 97.105673 
829.000000	 97.122540 
828.000000	 97.142126 
827.000000	 97.171247 
826.000000	 97.213264 
825.000000	 97.262429 
824.000000	 97.312562 
823.000000	 97.362237 
822.000000	 97.407341 
821.000000	 97.440284 
820.000000	 97.461008 
819.000000	 97.477250 
818.000000	 97.489336 
817.000000	 97.484423 
816.000000	 97.450413 
815.000000	 97.387777 
814.000000	 97.303716 
813.000000	 97.201662 
812.000000	 97.079864 
811.000000	 96.932004 
810.000000	 96.744173 
809.000000	 96.499233 
808.000000	 96.191283 
807.000000	 95.832532 
806.000000	 95.443525 
805.000000	 95.042244 
804.000000	 94.644641 
803.000000	 94.265793 
802.000000	 93.914843 
801.000000	 93.597578 
800.000000	 93.328118 
799.000000	 93.127359 
798.000000	 93.004518 
797.000000	 92.949555 
796.000000	 92.945885 
795.000000	 92.978423 
794.000000	 93.027978 
793.000000	 93.074449 
792.000000	 93.112003 
791.000000	 93.148662 
790.000000	 93.186270 
789.000000	 93.212378 
788.000000	 93.214467 
787.000000	 93.188868 
786.000000	 93.132533 
785.000000	 93.040133 
784.000000	 92.914884 
783.000000	 92.770445 
782.000000	 92.618032 
781.000000	 92.464252 
780.000000	 92.324336 
779.000000	 92.221278 
778.000000	 92.165610 
777.000000	 92.150518 
776.000000	 92.171745 
775.000000	 92.235247 
774.000000	 92.337823 
773.000000	 92.457154 
772.000000	 92.571381 
771.000000	 92.676016 
770.000000	 92.774402 
769.000000	 92.865654 
768.000000	 92.949741 
767.000000	 93.030242 
766.000000	 93.103317 
765.000000	 93.157345 
764.000000	 93.192665 
763.000000	 93.228712 
762.000000	 93.281786 
761.000000	 93.347381 
760.000000	 93.413480 
759.000000	 93.478808 
758.000000	 93.547791 
757.000000	 93.620053 
756.000000	 93.697250 
755.000000	 93.789494 
754.000000	 93.900658 
753.000000	 94.013678 
752.000000	 94.103296 
751.000000	 94.160861 
750.000000	 94.199637 
749.000000	 94.240469 
748.000000	 94.298186 
747.000000	 94.375260 
746.000000	 94.460471 
745.000000	 94.537926 
744.000000	 94.603864 
743.000000	 94.671451 
742.000000	 94.755375 
741.000000	 94.856782 
740.000000	 94.966294 
739.000000	 95.074709 
738.000000	 95.176162 
737.000000	 95.267086 
736.000000	 95.347668 
735.000000	 95.421060 
734.000000	 95.488729 
733.000000	 95.550028 
732.000000	 95.606228 
731.000000	 95.658963 
730.000000	 95.704507 
729.000000	 95.736402 
728.000000	 95.756238 
727.000000	 95.774675 
726.000000	 95.800518 
725.000000	 95.837103 
724.000000	 95.887079 
723.000000	 95.949495 
722.000000	 96.012924 
721.000000	 96.064491 
720.000000	 96.107529 
719.000000	 96.156627 
718.000000	 96.214031 
717.000000	 96.267792 
716.000000	 96.313593 
715.000000	 96.361004 
714.000000	 96.414182 
713.000000	 96.462186 
712.000000	 96.497214 
711.000000	 96.528295 
710.000000	 96.567696 
709.000000	 96.615112 
708.000000	 96.662950 
707.000000	 96.706681 
706.000000	 96.739626 
705.000000	 96.750337 
704.000000	 96.734448 
703.000000	 96.697779 
702.000000	 96.640929 
701.000000	 96.550384 
700.000000	 96.411687 
699.000000	 96.225577 
698.000000	 96.005936 
697.000000	 95.775298 
696.000000	 95.569079 
695.000000	 95.427298 
694.000000	 95.371810 
693.000000	 95.395056 
692.000000	 95.473867 
691.000000	 95.587630 
690.000000	 95.718165 
689.000000	 95.846727 
688.000000	 95.961146 
687.000000	 96.058882 
686.000000	 96.141047 
685.000000	 96.211046 
684.000000	 96.279265 
683.000000	 96.356711 
682.000000	 96.439477 
681.000000	 96.511871 
680.000000	 96.567767 
679.000000	 96.618533 
678.000000	 96.674764 
677.000000	 96.735886 
676.000000	 96.807407 
675.000000	 96.894729 
674.000000	 96.982897 
673.000000	 97.045003 
672.000000	 97.079351 
671.000000	 97.117493 
670.000000	 97.199576 
669.000000	 97.329501 
668.000000	 97.422835 
667.000000	 97.414020 
666.000000	 97.381711 
665.000000	 97.365530 
664.000000	 97.353594 
663.000000	 97.347091 
662.000000	 97.355923 
661.000000	 97.371722 
660.000000	 97.390339 
659.000000	 97.425762 
658.000000	 97.480653 
657.000000	 97.524378 
656.000000	 97.532038 
655.000000	 97.508189 
654.000000	 97.465357 
653.000000	 97.408240 
652.000000	 97.355670 
651.000000	 97.345453 
650.000000	 97.388088 

