4000.000000	97.138644 
3999.000000	97.137225 
3998.000000	97.134010 
3997.000000	97.130125 
3996.000000	97.127201 
3995.000000	97.126142 
3994.000000	97.126957 
3993.000000	97.128895 
3992.000000	97.130762 
3991.000000	97.131576 
3990.000000	97.131167 
3989.000000	97.130144 
3988.000000	97.129165 
3987.000000	97.128478 
3986.000000	97.128254 
3985.000000	97.128861 
3984.000000	97.130345 
3983.000000	97.132015 
3982.000000	97.133199 
3981.000000	97.134044 
3980.000000	97.134862 
3979.000000	97.135183 
3978.000000	97.134355 
3977.000000	97.132812 
3976.000000	97.131856 
3975.000000	97.131952 
3974.000000	97.132108 
3973.000000	97.131176 
3972.000000	97.129054 
3971.000000	97.126523 
3970.000000	97.124406 
3969.000000	97.123291 
3968.000000	97.123559 
3967.000000	97.125015 
3966.000000	97.126848 
3965.000000	97.128181 
3964.000000	97.128434 
3963.000000	97.127402 
3962.000000	97.125405 
3961.000000	97.123231 
3960.000000	97.121536 
3959.000000	97.120428 
3958.000000	97.119687 
3957.000000	97.119326 
3956.000000	97.119406 
3955.000000	97.119295 
3954.000000	97.118150 
3953.000000	97.115835 
3952.000000	97.113088 
3951.000000	97.110648 
3950.000000	97.108474 
3949.000000	97.106310 
3948.000000	97.104229 
3947.000000	97.102602 
3946.000000	97.101907 
3945.000000	97.102599 
3944.000000	97.104550 
3943.000000	97.106515 
3942.000000	97.107529 
3941.000000	97.107850 
3940.000000	97.108113 
3939.000000	97.108380 
3938.000000	97.108072 
3937.000000	97.106762 
3936.000000	97.104605 
3935.000000	97.101732 
3934.000000	97.098436 
3933.000000	97.095551 
3932.000000	97.094186 
3931.000000	97.094281 
3930.000000	97.094577 
3929.000000	97.094711 
3928.000000	97.095605 
3927.000000	97.097744 
3926.000000	97.099810 
3925.000000	97.099769 
3924.000000	97.097478 
3923.000000	97.094564 
3922.000000	97.091979 
3921.000000	97.089571 
3920.000000	97.087403 
3919.000000	97.086285 
3918.000000	97.086506 
3917.000000	97.087215 
3916.000000	97.087653 
3915.000000	97.087941 
3914.000000	97.088424 
3913.000000	97.088987 
3912.000000	97.089378 
3911.000000	97.089906 
3910.000000	97.090693 
3909.000000	97.091271 
3908.000000	97.091203 
3907.000000	97.090090 
3906.000000	97.087606 
3905.000000	97.083083 
3904.000000	97.076463 
3903.000000	97.069563 
3902.000000	97.064998 
3901.000000	97.063956 
3900.000000	97.065602 
3899.000000	97.067997 
3898.000000	97.069936 
3897.000000	97.071193 
3896.000000	97.071728 
3895.000000	97.071785 
3894.000000	97.071823 
3893.000000	97.072099 
3892.000000	97.072085 
3891.000000	97.070888 
3890.000000	97.068481 
3889.000000	97.065595 
3888.000000	97.063155 
3887.000000	97.061752 
3886.000000	97.061503 
3885.000000	97.061926 
3884.000000	97.062076 
3883.000000	97.061207 
3882.000000	97.059546 
3881.000000	97.058166 
3880.000000	97.057859 
3879.000000	97.058158 
3878.000000	97.058066 
3877.000000	97.057366 
3876.000000	97.056711 
3875.000000	97.056496 
3874.000000	97.056266 
3873.000000	97.055408 
3872.000000	97.053938 
3871.000000	97.052305 
3870.000000	97.050973 
3869.000000	97.050369 
3868.000000	97.050415 
3867.000000	97.050394 
3866.000000	97.049798 
3865.000000	97.048969 
3864.000000	97.048721 
3863.000000	97.049119 
3862.000000	97.049262 
3861.000000	97.048971 
3860.000000	97.049148 
3859.000000	97.050395 
3858.000000	97.052175 
3857.000000	97.053349 
3856.000000	97.053270 
3855.000000	97.051921 
3854.000000	97.049217 
3853.000000	97.045925 
3852.000000	97.043565 
3851.000000	97.042551 
3850.000000	97.042259 
3849.000000	97.042461 
3848.000000	97.043313 
3847.000000	97.044820 
3846.000000	97.046221 
3845.000000	97.046600 
3844.000000	97.045897 
3843.000000	97.044689 
3842.000000	97.043343 
3841.000000	97.042098 
3840.000000	97.041145 
3839.000000	97.040785 
3838.000000	97.041210 
3837.000000	97.041874 
3836.000000	97.042056 
3835.000000	97.041647 
3834.000000	97.041135 
3833.000000	97.041141 
3832.000000	97.041850 
3831.000000	97.042960 
3830.000000	97.044043 
3829.000000	97.044859 
3828.000000	97.045627 
3827.000000	97.046669 
3826.000000	97.047727 
3825.000000	97.048194 
3824.000000	97.047735 
3823.000000	97.046768 
3822.000000	97.046193 
3821.000000	97.046402 
3820.000000	97.047050 
3819.000000	97.047492 
3818.000000	97.047478 
3817.000000	97.047522 
3816.000000	97.048411 
3815.000000	97.050255 
3814.000000	97.052245 
3813.000000	97.053532 
3812.000000	97.054094 
3811.000000	97.054741 
3810.000000	97.056058 
3809.000000	97.057601 
3808.000000	97.058461 
3807.000000	97.058405 
3806.000000	97.057875 
3805.000000	97.057082 
3804.000000	97.055784 
3803.000000	97.054651 
3802.000000	97.054967 
3801.000000	97.056836 
3800.000000	97.058753 
3799.000000	97.058892 
3798.000000	97.057306 
3797.000000	97.056393 
3796.000000	97.058354 
3795.000000	97.062749 
3794.000000	97.066811 
3793.000000	97.068611 
3792.000000	97.068895 
3791.000000	97.069875 
3790.000000	97.072196 
3789.000000	97.074211 
3788.000000	97.074566 
3787.000000	97.073894 
3786.000000	97.073599 
3785.000000	97.073816 
3784.000000	97.073405 
3783.000000	97.071598 
3782.000000	97.068502 
3781.000000	97.065098 
3780.000000	97.063175 
3779.000000	97.064534 
3778.000000	97.068846 
3777.000000	97.073334 
3776.000000	97.075179 
3775.000000	97.073816 
3774.000000	97.070513 
3773.000000	97.066483 
3772.000000	97.062370 
3771.000000	97.058534 
3770.000000	97.055346 
3769.000000	97.053246 
3768.000000	97.051760 
3767.000000	97.049645 
3766.000000	97.047218 
3765.000000	97.045948 
3764.000000	97.046587 
3763.000000	97.047729 
3762.000000	97.047045 
3761.000000	97.044288 
3760.000000	97.041334 
3759.000000	97.040290 
3758.000000	97.039185 
3757.000000	97.034243 
3756.000000	97.025904 
3755.000000	97.017080 
3754.000000	97.008799 
3753.000000	96.999619 
3752.000000	96.989755 
3751.000000	96.981890 
3750.000000	96.975980 
3749.000000	96.969767 
3748.000000	96.964265 
3747.000000	96.962738 
3746.000000	96.966822 
3745.000000	96.972927 
3744.000000	96.979837 
3743.000000	96.986686 
3742.000000	96.986579 
3741.000000	96.975617 
3740.000000	96.960215 
3739.000000	96.952215 
3738.000000	96.956490 
3737.000000	96.964817 
3736.000000	96.968191 
3735.000000	96.968370 
3734.000000	96.971618 
3733.000000	96.977613 
3732.000000	96.983041 
3731.000000	96.988147 
3730.000000	96.992748 
3729.000000	96.994101 
3728.000000	96.992105 
3727.000000	96.990709 
3726.000000	96.993128 
3725.000000	96.997084 
3724.000000	96.998365 
3723.000000	96.996938 
3722.000000	96.996223 
3721.000000	96.998196 
3720.000000	97.000038 
3719.000000	97.000169 
3718.000000	97.000619 
3717.000000	97.002012 
3716.000000	97.002095 
3715.000000	96.996732 
3714.000000	96.984389 
3713.000000	96.969331 
3712.000000	96.957375 
3711.000000	96.950742 
3710.000000	96.947079 
3709.000000	96.943965 
3708.000000	96.941376 
3707.000000	96.938864 
3706.000000	96.935666 
3705.000000	96.931944 
3704.000000	96.928713 
3703.000000	96.926200 
3702.000000	96.921773 
3701.000000	96.912445 
3700.000000	96.898372 
3699.000000	96.883109 
3698.000000	96.871364 
3697.000000	96.864977 
3696.000000	96.862412 
3695.000000	96.860616 
3694.000000	96.856810 
3693.000000	96.850639 
3692.000000	96.843602 
3691.000000	96.836404 
3690.000000	96.826764 
3689.000000	96.814359 
3688.000000	96.804095 
3687.000000	96.798982 
3686.000000	96.796428 
3685.000000	96.792607 
3684.000000	96.786674 
3683.000000	96.781193 
3682.000000	96.778308 
3681.000000	96.775318 
3680.000000	96.767044 
3679.000000	96.750510 
3678.000000	96.727939 
3677.000000	96.705051 
3676.000000	96.686016 
3675.000000	96.673038 
3674.000000	96.663628 
3673.000000	96.651543 
3672.000000	96.634199 
3671.000000	96.618210 
3670.000000	96.610680 
3669.000000	96.609744 
3668.000000	96.607191 
3667.000000	96.598512 
3666.000000	96.587766 
3665.000000	96.581035 
3664.000000	96.578730 
3663.000000	96.576984 
3662.000000	96.571948 
3661.000000	96.561574 
3660.000000	96.546289 
3659.000000	96.527684 
3658.000000	96.508786 
3657.000000	96.491763 
3656.000000	96.476476 
3655.000000	96.461727 
3654.000000	96.444821 
3653.000000	96.423545 
3652.000000	96.397567 
3651.000000	96.368525 
3650.000000	96.339028 
3649.000000	96.313368 
3648.000000	96.297354 
3647.000000	96.293554 
3646.000000	96.299625 
3645.000000	96.310650 
3644.000000	96.322093 
3643.000000	96.331731 
3642.000000	96.338199 
3641.000000	96.339114 
3640.000000	96.332962 
3639.000000	96.320734 
3638.000000	96.306135 
3637.000000	96.292494 
3636.000000	96.280584 
3635.000000	96.269103 
3634.000000	96.256695 
3633.000000	96.242989 
3632.000000	96.226562 
3631.000000	96.204675 
3630.000000	96.177275 
3629.000000	96.150842 
3628.000000	96.134387 
3627.000000	96.129585 
3626.000000	96.130782 
3625.000000	96.136151 
3624.000000	96.148145 
3623.000000	96.165819 
3622.000000	96.182299 
3621.000000	96.189568 
3620.000000	96.184307 
3619.000000	96.170429 
3618.000000	96.155567 
3617.000000	96.145465 
3616.000000	96.143910 
3615.000000	96.153195 
3614.000000	96.171234 
3613.000000	96.191529 
3612.000000	96.207293 
3611.000000	96.215203 
3610.000000	96.217671 
3609.000000	96.221368 
3608.000000	96.230732 
3607.000000	96.244548 
3606.000000	96.258879 
3605.000000	96.272621 
3604.000000	96.288320 
3603.000000	96.307172 
3602.000000	96.326056 
3601.000000	96.339808 
3600.000000	96.345647 
3599.000000	96.345138 
3598.000000	96.342542 
3597.000000	96.341333 
3596.000000	96.343811 
3595.000000	96.349415 
3594.000000	96.354765 
3593.000000	96.357402 
3592.000000	96.356859 
3591.000000	96.353850 
3590.000000	96.350647 
3589.000000	96.350473 
3588.000000	96.354685 
3587.000000	96.361086 
3586.000000	96.366721 
3585.000000	96.371087 
3584.000000	96.377024 
3583.000000	96.387236 
3582.000000	96.401558 
3581.000000	96.416056 
3580.000000	96.426093 
3579.000000	96.429976 
3578.000000	96.429786 
3577.000000	96.429317 
3576.000000	96.430540 
3575.000000	96.432924 
3574.000000	96.434434 
3573.000000	96.433791 
3572.000000	96.430574 
3571.000000	96.424193 
3570.000000	96.414174 
3569.000000	96.402147 
3568.000000	96.392287 
3567.000000	96.388229 
3566.000000	96.389638 
3565.000000	96.393219 
3564.000000	96.396836 
3563.000000	96.401536 
3562.000000	96.408782 
3561.000000	96.417809 
3560.000000	96.426036 
3559.000000	96.431595 
3558.000000	96.434773 
3557.000000	96.437105 
3556.000000	96.439370 
3555.000000	96.440960 
3554.000000	96.440911 
3553.000000	96.438878 
3552.000000	96.435573 
3551.000000	96.431777 
3550.000000	96.427726 
3549.000000	96.423959 
3548.000000	96.421965 
3547.000000	96.422601 
3546.000000	96.424620 
3545.000000	96.425776 
3544.000000	96.425726 
3543.000000	96.426364 
3542.000000	96.429201 
3541.000000	96.433855 
3540.000000	96.438941 
3539.000000	96.443199 
3538.000000	96.445823 
3537.000000	96.446365 
3536.000000	96.445229 
3535.000000	96.443285 
3534.000000	96.441142 
3533.000000	96.439137 
3532.000000	96.437835 
3531.000000	96.437880 
3530.000000	96.438880 
3529.000000	96.439197 
3528.000000	96.437389 
3527.000000	96.433780 
3526.000000	96.430377 
3525.000000	96.429263 
3524.000000	96.431135 
3523.000000	96.435083 
3522.000000	96.439337 
3521.000000	96.442518 
3520.000000	96.444467 
3519.000000	96.445690 
3518.000000	96.446434 
3517.000000	96.446292 
3516.000000	96.444900 
3515.000000	96.442663 
3514.000000	96.440632 
3513.000000	96.439679 
3512.000000	96.439792 
3511.000000	96.440144 
3510.000000	96.439873 
3509.000000	96.438897 
3508.000000	96.437889 
3507.000000	96.437476 
3506.000000	96.437647 
3505.000000	96.437884 
3504.000000	96.437763 
3503.000000	96.437238 
3502.000000	96.436523 
3501.000000	96.435857 
3500.000000	96.435459 
3499.000000	96.435501 
3498.000000	96.435915 
3497.000000	96.436377 
3496.000000	96.436482 
3495.000000	96.436053 
3494.000000	96.435300 
3493.000000	96.434688 
3492.000000	96.434528 
3491.000000	96.434620 
3490.000000	96.434480 
3489.000000	96.433890 
3488.000000	96.432947 
3487.000000	96.431637 
3486.000000	96.429818 
3485.000000	96.427756 
3484.000000	96.426205 
3483.000000	96.425592 
3482.000000	96.425460 
3481.000000	96.424980 
3480.000000	96.423911 
3479.000000	96.422656 
3478.000000	96.421559 
3477.000000	96.420533 
3476.000000	96.419274 
3475.000000	96.417655 
3474.000000	96.415878 
3473.000000	96.414341 
3472.000000	96.413361 
3471.000000	96.412877 
3470.000000	96.412420 
3469.000000	96.411484 
3468.000000	96.409944 
3467.000000	96.408121 
3466.000000	96.406566 
3465.000000	96.405612 
3464.000000	96.405024 
3463.000000	96.404068 
3462.000000	96.402171 
3461.000000	96.399562 
3460.000000	96.397089 
3459.000000	96.395297 
3458.000000	96.393891 
3457.000000	96.392155 
3456.000000	96.389861 
3455.000000	96.387542 
3454.000000	96.385995 
3453.000000	96.385603 
3452.000000	96.386097 
3451.000000	96.386798 
3450.000000	96.387017 
3449.000000	96.386348 
3448.000000	96.384707 
3447.000000	96.382268 
3446.000000	96.379368 
3445.000000	96.376496 
3444.000000	96.374247 
3443.000000	96.373034 
3442.000000	96.372725 
3441.000000	96.372637 
3440.000000	96.372123 
3439.000000	96.371110 
3438.000000	96.369933 
3437.000000	96.368821 
3436.000000	96.367840 
3435.000000	96.367167 
3434.000000	96.367073 
3433.000000	96.367516 
3432.000000	96.368011 
3431.000000	96.368107 
3430.000000	96.367762 
3429.000000	96.367203 
3428.000000	96.366555 
3427.000000	96.365789 
3426.000000	96.364971 
3425.000000	96.364338 
3424.000000	96.364024 
3423.000000	96.363828 
3422.000000	96.363389 
3421.000000	96.362597 
3420.000000	96.361740 
3419.000000	96.361207 
3418.000000	96.361106 
3417.000000	96.361271 
3416.000000	96.361478 
3415.000000	96.361583 
3414.000000	96.361484 
3413.000000	96.361121 
3412.000000	96.360568 
3411.000000	96.360056 
3410.000000	96.359820 
3409.000000	96.359929 
3408.000000	96.360275 
3407.000000	96.360644 
3406.000000	96.360866 
3405.000000	96.360909 
3404.000000	96.360871 
3403.000000	96.360867 
3402.000000	96.360899 
3401.000000	96.360886 
3400.000000	96.360795 
3399.000000	96.360711 
3398.000000	96.360743 
3397.000000	96.360941 
3396.000000	96.361314 
3395.000000	96.361878 
3394.000000	96.362579 
3393.000000	96.363213 
3392.000000	96.363523 
3391.000000	96.363406 
3390.000000	96.363038 
3389.000000	96.362788 
3388.000000	96.362976 
3387.000000	96.363700 
3386.000000	96.364788 
3385.000000	96.365840 
3384.000000	96.366422 
3383.000000	96.366365 
3382.000000	96.366030 
3381.000000	96.366134 
3380.000000	96.367060 
3379.000000	96.368453 
3378.000000	96.369678 
3377.000000	96.370779 
3376.000000	96.372468 
3375.000000	96.375000 
3374.000000	96.377530 
3373.000000	96.378991 
3372.000000	96.379341 
3371.000000	96.379569 
3370.000000	96.380496 
3369.000000	96.381932 
3368.000000	96.383144 
3367.000000	96.383758 
3366.000000	96.384023 
3365.000000	96.384362 
3364.000000	96.384874 
3363.000000	96.385293 
3362.000000	96.385359 
3361.000000	96.385285 
3360.000000	96.385800 
3359.000000	96.387585 
3358.000000	96.390673 
3357.000000	96.394405 
3356.000000	96.397911 
3355.000000	96.400658 
3354.000000	96.402634 
3353.000000	96.404255 
3352.000000	96.406016 
3351.000000	96.408116 
3350.000000	96.410371 
3349.000000	96.412506 
3348.000000	96.414478 
3347.000000	96.416400 
3346.000000	96.418316 
3345.000000	96.420124 
3344.000000	96.421594 
3343.000000	96.422410 
3342.000000	96.422421 
3341.000000	96.422048 
3340.000000	96.422051 
3339.000000	96.422706 
3338.000000	96.423655 
3337.000000	96.424581 
3336.000000	96.425667 
3335.000000	96.427222 
3334.000000	96.429161 
3333.000000	96.431050 
3332.000000	96.432567 
3331.000000	96.433714 
3330.000000	96.434670 
3329.000000	96.435635 
3328.000000	96.436795 
3327.000000	96.438260 
3326.000000	96.439972 
3325.000000	96.441708 
3324.000000	96.443219 
3323.000000	96.444418 
3322.000000	96.445434 
3321.000000	96.446508 
3320.000000	96.447804 
3319.000000	96.449306 
3318.000000	96.450895 
3317.000000	96.452480 
3316.000000	96.454021 
3315.000000	96.455500 
3314.000000	96.456910 
3313.000000	96.458267 
3312.000000	96.459617 
3311.000000	96.460991 
3310.000000	96.462397 
3309.000000	96.463829 
3308.000000	96.465243 
3307.000000	96.466570 
3306.000000	96.467780 
3305.000000	96.468928 
3304.000000	96.470112 
3303.000000	96.471406 
3302.000000	96.472814 
3301.000000	96.474300 
3300.000000	96.475796 
3299.000000	96.477240 
3298.000000	96.478601 
3297.000000	96.479892 
3296.000000	96.481194 
3295.000000	96.482595 
3294.000000	96.484129 
3293.000000	96.485762 
3292.000000	96.487417 
3291.000000	96.489026 
3290.000000	96.490541 
3289.000000	96.491951 
3288.000000	96.493301 
3287.000000	96.494653 
3286.000000	96.496019 
3285.000000	96.497356 
3284.000000	96.498632 
3283.000000	96.499892 
3282.000000	96.501227 
3281.000000	96.502691 
3280.000000	96.504232 
3279.000000	96.505736 
3278.000000	96.507146 
3277.000000	96.508522 
3276.000000	96.509953 
3275.000000	96.511442 
3274.000000	96.512922 
3273.000000	96.514394 
3272.000000	96.515962 
3271.000000	96.517697 
3270.000000	96.519540 
3269.000000	96.521332 
3268.000000	96.522938 
3267.000000	96.524343 
3266.000000	96.525652 
3265.000000	96.527032 
3264.000000	96.528591 
3263.000000	96.530301 
3262.000000	96.532017 
3261.000000	96.533609 
3260.000000	96.535057 
3259.000000	96.536414 
3258.000000	96.537733 
3257.000000	96.539077 
3256.000000	96.540548 
3255.000000	96.542200 
3254.000000	96.543969 
3253.000000	96.545749 
3252.000000	96.547512 
3251.000000	96.549292 
3250.000000	96.551079 
3249.000000	96.552796 
3248.000000	96.554390 
3247.000000	96.555898 
3246.000000	96.557416 
3245.000000	96.559028 
3244.000000	96.560746 
3243.000000	96.562512 
3242.000000	96.564248 
3241.000000	96.565908 
3240.000000	96.567510 
3239.000000	96.569109 
3238.000000	96.570775 
3237.000000	96.572559 
3236.000000	96.574458 
3235.000000	96.576395 
3234.000000	96.578251 
3233.000000	96.579957 
3232.000000	96.581524 
3231.000000	96.583039 
3230.000000	96.584595 
3229.000000	96.586243 
3228.000000	96.588000 
3227.000000	96.589853 
3226.000000	96.591781 
3225.000000	96.593752 
3224.000000	96.595698 
3223.000000	96.597534 
3222.000000	96.599219 
3221.000000	96.600836 
3220.000000	96.602532 
3219.000000	96.604337 
3218.000000	96.606139 
3217.000000	96.607846 
3216.000000	96.609514 
3215.000000	96.611284 
3214.000000	96.613212 
3213.000000	96.615206 
3212.000000	96.617094 
3211.000000	96.618757 
3210.000000	96.620208 
3209.000000	96.621603 
3208.000000	96.623124 
3207.000000	96.624811 
3206.000000	96.626526 
3205.000000	96.628126 
3204.000000	96.629642 
3203.000000	96.631267 
3202.000000	96.633127 
3201.000000	96.635129 
3200.000000	96.637039 
3199.000000	96.638726 
3198.000000	96.640278 
3197.000000	96.641883 
3196.000000	96.643606 
3195.000000	96.645373 
3194.000000	96.647152 
3193.000000	96.649050 
3192.000000	96.651153 
3191.000000	96.653346 
3190.000000	96.655365 
3189.000000	96.657048 
3188.000000	96.658456 
3187.000000	96.659839 
3186.000000	96.661492 
3185.000000	96.663568 
3184.000000	96.665962 
3183.000000	96.668358 
3182.000000	96.670512 
3181.000000	96.672416 
3180.000000	96.674189 
3179.000000	96.675890 
3178.000000	96.677534 
3177.000000	96.679208 
3176.000000	96.681037 
3175.000000	96.683059 
3174.000000	96.685234 
3173.000000	96.687531 
3172.000000	96.689887 
3171.000000	96.692124 
3170.000000	96.694069 
3169.000000	96.695768 
3168.000000	96.697455 
3167.000000	96.699273 
3166.000000	96.701164 
3165.000000	96.703053 
3164.000000	96.704955 
3163.000000	96.706834 
3162.000000	96.708556 
3161.000000	96.710062 
3160.000000	96.711462 
3159.000000	96.712928 
3158.000000	96.714575 
3157.000000	96.716474 
3156.000000	96.718620 
3155.000000	96.720825 
3154.000000	96.722797 
3153.000000	96.724430 
3152.000000	96.725892 
3151.000000	96.727385 
3150.000000	96.728873 
3149.000000	96.730194 
3148.000000	96.731346 
3147.000000	96.732586 
3146.000000	96.734238 
3145.000000	96.736444 
3144.000000	96.739029 
3143.000000	96.741504 
3142.000000	96.743382 
3141.000000	96.744591 
3140.000000	96.745550 
3139.000000	96.746794 
3138.000000	96.748482 
3137.000000	96.750334 
3136.000000	96.751892 
3135.000000	96.752822 
3134.000000	96.753147 
3133.000000	96.753344 
3132.000000	96.753993 
3131.000000	96.755259 
3130.000000	96.756896 
3129.000000	96.758738 
3128.000000	96.760902 
3127.000000	96.763448 
3126.000000	96.766174 
3125.000000	96.768848 
3124.000000	96.771334 
3123.000000	96.773377 
3122.000000	96.774619 
3121.000000	96.775074 
3120.000000	96.775349 
3119.000000	96.776093 
3118.000000	96.777358 
3117.000000	96.778764 
3116.000000	96.780111 
3115.000000	96.781574 
3114.000000	96.783410 
3113.000000	96.785684 
3112.000000	96.788275 
3111.000000	96.790990 
3110.000000	96.793658 
3109.000000	96.796156 
3108.000000	96.798362 
3107.000000	96.800172 
3106.000000	96.801543 
3105.000000	96.802478 
3104.000000	96.802918 
3103.000000	96.802818 
3102.000000	96.802386 
3101.000000	96.802020 
3100.000000	96.801930 
3099.000000	96.802035 
3098.000000	96.802431 
3097.000000	96.803711 
3096.000000	96.806342 
3095.000000	96.809858 
3094.000000	96.813161 
3093.000000	96.815502 
3092.000000	96.816885 
3091.000000	96.817627 
3090.000000	96.817993 
3089.000000	96.818280 
3088.000000	96.818774 
3087.000000	96.819570 
3086.000000	96.820654 
3085.000000	96.822124 
3084.000000	96.823956 
3083.000000	96.825703 
3082.000000	96.826855 
3081.000000	96.827550 
3080.000000	96.828528 
3079.000000	96.830141 
3078.000000	96.831764 
3077.000000	96.832624 
3076.000000	96.832902 
3075.000000	96.833388 
3074.000000	96.834363 
3073.000000	96.835536 
3072.000000	96.836776 
3071.000000	96.838077 
3070.000000	96.839007 
3069.000000	96.839162 
3068.000000	96.839098 
3067.000000	96.839876 
3066.000000	96.841608 
3065.000000	96.843281 
3064.000000	96.844074 
3063.000000	96.843985 
3062.000000	96.843105 
3061.000000	96.841248 
3060.000000	96.838676 
3059.000000	96.836508 
3058.000000	96.836074 
3057.000000	96.838045 
3056.000000	96.841924 
3055.000000	96.845828 
3054.000000	96.847295 
3053.000000	96.845398 
3052.000000	96.842150 
3051.000000	96.840944 
3050.000000	96.843126 
3049.000000	96.846791 
3048.000000	96.848958 
3047.000000	96.848138 
3046.000000	96.844645 
3045.000000	96.839772 
3044.000000	96.835422 
3043.000000	96.833767 
3042.000000	96.836001 
3041.000000	96.841043 
3040.000000	96.845819 
3039.000000	96.847366 
3038.000000	96.844919 
3037.000000	96.840091 
3036.000000	96.835031 
3035.000000	96.830304 
3034.000000	96.825007 
3033.000000	96.818819 
3032.000000	96.813029 
3031.000000	96.809180 
3030.000000	96.807425 
3029.000000	96.806665 
3028.000000	96.805493 
3027.000000	96.802430 
3026.000000	96.796244 
3025.000000	96.787272 
3024.000000	96.777986 
3023.000000	96.770978 
3022.000000	96.766475 
3021.000000	96.762936 
3020.000000	96.759644 
3019.000000	96.757145 
3018.000000	96.755044 
3017.000000	96.751168 
3016.000000	96.743936 
3015.000000	96.734549 
3014.000000	96.726047 
3013.000000	96.720548 
3012.000000	96.717645 
3011.000000	96.714864 
3010.000000	96.709509 
3009.000000	96.700803 
3008.000000	96.690561 
3007.000000	96.681363 
3006.000000	96.674001 
3005.000000	96.667275 
3004.000000	96.660127 
3003.000000	96.653047 
3002.000000	96.647328 
3001.000000	96.643730 
3000.000000	96.641798 
2999.000000	96.639610 
2998.000000	96.634373 
2997.000000	96.624697 
2996.000000	96.612593 
2995.000000	96.602007 
2994.000000	96.594772 
2993.000000	96.588884 
2992.000000	96.581118 
2991.000000	96.570577 
2990.000000	96.559243 
2989.000000	96.549981 
2988.000000	96.544717 
2987.000000	96.543866 
2986.000000	96.546563 
2985.000000	96.551384 
2984.000000	96.557076 
2983.000000	96.562655 
2982.000000	96.567170 
2981.000000	96.569964 
2980.000000	96.571039 
2979.000000	96.570622 
2978.000000	96.568543 
2977.000000	96.564862 
2976.000000	96.561038 
2975.000000	96.559546 
2974.000000	96.561926 
2973.000000	96.567684 
2972.000000	96.574972 
2971.000000	96.581759 
2970.000000	96.586648 
2969.000000	96.589799 
2968.000000	96.593215 
2967.000000	96.598982 
2966.000000	96.606798 
2965.000000	96.614160 
2964.000000	96.619343 
2963.000000	96.623165 
2962.000000	96.627427 
2961.000000	96.632727 
2960.000000	96.638628 
2959.000000	96.645090 
2958.000000	96.652557 
2957.000000	96.660864 
2956.000000	96.668791 
2955.000000	96.674732 
2954.000000	96.677760 
2953.000000	96.678553 
2952.000000	96.679544 
2951.000000	96.683358 
2950.000000	96.690282 
2949.000000	96.697646 
2948.000000	96.702333 
2947.000000	96.703557 
2946.000000	96.702879 
2945.000000	96.702245 
2944.000000	96.702694 
2943.000000	96.704422 
2942.000000	96.706866 
2941.000000	96.708737 
2940.000000	96.709116 
2939.000000	96.708849 
2938.000000	96.709955 
2937.000000	96.713155 
2936.000000	96.716676 
2935.000000	96.718085 
2934.000000	96.716783 
2933.000000	96.714149 
2932.000000	96.711755 
2931.000000	96.710265 
2930.000000	96.709916 
2929.000000	96.711041 
2928.000000	96.713538 
2927.000000	96.716344 
2926.000000	96.718261 
2925.000000	96.719371 
2924.000000	96.721084 
2923.000000	96.724357 
2922.000000	96.728179 
2921.000000	96.730421 
2920.000000	96.730291 
2919.000000	96.729387 
2918.000000	96.729813 
2917.000000	96.731402 
2916.000000	96.731538 
2915.000000	96.728072 
2914.000000	96.721939 
2913.000000	96.716389 
2912.000000	96.713712 
2911.000000	96.713218 
2910.000000	96.712576 
2909.000000	96.710583 
2908.000000	96.708251 
2907.000000	96.707283 
2906.000000	96.707862 
2905.000000	96.707936 
2904.000000	96.705024 
2903.000000	96.698698 
2902.000000	96.692490 
2901.000000	96.690946 
2900.000000	96.695865 
2899.000000	96.705272 
2898.000000	96.715437 
2897.000000	96.724088 
2896.000000	96.730640 
2895.000000	96.734620 
2894.000000	96.735709 
2893.000000	96.735378 
2892.000000	96.736523 
2891.000000	96.740450 
2890.000000	96.745409 
2889.000000	96.749147 
2888.000000	96.751895 
2887.000000	96.755270 
2886.000000	96.758948 
2885.000000	96.760665 
2884.000000	96.759998 
2883.000000	96.760131 
2882.000000	96.764394 
2881.000000	96.772227 
2880.000000	96.780123 
2879.000000	96.786216 
2878.000000	96.792133 
2877.000000	96.799866 
2876.000000	96.808550 
2875.000000	96.815492 
2874.000000	96.819506 
2873.000000	96.821851 
2872.000000	96.824180 
2871.000000	96.826808 
2870.000000	96.829270 
2869.000000	96.831560 
2868.000000	96.834195 
2867.000000	96.837554 
2866.000000	96.841652 
2865.000000	96.846253 
2864.000000	96.850964 
2863.000000	96.855668 
2862.000000	96.861083 
2861.000000	96.868217 
2860.000000	96.876874 
2859.000000	96.885436 
2858.000000	96.892739 
2857.000000	96.899547 
2856.000000	96.907293 
2855.000000	96.915714 
2854.000000	96.922783 
2853.000000	96.926962 
2852.000000	96.928591 
2851.000000	96.929221 
2850.000000	96.930344 
2849.000000	96.932783 
2848.000000	96.936522 
2847.000000	96.940686 
2846.000000	96.944166 
2845.000000	96.946597 
2844.000000	96.948553 
2843.000000	96.950812 
2842.000000	96.953744 
2841.000000	96.957234 
2840.000000	96.960606 
2839.000000	96.962821 
2838.000000	96.963442 
2837.000000	96.963396 
2836.000000	96.964237 
2835.000000	96.966613 
2834.000000	96.970043 
2833.000000	96.974121 
2832.000000	96.978982 
2831.000000	96.984276 
2830.000000	96.988562 
2829.000000	96.990489 
2828.000000	96.990219 
2827.000000	96.989353 
2826.000000	96.989651 
2825.000000	96.991901 
2824.000000	96.995661 
2823.000000	96.999581 
2822.000000	97.002270 
2821.000000	97.003318 
2820.000000	97.003428 
2819.000000	97.003529 
2818.000000	97.003951 
2817.000000	97.004647 
2816.000000	97.005735 
2815.000000	97.007355 
2814.000000	97.009173 
2813.000000	97.010491 
2812.000000	97.010930 
2811.000000	97.010788 
2810.000000	97.010762 
2809.000000	97.011423 
2808.000000	97.012907 
2807.000000	97.014952 
2806.000000	97.017136 
2805.000000	97.019119 
2804.000000	97.020716 
2803.000000	97.021842 
2802.000000	97.022555 
2801.000000	97.023147 
2800.000000	97.024000 
2799.000000	97.025210 
2798.000000	97.026483 
2797.000000	97.027465 
2796.000000	97.028115 
2795.000000	97.028680 
2794.000000	97.029404 
2793.000000	97.030329 
2792.000000	97.031362 
2791.000000	97.032404 
2790.000000	97.033380 
2789.000000	97.034243 
2788.000000	97.034999 
2787.000000	97.035721 
2786.000000	97.036496 
2785.000000	97.037365 
2784.000000	97.038305 
2783.000000	97.039262 
2782.000000	97.040195 
2781.000000	97.041095 
2780.000000	97.041983 
2779.000000	97.042884 
2778.000000	97.043803 
2777.000000	97.044727 
2776.000000	97.045634 
2775.000000	97.046506 
2774.000000	97.047348 
2773.000000	97.048174 
2772.000000	97.048996 
2771.000000	97.049817 
2770.000000	97.050637 
2769.000000	97.051467 
2768.000000	97.052310 
2767.000000	97.053149 
2766.000000	97.053958 
2765.000000	97.054724 
2764.000000	97.055456 
2763.000000	97.056168 
2762.000000	97.056866 
2761.000000	97.057551 
2760.000000	97.058230 
2759.000000	97.058918 
2758.000000	97.059623 
2757.000000	97.060330 
2756.000000	97.061018 
2755.000000	97.061676 
2754.000000	97.062313 
2753.000000	97.062951 
2752.000000	97.063595 
2751.000000	97.064229 
2750.000000	97.064837 
2749.000000	97.065420 
2748.000000	97.065987 
2747.000000	97.066531 
2746.000000	97.067046 
2745.000000	97.067544 
2744.000000	97.068040 
2743.000000	97.068535 
2742.000000	97.069026 
2741.000000	97.069513 
2740.000000	97.069994 
2739.000000	97.070469 
2738.000000	97.070935 
2737.000000	97.071394 
2736.000000	97.071847 
2735.000000	97.072301 
2734.000000	97.072759 
2733.000000	97.073225 
2732.000000	97.073694 
2731.000000	97.074165 
2730.000000	97.074632 
2729.000000	97.075095 
2728.000000	97.075550 
2727.000000	97.075995 
2726.000000	97.076425 
2725.000000	97.076842 
2724.000000	97.077252 
2723.000000	97.077661 
2722.000000	97.078075 
2721.000000	97.078494 
2720.000000	97.078922 
2719.000000	97.079360 
2718.000000	97.079810 
2717.000000	97.080269 
2716.000000	97.080730 
2715.000000	97.081192 
2714.000000	97.081656 
2713.000000	97.082127 
2712.000000	97.082607 
2711.000000	97.083092 
2710.000000	97.083578 
2709.000000	97.084063 
2708.000000	97.084550 
2707.000000	97.085044 
2706.000000	97.085544 
2705.000000	97.086050 
2704.000000	97.086560 
2703.000000	97.087073 
2702.000000	97.087589 
2701.000000	97.088108 
2700.000000	97.088630 
2699.000000	97.089153 
2698.000000	97.089673 
2697.000000	97.090185 
2696.000000	97.090687 
2695.000000	97.091177 
2694.000000	97.091657 
2693.000000	97.092127 
2692.000000	97.092589 
2691.000000	97.093046 
2690.000000	97.093503 
2689.000000	97.093965 
2688.000000	97.094432 
2687.000000	97.094904 
2686.000000	97.095374 
2685.000000	97.095838 
2684.000000	97.096296 
2683.000000	97.096746 
2682.000000	97.097187 
2681.000000	97.097618 
2680.000000	97.098034 
2679.000000	97.098434 
2678.000000	97.098816 
2677.000000	97.099179 
2676.000000	97.099524 
2675.000000	97.099853 
2674.000000	97.100167 
2673.000000	97.100466 
2672.000000	97.100754 
2671.000000	97.101033 
2670.000000	97.101304 
2669.000000	97.101564 
2668.000000	97.101812 
2667.000000	97.102057 
2666.000000	97.102295 
2665.000000	97.102507 
2664.000000	97.102687 
2663.000000	97.102859 
2662.000000	97.103064 
2661.000000	97.103312 
2660.000000	97.103550 
2659.000000	97.103706 
2658.000000	97.103761 
2657.000000	97.103767 
2656.000000	97.103792 
2655.000000	97.103861 
2654.000000	97.103930 
2653.000000	97.103943 
2652.000000	97.103896 
2651.000000	97.103855 
2650.000000	97.103893 
2649.000000	97.104017 
2648.000000	97.104149 
2647.000000	97.104183 
2646.000000	97.104067 
2645.000000	97.103818 
2644.000000	97.103495 
2643.000000	97.103177 
2642.000000	97.102935 
2641.000000	97.102799 
2640.000000	97.102727 
2639.000000	97.102650 
2638.000000	97.102554 
2637.000000	97.102479 
2636.000000	97.102448 
2635.000000	97.102437 
2634.000000	97.102415 
2633.000000	97.102372 
2632.000000	97.102289 
2631.000000	97.102130 
2630.000000	97.101884 
2629.000000	97.101595 
2628.000000	97.101321 
2627.000000	97.101078 
2626.000000	97.100847 
2625.000000	97.100619 
2624.000000	97.100405 
2623.000000	97.100206 
2622.000000	97.100000 
2621.000000	97.099752 
2620.000000	97.099456 
2619.000000	97.099133 
2618.000000	97.098817 
2617.000000	97.098534 
2616.000000	97.098288 
2615.000000	97.098070 
2614.000000	97.097861 
2613.000000	97.097647 
2612.000000	97.097427 
2611.000000	97.097205 
2610.000000	97.096985 
2609.000000	97.096766 
2608.000000	97.096539 
2607.000000	97.096299 
2606.000000	97.096048 
2605.000000	97.095790 
2604.000000	97.095533 
2603.000000	97.095282 
2602.000000	97.095034 
2601.000000	97.094791 
2600.000000	97.094562 
2599.000000	97.094348 
2598.000000	97.094131 
2597.000000	97.093895 
2596.000000	97.093661 
2595.000000	97.093459 
2594.000000	97.093232 
2593.000000	97.092868 
2592.000000	97.092415 
2591.000000	97.092110 
2590.000000	97.092075 
2589.000000	97.092098 
2588.000000	97.091910 
2587.000000	97.091567 
2586.000000	97.091344 
2585.000000	97.091390 
2584.000000	97.091658 
2583.000000	97.091990 
2582.000000	97.092160 
2581.000000	97.092027 
2580.000000	97.091809 
2579.000000	97.091979 
2578.000000	97.092723 
2577.000000	97.093636 
2576.000000	97.094101 
2575.000000	97.093786 
2574.000000	97.092730 
2573.000000	97.091312 
2572.000000	97.090152 
2571.000000	97.089671 
2570.000000	97.089618 
2569.000000	97.089297 
2568.000000	97.088437 
2567.000000	97.087576 
2566.000000	97.087357 
2565.000000	97.087803 
2564.000000	97.088460 
2563.000000	97.088940 
2562.000000	97.089166 
2561.000000	97.089379 
2560.000000	97.090133 
2559.000000	97.091928 
2558.000000	97.094495 
2557.000000	97.096658 
2556.000000	97.097418 
2555.000000	97.096949 
2554.000000	97.096269 
2553.000000	97.095968 
2552.000000	97.095768 
2551.000000	97.095448 
2550.000000	97.095430 
2549.000000	97.095999 
2548.000000	97.096460 
2547.000000	97.095839 
2546.000000	97.094230 
2545.000000	97.092850 
2544.000000	97.092572 
2543.000000	97.092942 
2542.000000	97.092955 
2541.000000	97.092473 
2540.000000	97.092315 
2539.000000	97.093013 
2538.000000	97.094127 
2537.000000	97.094870 
2536.000000	97.095065 
2535.000000	97.095142 
2534.000000	97.095421 
2533.000000	97.095743 
2532.000000	97.095803 
2531.000000	97.095568 
2530.000000	97.095267 
2529.000000	97.095125 
2528.000000	97.095186 
2527.000000	97.095400 
2526.000000	97.095735 
2525.000000	97.096172 
2524.000000	97.096649 
2523.000000	97.097066 
2522.000000	97.097356 
2521.000000	97.097539 
2520.000000	97.097689 
2519.000000	97.097872 
2518.000000	97.098097 
2517.000000	97.098314 
2516.000000	97.098444 
2515.000000	97.098452 
2514.000000	97.098416 
2513.000000	97.098513 
2512.000000	97.098853 
2511.000000	97.099395 
2510.000000	97.100001 
2509.000000	97.100555 
2508.000000	97.101017 
2507.000000	97.101363 
2506.000000	97.101608 
2505.000000	97.101872 
2504.000000	97.102318 
2503.000000	97.102943 
2502.000000	97.103515 
2501.000000	97.103832 
2500.000000	97.103950 
2499.000000	97.104094 
2498.000000	97.104372 
2497.000000	97.104683 
2496.000000	97.104919 
2495.000000	97.105112 
2494.000000	97.105290 
2493.000000	97.105350 
2492.000000	97.105291 
2491.000000	97.105429 
2490.000000	97.106123 
2489.000000	97.107277 
2488.000000	97.108262 
2487.000000	97.108496 
2486.000000	97.108006 
2485.000000	97.107412 
2484.000000	97.107360 
2483.000000	97.108041 
2482.000000	97.109226 
2481.000000	97.110554 
2480.000000	97.111715 
2479.000000	97.112517 
2478.000000	97.112976 
2477.000000	97.113278 
2476.000000	97.113430 
2475.000000	97.113074 
2474.000000	97.111905 
2473.000000	97.110184 
2472.000000	97.108515 
2471.000000	97.107138 
2470.000000	97.105946 
2469.000000	97.105166 
2468.000000	97.105343 
2467.000000	97.106417 
2466.000000	97.107364 
2465.000000	97.107198 
2464.000000	97.106172 
2463.000000	97.105631 
2462.000000	97.106771 
2461.000000	97.109683 
2460.000000	97.113355 
2459.000000	97.116415 
2458.000000	97.117974 
2457.000000	97.117848 
2456.000000	97.116200 
2455.000000	97.113367 
2454.000000	97.110125 
2453.000000	97.107559 
2452.000000	97.106135 
2451.000000	97.105245 
2450.000000	97.104174 
2449.000000	97.103196 
2448.000000	97.103019 
2447.000000	97.103452 
2446.000000	97.103522 
2445.000000	97.102852 
2444.000000	97.101978 
2443.000000	97.101283 
2442.000000	97.100578 
2441.000000	97.099883 
2440.000000	97.099749 
2439.000000	97.100565 
2438.000000	97.102241 
2437.000000	97.104653 
2436.000000	97.107597 
2435.000000	97.110189 
2434.000000	97.111212 
2433.000000	97.110371 
2432.000000	97.108660 
2431.000000	97.107345 
2430.000000	97.106982 
2429.000000	97.107553 
2428.000000	97.108772 
2427.000000	97.109885 
2426.000000	97.109920 
2425.000000	97.108608 
2424.000000	97.106742 
2423.000000	97.105394 
2422.000000	97.105021 
2421.000000	97.105540 
2420.000000	97.106736 
2419.000000	97.108156 
2418.000000	97.109111 
2417.000000	97.109386 
2416.000000	97.109487 
2415.000000	97.109893 
2414.000000	97.110419 
2413.000000	97.110718 
2412.000000	97.110952 
2411.000000	97.111448 
2410.000000	97.112006 
2409.000000	97.112194 
2408.000000	97.112103 
2407.000000	97.112192 
2406.000000	97.112437 
2405.000000	97.112268 
2404.000000	97.111403 
2403.000000	97.110141 
2402.000000	97.108855 
2401.000000	97.107866 
2400.000000	97.107765 
2399.000000	97.109220 
2398.000000	97.112224 
2397.000000	97.115823 
2396.000000	97.118891 
2395.000000	97.120816 
2394.000000	97.121037 
2393.000000	97.119299 
2392.000000	97.117002 
2391.000000	97.116639 
2390.000000	97.119124 
2389.000000	97.122852 
2388.000000	97.125670 
2387.000000	97.126552 
2386.000000	97.125306 
2385.000000	97.122312 
2384.000000	97.119080 
2383.000000	97.117545 
2382.000000	97.118299 
2381.000000	97.120896 
2380.000000	97.126094 
2379.000000	97.135483 
2378.000000	97.147562 
2377.000000	97.156610 
2376.000000	97.158120 
2375.000000	97.154051 
2374.000000	97.149715 
2373.000000	97.146277 
2372.000000	97.140472 
2371.000000	97.132027 
2370.000000	97.126161 
2369.000000	97.126098 
2368.000000	97.127480 
2367.000000	97.124533 
2366.000000	97.119139 
2365.000000	97.119573 
2364.000000	97.130668 
2363.000000	97.147984 
2362.000000	97.164390 
2361.000000	97.178170 
2360.000000	97.191616 
2359.000000	97.206358 
2358.000000	97.221244 
2357.000000	97.235561 
2356.000000	97.248624 
2355.000000	97.255291 
2354.000000	97.248433 
2353.000000	97.226451 
2352.000000	97.196988 
2351.000000	97.169019 
2350.000000	97.146683 
2349.000000	97.131559 
2348.000000	97.121540 
2347.000000	97.114026 
2346.000000	97.110333 
2345.000000	97.114004 
2344.000000	97.122058 
2343.000000	97.126803 
2342.000000	97.127833 
2341.000000	97.129811 
2340.000000	97.135669 
2339.000000	97.142711 
2338.000000	97.146568 
2337.000000	97.145978 
2336.000000	97.144103 
2335.000000	97.143070 
2334.000000	97.141222 
2333.000000	97.135345 
2332.000000	97.126797 
2331.000000	97.118908 
2330.000000	97.111276 
2329.000000	97.102797 
2328.000000	97.094958 
2327.000000	97.091642 
2326.000000	97.091472 
2325.000000	97.089853 
2324.000000	97.085530 
2323.000000	97.081012 
2322.000000	97.077675 
2321.000000	97.073116 
2320.000000	97.068040 
2319.000000	97.066529 
2318.000000	97.069963 
2317.000000	97.072990 
2316.000000	97.070121 
2315.000000	97.061594 
2314.000000	97.051556 
2313.000000	97.042841 
2312.000000	97.035732 
2311.000000	97.030135 
2310.000000	97.025571 
2309.000000	97.020883 
2308.000000	97.015913 
2307.000000	97.012982 
2306.000000	97.013949 
2305.000000	97.017130 
2304.000000	97.019127 
2303.000000	97.019280 
2302.000000	97.020169 
2301.000000	97.023782 
2300.000000	97.028791 
2299.000000	97.031910 
2298.000000	97.030687 
2297.000000	97.025329 
2296.000000	97.018433 
2295.000000	97.013406 
2294.000000	97.011895 
2293.000000	97.013091 
2292.000000	97.015395 
2291.000000	97.018289 
2290.000000	97.021838 
2289.000000	97.025426 
2288.000000	97.027981 
2287.000000	97.029043 
2286.000000	97.028839 
2285.000000	97.027893 
2284.000000	97.027075 
2283.000000	97.027241 
2282.000000	97.028134 
2281.000000	97.028095 
2280.000000	97.025635 
2279.000000	97.020960 
2278.000000	97.015778 
2277.000000	97.011892 
2276.000000	97.010257 
2275.000000	97.010702 
2274.000000	97.012145 
2273.000000	97.013568 
2272.000000	97.014867 
2271.000000	97.016300 
2270.000000	97.017392 
2269.000000	97.017375 
2268.000000	97.016595 
2267.000000	97.016268 
2266.000000	97.016666 
2265.000000	97.016719 
2264.000000	97.015532 
2263.000000	97.013244 
2262.000000	97.010248 
2261.000000	97.006665 
2260.000000	97.002920 
2259.000000	96.999764 
2258.000000	96.997416 
2257.000000	96.995461 
2256.000000	96.993822 
2255.000000	96.992992 
2254.000000	96.992988 
2253.000000	96.992831 
2252.000000	96.991512 
2251.000000	96.988992 
2250.000000	96.985843 
2249.000000	96.982553 
2248.000000	96.979453 
2247.000000	96.976881 
2246.000000	96.974926 
2245.000000	96.973246 
2244.000000	96.971364 
2243.000000	96.969161 
2242.000000	96.966850 
2241.000000	96.964681 
2240.000000	96.962737 
2239.000000	96.960944 
2238.000000	96.959151 
2237.000000	96.957223 
2236.000000	96.955133 
2235.000000	96.952943 
2234.000000	96.950723 
2233.000000	96.948495 
2232.000000	96.946243 
2231.000000	96.943956 
2230.000000	96.941632 
2229.000000	96.939263 
2228.000000	96.936856 
2227.000000	96.934437 
2226.000000	96.932015 
2225.000000	96.929579 
2224.000000	96.927122 
2223.000000	96.924656 
2222.000000	96.922203 
2221.000000	96.919781 
2220.000000	96.917385 
2219.000000	96.914995 
2218.000000	96.912596 
2217.000000	96.910187 
2216.000000	96.907779 
2215.000000	96.905380 
2214.000000	96.902992 
2213.000000	96.900608 
2212.000000	96.898228 
2211.000000	96.895880 
2210.000000	96.893607 
2209.000000	96.891419 
2208.000000	96.889278 
2207.000000	96.887141 
2206.000000	96.884982 
2205.000000	96.882803 
2204.000000	96.880644 
2203.000000	96.878610 
2202.000000	96.876859 
2201.000000	96.875354 
2200.000000	96.873656 
2199.000000	96.871199 
2198.000000	96.867786 
2197.000000	96.863822 
2196.000000	96.859996 
2195.000000	96.856722 
2194.000000	96.853875 
2193.000000	96.851126 
2192.000000	96.848620 
2191.000000	96.846933 
2190.000000	96.846097 
2189.000000	96.845240 
2188.000000	96.843652 
2187.000000	96.841425 
2186.000000	96.838354 
2185.000000	96.833513 
2184.000000	96.827464 
2183.000000	96.823715 
2182.000000	96.825347 
2181.000000	96.830566 
2180.000000	96.833387 
2179.000000	96.830144 
2178.000000	96.822835 
2177.000000	96.816259 
2176.000000	96.813303 
2175.000000	96.813985 
2174.000000	96.816952 
2173.000000	96.820388 
2172.000000	96.823186 
2171.000000	96.826202 
2170.000000	96.830612 
2169.000000	96.834569 
2168.000000	96.833924 
2167.000000	96.827393 
2166.000000	96.818631 
2165.000000	96.811497 
2164.000000	96.805539 
2163.000000	96.798735 
2162.000000	96.792532 
2161.000000	96.790656 
2160.000000	96.794010 
2159.000000	96.800123 
2158.000000	96.807236 
2157.000000	96.815638 
2156.000000	96.824845 
2155.000000	96.832704 
2154.000000	96.838069 
2153.000000	96.842547 
2152.000000	96.848469 
2151.000000	96.855346 
2150.000000	96.859469 
2149.000000	96.858204 
2148.000000	96.854361 
2147.000000	96.854346 
2146.000000	96.861377 
2145.000000	96.872565 
2144.000000	96.883514 
2143.000000	96.893436 
2142.000000	96.903247 
2141.000000	96.911184 
2140.000000	96.914450 
2139.000000	96.914591 
2138.000000	96.917180 
2137.000000	96.924915 
2136.000000	96.933799 
2135.000000	96.937474 
2134.000000	96.933553 
2133.000000	96.925377 
2132.000000	96.919375 
2131.000000	96.920280 
2130.000000	96.927857 
2129.000000	96.937344 
2128.000000	96.943741 
2127.000000	96.946266 
2126.000000	96.947929 
2125.000000	96.951257 
2124.000000	96.955633 
2123.000000	96.958835 
2122.000000	96.959681 
2121.000000	96.958584 
2120.000000	96.956568 
2119.000000	96.954497 
2118.000000	96.953003 
2117.000000	96.952546 
2116.000000	96.953149 
2115.000000	96.953885 
2114.000000	96.953007 
2113.000000	96.949510 
2112.000000	96.944856 
2111.000000	96.942179 
2110.000000	96.943079 
2109.000000	96.946116 
2108.000000	96.948867 
2107.000000	96.950552 
2106.000000	96.951695 
2105.000000	96.952432 
2104.000000	96.952639 
2103.000000	96.952766 
2102.000000	96.952889 
2101.000000	96.951596 
2100.000000	96.947661 
2099.000000	96.942497 
2098.000000	96.939358 
2097.000000	96.939820 
2096.000000	96.942555 
2095.000000	96.945152 
2094.000000	96.946170 
2093.000000	96.945347 
2092.000000	96.942970 
2091.000000	96.939952 
2090.000000	96.937563 
2089.000000	96.936335 
2088.000000	96.935597 
2087.000000	96.934254 
2086.000000	96.931703 
2085.000000	96.928002 
2084.000000	96.923773 
2083.000000	96.919877 
2082.000000	96.916766 
2081.000000	96.914221 
2080.000000	96.911927 
2079.000000	96.909999 
2078.000000	96.908520 
2077.000000	96.906860 
2076.000000	96.904204 
2075.000000	96.900706 
2074.000000	96.897274 
2073.000000	96.894126 
2072.000000	96.890547 
2071.000000	96.886204 
2070.000000	96.881767 
2069.000000	96.878051 
2068.000000	96.875173 
2067.000000	96.872779 
2066.000000	96.870507 
2065.000000	96.867975 
2064.000000	96.864784 
2063.000000	96.860957 
2062.000000	96.857158 
2061.000000	96.854121 
2060.000000	96.851934 
2059.000000	96.850186 
2058.000000	96.848341 
2057.000000	96.845948 
2056.000000	96.842774 
2055.000000	96.838900 
2054.000000	96.834795 
2053.000000	96.831026 
2052.000000	96.827819 
2051.000000	96.824989 
2050.000000	96.822148 
2049.000000	96.819015 
2048.000000	96.815597 
2047.000000	96.812180 
2046.000000	96.809146 
2045.000000	96.806697 
2044.000000	96.804756 
2043.000000	96.803100 
2042.000000	96.801550 
2041.000000	96.800015 
2040.000000	96.798484 
2039.000000	96.797026 
2038.000000	96.795682 
2037.000000	96.794234 
2036.000000	96.792301 
2035.000000	96.789801 
2034.000000	96.787274 
2033.000000	96.785516 
2032.000000	96.784816 
2031.000000	96.784609 
2030.000000	96.783836 
2029.000000	96.781831 
2028.000000	96.778935 
2027.000000	96.776268 
2026.000000	96.774545 
2025.000000	96.773454 
2024.000000	96.772470 
2023.000000	96.771987 
2022.000000	96.772861 
2021.000000	96.774895 
2020.000000	96.776420 
2019.000000	96.775867 
2018.000000	96.773099 
2017.000000	96.769336 
2016.000000	96.766104 
2015.000000	96.764225 
2014.000000	96.763504 
2013.000000	96.762882 
2012.000000	96.761559 
2011.000000	96.760378 
2010.000000	96.761039 
2009.000000	96.763645 
2008.000000	96.766090 
2007.000000	96.766645 
2006.000000	96.766104 
2005.000000	96.766419 
2004.000000	96.768094 
2003.000000	96.770115 
2002.000000	96.771815 
2001.000000	96.773222 
2000.000000	96.773761 
1999.000000	96.772146 
1998.000000	96.767942 
1997.000000	96.762459 
1996.000000	96.757972 
1995.000000	96.756014 
1994.000000	96.756474 
1993.000000	96.757830 
1992.000000	96.758267 
1991.000000	96.757379 
1990.000000	96.756490 
1989.000000	96.757008 
1988.000000	96.758741 
1987.000000	96.760007 
1986.000000	96.759351 
1985.000000	96.756864 
1984.000000	96.753968 
1983.000000	96.752180 
1982.000000	96.751918 
1981.000000	96.752557 
1980.000000	96.753360 
1979.000000	96.754214 
1978.000000	96.755187 
1977.000000	96.755853 
1976.000000	96.755678 
1975.000000	96.754971 
1974.000000	96.754839 
1973.000000	96.756062 
1972.000000	96.758395 
1971.000000	96.760958 
1970.000000	96.762990 
1969.000000	96.764155 
1968.000000	96.764430 
1967.000000	96.764090 
1966.000000	96.763806 
1965.000000	96.764378 
1964.000000	96.766201 
1963.000000	96.769068 
1962.000000	96.772411 
1961.000000	96.775578 
1960.000000	96.778089 
1959.000000	96.779851 
1958.000000	96.781232 
1957.000000	96.782904 
1956.000000	96.785318 
1955.000000	96.788315 
1954.000000	96.791226 
1953.000000	96.793540 
1952.000000	96.795335 
1951.000000	96.797006 
1950.000000	96.798863 
1949.000000	96.801205 
1948.000000	96.804401 
1947.000000	96.808520 
1946.000000	96.812869 
1945.000000	96.816391 
1944.000000	96.818611 
1943.000000	96.819870 
1942.000000	96.820913 
1941.000000	96.822223 
1940.000000	96.823943 
1939.000000	96.826000 
1938.000000	96.828090 
1937.000000	96.830033 
1936.000000	96.832108 
1935.000000	96.834612 
1934.000000	96.837231 
1933.000000	96.839516 
1932.000000	96.841726 
1931.000000	96.844522 
1930.000000	96.847974 
1929.000000	96.851281 
1928.000000	96.853892 
1927.000000	96.856216 
1926.000000	96.858832 
1925.000000	96.861597 
1924.000000	96.863975 
1923.000000	96.865899 
1922.000000	96.867503 
1921.000000	96.868413 
1920.000000	96.868360 
1919.000000	96.868039 
1918.000000	96.868452 
1917.000000	96.869399 
1916.000000	96.869940 
1915.000000	96.870536 
1914.000000	96.872426 
1913.000000	96.875321 
1912.000000	96.877613 
1911.000000	96.878879 
1910.000000	96.880458 
1909.000000	96.883140 
1908.000000	96.886147 
1907.000000	96.888542 
1906.000000	96.890079 
1905.000000	96.890454 
1904.000000	96.889350 
1903.000000	96.887708 
1902.000000	96.887226 
1901.000000	96.888231 
1900.000000	96.889672 
1899.000000	96.890790 
1898.000000	96.891788 
1897.000000	96.892985 
1896.000000	96.894070 
1895.000000	96.894672 
1894.000000	96.894923 
1893.000000	96.895082 
1892.000000	96.895300 
1891.000000	96.895823 
1890.000000	96.896882 
1889.000000	96.898296 
1888.000000	96.899604 
1887.000000	96.900701 
1886.000000	96.901786 
1885.000000	96.902811 
1884.000000	96.903555 
1883.000000	96.904053 
1882.000000	96.904619 
1881.000000	96.905457 
1880.000000	96.906500 
1879.000000	96.907571 
1878.000000	96.908558 
1877.000000	96.909497 
1876.000000	96.910511 
1875.000000	96.911695 
1874.000000	96.913043 
1873.000000	96.914447 
1872.000000	96.915777 
1871.000000	96.917006 
1870.000000	96.918203 
1869.000000	96.919445 
1868.000000	96.920727 
1867.000000	96.922058 
1866.000000	96.923493 
1865.000000	96.924999 
1864.000000	96.926481 
1863.000000	96.927948 
1862.000000	96.929516 
1861.000000	96.931230 
1860.000000	96.932987 
1859.000000	96.934711 
1858.000000	96.936496 
1857.000000	96.938392 
1856.000000	96.940293 
1855.000000	96.942118 
1854.000000	96.943910 
1853.000000	96.945682 
1852.000000	96.947398 
1851.000000	96.949102 
1850.000000	96.950893 
1849.000000	96.952753 
1848.000000	96.954542 
1847.000000	96.956192 
1846.000000	96.957785 
1845.000000	96.959422 
1844.000000	96.961087 
1843.000000	96.962739 
1842.000000	96.964425 
1841.000000	96.966182 
1840.000000	96.968000 
1839.000000	96.969859 
1838.000000	96.971709 
1837.000000	96.973442 
1836.000000	96.974996 
1835.000000	96.976437 
1834.000000	96.977894 
1833.000000	96.979402 
1832.000000	96.980922 
1831.000000	96.982387 
1830.000000	96.983734 
1829.000000	96.984966 
1828.000000	96.986162 
1827.000000	96.987390 
1826.000000	96.988663 
1825.000000	96.989921 
1824.000000	96.991051 
1823.000000	96.991992 
1822.000000	96.992842 
1821.000000	96.993724 
1820.000000	96.994618 
1819.000000	96.995424 
1818.000000	96.996219 
1817.000000	96.997196 
1816.000000	96.998301 
1815.000000	96.999280 
1814.000000	97.000097 
1813.000000	97.000977 
1812.000000	97.001930 
1811.000000	97.002565 
1810.000000	97.002826 
1809.000000	97.003160 
1808.000000	97.003729 
1807.000000	97.004319 
1806.000000	97.004950 
1805.000000	97.005846 
1804.000000	97.006855 
1803.000000	97.007506 
1802.000000	97.007606 
1801.000000	97.007546 
1800.000000	97.007716 
1799.000000	97.007984 
1798.000000	97.008395 
1797.000000	97.009124 
1796.000000	97.009722 
1795.000000	97.009651 
1794.000000	97.009226 
1793.000000	97.009459 
1792.000000	97.010443 
1791.000000	97.011132 
1790.000000	97.011444 
1789.000000	97.012221 
1788.000000	97.013503 
1787.000000	97.014615 
1786.000000	97.015375 
1785.000000	97.016134 
1784.000000	97.016814 
1783.000000	97.017230 
1782.000000	97.017588 
1781.000000	97.018227 
1780.000000	97.019124 
1779.000000	97.019929 
1778.000000	97.020782 
1777.000000	97.021949 
1776.000000	97.023201 
1775.000000	97.024140 
1774.000000	97.024527 
1773.000000	97.024675 
1772.000000	97.025110 
1771.000000	97.025548 
1770.000000	97.025609 
1769.000000	97.025788 
1768.000000	97.026700 
1767.000000	97.028119 
1766.000000	97.029335 
1765.000000	97.030292 
1764.000000	97.031538 
1763.000000	97.033086 
1762.000000	97.034145 
1761.000000	97.034447 
1760.000000	97.034620 
1759.000000	97.035040 
1758.000000	97.035496 
1757.000000	97.035723 
1756.000000	97.036125 
1755.000000	97.036679 
1754.000000	97.036442 
1753.000000	97.034977 
1752.000000	97.033536 
1751.000000	97.033954 
1750.000000	97.036169 
1749.000000	97.038298 
1748.000000	97.039426 
1747.000000	97.040221 
1746.000000	97.040963 
1745.000000	97.041752 
1744.000000	97.043234 
1743.000000	97.045148 
1742.000000	97.046116 
1741.000000	97.045892 
1740.000000	97.045963 
1739.000000	97.047255 
1738.000000	97.048428 
1737.000000	97.048378 
1736.000000	97.047401 
1735.000000	97.046493 
1734.000000	97.046354 
1733.000000	97.046343 
1732.000000	97.046272 
1731.000000	97.047370 
1730.000000	97.050177 
1729.000000	97.053010 
1728.000000	97.054400 
1727.000000	97.054443 
1726.000000	97.053913 
1725.000000	97.053222 
1724.000000	97.052569 
1723.000000	97.052066 
1722.000000	97.051848 
1721.000000	97.051637 
1720.000000	97.050987 
1719.000000	97.049517 
1718.000000	97.047536 
1717.000000	97.046120 
1716.000000	97.044862 
1715.000000	97.043070 
1714.000000	97.041654 
1713.000000	97.040987 
1712.000000	97.040279 
1711.000000	97.039132 
1710.000000	97.037825 
1709.000000	97.036463 
1708.000000	97.034858 
1707.000000	97.033000 
1706.000000	97.031116 
1705.000000	97.029218 
1704.000000	97.026962 
1703.000000	97.024422 
1702.000000	97.021879 
1701.000000	97.019527 
1700.000000	97.017235 
1699.000000	97.014852 
1698.000000	97.012427 
1697.000000	97.009987 
1696.000000	97.007521 
1695.000000	97.005015 
1694.000000	97.002448 
1693.000000	96.999811 
1692.000000	96.997092 
1691.000000	96.994281 
1690.000000	96.991374 
1689.000000	96.988376 
1688.000000	96.985291 
1687.000000	96.982133 
1686.000000	96.978923 
1685.000000	96.975677 
1684.000000	96.972396 
1683.000000	96.969067 
1682.000000	96.965692 
1681.000000	96.962276 
1680.000000	96.958833 
1679.000000	96.955377 
1678.000000	96.951938 
1677.000000	96.948454 
1676.000000	96.944932 
1675.000000	96.941645 
1674.000000	96.938299 
1673.000000	96.934156 
1672.000000	96.929574 
1671.000000	96.925758 
1670.000000	96.923076 
1669.000000	96.920017 
1668.000000	96.916331 
1667.000000	96.913684 
1666.000000	96.911760 
1665.000000	96.909274 
1664.000000	96.906419 
1663.000000	96.904543 
1662.000000	96.902726 
1661.000000	96.897353 
1660.000000	96.889727 
1659.000000	96.884662 
1658.000000	96.884571 
1657.000000	96.885042 
1656.000000	96.884091 
1655.000000	96.881454 
1654.000000	96.879381 
1653.000000	96.877329 
1652.000000	96.869450 
1651.000000	96.856825 
1650.000000	96.842593 
1649.000000	96.833910 
1648.000000	96.829857 
1647.000000	96.828419 
1646.000000	96.826081 
1645.000000	96.823860 
1644.000000	96.820239 
1643.000000	96.816853 
1642.000000	96.815846 
1641.000000	96.817530 
1640.000000	96.819493 
1639.000000	96.818944 
1638.000000	96.816112 
1637.000000	96.813173 
1636.000000	96.812410 
1635.000000	96.816741 
1634.000000	96.823670 
1633.000000	96.826778 
1632.000000	96.824381 
1631.000000	96.820417 
1630.000000	96.820480 
1629.000000	96.824818 
1628.000000	96.829691 
1627.000000	96.834197 
1626.000000	96.839640 
1625.000000	96.845314 
1624.000000	96.850353 
1623.000000	96.856430 
1622.000000	96.863692 
1621.000000	96.867470 
1620.000000	96.867183 
1619.000000	96.868128 
1618.000000	96.874419 
1617.000000	96.881791 
1616.000000	96.882918 
1615.000000	96.881300 
1614.000000	96.882451 
1613.000000	96.884638 
1612.000000	96.884884 
1611.000000	96.885301 
1610.000000	96.889121 
1609.000000	96.894841 
1608.000000	96.900665 
1607.000000	96.908822 
1606.000000	96.918730 
1605.000000	96.925503 
1604.000000	96.928489 
1603.000000	96.931754 
1602.000000	96.937073 
1601.000000	96.942049 
1600.000000	96.945692 
1599.000000	96.950169 
1598.000000	96.955835 
1597.000000	96.960410 
1596.000000	96.963092 
1595.000000	96.966131 
1594.000000	96.971124 
1593.000000	96.976195 
1592.000000	96.979523 
1591.000000	96.982559 
1590.000000	96.986947 
1589.000000	96.991165 
1588.000000	96.993671 
1587.000000	96.996221 
1586.000000	97.000315 
1585.000000	97.003491 
1584.000000	97.004243 
1583.000000	97.005615 
1582.000000	97.009721 
1581.000000	97.014234 
1580.000000	97.016967 
1579.000000	97.019606 
1578.000000	97.024118 
1577.000000	97.028829 
1576.000000	97.030854 
1575.000000	97.031771 
1574.000000	97.032828 
1573.000000	97.032906 
1572.000000	97.033349 
1571.000000	97.036016 
1570.000000	97.039380 
1569.000000	97.037784 
1568.000000	97.031963 
1567.000000	97.027719 
1566.000000	97.027156 
1565.000000	97.027767 
1564.000000	97.029061 
1563.000000	97.030978 
1562.000000	97.032774 
1561.000000	97.030675 
1560.000000	97.025351 
1559.000000	97.022930 
1558.000000	97.024267 
1557.000000	97.024414 
1556.000000	97.020856 
1555.000000	97.019356 
1554.000000	97.018444 
1553.000000	97.017473 
1552.000000	97.015704 
1551.000000	97.014055 
1550.000000	97.011757 
1549.000000	97.008420 
1548.000000	97.004674 
1547.000000	97.001762 
1546.000000	96.999647 
1545.000000	96.997565 
1544.000000	96.995050 
1543.000000	96.992021 
1542.000000	96.989139 
1541.000000	96.987497 
1540.000000	96.985175 
1539.000000	96.980973 
1538.000000	96.975896 
1537.000000	96.969834 
1536.000000	96.963552 
1535.000000	96.958199 
1534.000000	96.954672 
1533.000000	96.952308 
1532.000000	96.949324 
1531.000000	96.944607 
1530.000000	96.939231 
1529.000000	96.934526 
1528.000000	96.930261 
1527.000000	96.925581 
1526.000000	96.920390 
1525.000000	96.915444 
1524.000000	96.911269 
1523.000000	96.907681 
1522.000000	96.904362 
1521.000000	96.900528 
1520.000000	96.894786 
1519.000000	96.886999 
1518.000000	96.878855 
1517.000000	96.872125 
1516.000000	96.866731 
1515.000000	96.861695 
1514.000000	96.856753 
1513.000000	96.852698 
1512.000000	96.849357 
1511.000000	96.844576 
1510.000000	96.837186 
1509.000000	96.828826 
1508.000000	96.822599 
1507.000000	96.818041 
1506.000000	96.813656 
1505.000000	96.809360 
1504.000000	96.803399 
1503.000000	96.796196 
1502.000000	96.788702 
1501.000000	96.782493 
1500.000000	96.778104 
1499.000000	96.773862 
1498.000000	96.766728 
1497.000000	96.758539 
1496.000000	96.753635 
1495.000000	96.751350 
1494.000000	96.748731 
1493.000000	96.745896 
1492.000000	96.744576 
1491.000000	96.744873 
1490.000000	96.744661 
1489.000000	96.743071 
1488.000000	96.739523 
1487.000000	96.733101 
1486.000000	96.726219 
1485.000000	96.719513 
1484.000000	96.711909 
1483.000000	96.704381 
1482.000000	96.698483 
1481.000000	96.694430 
1480.000000	96.690047 
1479.000000	96.683804 
1478.000000	96.676971 
1477.000000	96.671832 
1476.000000	96.667230 
1475.000000	96.659895 
1474.000000	96.650330 
1473.000000	96.643671 
1472.000000	96.642662 
1471.000000	96.642650 
1470.000000	96.640019 
1469.000000	96.636373 
1468.000000	96.632897 
1467.000000	96.628197 
1466.000000	96.621901 
1465.000000	96.616773 
1464.000000	96.614964 
1463.000000	96.613130 
1462.000000	96.608016 
1461.000000	96.601688 
1460.000000	96.597838 
1459.000000	96.596757 
1458.000000	96.592030 
1457.000000	96.581053 
1456.000000	96.571889 
1455.000000	96.566516 
1454.000000	96.560352 
1453.000000	96.556004 
1452.000000	96.556246 
1451.000000	96.559621 
1450.000000	96.562340 
1449.000000	96.565111 
1448.000000	96.569618 
1447.000000	96.573245 
1446.000000	96.572036 
1445.000000	96.567428 
1444.000000	96.564545 
1443.000000	96.564114 
1442.000000	96.563358 
1441.000000	96.561165 
1440.000000	96.559162 
1439.000000	96.557430 
1438.000000	96.553416 
1437.000000	96.548443 
1436.000000	96.547690 
1435.000000	96.549317 
1434.000000	96.548031 
1433.000000	96.546293 
1432.000000	96.548379 
1431.000000	96.553786 
1430.000000	96.557617 
1429.000000	96.558317 
1428.000000	96.558534 
1427.000000	96.559666 
1426.000000	96.560603 
1425.000000	96.560894 
1424.000000	96.564126 
1423.000000	96.570464 
1422.000000	96.575038 
1421.000000	96.576631 
1420.000000	96.580241 
1419.000000	96.585433 
1418.000000	96.582903 
1417.000000	96.574345 
1416.000000	96.571614 
1415.000000	96.578057 
1414.000000	96.585549 
1413.000000	96.587203 
1412.000000	96.585976 
1411.000000	96.587115 
1410.000000	96.589238 
1409.000000	96.590618 
1408.000000	96.593842 
1407.000000	96.600914 
1406.000000	96.609287 
1405.000000	96.616222 
1404.000000	96.624708 
1403.000000	96.635474 
1402.000000	96.643947 
1401.000000	96.649539 
1400.000000	96.657821 
1399.000000	96.671664 
1398.000000	96.684818 
1397.000000	96.691198 
1396.000000	96.693480 
1395.000000	96.698503 
1394.000000	96.707374 
1393.000000	96.717420 
1392.000000	96.730276 
1391.000000	96.747121 
1390.000000	96.764197 
1389.000000	96.776622 
1388.000000	96.783113 
1387.000000	96.786153 
1386.000000	96.788607 
1385.000000	96.792504 
1384.000000	96.800053 
1383.000000	96.811214 
1382.000000	96.822454 
1381.000000	96.830860 
1380.000000	96.836918 
1379.000000	96.843617 
1378.000000	96.852928 
1377.000000	96.864286 
1376.000000	96.876212 
1375.000000	96.887802 
1374.000000	96.897900 
1373.000000	96.905931 
1372.000000	96.913294 
1371.000000	96.922585 
1370.000000	96.934653 
1369.000000	96.946257 
1368.000000	96.955394 
1367.000000	96.963451 
1366.000000	96.972347 
1365.000000	96.982872 
1364.000000	96.993961 
1363.000000	97.002869 
1362.000000	97.008147 
1361.000000	97.011325 
1360.000000	97.015097 
1359.000000	97.021529 
1358.000000	97.030626 
1357.000000	97.040250 
1356.000000	97.048601 
1355.000000	97.055530 
1354.000000	97.061859 
1353.000000	97.069258 
1352.000000	97.077704 
1351.000000	97.086315 
1350.000000	97.095242 
1349.000000	97.102323 
1348.000000	97.105766 
1347.000000	97.106714 
1346.000000	97.108309 
1345.000000	97.111913 
1344.000000	97.116606 
1343.000000	97.121576 
1342.000000	97.127215 
1341.000000	97.132987 
1340.000000	97.136745 
1339.000000	97.137423 
1338.000000	97.135924 
1337.000000	97.133722 
1336.000000	97.131970 
1335.000000	97.130924 
1334.000000	97.130226 
1333.000000	97.129860 
1332.000000	97.130268 
1331.000000	97.132006 
1330.000000	97.134786 
1329.000000	97.137130 
1328.000000	97.137844 
1327.000000	97.137897 
1326.000000	97.138932 
1325.000000	97.139906 
1324.000000	97.139450 
1323.000000	97.137721 
1322.000000	97.135428 
1321.000000	97.133176 
1320.000000	97.132367 
1319.000000	97.134138 
1318.000000	97.137132 
1317.000000	97.138754 
1316.000000	97.138229 
1315.000000	97.136432 
1314.000000	97.133558 
1313.000000	97.129929 
1312.000000	97.127793 
1311.000000	97.129279 
1310.000000	97.132853 
1309.000000	97.134949 
1308.000000	97.134581 
1307.000000	97.134298 
1306.000000	97.136341 
1305.000000	97.139503 
1304.000000	97.141840 
1303.000000	97.142574 
1302.000000	97.141439 
1301.000000	97.138485 
1300.000000	97.135447 
1299.000000	97.134749 
1298.000000	97.136454 
1297.000000	97.137933 
1296.000000	97.137047 
1295.000000	97.134517 
1294.000000	97.132342 
1293.000000	97.131683 
1292.000000	97.132719 
1291.000000	97.135035 
1290.000000	97.137721 
1289.000000	97.139912 
1288.000000	97.141248 
1287.000000	97.141332 
1286.000000	97.139519 
1285.000000	97.136418 
1284.000000	97.134607 
1283.000000	97.135719 
1282.000000	97.137793 
1281.000000	97.137448 
1280.000000	97.134199 
1279.000000	97.130979 
1278.000000	97.130437 
1277.000000	97.132735 
1276.000000	97.136545 
1275.000000	97.140406 
1274.000000	97.142777 
1273.000000	97.142855 
1272.000000	97.141663 
1271.000000	97.140592 
1270.000000	97.138955 
1269.000000	97.135164 
1268.000000	97.130301 
1267.000000	97.127393 
1266.000000	97.126872 
1265.000000	97.126671 
1264.000000	97.126740 
1263.000000	97.129221 
1262.000000	97.133674 
1261.000000	97.136267 
1260.000000	97.135510 
1259.000000	97.135112 
1258.000000	97.138195 
1257.000000	97.142381 
1256.000000	97.143068 
1255.000000	97.139501 
1254.000000	97.135285 
1253.000000	97.133855 
1252.000000	97.134855 
1251.000000	97.134991 
1250.000000	97.131909 
1249.000000	97.127426 
1248.000000	97.126362 
1247.000000	97.130869 
1246.000000	97.136709 
1245.000000	97.137782 
1244.000000	97.133213 
1243.000000	97.127594 
1242.000000	97.125429 
1241.000000	97.127967 
1240.000000	97.134081 
1239.000000	97.140736 
1238.000000	97.143455 
1237.000000	97.139927 
1236.000000	97.132921 
1235.000000	97.126895 
1234.000000	97.122404 
1233.000000	97.116867 
1232.000000	97.109772 
1231.000000	97.103031 
1230.000000	97.096895 
1229.000000	97.089809 
1228.000000	97.081943 
1227.000000	97.074639 
1226.000000	97.066340 
1225.000000	97.053160 
1224.000000	97.034197 
1223.000000	97.012780 
1222.000000	96.991712 
1221.000000	96.970408 
1220.000000	96.947595 
1219.000000	96.923696 
1218.000000	96.899256 
1217.000000	96.873641 
1216.000000	96.846154 
1215.000000	96.816578 
1214.000000	96.784812 
1213.000000	96.752272 
1212.000000	96.722548 
1211.000000	96.696882 
1210.000000	96.669972 
1209.000000	96.634607 
1208.000000	96.590429 
1207.000000	96.544380 
1206.000000	96.502277 
1205.000000	96.463403 
1204.000000	96.423952 
1203.000000	96.382095 
1202.000000	96.338556 
1201.000000	96.295043 
1200.000000	96.253190 
1199.000000	96.213154 
1198.000000	96.172875 
1197.000000	96.130750 
1196.000000	96.088314 
1195.000000	96.047920 
1194.000000	96.008811 
1193.000000	95.968134 
1192.000000	95.925009 
1191.000000	95.880577 
1190.000000	95.834871 
1189.000000	95.786813 
1188.000000	95.736700 
1187.000000	95.685668 
1186.000000	95.633470 
1185.000000	95.579735 
1184.000000	95.526140 
1183.000000	95.474187 
1182.000000	95.422356 
1181.000000	95.368793 
1180.000000	95.314962 
1179.000000	95.262621 
1178.000000	95.208807 
1177.000000	95.148639 
1176.000000	95.082006 
1175.000000	95.012974 
1174.000000	94.943767 
1173.000000	94.874146 
1172.000000	94.805668 
1171.000000	94.740531 
1170.000000	94.676443 
1169.000000	94.608782 
1168.000000	94.538520 
1167.000000	94.472604 
1166.000000	94.416411 
1165.000000	94.371852 
1164.000000	94.343008 
1163.000000	94.336075 
1162.000000	94.351013 
1161.000000	94.378115 
1160.000000	94.404919 
1159.000000	94.422842 
1158.000000	94.426623 
1157.000000	94.412973 
1156.000000	94.382080 
1155.000000	94.337108 
1154.000000	94.281246 
1153.000000	94.218098 
1152.000000	94.154050 
1151.000000	94.095097 
1150.000000	94.040889 
1149.000000	93.986702 
1148.000000	93.931176 
1147.000000	93.876716 
1146.000000	93.822470 
1145.000000	93.763516 
1144.000000	93.698296 
1143.000000	93.631051 
1142.000000	93.565255 
1141.000000	93.499931 
1140.000000	93.433907 
1139.000000	93.368263 
1138.000000	93.302904 
1137.000000	93.235737 
1136.000000	93.166592 
1135.000000	93.097227 
1134.000000	93.026711 
1133.000000	92.951942 
1132.000000	92.873252 
1131.000000	92.794078 
1130.000000	92.714712 
1129.000000	92.632109 
1128.000000	92.546382 
1127.000000	92.461249 
1126.000000	92.377258 
1125.000000	92.290717 
1124.000000	92.200301 
1123.000000	92.108804 
1122.000000	92.017615 
1121.000000	91.925630 
1120.000000	91.834205 
1119.000000	91.746510 
1118.000000	91.661455 
1117.000000	91.575255 
1116.000000	91.489425 
1115.000000	91.410005 
1114.000000	91.338340 
1113.000000	91.269925 
1112.000000	91.202559 
1111.000000	91.137869 
1110.000000	91.074331 
1109.000000	91.007331 
1108.000000	90.936898 
1107.000000	90.866731 
1106.000000	90.796163 
1105.000000	90.721735 
1104.000000	90.646094 
1103.000000	90.576029 
1102.000000	90.510355 
1101.000000	90.440968 
1100.000000	90.366341 
1099.000000	90.292603 
1098.000000	90.224193 
1097.000000	90.158676 
1096.000000	90.093913 
1095.000000	90.029433 
1094.000000	89.960721 
1093.000000	89.882601 
1092.000000	89.799904 
1091.000000	89.724527 
1090.000000	89.660009 
1089.000000	89.598365 
1088.000000	89.532814 
1087.000000	89.463357 
1086.000000	89.389639 
1085.000000	89.310155 
1084.000000	89.230163 
1083.000000	89.158698 
1082.000000	89.095151 
1081.000000	89.029604 
1080.000000	88.958486 
1079.000000	88.888770 
1078.000000	88.824546 
1077.000000	88.760561 
1076.000000	88.691504 
1075.000000	88.616883 
1074.000000	88.534966 
1073.000000	88.442939 
1072.000000	88.344071 
1071.000000	88.242624 
1070.000000	88.130370 
1069.000000	87.991963 
1068.000000	87.827170 
1067.000000	87.655830 
1066.000000	87.497008 
1065.000000	87.354003 
1064.000000	87.222441 
1063.000000	87.098142 
1062.000000	86.971281 
1061.000000	86.826995 
1060.000000	86.660676 
1059.000000	86.484126 
1058.000000	86.311057 
1057.000000	86.144385 
1056.000000	85.980755 
1055.000000	85.816731 
1054.000000	85.646045 
1053.000000	85.461282 
1052.000000	85.263695 
1051.000000	85.062589 
1050.000000	84.861531 
1049.000000	84.655765 
1048.000000	84.445001 
1047.000000	84.235367 
1046.000000	84.027173 
1045.000000	83.814415 
1044.000000	83.597594 
1043.000000	83.384026 
1042.000000	83.174543 
1041.000000	82.962954 
1040.000000	82.750067 
1039.000000	82.545064 
1038.000000	82.351659 
1037.000000	82.166513 
1036.000000	81.992192 
1035.000000	81.836905 
1034.000000	81.699953 
1033.000000	81.572030 
1032.000000	81.450880 
1031.000000	81.341791 
1030.000000	81.242983 
1029.000000	81.147561 
1028.000000	81.060441 
1027.000000	80.995015 
1026.000000	80.950937 
1025.000000	80.912513 
1024.000000	80.871310 
1023.000000	80.832902 
1022.000000	80.799026 
1021.000000	80.761579 
1020.000000	80.717823 
1019.000000	80.674662 
1018.000000	80.634632 
1017.000000	80.593688 
1016.000000	80.554790 
1015.000000	80.526864 
1014.000000	80.508127 
1013.000000	80.487160 
1012.000000	80.462308 
1011.000000	80.443142 
1010.000000	80.431607 
1009.000000	80.419895 
1008.000000	80.408948 
1007.000000	80.410898 
1006.000000	80.430511 
1005.000000	80.461438 
1004.000000	80.502119 
1003.000000	80.556991 
1002.000000	80.620159 
1001.000000	80.677404 
1000.000000	80.728111 
999.000000	 80.786847 
998.000000	 80.859618 
997.000000	 80.936472 
996.000000	 81.011076 
995.000000	 81.089834 
994.000000	 81.177233 
993.000000	 81.269001 
992.000000	 81.363762 
991.000000	 81.465434 
990.000000	 81.570951 
989.000000	 81.671862 
988.000000	 81.770933 
987.000000	 81.880825 
986.000000	 82.004141 
985.000000	 82.131779 
984.000000	 82.262994 
983.000000	 82.408569 
982.000000	 82.570397 
981.000000	 82.735987 
980.000000	 82.898111 
979.000000	 83.063077 
978.000000	 83.234582 
977.000000	 83.406272 
976.000000	 83.576076 
975.000000	 83.752264 
974.000000	 83.939044 
973.000000	 84.130019 
972.000000	 84.321077 
971.000000	 84.516313 
970.000000	 84.716238 
969.000000	 84.913158 
968.000000	 85.103170 
967.000000	 85.291048 
966.000000	 85.479491 
965.000000	 85.665099 
964.000000	 85.847931 
963.000000	 86.033017 
962.000000	 86.219213 
961.000000	 86.398164 
960.000000	 86.567125 
959.000000	 86.731637 
958.000000	 86.893554 
957.000000	 87.048046 
956.000000	 87.194637 
955.000000	 87.339482 
954.000000	 87.484183 
953.000000	 87.623358 
952.000000	 87.755182 
951.000000	 87.883015 
950.000000	 88.005229 
949.000000	 88.115322 
948.000000	 88.214070 
947.000000	 88.309858 
946.000000	 88.404683 
945.000000	 88.491093 
944.000000	 88.565265 
943.000000	 88.632137 
942.000000	 88.695804 
941.000000	 88.756004 
940.000000	 88.816001 
939.000000	 88.882229 
938.000000	 88.953544 
937.000000	 89.021965 
936.000000	 89.086183 
935.000000	 89.153079 
934.000000	 89.224148 
933.000000	 89.292577 
932.000000	 89.356341 
931.000000	 89.422114 
930.000000	 89.492788 
929.000000	 89.562422 
928.000000	 89.627375 
927.000000	 89.691869 
926.000000	 89.758532 
925.000000	 89.822581 
924.000000	 89.878631 
923.000000	 89.925227 
922.000000	 89.961557 
921.000000	 89.988769 
920.000000	 90.015083 
919.000000	 90.049374 
918.000000	 90.088337 
917.000000	 90.120025 
916.000000	 90.141653 
915.000000	 90.164298 
914.000000	 90.199284 
913.000000	 90.250131 
912.000000	 90.318117 
911.000000	 90.404259 
910.000000	 90.504308 
909.000000	 90.612643 
908.000000	 90.732174 
907.000000	 90.870130 
906.000000	 91.024547 
905.000000	 91.185915 
904.000000	 91.351169 
903.000000	 91.523832 
902.000000	 91.701201 
901.000000	 91.874773 
900.000000	 92.043589 
899.000000	 92.214633 
898.000000	 92.389591 
897.000000	 92.562140 
896.000000	 92.728036 
895.000000	 92.886129 
894.000000	 93.030991 
893.000000	 93.157551 
892.000000	 93.272859 
891.000000	 93.390709 
890.000000	 93.513846 
889.000000	 93.632658 
888.000000	 93.740660 
887.000000	 93.839084 
886.000000	 93.927629 
885.000000	 94.004190 
884.000000	 94.073106 
883.000000	 94.139935 
882.000000	 94.199103 
881.000000	 94.242619 
880.000000	 94.281122 
879.000000	 94.338397 
878.000000	 94.421501 
877.000000	 94.513495 
876.000000	 94.599629 
875.000000	 94.683397 
874.000000	 94.772508 
873.000000	 94.867289 
872.000000	 94.969474 
871.000000	 95.085592 
870.000000	 95.213590 
869.000000	 95.339541 
868.000000	 95.453910 
867.000000	 95.559388 
866.000000	 95.659352 
865.000000	 95.752154 
864.000000	 95.841536 
863.000000	 95.938796 
862.000000	 96.046932 
861.000000	 96.153504 
860.000000	 96.246310 
859.000000	 96.326722 
858.000000	 96.402250 
857.000000	 96.475332 
856.000000	 96.545099 
855.000000	 96.611143 
854.000000	 96.669499 
853.000000	 96.713064 
852.000000	 96.741826 
851.000000	 96.766161 
850.000000	 96.795813 
849.000000	 96.831787 
848.000000	 96.871169 
847.000000	 96.911198 
846.000000	 96.946127 
845.000000	 96.969679 
844.000000	 96.983863 
843.000000	 96.996501 
842.000000	 97.007461 
841.000000	 97.006827 
840.000000	 96.989276 
839.000000	 96.960431 
838.000000	 96.926883 
837.000000	 96.890703 
836.000000	 96.856787 
835.000000	 96.833677 
834.000000	 96.821527 
833.000000	 96.809808 
832.000000	 96.792654 
831.000000	 96.776771 
830.000000	 96.769289 
829.000000	 96.768752 
828.000000	 96.774857 
827.000000	 96.795445 
826.000000	 96.834045 
825.000000	 96.879965 
824.000000	 96.920471 
823.000000	 96.954334 
822.000000	 96.985751 
821.000000	 97.014662 
820.000000	 97.040040 
819.000000	 97.063080 
818.000000	 97.080737 
817.000000	 97.083855 
816.000000	 97.066667 
815.000000	 97.032236 
814.000000	 96.985428 
813.000000	 96.926396 
812.000000	 96.852842 
811.000000	 96.760777 
810.000000	 96.639980 
809.000000	 96.477092 
808.000000	 96.268290 
807.000000	 96.023888 
806.000000	 95.758487 
805.000000	 95.483024 
804.000000	 95.208037 
803.000000	 94.945454 
802.000000	 94.703481 
801.000000	 94.488689 
800.000000	 94.315144 
799.000000	 94.199973 
798.000000	 94.145932 
797.000000	 94.138718 
796.000000	 94.163676 
795.000000	 94.213409 
794.000000	 94.277830 
793.000000	 94.342476 
792.000000	 94.401785 
791.000000	 94.461108 
790.000000	 94.520812 
789.000000	 94.569756 
788.000000	 94.597790 
787.000000	 94.602709 
786.000000	 94.581878 
785.000000	 94.529397 
784.000000	 94.446428 
783.000000	 94.344128 
782.000000	 94.233362 
781.000000	 94.122827 
780.000000	 94.028695 
779.000000	 93.971020 
778.000000	 93.955651 
777.000000	 93.973024 
776.000000	 94.018474 
775.000000	 94.098299 
774.000000	 94.210235 
773.000000	 94.333920 
772.000000	 94.449141 
771.000000	 94.551164 
770.000000	 94.641759 
769.000000	 94.718540 
768.000000	 94.780402 
767.000000	 94.831089 
766.000000	 94.870049 
765.000000	 94.891443 
764.000000	 94.899255 
763.000000	 94.911064 
762.000000	 94.938250 
761.000000	 94.972888 
760.000000	 95.002139 
759.000000	 95.025235 
758.000000	 95.048728 
757.000000	 95.076149 
756.000000	 95.111535 
755.000000	 95.162818 
754.000000	 95.230467 
753.000000	 95.299246 
752.000000	 95.350715 
751.000000	 95.380409 
750.000000	 95.398528 
749.000000	 95.419629 
748.000000	 95.455054 
747.000000	 95.507471 
746.000000	 95.567667 
745.000000	 95.623576 
744.000000	 95.676117 
743.000000	 95.738198 
742.000000	 95.815177 
741.000000	 95.896300 
740.000000	 95.969689 
739.000000	 96.035893 
738.000000	 96.101481 
737.000000	 96.167955 
736.000000	 96.232421 
735.000000	 96.291830 
734.000000	 96.342322 
733.000000	 96.381635 
732.000000	 96.414881 
731.000000	 96.449495 
730.000000	 96.482369 
729.000000	 96.502143 
728.000000	 96.507609 
727.000000	 96.513036 
726.000000	 96.531842 
725.000000	 96.565284 
724.000000	 96.608864 
723.000000	 96.658062 
722.000000	 96.704927 
721.000000	 96.741255 
720.000000	 96.769246 
719.000000	 96.797809 
718.000000	 96.826780 
717.000000	 96.848471 
716.000000	 96.864477 
715.000000	 96.885092 
714.000000	 96.909898 
713.000000	 96.925484 
712.000000	 96.928084 
711.000000	 96.931415 
710.000000	 96.945127 
709.000000	 96.961721 
708.000000	 96.972106 
707.000000	 96.977660 
706.000000	 96.978359 
705.000000	 96.965919 
704.000000	 96.937606 
703.000000	 96.901277 
702.000000	 96.856905 
701.000000	 96.787485 
700.000000	 96.679226 
699.000000	 96.539878 
698.000000	 96.388363 
697.000000	 96.240435 
696.000000	 96.114293 
695.000000	 96.034561 
694.000000	 96.016272 
693.000000	 96.051223 
692.000000	 96.118762 
691.000000	 96.202429 
690.000000	 96.289662 
689.000000	 96.368063 
688.000000	 96.432331 
687.000000	 96.486192 
686.000000	 96.531075 
685.000000	 96.563325 
684.000000	 96.586387 
683.000000	 96.611275 
682.000000	 96.640049 
681.000000	 96.664104 
680.000000	 96.682894 
679.000000	 96.708342 
678.000000	 96.744010 
677.000000	 96.779722 
676.000000	 96.815300 
675.000000	 96.863723 
674.000000	 96.920576 
673.000000	 96.957852 
672.000000	 96.964607 
671.000000	 96.970350 
670.000000	 97.017197 
669.000000	 97.105925 
668.000000	 97.182219 
667.000000	 97.196360 
666.000000	 97.163627 
665.000000	 97.119369 
664.000000	 97.081387 
663.000000	 97.062747 
662.000000	 97.071862 
661.000000	 97.096181 
660.000000	 97.120773 
659.000000	 97.146852 
658.000000	 97.177109 
657.000000	 97.199276 
656.000000	 97.202887 
655.000000	 97.192069 
654.000000	 97.169915 
653.000000	 97.132257 
652.000000	 97.090229 
651.000000	 97.075598 
650.000000	 97.100606 

