4000.000000	97.807814 
3999.000000	97.806547 
3998.000000	97.802235 
3997.000000	97.796155 
3996.000000	97.789737 
3995.000000	97.783887 
3994.000000	97.779081 
3993.000000	97.775563 
3992.000000	97.773456 
3991.000000	97.772942 
3990.000000	97.774290 
3989.000000	97.777380 
3988.000000	97.781140 
3987.000000	97.784122 
3986.000000	97.785767 
3985.000000	97.786489 
3984.000000	97.786543 
3983.000000	97.785415 
3982.000000	97.782680 
3981.000000	97.778915 
3980.000000	97.775257 
3979.000000	97.772416 
3978.000000	97.770672 
3977.000000	97.770427 
3976.000000	97.771952 
3975.000000	97.774487 
3974.000000	97.776290 
3973.000000	97.776037 
3972.000000	97.773762 
3971.000000	97.770568 
3970.000000	97.767694 
3969.000000	97.765933 
3968.000000	97.765496 
3967.000000	97.765980 
3966.000000	97.766653 
3965.000000	97.766914 
3964.000000	97.766450 
3963.000000	97.765238 
3962.000000	97.763612 
3961.000000	97.762140 
3960.000000	97.761094 
3959.000000	97.760255 
3958.000000	97.759327 
3957.000000	97.758481 
3956.000000	97.758036 
3955.000000	97.757826 
3954.000000	97.757490 
3953.000000	97.756980 
3952.000000	97.756535 
3951.000000	97.756189 
3950.000000	97.755677 
3949.000000	97.754825 
3948.000000	97.753761 
3947.000000	97.752909 
3946.000000	97.752772 
3945.000000	97.753571 
3944.000000	97.754811 
3943.000000	97.755557 
3942.000000	97.755561 
3941.000000	97.755360 
3940.000000	97.755344 
3939.000000	97.755234 
3938.000000	97.754446 
3937.000000	97.752880 
3936.000000	97.750930 
3935.000000	97.748887 
3934.000000	97.747017 
3933.000000	97.745788 
3932.000000	97.745661 
3931.000000	97.746192 
3930.000000	97.746300 
3929.000000	97.745777 
3928.000000	97.745495 
3927.000000	97.746069 
3926.000000	97.746730 
3925.000000	97.746245 
3924.000000	97.744743 
3923.000000	97.743241 
3922.000000	97.741922 
3921.000000	97.740364 
3920.000000	97.738784 
3919.000000	97.738082 
3918.000000	97.738441 
3917.000000	97.739067 
3916.000000	97.739431 
3915.000000	97.739821 
3914.000000	97.740458 
3913.000000	97.741055 
3912.000000	97.741407 
3911.000000	97.741980 
3910.000000	97.743089 
3909.000000	97.744437 
3908.000000	97.745436 
3907.000000	97.745503 
3906.000000	97.744196 
3905.000000	97.741130 
3904.000000	97.736700 
3903.000000	97.732462 
3902.000000	97.729972 
3901.000000	97.729612 
3900.000000	97.730715 
3899.000000	97.732303 
3898.000000	97.733737 
3897.000000	97.734542 
3896.000000	97.734340 
3895.000000	97.733337 
3894.000000	97.732206 
3893.000000	97.731498 
3892.000000	97.731057 
3891.000000	97.730422 
3890.000000	97.729555 
3889.000000	97.728755 
3888.000000	97.728224 
3887.000000	97.727873 
3886.000000	97.727645 
3885.000000	97.727616 
3884.000000	97.727632 
3883.000000	97.727333 
3882.000000	97.726647 
3881.000000	97.725911 
3880.000000	97.725503 
3879.000000	97.725370 
3878.000000	97.725207 
3877.000000	97.724874 
3876.000000	97.724440 
3875.000000	97.723937 
3874.000000	97.723321 
3873.000000	97.722603 
3872.000000	97.721844 
3871.000000	97.721079 
3870.000000	97.720355 
3869.000000	97.719727 
3868.000000	97.719183 
3867.000000	97.718680 
3866.000000	97.718203 
3865.000000	97.717770 
3864.000000	97.717422 
3863.000000	97.717180 
3862.000000	97.717006 
3861.000000	97.716861 
3860.000000	97.716766 
3859.000000	97.716739 
3858.000000	97.716721 
3857.000000	97.716605 
3856.000000	97.716321 
3855.000000	97.715831 
3854.000000	97.715147 
3853.000000	97.714581 
3852.000000	97.714440 
3851.000000	97.714633 
3850.000000	97.714768 
3849.000000	97.714694 
3848.000000	97.714599 
3847.000000	97.714771 
3846.000000	97.715140 
3845.000000	97.715401 
3844.000000	97.715468 
3843.000000	97.715512 
3842.000000	97.715711 
3841.000000	97.716225 
3840.000000	97.716925 
3839.000000	97.717612 
3838.000000	97.718158 
3837.000000	97.718135 
3836.000000	97.717129 
3835.000000	97.715360 
3834.000000	97.713669 
3833.000000	97.712887 
3832.000000	97.713280 
3831.000000	97.714692 
3830.000000	97.716730 
3829.000000	97.718993 
3828.000000	97.721444 
3827.000000	97.724122 
3826.000000	97.726517 
3825.000000	97.728129 
3824.000000	97.728638 
3823.000000	97.727941 
3822.000000	97.726042 
3821.000000	97.723555 
3820.000000	97.721731 
3819.000000	97.720411 
3818.000000	97.718489 
3817.000000	97.715834 
3816.000000	97.714494 
3815.000000	97.716484 
3814.000000	97.720531 
3813.000000	97.723351 
3812.000000	97.723836 
3811.000000	97.724061 
3810.000000	97.726186 
3809.000000	97.729646 
3808.000000	97.731746 
3807.000000	97.731161 
3806.000000	97.729287 
3805.000000	97.727800 
3804.000000	97.726588 
3803.000000	97.725041 
3802.000000	97.723215 
3801.000000	97.722248 
3800.000000	97.722307 
3799.000000	97.721603 
3798.000000	97.719477 
3797.000000	97.717906 
3796.000000	97.719208 
3795.000000	97.723129 
3794.000000	97.727022 
3793.000000	97.728934 
3792.000000	97.729491 
3791.000000	97.730345 
3790.000000	97.731778 
3789.000000	97.732756 
3788.000000	97.732896 
3787.000000	97.733054 
3786.000000	97.734041 
3785.000000	97.735474 
3784.000000	97.736246 
3783.000000	97.735742 
3782.000000	97.733983 
3781.000000	97.731488 
3780.000000	97.729361 
3779.000000	97.728920 
3778.000000	97.730524 
3777.000000	97.733009 
3776.000000	97.734494 
3775.000000	97.733971 
3774.000000	97.731847 
3773.000000	97.729265 
3772.000000	97.726910 
3771.000000	97.724676 
3770.000000	97.722631 
3769.000000	97.721546 
3768.000000	97.721805 
3767.000000	97.722858 
3766.000000	97.724028 
3765.000000	97.725070 
3764.000000	97.725916 
3763.000000	97.725834 
3762.000000	97.723536 
3761.000000	97.719030 
3760.000000	97.714800 
3759.000000	97.713933 
3758.000000	97.715703 
3757.000000	97.716721 
3756.000000	97.715938 
3755.000000	97.714840 
3754.000000	97.714128 
3753.000000	97.712189 
3752.000000	97.707882 
3751.000000	97.702275 
3750.000000	97.695799 
3749.000000	97.687983 
3748.000000	97.681222 
3747.000000	97.679449 
3746.000000	97.682912 
3745.000000	97.686905 
3744.000000	97.690267 
3743.000000	97.692968 
3742.000000	97.690080 
3741.000000	97.678502 
3740.000000	97.662824 
3739.000000	97.653085 
3738.000000	97.653919 
3737.000000	97.658489 
3736.000000	97.658771 
3735.000000	97.657612 
3734.000000	97.662325 
3733.000000	97.671762 
3732.000000	97.680106 
3731.000000	97.685903 
3730.000000	97.690498 
3729.000000	97.693666 
3728.000000	97.694131 
3727.000000	97.692082 
3726.000000	97.690030 
3725.000000	97.689364 
3724.000000	97.689184 
3723.000000	97.689482 
3722.000000	97.691933 
3721.000000	97.695997 
3720.000000	97.696629 
3719.000000	97.690536 
3718.000000	97.679103 
3717.000000	97.666090 
3716.000000	97.655162 
3715.000000	97.647231 
3714.000000	97.641903 
3713.000000	97.639851 
3712.000000	97.641206 
3711.000000	97.643836 
3710.000000	97.644447 
3709.000000	97.642372 
3708.000000	97.638841 
3707.000000	97.633685 
3706.000000	97.626448 
3705.000000	97.618009 
3704.000000	97.609940 
3703.000000	97.602474 
3702.000000	97.593432 
3701.000000	97.580782 
3700.000000	97.565311 
3699.000000	97.550392 
3698.000000	97.539302 
3697.000000	97.532607 
3696.000000	97.529361 
3695.000000	97.527459 
3694.000000	97.523632 
3693.000000	97.516326 
3692.000000	97.507218 
3691.000000	97.498860 
3690.000000	97.491177 
3689.000000	97.484380 
3688.000000	97.480537 
3687.000000	97.479320 
3686.000000	97.477435 
3685.000000	97.471851 
3684.000000	97.462682 
3683.000000	97.453516 
3682.000000	97.447197 
3681.000000	97.441103 
3680.000000	97.430562 
3679.000000	97.414929 
3678.000000	97.398384 
3677.000000	97.383905 
3676.000000	97.371046 
3675.000000	97.361186 
3674.000000	97.354207 
3673.000000	97.346074 
3672.000000	97.333648 
3671.000000	97.319312 
3670.000000	97.309358 
3669.000000	97.306560 
3668.000000	97.305451 
3667.000000	97.299354 
3666.000000	97.288266 
3665.000000	97.276140 
3664.000000	97.265458 
3663.000000	97.256183 
3662.000000	97.247044 
3661.000000	97.237127 
3660.000000	97.227037 
3659.000000	97.217552 
3658.000000	97.208894 
3657.000000	97.199759 
3656.000000	97.189378 
3655.000000	97.178564 
3654.000000	97.167290 
3653.000000	97.155055 
3652.000000	97.142036 
3651.000000	97.129420 
3650.000000	97.118405 
3649.000000	97.108909 
3648.000000	97.100473 
3647.000000	97.094279 
3646.000000	97.092192 
3645.000000	97.093725 
3644.000000	97.096337 
3643.000000	97.098717 
3642.000000	97.101178 
3641.000000	97.103703 
3640.000000	97.104523 
3639.000000	97.100699 
3638.000000	97.091292 
3637.000000	97.078098 
3636.000000	97.063755 
3635.000000	97.049402 
3634.000000	97.035477 
3633.000000	97.023593 
3632.000000	97.015473 
3631.000000	97.010916 
3630.000000	97.007893 
3629.000000	97.006608 
3628.000000	97.008382 
3627.000000	97.009212 
3626.000000	97.004577 
3625.000000	96.997608 
3624.000000	96.994621 
3623.000000	96.996998 
3622.000000	96.999144 
3621.000000	96.993527 
3620.000000	96.978596 
3619.000000	96.961903 
3618.000000	96.952357 
3617.000000	96.952683 
3616.000000	96.961773 
3615.000000	96.976882 
3614.000000	96.993363 
3613.000000	97.006617 
3612.000000	97.014205 
3611.000000	97.015457 
3610.000000	97.012046 
3609.000000	97.008558 
3608.000000	97.009905 
3607.000000	97.017992 
3606.000000	97.031018 
3605.000000	97.047124 
3604.000000	97.065869 
3603.000000	97.085106 
3602.000000	97.099691 
3601.000000	97.104762 
3600.000000	97.101050 
3599.000000	97.094444 
3598.000000	97.090545 
3597.000000	97.090553 
3596.000000	97.093155 
3595.000000	97.095712 
3594.000000	97.096413 
3593.000000	97.095645 
3592.000000	97.094573 
3591.000000	97.093449 
3590.000000	97.091235 
3589.000000	97.086251 
3588.000000	97.078878 
3587.000000	97.073514 
3586.000000	97.074425 
3585.000000	97.081174 
3584.000000	97.090939 
3583.000000	97.101390 
3582.000000	97.111410 
3581.000000	97.119645 
3580.000000	97.124883 
3579.000000	97.127128 
3578.000000	97.127767 
3577.000000	97.128065 
3576.000000	97.127641 
3575.000000	97.125417 
3574.000000	97.121127 
3573.000000	97.115910 
3572.000000	97.110179 
3571.000000	97.102496 
3570.000000	97.091025 
3569.000000	97.076333 
3568.000000	97.062789 
3567.000000	97.056191 
3566.000000	97.057880 
3565.000000	97.063214 
3564.000000	97.067276 
3563.000000	97.069923 
3562.000000	97.073997 
3561.000000	97.081144 
3560.000000	97.089745 
3559.000000	97.096455 
3558.000000	97.099053 
3557.000000	97.097977 
3556.000000	97.095348 
3555.000000	97.093181 
3554.000000	97.092043 
3553.000000	97.090983 
3552.000000	97.088845 
3551.000000	97.085265 
3550.000000	97.081017 
3549.000000	97.077888 
3548.000000	97.077648 
3547.000000	97.080131 
3546.000000	97.082753 
3545.000000	97.082824 
3544.000000	97.080437 
3543.000000	97.078117 
3542.000000	97.078011 
3541.000000	97.080512 
3540.000000	97.084832 
3539.000000	97.089585 
3538.000000	97.093216 
3537.000000	97.094875 
3536.000000	97.095193 
3535.000000	97.095047 
3534.000000	97.094378 
3533.000000	97.092757 
3532.000000	97.090811 
3531.000000	97.089898 
3530.000000	97.090249 
3529.000000	97.090527 
3528.000000	97.089627 
3527.000000	97.088066 
3526.000000	97.087012 
3525.000000	97.086727 
3524.000000	97.086661 
3523.000000	97.086474 
3522.000000	97.086295 
3521.000000	97.086311 
3520.000000	97.086588 
3519.000000	97.087087 
3518.000000	97.087613 
3517.000000	97.087677 
3516.000000	97.086814 
3515.000000	97.085161 
3514.000000	97.083694 
3513.000000	97.083512 
3512.000000	97.084894 
3511.000000	97.087008 
3510.000000	97.088547 
3509.000000	97.088770 
3508.000000	97.087827 
3507.000000	97.086344 
3506.000000	97.084874 
3505.000000	97.083620 
3504.000000	97.082455 
3503.000000	97.081027 
3502.000000	97.079137 
3501.000000	97.077128 
3500.000000	97.075818 
3499.000000	97.075818 
3498.000000	97.076923 
3497.000000	97.078210 
3496.000000	97.078750 
3495.000000	97.078263 
3494.000000	97.077297 
3493.000000	97.076879 
3492.000000	97.077634 
3491.000000	97.079037 
3490.000000	97.079824 
3489.000000	97.079266 
3488.000000	97.077593 
3487.000000	97.075151 
3486.000000	97.071743 
3485.000000	97.067308 
3484.000000	97.062773 
3483.000000	97.059434 
3482.000000	97.057664 
3481.000000	97.056970 
3480.000000	97.057183 
3479.000000	97.058690 
3478.000000	97.061282 
3477.000000	97.063495 
3476.000000	97.063676 
3475.000000	97.061567 
3474.000000	97.058578 
3473.000000	97.056548 
3472.000000	97.056191 
3471.000000	97.056700 
3470.000000	97.056663 
3469.000000	97.055379 
3468.000000	97.053238 
3467.000000	97.051063 
3466.000000	97.049322 
3465.000000	97.047880 
3464.000000	97.046249 
3463.000000	97.043905 
3462.000000	97.040599 
3461.000000	97.036658 
3460.000000	97.032936 
3459.000000	97.030210 
3458.000000	97.028584 
3457.000000	97.027511 
3456.000000	97.026428 
3455.000000	97.025214 
3454.000000	97.024109 
3453.000000	97.023261 
3452.000000	97.022512 
3451.000000	97.021487 
3450.000000	97.019730 
3449.000000	97.016895 
3448.000000	97.013012 
3447.000000	97.008681 
3446.000000	97.004862 
3445.000000	97.002268 
3444.000000	97.000992 
3443.000000	97.000593 
3442.000000	97.000358 
3441.000000	96.999688 
3440.000000	96.998346 
3439.000000	96.996402 
3438.000000	96.994062 
3437.000000	96.991563 
3436.000000	96.989188 
3435.000000	96.987211 
3434.000000	96.985739 
3433.000000	96.984607 
3432.000000	96.983524 
3431.000000	96.982317 
3430.000000	96.980935 
3429.000000	96.979343 
3428.000000	96.977527 
3427.000000	96.975592 
3426.000000	96.973764 
3425.000000	96.972224 
3424.000000	96.970961 
3423.000000	96.969802 
3422.000000	96.968543 
3421.000000	96.967114 
3420.000000	96.965591 
3419.000000	96.964122 
3418.000000	96.962798 
3417.000000	96.961607 
3416.000000	96.960486 
3415.000000	96.959384 
3414.000000	96.958249 
3413.000000	96.957001 
3412.000000	96.955594 
3411.000000	96.954117 
3410.000000	96.952769 
3409.000000	96.951702 
3408.000000	96.950922 
3407.000000	96.950309 
3406.000000	96.949715 
3405.000000	96.949058 
3404.000000	96.948362 
3403.000000	96.947655 
3402.000000	96.946889 
3401.000000	96.946024 
3400.000000	96.945194 
3399.000000	96.944625 
3398.000000	96.944333 
3397.000000	96.944077 
3396.000000	96.943704 
3395.000000	96.943386 
3394.000000	96.943351 
3393.000000	96.943481 
3392.000000	96.943308 
3391.000000	96.942454 
3390.000000	96.941077 
3389.000000	96.939906 
3388.000000	96.939762 
3387.000000	96.940932 
3386.000000	96.942889 
3385.000000	96.944554 
3384.000000	96.945031 
3383.000000	96.944151 
3382.000000	96.942592 
3381.000000	96.941453 
3380.000000	96.941324 
3379.000000	96.941788 
3378.000000	96.942013 
3377.000000	96.941973 
3376.000000	96.942582 
3375.000000	96.944349 
3374.000000	96.946483 
3373.000000	96.947752 
3372.000000	96.947997 
3371.000000	96.948317 
3370.000000	96.949852 
3369.000000	96.952778 
3368.000000	96.956368 
3367.000000	96.959533 
3366.000000	96.961437 
3365.000000	96.961887 
3364.000000	96.961367 
3363.000000	96.960665 
3362.000000	96.960310 
3361.000000	96.960439 
3360.000000	96.961048 
3359.000000	96.962086 
3358.000000	96.963346 
3357.000000	96.964544 
3356.000000	96.965618 
3355.000000	96.966741 
3354.000000	96.967995 
3353.000000	96.969210 
3352.000000	96.970216 
3351.000000	96.971091 
3350.000000	96.972013 
3349.000000	96.972972 
3348.000000	96.973793 
3347.000000	96.974430 
3346.000000	96.975079 
3345.000000	96.975918 
3344.000000	96.976844 
3343.000000	96.977563 
3342.000000	96.977942 
3341.000000	96.978205 
3340.000000	96.978723 
3339.000000	96.979604 
3338.000000	96.980673 
3337.000000	96.981718 
3336.000000	96.982635 
3335.000000	96.983428 
3334.000000	96.984147 
3333.000000	96.984849 
3332.000000	96.985560 
3331.000000	96.986279 
3330.000000	96.987000 
3329.000000	96.987718 
3328.000000	96.988427 
3327.000000	96.989124 
3326.000000	96.989808 
3325.000000	96.990487 
3324.000000	96.991168 
3323.000000	96.991855 
3322.000000	96.992553 
3321.000000	96.993261 
3320.000000	96.993972 
3319.000000	96.994680 
3318.000000	96.995379 
3317.000000	96.996067 
3316.000000	96.996746 
3315.000000	96.997419 
3314.000000	96.998094 
3313.000000	96.998781 
3312.000000	96.999486 
3311.000000	97.000214 
3310.000000	97.000963 
3309.000000	97.001729 
3308.000000	97.002503 
3307.000000	97.003271 
3306.000000	97.004022 
3305.000000	97.004749 
3304.000000	97.005461 
3303.000000	97.006172 
3302.000000	97.006898 
3301.000000	97.007645 
3300.000000	97.008407 
3299.000000	97.009171 
3298.000000	97.009912 
3297.000000	97.010611 
3296.000000	97.011280 
3295.000000	97.011952 
3294.000000	97.012665 
3293.000000	97.013436 
3292.000000	97.014255 
3291.000000	97.015089 
3290.000000	97.015877 
3289.000000	97.016574 
3288.000000	97.017184 
3287.000000	97.017725 
3286.000000	97.018167 
3285.000000	97.018461 
3284.000000	97.018655 
3283.000000	97.018942 
3282.000000	97.019526 
3281.000000	97.020416 
3280.000000	97.021341 
3279.000000	97.021932 
3278.000000	97.022088 
3277.000000	97.022121 
3276.000000	97.022464 
3275.000000	97.023241 
3274.000000	97.024272 
3273.000000	97.025451 
3272.000000	97.026869 
3271.000000	97.028523 
3270.000000	97.030086 
3269.000000	97.031119 
3268.000000	97.031424 
3267.000000	97.031155 
3266.000000	97.030738 
3265.000000	97.030713 
3264.000000	97.031444 
3263.000000	97.032854 
3262.000000	97.034472 
3261.000000	97.035874 
3260.000000	97.036923 
3259.000000	97.037503 
3258.000000	97.037400 
3257.000000	97.036681 
3256.000000	97.035922 
3255.000000	97.035713 
3254.000000	97.036054 
3253.000000	97.036630 
3252.000000	97.037493 
3251.000000	97.038980 
3250.000000	97.041018 
3249.000000	97.042986 
3248.000000	97.044341 
3247.000000	97.045101 
3246.000000	97.045680 
3245.000000	97.046501 
3244.000000	97.047755 
3243.000000	97.049350 
3242.000000	97.050969 
3241.000000	97.052286 
3240.000000	97.053256 
3239.000000	97.054182 
3238.000000	97.055456 
3237.000000	97.057221 
3236.000000	97.059295 
3235.000000	97.061272 
3234.000000	97.062784 
3233.000000	97.063692 
3232.000000	97.064147 
3231.000000	97.064559 
3230.000000	97.065340 
3229.000000	97.066646 
3228.000000	97.068349 
3227.000000	97.070203 
3226.000000	97.072069 
3225.000000	97.073967 
3224.000000	97.075937 
3223.000000	97.077902 
3222.000000	97.079680 
3221.000000	97.081176 
3220.000000	97.082525 
3219.000000	97.083979 
3218.000000	97.085674 
3217.000000	97.087508 
3216.000000	97.089239 
3215.000000	97.090709 
3214.000000	97.092024 
3213.000000	97.093503 
3212.000000	97.095391 
3211.000000	97.097634 
3210.000000	97.099962 
3209.000000	97.102175 
3208.000000	97.104289 
3207.000000	97.106324 
3206.000000	97.108090 
3205.000000	97.109366 
3204.000000	97.110259 
3203.000000	97.111212 
3202.000000	97.112540 
3201.000000	97.114196 
3200.000000	97.115937 
3199.000000	97.117572 
3198.000000	97.119039 
3197.000000	97.120349 
3196.000000	97.121501 
3195.000000	97.122478 
3194.000000	97.123395 
3193.000000	97.124615 
3192.000000	97.126558 
3191.000000	97.129240 
3190.000000	97.132083 
3189.000000	97.134459 
3188.000000	97.136336 
3187.000000	97.138144 
3186.000000	97.140134 
3185.000000	97.142087 
3184.000000	97.143707 
3183.000000	97.145054 
3182.000000	97.146388 
3181.000000	97.147822 
3180.000000	97.149262 
3179.000000	97.150638 
3178.000000	97.152064 
3177.000000	97.153719 
3176.000000	97.155632 
3175.000000	97.157656 
3174.000000	97.159596 
3173.000000	97.161374 
3172.000000	97.163042 
3171.000000	97.164700 
3170.000000	97.166410 
3169.000000	97.168149 
3168.000000	97.169849 
3167.000000	97.171477 
3166.000000	97.173067 
3165.000000	97.174663 
3164.000000	97.176277 
3163.000000	97.177884 
3162.000000	97.179449 
3161.000000	97.180967 
3160.000000	97.182453 
3159.000000	97.183943 
3158.000000	97.185473 
3157.000000	97.187060 
3156.000000	97.188694 
3155.000000	97.190356 
3154.000000	97.192027 
3153.000000	97.193696 
3152.000000	97.195357 
3151.000000	97.197004 
3150.000000	97.198628 
3149.000000	97.200225 
3148.000000	97.201800 
3147.000000	97.203374 
3146.000000	97.204971 
3145.000000	97.206606 
3144.000000	97.208271 
3143.000000	97.209943 
3142.000000	97.211602 
3141.000000	97.213244 
3140.000000	97.214880 
3139.000000	97.216523 
3138.000000	97.218180 
3137.000000	97.219857 
3136.000000	97.221547 
3135.000000	97.223238 
3134.000000	97.224926 
3133.000000	97.226621 
3132.000000	97.228348 
3131.000000	97.230122 
3130.000000	97.231891 
3129.000000	97.233534 
3128.000000	97.234971 
3127.000000	97.236256 
3126.000000	97.237600 
3125.000000	97.239179 
3124.000000	97.240992 
3123.000000	97.242833 
3122.000000	97.244461 
3121.000000	97.245841 
3120.000000	97.247245 
3119.000000	97.249078 
3118.000000	97.251535 
3117.000000	97.254375 
3116.000000	97.257078 
3115.000000	97.259300 
3114.000000	97.261128 
3113.000000	97.262995 
3112.000000	97.265296 
3111.000000	97.268048 
3110.000000	97.270835 
3109.000000	97.273102 
3108.000000	97.274663 
3107.000000	97.276002 
3106.000000	97.277848 
3105.000000	97.280266 
3104.000000	97.282377 
3103.000000	97.283236 
3102.000000	97.282847 
3101.000000	97.282104 
3100.000000	97.281732 
3099.000000	97.281744 
3098.000000	97.282005 
3097.000000	97.282930 
3096.000000	97.285244 
3095.000000	97.289033 
3094.000000	97.293500 
3093.000000	97.297554 
3092.000000	97.300408 
3091.000000	97.301704 
3090.000000	97.301536 
3089.000000	97.300663 
3088.000000	97.300378 
3087.000000	97.301798 
3086.000000	97.305187 
3085.000000	97.309737 
3084.000000	97.313948 
3083.000000	97.316494 
3082.000000	97.317251 
3081.000000	97.317646 
3080.000000	97.319336 
3079.000000	97.322299 
3078.000000	97.324917 
3077.000000	97.326331 
3076.000000	97.327712 
3075.000000	97.330245 
3074.000000	97.332791 
3073.000000	97.333212 
3072.000000	97.331352 
3071.000000	97.328973 
3070.000000	97.327052 
3069.000000	97.325123 
3068.000000	97.323188 
3067.000000	97.322222 
3066.000000	97.322291 
3065.000000	97.322134 
3064.000000	97.321557 
3063.000000	97.322466 
3062.000000	97.326208 
3061.000000	97.331190 
3060.000000	97.334434 
3059.000000	97.334736 
3058.000000	97.333405 
3057.000000	97.332586 
3056.000000	97.333377 
3055.000000	97.334602 
3054.000000	97.333241 
3053.000000	97.327534 
3052.000000	97.320245 
3051.000000	97.317024 
3050.000000	97.320249 
3049.000000	97.326003 
3048.000000	97.328404 
3047.000000	97.325632 
3046.000000	97.320070 
3045.000000	97.314314 
3044.000000	97.309421 
3043.000000	97.306460 
3042.000000	97.307070 
3041.000000	97.311666 
3040.000000	97.318206 
3039.000000	97.323219 
3038.000000	97.323473 
3037.000000	97.317029 
3036.000000	97.304248 
3035.000000	97.288232 
3034.000000	97.273349 
3033.000000	97.262495 
3032.000000	97.255763 
3031.000000	97.251650 
3030.000000	97.248910 
3029.000000	97.247090 
3028.000000	97.245786 
3027.000000	97.243910 
3026.000000	97.239889 
3025.000000	97.232660 
3024.000000	97.222392 
3023.000000	97.210081 
3022.000000	97.196706 
3021.000000	97.183386 
3020.000000	97.171775 
3019.000000	97.162730 
3018.000000	97.154161 
3017.000000	97.142046 
3016.000000	97.125062 
3015.000000	97.107177 
3014.000000	97.094038 
3013.000000	97.087003 
3012.000000	97.081928 
3011.000000	97.073586 
3010.000000	97.060281 
3009.000000	97.044363 
3008.000000	97.029431 
3007.000000	97.017214 
3006.000000	97.006279 
3005.000000	96.993487 
3004.000000	96.977200 
3003.000000	96.959335 
3002.000000	96.944072 
3001.000000	96.934557 
3000.000000	96.930559 
2999.000000	96.928390 
2998.000000	96.922869 
2997.000000	96.910861 
2996.000000	96.894205 
2995.000000	96.878575 
2994.000000	96.867914 
2993.000000	96.859962 
2992.000000	96.848468 
2991.000000	96.830139 
2990.000000	96.808518 
2989.000000	96.790575 
2988.000000	96.780459 
2987.000000	96.777301 
2986.000000	96.778061 
2985.000000	96.781257 
2984.000000	96.787446 
2983.000000	96.796793 
2982.000000	96.807204 
2981.000000	96.815116 
2980.000000	96.817843 
2979.000000	96.815039 
2978.000000	96.808532 
2977.000000	96.801385 
2976.000000	96.796650 
2975.000000	96.795929 
2974.000000	96.798835 
2973.000000	96.804216 
2972.000000	96.811659 
2971.000000	96.821008 
2970.000000	96.830799 
2969.000000	96.838833 
2968.000000	96.844695 
2967.000000	96.850369 
2966.000000	96.857681 
2965.000000	96.866372 
2964.000000	96.875430 
2963.000000	96.884953 
2962.000000	96.895354 
2961.000000	96.905766 
2960.000000	96.915089 
2959.000000	96.924221 
2958.000000	96.935333 
2957.000000	96.948621 
2956.000000	96.961104 
2955.000000	96.969237 
2954.000000	96.972082 
2953.000000	96.971925 
2952.000000	96.972786 
2951.000000	96.978249 
2950.000000	96.989088 
2949.000000	97.001970 
2948.000000	97.011478 
2947.000000	97.014730 
2946.000000	97.013950 
2945.000000	97.013981 
2944.000000	97.017354 
2943.000000	97.022353 
2942.000000	97.025723 
2941.000000	97.026113 
2940.000000	97.024564 
2939.000000	97.022797 
2938.000000	97.022053 
2937.000000	97.023311 
2936.000000	97.027177 
2935.000000	97.032645 
2934.000000	97.036634 
2933.000000	97.036036 
2932.000000	97.030728 
2931.000000	97.024199 
2930.000000	97.020814 
2929.000000	97.022407 
2928.000000	97.027421 
2927.000000	97.032746 
2926.000000	97.036003 
2925.000000	97.036652 
2924.000000	97.035751 
2923.000000	97.034951 
2922.000000	97.035370 
2921.000000	97.037066 
2920.000000	97.039411 
2919.000000	97.041676 
2918.000000	97.043026 
2917.000000	97.042202 
2916.000000	97.037856 
2915.000000	97.029799 
2914.000000	97.020017 
2913.000000	97.011862 
2912.000000	97.007628 
2911.000000	97.006715 
2910.000000	97.006446 
2909.000000	97.004717 
2908.000000	97.001642 
2907.000000	96.998399 
2906.000000	96.995085 
2905.000000	96.990270 
2904.000000	96.982987 
2903.000000	96.974640 
2902.000000	96.969600 
2901.000000	96.972132 
2900.000000	96.983190 
2899.000000	96.999398 
2898.000000	97.015024 
2897.000000	97.026161 
2896.000000	97.032590 
2895.000000	97.036116 
2894.000000	97.038462 
2893.000000	97.041306 
2892.000000	97.046715 
2891.000000	97.055517 
2890.000000	97.065587 
2889.000000	97.073578 
2888.000000	97.078456 
2887.000000	97.081681 
2886.000000	97.083890 
2885.000000	97.083855 
2884.000000	97.081904 
2883.000000	97.082124 
2882.000000	97.088898 
2881.000000	97.102374 
2880.000000	97.119317 
2879.000000	97.137519 
2878.000000	97.156735 
2877.000000	97.175208 
2876.000000	97.188395 
2875.000000	97.192944 
2874.000000	97.190372 
2873.000000	97.185583 
2872.000000	97.182539 
2871.000000	97.182549 
2870.000000	97.186033 
2869.000000	97.193562 
2868.000000	97.204668 
2867.000000	97.217224 
2866.000000	97.229049 
2865.000000	97.239573 
2864.000000	97.249402 
2863.000000	97.259051 
2862.000000	97.268823 
2861.000000	97.279192 
2860.000000	97.290253 
2859.000000	97.301056 
2858.000000	97.310496 
2857.000000	97.318880 
2856.000000	97.327640 
2855.000000	97.337182 
2854.000000	97.345946 
2853.000000	97.352300 
2852.000000	97.356721 
2851.000000	97.361325 
2850.000000	97.367465 
2849.000000	97.374508 
2848.000000	97.380930 
2847.000000	97.385788 
2846.000000	97.388984 
2845.000000	97.390981 
2844.000000	97.392918 
2843.000000	97.396535 
2842.000000	97.403069 
2841.000000	97.411848 
2840.000000	97.420294 
2839.000000	97.425784 
2838.000000	97.427738 
2837.000000	97.427947 
2836.000000	97.429008 
2835.000000	97.432494 
2834.000000	97.438547 
2833.000000	97.446753 
2832.000000	97.456692 
2831.000000	97.467381 
2830.000000	97.476704 
2829.000000	97.482284 
2828.000000	97.483430 
2827.000000	97.482090 
2826.000000	97.481652 
2825.000000	97.484310 
2824.000000	97.489527 
2823.000000	97.494819 
2822.000000	97.497960 
2821.000000	97.498520 
2820.000000	97.497604 
2819.000000	97.496579 
2818.000000	97.496329 
2817.000000	97.497468 
2816.000000	97.500465 
2815.000000	97.505047 
2814.000000	97.509832 
2813.000000	97.513187 
2812.000000	97.514544 
2811.000000	97.514576 
2810.000000	97.514271 
2809.000000	97.514244 
2808.000000	97.514911 
2807.000000	97.516683 
2806.000000	97.519520 
2805.000000	97.522549 
2804.000000	97.524632 
2803.000000	97.525446 
2802.000000	97.525836 
2801.000000	97.527044 
2800.000000	97.529626 
2799.000000	97.533086 
2798.000000	97.536341 
2797.000000	97.538521 
2796.000000	97.539434 
2795.000000	97.539550 
2794.000000	97.539665 
2793.000000	97.540358 
2792.000000	97.541702 
2791.000000	97.543325 
2790.000000	97.544760 
2789.000000	97.545813 
2788.000000	97.546633 
2787.000000	97.547478 
2786.000000	97.548495 
2785.000000	97.549676 
2784.000000	97.550931 
2783.000000	97.552139 
2782.000000	97.553193 
2781.000000	97.554089 
2780.000000	97.554955 
2779.000000	97.555975 
2778.000000	97.557242 
2777.000000	97.558682 
2776.000000	97.560142 
2775.000000	97.561572 
2774.000000	97.563059 
2773.000000	97.564642 
2772.000000	97.566173 
2771.000000	97.567440 
2770.000000	97.568374 
2769.000000	97.569067 
2768.000000	97.569636 
2767.000000	97.570144 
2766.000000	97.570662 
2765.000000	97.571324 
2764.000000	97.572252 
2763.000000	97.573440 
2762.000000	97.574749 
2761.000000	97.576047 
2760.000000	97.577321 
2759.000000	97.578639 
2758.000000	97.579970 
2757.000000	97.581057 
2756.000000	97.581606 
2755.000000	97.581685 
2754.000000	97.581919 
2753.000000	97.582999 
2752.000000	97.585026 
2751.000000	97.587365 
2750.000000	97.589214 
2749.000000	97.590455 
2748.000000	97.591545 
2747.000000	97.592692 
2746.000000	97.593499 
2745.000000	97.593654 
2744.000000	97.593444 
2743.000000	97.593397 
2742.000000	97.593687 
2741.000000	97.594168 
2740.000000	97.594780 
2739.000000	97.595626 
2738.000000	97.596690 
2737.000000	97.597760 
2736.000000	97.598662 
2735.000000	97.599382 
2734.000000	97.599954 
2733.000000	97.600363 
2732.000000	97.600608 
2731.000000	97.600795 
2730.000000	97.601104 
2729.000000	97.601662 
2728.000000	97.602451 
2727.000000	97.603311 
2726.000000	97.604045 
2725.000000	97.604588 
2724.000000	97.605036 
2723.000000	97.605523 
2722.000000	97.606074 
2721.000000	97.606626 
2720.000000	97.607142 
2719.000000	97.607653 
2718.000000	97.608200 
2717.000000	97.608768 
2716.000000	97.609306 
2715.000000	97.609799 
2714.000000	97.610310 
2713.000000	97.610919 
2712.000000	97.611621 
2711.000000	97.612307 
2710.000000	97.612860 
2709.000000	97.613272 
2708.000000	97.613637 
2707.000000	97.614028 
2706.000000	97.614436 
2705.000000	97.614820 
2704.000000	97.615164 
2703.000000	97.615483 
2702.000000	97.615796 
2701.000000	97.616152 
2700.000000	97.616684 
2699.000000	97.617522 
2698.000000	97.618622 
2697.000000	97.619665 
2696.000000	97.620297 
2695.000000	97.620454 
2694.000000	97.620466 
2693.000000	97.620679 
2692.000000	97.621120 
2691.000000	97.621586 
2690.000000	97.621954 
2689.000000	97.622266 
2688.000000	97.622558 
2687.000000	97.622775 
2686.000000	97.622934 
2685.000000	97.623214 
2684.000000	97.623756 
2683.000000	97.624429 
2682.000000	97.624957 
2681.000000	97.625253 
2680.000000	97.625474 
2679.000000	97.625760 
2678.000000	97.626092 
2677.000000	97.626430 
2676.000000	97.626802 
2675.000000	97.627182 
2674.000000	97.627394 
2673.000000	97.627292 
2672.000000	97.626944 
2671.000000	97.626544 
2670.000000	97.626230 
2669.000000	97.626061 
2668.000000	97.626081 
2667.000000	97.626291 
2666.000000	97.626584 
2665.000000	97.626804 
2664.000000	97.626887 
2663.000000	97.626879 
2662.000000	97.626839 
2661.000000	97.626764 
2660.000000	97.626615 
2659.000000	97.626369 
2658.000000	97.626060 
2657.000000	97.625799 
2656.000000	97.625717 
2655.000000	97.625827 
2654.000000	97.625938 
2653.000000	97.625790 
2652.000000	97.625313 
2651.000000	97.624736 
2650.000000	97.624438 
2649.000000	97.624619 
2648.000000	97.625197 
2647.000000	97.625871 
2646.000000	97.626292 
2645.000000	97.626219 
2644.000000	97.625611 
2643.000000	97.624691 
2642.000000	97.623847 
2641.000000	97.623375 
2640.000000	97.623368 
2639.000000	97.623739 
2638.000000	97.624260 
2637.000000	97.624572 
2636.000000	97.624336 
2635.000000	97.623519 
2634.000000	97.622550 
2633.000000	97.622012 
2632.000000	97.622055 
2631.000000	97.622190 
2630.000000	97.621834 
2629.000000	97.621055 
2628.000000	97.620468 
2627.000000	97.620259 
2626.000000	97.619687 
2625.000000	97.617979 
2624.000000	97.615480 
2623.000000	97.613416 
2622.000000	97.612395 
2621.000000	97.611723 
2620.000000	97.610404 
2619.000000	97.608382 
2618.000000	97.606386 
2617.000000	97.605029 
2616.000000	97.604571 
2615.000000	97.605108 
2614.000000	97.606425 
2613.000000	97.607960 
2612.000000	97.609439 
2611.000000	97.611397 
2610.000000	97.614391 
2609.000000	97.617678 
2608.000000	97.619263 
2607.000000	97.617510 
2606.000000	97.612697 
2605.000000	97.607122 
2604.000000	97.603309 
2603.000000	97.602057 
2602.000000	97.602250 
2601.000000	97.602343 
2600.000000	97.601912 
2599.000000	97.601440 
2598.000000	97.601192 
2597.000000	97.601164 
2596.000000	97.601741 
2595.000000	97.603223 
2594.000000	97.604804 
2593.000000	97.605281 
2592.000000	97.604941 
2591.000000	97.605379 
2590.000000	97.606874 
2589.000000	97.607374 
2588.000000	97.605128 
2587.000000	97.601209 
2586.000000	97.598231 
2585.000000	97.597240 
2584.000000	97.597208 
2583.000000	97.597098 
2582.000000	97.597058 
2581.000000	97.597658 
2580.000000	97.599196 
2579.000000	97.601934 
2578.000000	97.606188 
2577.000000	97.611915 
2576.000000	97.618557 
2575.000000	97.625015 
2574.000000	97.629455 
2573.000000	97.629912 
2572.000000	97.625954 
2571.000000	97.619597 
2570.000000	97.613939 
2569.000000	97.610688 
2568.000000	97.609710 
2567.000000	97.610410 
2566.000000	97.612232 
2565.000000	97.613841 
2564.000000	97.613178 
2563.000000	97.609145 
2562.000000	97.602888 
2561.000000	97.597163 
2560.000000	97.594497 
2559.000000	97.595923 
2558.000000	97.601000 
2557.000000	97.608386 
2556.000000	97.616456 
2555.000000	97.623699 
2554.000000	97.628685 
2553.000000	97.630373 
2552.000000	97.629045 
2551.000000	97.626738 
2550.000000	97.625941 
2549.000000	97.627342 
2548.000000	97.629092 
2547.000000	97.628543 
2546.000000	97.624712 
2545.000000	97.619083 
2544.000000	97.614077 
2543.000000	97.610902 
2542.000000	97.609019 
2541.000000	97.607602 
2540.000000	97.607030 
2539.000000	97.608273 
2538.000000	97.611245 
2537.000000	97.614768 
2536.000000	97.618112 
2535.000000	97.621614 
2534.000000	97.625358 
2533.000000	97.628054 
2532.000000	97.628041 
2531.000000	97.625042 
2530.000000	97.620499 
2529.000000	97.616535 
2528.000000	97.614633 
2527.000000	97.615105 
2526.000000	97.617298 
2525.000000	97.620138 
2524.000000	97.622855 
2523.000000	97.625193 
2522.000000	97.626945 
2521.000000	97.627697 
2520.000000	97.627401 
2519.000000	97.626896 
2518.000000	97.627339 
2517.000000	97.629012 
2516.000000	97.630962 
2515.000000	97.631898 
2514.000000	97.631417 
2513.000000	97.630210 
2512.000000	97.629292 
2511.000000	97.629090 
2510.000000	97.629314 
2509.000000	97.629477 
2508.000000	97.629335 
2507.000000	97.628909 
2506.000000	97.628376 
2505.000000	97.628104 
2504.000000	97.628593 
2503.000000	97.630064 
2502.000000	97.631979 
2501.000000	97.633190 
2500.000000	97.632975 
2499.000000	97.631600 
2498.000000	97.630108 
2497.000000	97.629376 
2496.000000	97.629505 
2495.000000	97.630095 
2494.000000	97.630677 
2493.000000	97.630934 
2492.000000	97.630706 
2491.000000	97.630007 
2490.000000	97.628988 
2489.000000	97.627814 
2488.000000	97.626729 
2487.000000	97.626246 
2486.000000	97.626944 
2485.000000	97.628883 
2484.000000	97.631381 
2483.000000	97.633507 
2482.000000	97.634681 
2481.000000	97.634794 
2480.000000	97.634141 
2479.000000	97.633373 
2478.000000	97.633176 
2477.000000	97.633702 
2476.000000	97.634472 
2475.000000	97.635023 
2474.000000	97.635553 
2473.000000	97.636705 
2472.000000	97.638826 
2471.000000	97.641557 
2470.000000	97.644006 
2469.000000	97.645237 
2468.000000	97.644939 
2467.000000	97.643893 
2466.000000	97.643435 
2465.000000	97.644157 
2464.000000	97.645453 
2463.000000	97.646677 
2462.000000	97.648388 
2461.000000	97.651666 
2460.000000	97.656108 
2459.000000	97.659422 
2458.000000	97.659602 
2457.000000	97.656837 
2456.000000	97.653149 
2455.000000	97.650409 
2454.000000	97.649239 
2453.000000	97.649334 
2452.000000	97.649993 
2451.000000	97.650538 
2450.000000	97.650825 
2449.000000	97.651423 
2448.000000	97.652929 
2447.000000	97.655069 
2446.000000	97.656771 
2445.000000	97.657145 
2444.000000	97.656127 
2443.000000	97.654300 
2442.000000	97.652524 
2441.000000	97.651800 
2440.000000	97.652975 
2439.000000	97.656138 
2438.000000	97.660432 
2437.000000	97.664714 
2436.000000	97.668284 
2435.000000	97.670792 
2434.000000	97.671854 
2433.000000	97.671279 
2432.000000	97.669628 
2431.000000	97.668192 
2430.000000	97.668117 
2429.000000	97.669622 
2428.000000	97.671973 
2427.000000	97.673983 
2426.000000	97.674683 
2425.000000	97.673813 
2424.000000	97.671947 
2423.000000	97.670171 
2422.000000	97.669486 
2421.000000	97.670475 
2420.000000	97.673353 
2419.000000	97.677785 
2418.000000	97.682682 
2417.000000	97.686594 
2416.000000	97.688706 
2415.000000	97.689549 
2414.000000	97.690504 
2413.000000	97.692452 
2412.000000	97.695016 
2411.000000	97.697105 
2410.000000	97.698204 
2409.000000	97.698805 
2408.000000	97.699757 
2407.000000	97.701410 
2406.000000	97.703436 
2405.000000	97.705369 
2404.000000	97.707000 
2403.000000	97.708364 
2402.000000	97.709629 
2401.000000	97.711051 
2400.000000	97.712810 
2399.000000	97.714802 
2398.000000	97.716696 
2397.000000	97.718274 
2396.000000	97.719622 
2395.000000	97.720970 
2394.000000	97.722433 
2393.000000	97.723992 
2392.000000	97.725650 
2391.000000	97.727467 
2390.000000	97.729440 
2389.000000	97.731467 
2388.000000	97.733443 
2387.000000	97.735371 
2386.000000	97.737309 
2385.000000	97.739267 
2384.000000	97.741197 
2383.000000	97.743038 
2382.000000	97.744769 
2381.000000	97.746414 
2380.000000	97.747987 
2379.000000	97.749461 
2378.000000	97.750797 
2377.000000	97.752007 
2376.000000	97.753163 
2375.000000	97.754363 
2374.000000	97.755664 
2373.000000	97.757048 
2372.000000	97.758461 
2371.000000	97.759848 
2370.000000	97.761164 
2369.000000	97.762385 
2368.000000	97.763509 
2367.000000	97.764552 
2366.000000	97.765540 
2365.000000	97.766497 
2364.000000	97.767424 
2363.000000	97.768303 
2362.000000	97.769121 
2361.000000	97.769885 
2360.000000	97.770612 
2359.000000	97.771317 
2358.000000	97.772007 
2357.000000	97.772681 
2356.000000	97.773327 
2355.000000	97.773923 
2354.000000	97.774446 
2353.000000	97.774880 
2352.000000	97.775229 
2351.000000	97.775498 
2350.000000	97.775687 
2349.000000	97.775789 
2348.000000	97.775820 
2347.000000	97.775818 
2346.000000	97.775816 
2345.000000	97.775819 
2344.000000	97.775803 
2343.000000	97.775743 
2342.000000	97.775631 
2341.000000	97.775475 
2340.000000	97.775283 
2339.000000	97.775045 
2338.000000	97.774746 
2337.000000	97.774378 
2336.000000	97.773951 
2335.000000	97.773475 
2334.000000	97.772944 
2333.000000	97.772341 
2332.000000	97.771642 
2331.000000	97.770864 
2330.000000	97.770044 
2329.000000	97.769150 
2328.000000	97.768106 
2327.000000	97.766878 
2326.000000	97.765433 
2325.000000	97.763690 
2324.000000	97.761979 
2323.000000	97.760966 
2322.000000	97.760595 
2321.000000	97.759700 
2320.000000	97.757695 
2319.000000	97.755780 
2318.000000	97.755042 
2317.000000	97.754679 
2316.000000	97.752999 
2315.000000	97.750154 
2314.000000	97.747786 
2313.000000	97.746678 
2312.000000	97.746194 
2311.000000	97.745980 
2310.000000	97.745973 
2309.000000	97.745128 
2308.000000	97.742488 
2307.000000	97.739218 
2306.000000	97.737802 
2305.000000	97.738417 
2304.000000	97.738498 
2303.000000	97.736104 
2302.000000	97.732420 
2301.000000	97.729935 
2300.000000	97.729212 
2299.000000	97.728010 
2298.000000	97.723179 
2297.000000	97.713647 
2296.000000	97.702134 
2295.000000	97.693086 
2294.000000	97.688640 
2293.000000	97.686867 
2292.000000	97.684830 
2291.000000	97.681928 
2290.000000	97.679310 
2289.000000	97.677016 
2288.000000	97.674026 
2287.000000	97.670415 
2286.000000	97.667563 
2285.000000	97.666165 
2284.000000	97.665652 
2283.000000	97.665505 
2282.000000	97.665768 
2281.000000	97.665959 
2280.000000	97.664505 
2279.000000	97.660086 
2278.000000	97.653224 
2277.000000	97.646381 
2276.000000	97.642394 
2275.000000	97.642479 
2274.000000	97.645417 
2273.000000	97.648681 
2272.000000	97.650470 
2271.000000	97.650542 
2270.000000	97.649679 
2269.000000	97.649370 
2268.000000	97.651637 
2267.000000	97.657375 
2266.000000	97.664218 
2265.000000	97.667587 
2264.000000	97.664867 
2263.000000	97.657447 
2262.000000	97.648660 
2261.000000	97.640833 
2260.000000	97.635036 
2259.000000	97.631892 
2258.000000	97.631146 
2257.000000	97.631624 
2256.000000	97.633051 
2255.000000	97.636926 
2254.000000	97.643990 
2253.000000	97.651490 
2252.000000	97.654698 
2251.000000	97.650954 
2250.000000	97.640983 
2249.000000	97.627688 
2248.000000	97.615155 
2247.000000	97.607151 
2246.000000	97.604649 
2245.000000	97.604955 
2244.000000	97.604190 
2243.000000	97.601360 
2242.000000	97.598702 
2241.000000	97.598426 
2240.000000	97.600620 
2239.000000	97.603923 
2238.000000	97.606431 
2237.000000	97.606157 
2236.000000	97.602344 
2235.000000	97.596750 
2234.000000	97.592497 
2233.000000	97.590872 
2232.000000	97.590352 
2231.000000	97.589022 
2230.000000	97.586864 
2229.000000	97.585015 
2228.000000	97.583869 
2227.000000	97.582923 
2226.000000	97.581754 
2225.000000	97.580128 
2224.000000	97.577618 
2223.000000	97.574214 
2222.000000	97.571153 
2221.000000	97.570055 
2220.000000	97.570985 
2219.000000	97.572212 
2218.000000	97.571987 
2217.000000	97.570321 
2216.000000	97.568758 
2215.000000	97.568528 
2214.000000	97.569185 
2213.000000	97.569133 
2212.000000	97.567469 
2211.000000	97.564903 
2210.000000	97.562741 
2209.000000	97.561420 
2208.000000	97.560538 
2207.000000	97.559830 
2206.000000	97.559460 
2205.000000	97.559479 
2204.000000	97.559688 
2203.000000	97.560188 
2202.000000	97.561387 
2201.000000	97.562911 
2200.000000	97.563174 
2199.000000	97.560774 
2198.000000	97.555845 
2197.000000	97.550101 
2196.000000	97.545529 
2195.000000	97.543014 
2194.000000	97.542191 
2193.000000	97.542086 
2192.000000	97.541888 
2191.000000	97.541230 
2190.000000	97.539998 
2189.000000	97.538367 
2188.000000	97.536925 
2187.000000	97.536092 
2186.000000	97.535282 
2185.000000	97.533408 
2184.000000	97.530746 
2183.000000	97.529465 
2182.000000	97.531332 
2181.000000	97.535602 
2180.000000	97.539436 
2179.000000	97.540608 
2178.000000	97.538848 
2177.000000	97.535082 
2176.000000	97.530725 
2175.000000	97.527488 
2174.000000	97.526776 
2173.000000	97.528678 
2172.000000	97.532114 
2171.000000	97.536314 
2170.000000	97.541243 
2169.000000	97.546239 
2168.000000	97.549555 
2167.000000	97.549995 
2166.000000	97.548158 
2165.000000	97.545606 
2164.000000	97.543430 
2163.000000	97.542434 
2162.000000	97.544072 
2161.000000	97.549584 
2160.000000	97.558000 
2159.000000	97.566057 
2158.000000	97.571165 
2157.000000	97.573676 
2156.000000	97.575843 
2155.000000	97.579368 
2154.000000	97.584447 
2153.000000	97.590513 
2152.000000	97.596719 
2151.000000	97.601637 
2150.000000	97.603564 
2149.000000	97.602198 
2148.000000	97.599804 
2147.000000	97.599484 
2146.000000	97.602268 
2145.000000	97.607189 
2144.000000	97.613932 
2143.000000	97.623416 
2142.000000	97.634833 
2141.000000	97.644376 
2140.000000	97.648980 
2139.000000	97.650064 
2138.000000	97.651688 
2137.000000	97.655570 
2136.000000	97.660141 
2135.000000	97.663481 
2134.000000	97.664875 
2133.000000	97.664458 
2132.000000	97.663590 
2131.000000	97.664715 
2130.000000	97.668725 
2129.000000	97.673040 
2128.000000	97.674413 
2127.000000	97.673573 
2126.000000	97.675163 
2125.000000	97.682576 
2124.000000	97.694164 
2123.000000	97.704833 
2122.000000	97.710255 
2121.000000	97.709199 
2120.000000	97.703688 
2119.000000	97.697456 
2118.000000	97.693338 
2117.000000	97.691427 
2116.000000	97.689513 
2115.000000	97.685075 
2114.000000	97.676860 
2113.000000	97.665795 
2112.000000	97.655497 
2111.000000	97.650547 
2110.000000	97.652628 
2109.000000	97.658773 
2108.000000	97.664426 
2107.000000	97.668265 
2106.000000	97.672423 
2105.000000	97.678587 
2104.000000	97.685773 
2103.000000	97.691601 
2102.000000	97.694037 
2101.000000	97.691818 
2100.000000	97.685049 
2099.000000	97.676332 
2098.000000	97.670109 
2097.000000	97.669280 
2096.000000	97.672987 
2095.000000	97.677684 
2094.000000	97.680162 
2093.000000	97.679634 
2092.000000	97.677135 
2091.000000	97.673998 
2090.000000	97.671043 
2089.000000	97.668645 
2088.000000	97.666868 
2087.000000	97.665364 
2086.000000	97.663698 
2085.000000	97.662039 
2084.000000	97.661072 
2083.000000	97.660853 
2082.000000	97.660341 
2081.000000	97.658664 
2080.000000	97.656418 
2079.000000	97.654998 
2078.000000	97.654913 
2077.000000	97.655388 
2076.000000	97.655284 
2075.000000	97.654261 
2074.000000	97.652767 
2073.000000	97.651181 
2072.000000	97.649523 
2071.000000	97.647852 
2070.000000	97.646358 
2069.000000	97.645109 
2068.000000	97.643965 
2067.000000	97.642760 
2066.000000	97.641415 
2065.000000	97.639878 
2064.000000	97.638119 
2063.000000	97.636222 
2062.000000	97.634444 
2061.000000	97.633122 
2060.000000	97.632397 
2059.000000	97.632135 
2058.000000	97.632019 
2057.000000	97.631617 
2056.000000	97.630712 
2055.000000	97.629472 
2054.000000	97.628288 
2053.000000	97.627399 
2052.000000	97.626757 
2051.000000	97.626169 
2050.000000	97.625429 
2049.000000	97.624403 
2048.000000	97.623116 
2047.000000	97.621801 
2046.000000	97.620738 
2045.000000	97.619984 
2044.000000	97.619305 
2043.000000	97.618407 
2042.000000	97.617201 
2041.000000	97.615872 
2040.000000	97.614806 
2039.000000	97.614346 
2038.000000	97.614516 
2037.000000	97.614913 
2036.000000	97.615057 
2035.000000	97.614870 
2034.000000	97.614735 
2033.000000	97.615099 
2032.000000	97.616010 
2031.000000	97.616860 
2030.000000	97.616707 
2029.000000	97.615081 
2028.000000	97.612536 
2027.000000	97.610353 
2026.000000	97.609186 
2025.000000	97.608471 
2024.000000	97.607389 
2023.000000	97.606359 
2022.000000	97.606717 
2021.000000	97.609030 
2020.000000	97.612438 
2019.000000	97.615102 
2018.000000	97.615640 
2017.000000	97.613798 
2016.000000	97.610679 
2015.000000	97.608084 
2014.000000	97.606792 
2013.000000	97.606109 
2012.000000	97.605048 
2011.000000	97.603803 
2010.000000	97.603307 
2009.000000	97.603544 
2008.000000	97.603337 
2007.000000	97.602005 
2006.000000	97.600269 
2005.000000	97.599184 
2004.000000	97.599167 
2003.000000	97.600375 
2002.000000	97.603025 
2001.000000	97.606668 
2000.000000	97.609773 
1999.000000	97.610760 
1998.000000	97.609128 
1997.000000	97.605491 
1996.000000	97.601126 
1995.000000	97.597348 
1994.000000	97.594828 
1993.000000	97.593351 
1992.000000	97.592403 
1991.000000	97.592074 
1990.000000	97.592897 
1989.000000	97.594811 
1988.000000	97.596912 
1987.000000	97.598162 
1986.000000	97.598140 
1985.000000	97.597156 
1984.000000	97.595843 
1983.000000	97.594688 
1982.000000	97.593739 
1981.000000	97.592829 
1980.000000	97.592063 
1979.000000	97.591801 
1978.000000	97.592013 
1977.000000	97.592137 
1976.000000	97.591940 
1975.000000	97.591963 
1974.000000	97.592693 
1973.000000	97.593921 
1972.000000	97.595113 
1971.000000	97.595904 
1970.000000	97.596286 
1969.000000	97.596401 
1968.000000	97.596427 
1967.000000	97.596585 
1966.000000	97.597049 
1965.000000	97.597808 
1964.000000	97.598740 
1963.000000	97.599688 
1962.000000	97.600564 
1961.000000	97.601342 
1960.000000	97.602027 
1959.000000	97.602650 
1958.000000	97.603269 
1957.000000	97.603955 
1956.000000	97.604758 
1955.000000	97.605689 
1954.000000	97.606716 
1953.000000	97.607772 
1952.000000	97.608780 
1951.000000	97.609692 
1950.000000	97.610513 
1949.000000	97.611285 
1948.000000	97.612053 
1947.000000	97.612826 
1946.000000	97.613587 
1945.000000	97.614316 
1944.000000	97.615017 
1943.000000	97.615712 
1942.000000	97.616421 
1941.000000	97.617139 
1940.000000	97.617847 
1939.000000	97.618521 
1938.000000	97.619146 
1937.000000	97.619719 
1936.000000	97.620252 
1935.000000	97.620761 
1934.000000	97.621255 
1933.000000	97.621718 
1932.000000	97.622128 
1931.000000	97.622508 
1930.000000	97.622944 
1929.000000	97.623501 
1928.000000	97.624202 
1927.000000	97.625052 
1926.000000	97.625974 
1925.000000	97.626754 
1924.000000	97.627173 
1923.000000	97.627179 
1922.000000	97.626963 
1921.000000	97.626706 
1920.000000	97.626452 
1919.000000	97.626261 
1918.000000	97.626216 
1917.000000	97.626300 
1916.000000	97.626450 
1915.000000	97.626748 
1914.000000	97.627289 
1913.000000	97.627865 
1912.000000	97.628092 
1911.000000	97.627847 
1910.000000	97.627370 
1909.000000	97.627015 
1908.000000	97.626988 
1907.000000	97.627294 
1906.000000	97.627707 
1905.000000	97.627756 
1904.000000	97.627117 
1903.000000	97.626201 
1902.000000	97.625855 
1901.000000	97.626071 
1900.000000	97.625725 
1899.000000	97.624194 
1898.000000	97.622496 
1897.000000	97.622104 
1896.000000	97.623179 
1895.000000	97.624837 
1894.000000	97.626290 
1893.000000	97.626863 
1892.000000	97.625981 
1891.000000	97.624094 
1890.000000	97.622855 
1889.000000	97.623237 
1888.000000	97.624182 
1887.000000	97.624463 
1886.000000	97.624098 
1885.000000	97.622734 
1884.000000	97.619155 
1883.000000	97.614046 
1882.000000	97.611076 
1881.000000	97.613013 
1880.000000	97.618754 
1879.000000	97.625076 
1878.000000	97.630194 
1877.000000	97.634404 
1876.000000	97.637995 
1875.000000	97.640495 
1874.000000	97.641650 
1873.000000	97.641187 
1872.000000	97.638171 
1871.000000	97.631863 
1870.000000	97.623357 
1869.000000	97.616067 
1868.000000	97.613035 
1867.000000	97.614576 
1866.000000	97.619123 
1865.000000	97.624138 
1864.000000	97.627217 
1863.000000	97.627829 
1862.000000	97.627311 
1861.000000	97.627428 
1860.000000	97.629888 
1859.000000	97.636474 
1858.000000	97.647273 
1857.000000	97.658728 
1856.000000	97.666420 
1855.000000	97.669815 
1854.000000	97.671437 
1853.000000	97.672484 
1852.000000	97.673010 
1851.000000	97.674723 
1850.000000	97.679349 
1849.000000	97.685106 
1848.000000	97.687653 
1847.000000	97.685367 
1846.000000	97.680893 
1845.000000	97.678113 
1844.000000	97.678898 
1843.000000	97.682896 
1842.000000	97.688864 
1841.000000	97.695387 
1840.000000	97.701154 
1839.000000	97.704969 
1838.000000	97.706150 
1837.000000	97.704744 
1836.000000	97.701706 
1835.000000	97.699266 
1834.000000	97.699391 
1833.000000	97.702137 
1832.000000	97.706291 
1831.000000	97.710279 
1830.000000	97.712872 
1829.000000	97.713936 
1828.000000	97.714087 
1827.000000	97.714176 
1826.000000	97.714878 
1825.000000	97.716168 
1824.000000	97.717366 
1823.000000	97.718006 
1822.000000	97.718559 
1821.000000	97.719313 
1820.000000	97.719373 
1819.000000	97.717862 
1818.000000	97.715762 
1817.000000	97.714800 
1816.000000	97.714515 
1815.000000	97.713303 
1814.000000	97.711453 
1813.000000	97.711070 
1812.000000	97.712677 
1811.000000	97.713869 
1810.000000	97.713341 
1809.000000	97.712470 
1808.000000	97.711931 
1807.000000	97.711011 
1806.000000	97.710182 
1805.000000	97.710751 
1804.000000	97.711785 
1803.000000	97.710668 
1802.000000	97.706878 
1801.000000	97.703739 
1800.000000	97.703987 
1799.000000	97.706254 
1798.000000	97.708620 
1797.000000	97.710091 
1796.000000	97.709142 
1795.000000	97.705017 
1794.000000	97.699280 
1793.000000	97.695000 
1792.000000	97.693458 
1791.000000	97.693316 
1790.000000	97.694501 
1789.000000	97.698350 
1788.000000	97.704365 
1787.000000	97.710085 
1786.000000	97.714113 
1785.000000	97.717028 
1784.000000	97.719303 
1783.000000	97.720960 
1782.000000	97.721726 
1781.000000	97.721800 
1780.000000	97.722337 
1779.000000	97.724260 
1778.000000	97.727890 
1777.000000	97.732124 
1776.000000	97.735081 
1775.000000	97.735856 
1774.000000	97.734518 
1773.000000	97.732436 
1772.000000	97.732278 
1771.000000	97.734575 
1770.000000	97.737182 
1769.000000	97.738843 
1768.000000	97.739664 
1767.000000	97.739986 
1766.000000	97.740388 
1765.000000	97.742049 
1764.000000	97.745954 
1763.000000	97.751216 
1762.000000	97.755714 
1761.000000	97.758987 
1760.000000	97.761752 
1759.000000	97.763777 
1758.000000	97.764240 
1757.000000	97.762635 
1756.000000	97.760311 
1755.000000	97.757815 
1754.000000	97.754217 
1753.000000	97.750486 
1752.000000	97.750414 
1751.000000	97.756624 
1750.000000	97.766182 
1749.000000	97.773472 
1748.000000	97.777440 
1747.000000	97.780935 
1746.000000	97.784708 
1745.000000	97.787681 
1744.000000	97.789381 
1743.000000	97.788741 
1742.000000	97.784160 
1741.000000	97.776627 
1740.000000	97.770600 
1739.000000	97.769769 
1738.000000	97.772180 
1737.000000	97.774350 
1736.000000	97.775665 
1735.000000	97.776747 
1734.000000	97.779298 
1733.000000	97.783966 
1732.000000	97.788507 
1731.000000	97.792483 
1730.000000	97.796867 
1729.000000	97.799762 
1728.000000	97.800992 
1727.000000	97.802280 
1726.000000	97.804574 
1725.000000	97.806630 
1724.000000	97.806859 
1723.000000	97.805124 
1722.000000	97.803734 
1721.000000	97.804394 
1720.000000	97.806668 
1719.000000	97.806995 
1718.000000	97.802706 
1717.000000	97.797310 
1716.000000	97.792042 
1715.000000	97.785371 
1714.000000	97.780539 
1713.000000	97.779191 
1712.000000	97.778433 
1711.000000	97.776928 
1710.000000	97.776289 
1709.000000	97.777079 
1708.000000	97.778225 
1707.000000	97.779368 
1706.000000	97.781350 
1705.000000	97.783298 
1704.000000	97.780517 
1703.000000	97.772278 
1702.000000	97.762817 
1701.000000	97.757415 
1700.000000	97.755656 
1699.000000	97.750675 
1698.000000	97.743015 
1697.000000	97.738752 
1696.000000	97.738998 
1695.000000	97.740313 
1694.000000	97.740030 
1693.000000	97.738502 
1692.000000	97.737038 
1691.000000	97.735718 
1690.000000	97.734106 
1689.000000	97.731660 
1688.000000	97.728335 
1687.000000	97.724779 
1686.000000	97.721835 
1685.000000	97.719818 
1684.000000	97.717953 
1683.000000	97.715720 
1682.000000	97.712663 
1681.000000	97.708833 
1680.000000	97.705580 
1679.000000	97.703169 
1678.000000	97.701116 
1677.000000	97.698833 
1676.000000	97.696855 
1675.000000	97.695855 
1674.000000	97.695016 
1673.000000	97.693265 
1672.000000	97.691076 
1671.000000	97.689261 
1670.000000	97.687638 
1669.000000	97.685362 
1668.000000	97.682773 
1667.000000	97.680795 
1666.000000	97.679230 
1665.000000	97.677572 
1664.000000	97.675689 
1663.000000	97.673814 
1662.000000	97.671767 
1661.000000	97.668592 
1660.000000	97.665099 
1659.000000	97.663105 
1658.000000	97.663190 
1657.000000	97.663105 
1656.000000	97.662006 
1655.000000	97.660536 
1654.000000	97.659053 
1653.000000	97.658281 
1652.000000	97.657069 
1651.000000	97.652714 
1650.000000	97.645782 
1649.000000	97.640736 
1648.000000	97.637679 
1647.000000	97.636766 
1646.000000	97.636538 
1645.000000	97.635796 
1644.000000	97.632148 
1643.000000	97.627337 
1642.000000	97.624062 
1641.000000	97.623767 
1640.000000	97.625661 
1639.000000	97.627417 
1638.000000	97.627994 
1637.000000	97.627309 
1636.000000	97.626398 
1635.000000	97.628688 
1634.000000	97.633176 
1633.000000	97.635463 
1632.000000	97.634686 
1631.000000	97.632742 
1630.000000	97.631471 
1629.000000	97.630216 
1628.000000	97.628343 
1627.000000	97.627865 
1626.000000	97.629740 
1625.000000	97.631917 
1624.000000	97.632936 
1623.000000	97.635013 
1622.000000	97.639595 
1621.000000	97.642515 
1620.000000	97.641828 
1619.000000	97.640782 
1618.000000	97.641789 
1617.000000	97.641943 
1616.000000	97.639334 
1615.000000	97.638658 
1614.000000	97.641539 
1613.000000	97.644681 
1612.000000	97.645851 
1611.000000	97.647413 
1610.000000	97.651489 
1609.000000	97.655771 
1608.000000	97.658940 
1607.000000	97.663981 
1606.000000	97.671227 
1605.000000	97.676998 
1604.000000	97.681638 
1603.000000	97.688116 
1602.000000	97.695293 
1601.000000	97.699246 
1600.000000	97.700879 
1599.000000	97.705147 
1598.000000	97.712267 
1597.000000	97.717495 
1596.000000	97.718720 
1595.000000	97.719305 
1594.000000	97.722171 
1593.000000	97.725440 
1592.000000	97.727539 
1591.000000	97.731268 
1590.000000	97.738887 
1589.000000	97.747945 
1588.000000	97.756478 
1587.000000	97.766565 
1586.000000	97.778276 
1585.000000	97.785537 
1584.000000	97.785606 
1583.000000	97.783490 
1582.000000	97.781923 
1581.000000	97.778306 
1580.000000	97.772885 
1579.000000	97.771932 
1578.000000	97.779221 
1577.000000	97.790062 
1576.000000	97.797522 
1575.000000	97.802111 
1574.000000	97.803310 
1573.000000	97.800378 
1572.000000	97.800258 
1571.000000	97.807947 
1570.000000	97.817592 
1569.000000	97.815989 
1568.000000	97.805809 
1567.000000	97.798520 
1566.000000	97.796626 
1565.000000	97.793723 
1564.000000	97.789893 
1563.000000	97.787702 
1562.000000	97.787067 
1561.000000	97.782019 
1560.000000	97.767622 
1559.000000	97.752654 
1558.000000	97.753771 
1557.000000	97.757634 
1556.000000	97.747906 
1555.000000	97.741800 
1554.000000	97.735676 
1553.000000	97.729915 
1552.000000	97.721331 
1551.000000	97.709887 
1550.000000	97.692948 
1549.000000	97.674355 
1548.000000	97.660201 
1547.000000	97.652374 
1546.000000	97.644152 
1545.000000	97.628118 
1544.000000	97.606734 
1543.000000	97.587250 
1542.000000	97.571774 
1541.000000	97.554536 
1540.000000	97.526118 
1539.000000	97.494969 
1538.000000	97.469285 
1537.000000	97.443120 
1536.000000	97.417580 
1535.000000	97.395964 
1534.000000	97.378469 
1533.000000	97.361696 
1532.000000	97.343518 
1531.000000	97.322129 
1530.000000	97.301991 
1529.000000	97.285363 
1528.000000	97.266198 
1527.000000	97.239540 
1526.000000	97.208794 
1525.000000	97.182041 
1524.000000	97.162742 
1523.000000	97.146544 
1522.000000	97.125406 
1521.000000	97.096309 
1520.000000	97.062169 
1519.000000	97.024783 
1518.000000	96.985276 
1517.000000	96.947576 
1516.000000	96.916270 
1515.000000	96.892056 
1514.000000	96.870842 
1513.000000	96.851344 
1512.000000	96.832695 
1511.000000	96.810808 
1510.000000	96.783956 
1509.000000	96.755727 
1508.000000	96.728001 
1507.000000	96.693880 
1506.000000	96.656613 
1505.000000	96.621741 
1504.000000	96.585300 
1503.000000	96.549265 
1502.000000	96.513769 
1501.000000	96.480907 
1500.000000	96.452633 
1499.000000	96.427026 
1498.000000	96.396704 
1497.000000	96.362552 
1496.000000	96.333798 
1495.000000	96.313359 
1494.000000	96.297830 
1493.000000	96.285954 
1492.000000	96.277537 
1491.000000	96.266823 
1490.000000	96.245223 
1489.000000	96.213311 
1488.000000	96.175755 
1487.000000	96.134489 
1486.000000	96.094974 
1485.000000	96.057939 
1484.000000	96.022388 
1483.000000	95.990672 
1482.000000	95.963682 
1481.000000	95.940277 
1480.000000	95.917268 
1479.000000	95.892980 
1478.000000	95.867527 
1477.000000	95.841516 
1476.000000	95.812979 
1475.000000	95.780668 
1474.000000	95.747434 
1473.000000	95.719364 
1472.000000	95.700422 
1471.000000	95.683001 
1470.000000	95.659555 
1469.000000	95.633176 
1468.000000	95.608990 
1467.000000	95.586972 
1466.000000	95.564828 
1465.000000	95.542573 
1464.000000	95.523750 
1463.000000	95.505693 
1462.000000	95.483697 
1461.000000	95.460378 
1460.000000	95.442032 
1459.000000	95.430037 
1458.000000	95.410598 
1457.000000	95.377123 
1456.000000	95.347464 
1455.000000	95.327303 
1454.000000	95.306961 
1453.000000	95.290033 
1452.000000	95.282668 
1451.000000	95.285743 
1450.000000	95.293824 
1449.000000	95.304959 
1448.000000	95.316700 
1447.000000	95.323013 
1446.000000	95.320134 
1445.000000	95.313883 
1444.000000	95.314495 
1443.000000	95.321062 
1442.000000	95.325001 
1441.000000	95.322328 
1440.000000	95.317716 
1439.000000	95.315452 
1438.000000	95.313773 
1437.000000	95.312835 
1436.000000	95.317877 
1435.000000	95.324912 
1434.000000	95.325196 
1433.000000	95.322948 
1432.000000	95.326140 
1431.000000	95.336334 
1430.000000	95.347857 
1429.000000	95.357106 
1428.000000	95.364246 
1427.000000	95.370440 
1426.000000	95.377199 
1425.000000	95.386667 
1424.000000	95.403146 
1423.000000	95.423129 
1422.000000	95.438983 
1421.000000	95.452767 
1420.000000	95.472763 
1419.000000	95.494112 
1418.000000	95.502524 
1417.000000	95.502795 
1416.000000	95.511732 
1415.000000	95.533469 
1414.000000	95.556581 
1413.000000	95.572423 
1412.000000	95.585110 
1411.000000	95.600388 
1410.000000	95.616165 
1409.000000	95.632144 
1408.000000	95.653215 
1407.000000	95.682195 
1406.000000	95.716513 
1405.000000	95.753895 
1404.000000	95.796318 
1403.000000	95.839113 
1402.000000	95.874578 
1401.000000	95.906305 
1400.000000	95.945069 
1399.000000	95.991729 
1398.000000	96.032388 
1397.000000	96.057808 
1396.000000	96.075099 
1395.000000	96.098748 
1394.000000	96.135440 
1393.000000	96.183757 
1392.000000	96.242744 
1391.000000	96.307677 
1390.000000	96.368148 
1389.000000	96.415496 
1388.000000	96.448701 
1387.000000	96.473066 
1386.000000	96.494714 
1385.000000	96.518130 
1384.000000	96.547553 
1383.000000	96.583785 
1382.000000	96.622966 
1381.000000	96.661615 
1380.000000	96.698612 
1379.000000	96.734633 
1378.000000	96.770564 
1377.000000	96.806932 
1376.000000	96.843353 
1375.000000	96.878521 
1374.000000	96.911331 
1373.000000	96.942839 
1372.000000	96.974431 
1371.000000	97.006269 
1370.000000	97.037192 
1369.000000	97.064262 
1368.000000	97.087792 
1367.000000	97.110545 
1366.000000	97.134745 
1365.000000	97.161470 
1364.000000	97.188962 
1363.000000	97.213203 
1362.000000	97.234048 
1361.000000	97.256426 
1360.000000	97.284024 
1359.000000	97.316155 
1358.000000	97.349024 
1357.000000	97.378243 
1356.000000	97.401322 
1355.000000	97.418330 
1354.000000	97.432269 
1353.000000	97.448384 
1352.000000	97.468299 
1351.000000	97.489695 
1350.000000	97.510421 
1349.000000	97.527726 
1348.000000	97.540020 
1347.000000	97.547558 
1346.000000	97.553858 
1345.000000	97.563908 
1344.000000	97.580546 
1343.000000	97.602068 
1342.000000	97.623864 
1341.000000	97.641013 
1340.000000	97.651139 
1339.000000	97.656546 
1338.000000	97.661988 
1337.000000	97.670660 
1336.000000	97.682961 
1335.000000	97.697125 
1334.000000	97.710742 
1333.000000	97.721916 
1332.000000	97.729270 
1331.000000	97.732652 
1330.000000	97.733414 
1329.000000	97.733120 
1328.000000	97.732679 
1327.000000	97.733816 
1326.000000	97.738842 
1325.000000	97.747039 
1324.000000	97.755047 
1323.000000	97.759709 
1322.000000	97.761168 
1321.000000	97.762763 
1320.000000	97.767756 
1319.000000	97.775950 
1318.000000	97.784300 
1317.000000	97.790586 
1316.000000	97.794722 
1315.000000	97.796839 
1314.000000	97.796414 
1313.000000	97.794327 
1312.000000	97.793106 
1311.000000	97.793805 
1310.000000	97.794360 
1309.000000	97.792959 
1308.000000	97.791367 
1307.000000	97.793634 
1306.000000	97.801405 
1305.000000	97.811168 
1304.000000	97.817744 
1303.000000	97.818034 
1302.000000	97.812486 
1301.000000	97.804209 
1300.000000	97.797379 
1299.000000	97.794946 
1298.000000	97.797051 
1297.000000	97.801256 
1296.000000	97.804493 
1295.000000	97.805619 
1294.000000	97.805973 
1293.000000	97.807658 
1292.000000	97.810995 
1291.000000	97.813907 
1290.000000	97.814399 
1289.000000	97.812709 
1288.000000	97.809865 
1287.000000	97.805383 
1286.000000	97.798405 
1285.000000	97.790944 
1284.000000	97.787436 
1283.000000	97.789611 
1282.000000	97.793891 
1281.000000	97.795459 
1280.000000	97.793836 
1279.000000	97.792734 
1278.000000	97.794884 
1277.000000	97.799319 
1276.000000	97.803507 
1275.000000	97.806405 
1274.000000	97.808270 
1273.000000	97.809204 
1272.000000	97.809299 
1271.000000	97.809311 
1270.000000	97.809526 
1269.000000	97.808415 
1268.000000	97.804278 
1267.000000	97.797920 
1266.000000	97.792030 
1265.000000	97.788479 
1264.000000	97.787288 
1263.000000	97.787785 
1262.000000	97.789015 
1261.000000	97.788803 
1260.000000	97.785109 
1259.000000	97.779520 
1258.000000	97.776307 
1257.000000	97.776525 
1256.000000	97.775392 
1255.000000	97.768829 
1254.000000	97.760430 
1253.000000	97.756871 
1252.000000	97.756546 
1251.000000	97.749334 
1250.000000	97.730226 
1249.000000	97.707981 
1248.000000	97.695914 
1247.000000	97.696909 
1246.000000	97.701849 
1245.000000	97.701166 
1244.000000	97.692910 
1243.000000	97.680881 
1242.000000	97.670548 
1241.000000	97.666648 
1240.000000	97.669177 
1239.000000	97.670412 
1238.000000	97.660596 
1237.000000	97.638276 
1236.000000	97.611311 
1235.000000	97.586628 
1234.000000	97.563047 
1233.000000	97.536092 
1232.000000	97.505527 
1231.000000	97.474842 
1230.000000	97.446524 
1229.000000	97.421112 
1228.000000	97.398256 
1227.000000	97.375264 
1226.000000	97.346405 
1225.000000	97.306810 
1224.000000	97.256332 
1223.000000	97.197984 
1222.000000	97.134038 
1221.000000	97.065340 
1220.000000	96.992988 
1219.000000	96.918541 
1218.000000	96.843079 
1217.000000	96.767019 
1216.000000	96.689092 
1215.000000	96.604766 
1214.000000	96.509163 
1213.000000	96.404314 
1212.000000	96.300452 
1211.000000	96.205823 
1210.000000	96.117242 
1209.000000	96.025124 
1208.000000	95.925990 
1207.000000	95.824973 
1206.000000	95.726659 
1205.000000	95.628487 
1204.000000	95.524466 
1203.000000	95.412184 
1202.000000	95.295466 
1201.000000	95.182303 
1200.000000	95.079907 
1199.000000	94.989094 
1198.000000	94.903072 
1197.000000	94.813686 
1196.000000	94.718170 
1195.000000	94.618509 
1194.000000	94.516649 
1193.000000	94.413219 
1192.000000	94.309502 
1191.000000	94.207011 
1190.000000	94.105310 
1189.000000	94.002425 
1188.000000	93.896500 
1187.000000	93.785422 
1186.000000	93.667291 
1185.000000	93.543732 
1184.000000	93.419865 
1183.000000	93.298017 
1182.000000	93.174558 
1181.000000	93.046112 
1180.000000	92.914782 
1179.000000	92.782534 
1178.000000	92.644571 
1177.000000	92.495009 
1176.000000	92.336301 
1175.000000	92.176214 
1174.000000	92.017445 
1173.000000	91.857065 
1172.000000	91.694643 
1171.000000	91.533207 
1170.000000	91.373210 
1169.000000	91.213279 
1168.000000	91.056363 
1167.000000	90.907971 
1166.000000	90.770445 
1165.000000	90.648545 
1164.000000	90.559477 
1163.000000	90.525595 
1162.000000	90.554009 
1161.000000	90.629511 
1160.000000	90.726190 
1159.000000	90.817759 
1158.000000	90.879059 
1157.000000	90.891681 
1156.000000	90.853590 
1155.000000	90.776896 
1154.000000	90.673839 
1153.000000	90.550255 
1152.000000	90.412363 
1151.000000	90.270178 
1150.000000	90.130487 
1149.000000	89.993803 
1148.000000	89.860950 
1147.000000	89.734752 
1146.000000	89.612584 
1145.000000	89.485920 
1144.000000	89.351417 
1143.000000	89.215397 
1142.000000	89.083885 
1141.000000	88.955316 
1140.000000	88.826629 
1139.000000	88.699268 
1138.000000	88.574879 
1137.000000	88.450943 
1136.000000	88.324045 
1135.000000	88.192479 
1134.000000	88.054151 
1133.000000	87.908071 
1132.000000	87.759280 
1131.000000	87.615699 
1130.000000	87.478885 
1129.000000	87.344552 
1128.000000	87.212029 
1127.000000	87.084189 
1126.000000	86.957332 
1125.000000	86.821357 
1124.000000	86.672773 
1123.000000	86.518748 
1122.000000	86.365830 
1121.000000	86.213638 
1120.000000	86.062202 
1119.000000	85.915624 
1118.000000	85.774830 
1117.000000	85.635957 
1116.000000	85.499073 
1115.000000	85.369631 
1114.000000	85.248631 
1113.000000	85.130317 
1112.000000	85.011722 
1111.000000	84.894797 
1110.000000	84.777493 
1109.000000	84.653496 
1108.000000	84.522790 
1107.000000	84.392485 
1106.000000	84.266514 
1105.000000	84.143510 
1104.000000	84.023961 
1103.000000	83.909142 
1102.000000	83.793452 
1101.000000	83.670521 
1100.000000	83.545780 
1099.000000	83.430054 
1098.000000	83.324921 
1097.000000	83.223956 
1096.000000	83.127170 
1095.000000	83.038494 
1094.000000	82.951400 
1093.000000	82.853735 
1092.000000	82.747353 
1091.000000	82.647028 
1090.000000	82.559479 
1089.000000	82.478812 
1088.000000	82.402015 
1087.000000	82.331969 
1086.000000	82.265143 
1085.000000	82.194380 
1084.000000	82.125290 
1083.000000	82.072191 
1082.000000	82.035926 
1081.000000	82.002962 
1080.000000	81.967980 
1079.000000	81.939035 
1078.000000	81.918161 
1077.000000	81.895666 
1076.000000	81.867144 
1075.000000	81.837653 
1074.000000	81.804880 
1073.000000	81.755549 
1072.000000	81.682015 
1071.000000	81.585280 
1070.000000	81.458905 
1069.000000	81.289225 
1068.000000	81.077801 
1067.000000	80.847684 
1066.000000	80.620993 
1065.000000	80.403931 
1064.000000	80.197763 
1063.000000	80.005566 
1062.000000	79.820321 
1061.000000	79.624119 
1060.000000	79.409646 
1059.000000	79.190310 
1058.000000	78.982819 
1057.000000	78.791924 
1056.000000	78.616292 
1055.000000	78.454252 
1054.000000	78.298287 
1053.000000	78.138367 
1052.000000	77.976466 
1051.000000	77.823831 
1050.000000	77.679906 
1049.000000	77.530388 
1048.000000	77.368901 
1047.000000	77.202048 
1046.000000	77.031951 
1045.000000	76.853323 
1044.000000	76.668590 
1043.000000	76.486907 
1042.000000	76.306491 
1041.000000	76.115989 
1040.000000	75.915992 
1039.000000	75.722061 
1038.000000	75.544689 
1037.000000	75.383582 
1036.000000	75.241864 
1035.000000	75.126131 
1034.000000	75.030819 
1033.000000	74.941599 
1032.000000	74.855088 
1031.000000	74.776418 
1030.000000	74.699889 
1029.000000	74.615707 
1028.000000	74.535490 
1027.000000	74.484923 
1026.000000	74.467856 
1025.000000	74.461094 
1024.000000	74.447556 
1023.000000	74.430581 
1022.000000	74.412076 
1021.000000	74.383038 
1020.000000	74.342803 
1019.000000	74.304452 
1018.000000	74.273929 
1017.000000	74.244431 
1016.000000	74.216294 
1015.000000	74.200609 
1014.000000	74.197646 
1013.000000	74.193356 
1012.000000	74.182992 
1011.000000	74.177393 
1010.000000	74.180733 
1009.000000	74.183449 
1008.000000	74.183125 
1007.000000	74.191835 
1006.000000	74.216432 
1005.000000	74.250398 
1004.000000	74.289885 
1003.000000	74.338964 
1002.000000	74.395103 
1001.000000	74.449017 
1000.000000	74.502943 
999.000000	 74.569828 
998.000000	 74.651095 
997.000000	 74.734504 
996.000000	 74.816601 
995.000000	 74.906972 
994.000000	 75.007031 
993.000000	 75.105561 
992.000000	 75.199526 
991.000000	 75.299373 
990.000000	 75.409609 
989.000000	 75.523555 
988.000000	 75.640654 
987.000000	 75.769210 
986.000000	 75.908453 
985.000000	 76.048119 
984.000000	 76.189834 
983.000000	 76.348716 
982.000000	 76.529497 
981.000000	 76.720238 
980.000000	 76.913434 
979.000000	 77.114488 
978.000000	 77.325185 
977.000000	 77.538328 
976.000000	 77.753581 
975.000000	 77.980121 
974.000000	 78.218652 
973.000000	 78.458329 
972.000000	 78.695959 
971.000000	 78.941268 
970.000000	 79.198662 
969.000000	 79.459715 
968.000000	 79.717368 
967.000000	 79.972428 
966.000000	 80.223680 
965.000000	 80.467368 
964.000000	 80.708621 
963.000000	 80.957440 
962.000000	 81.210989 
961.000000	 81.455381 
960.000000	 81.686670 
959.000000	 81.914145 
958.000000	 82.141349 
957.000000	 82.360520 
956.000000	 82.568804 
955.000000	 82.774020 
954.000000	 82.980616 
953.000000	 83.184029 
952.000000	 83.381686 
951.000000	 83.575563 
950.000000	 83.762050 
949.000000	 83.933646 
948.000000	 84.092818 
947.000000	 84.250616 
946.000000	 84.409827 
945.000000	 84.562882 
944.000000	 84.707310 
943.000000	 84.848774 
942.000000	 84.987836 
941.000000	 85.118587 
940.000000	 85.242344 
939.000000	 85.368601 
938.000000	 85.500435 
937.000000	 85.632480 
936.000000	 85.764382 
935.000000	 85.901792 
934.000000	 86.042951 
933.000000	 86.179272 
932.000000	 86.310618 
931.000000	 86.445065 
930.000000	 86.581961 
929.000000	 86.710901 
928.000000	 86.830209 
927.000000	 86.950738 
926.000000	 87.077355 
925.000000	 87.200851 
924.000000	 87.312579 
923.000000	 87.414544 
922.000000	 87.511585 
921.000000	 87.605792 
920.000000	 87.702014 
919.000000	 87.806805 
918.000000	 87.917695 
917.000000	 88.023675 
916.000000	 88.119535 
915.000000	 88.210942 
914.000000	 88.304718 
913.000000	 88.404237 
912.000000	 88.514650 
911.000000	 88.641543 
910.000000	 88.783465 
909.000000	 88.935808 
908.000000	 89.100768 
907.000000	 89.281952 
906.000000	 89.471662 
905.000000	 89.657549 
904.000000	 89.840642 
903.000000	 90.032439 
902.000000	 90.234631 
901.000000	 90.436342 
900.000000	 90.631908 
899.000000	 90.826973 
898.000000	 91.025418 
897.000000	 91.222896 
896.000000	 91.414959 
895.000000	 91.599774 
894.000000	 91.772543 
893.000000	 91.929114 
892.000000	 92.075142 
891.000000	 92.219581 
890.000000	 92.358011 
889.000000	 92.472451 
888.000000	 92.546880 
887.000000	 92.573936 
886.000000	 92.551780 
885.000000	 92.488542 
884.000000	 92.406823 
883.000000	 92.327484 
882.000000	 92.249200 
881.000000	 92.159869 
880.000000	 92.066711 
879.000000	 91.995623 
878.000000	 91.960965 
877.000000	 91.959260 
876.000000	 91.996102 
875.000000	 92.093860 
874.000000	 92.264064 
873.000000	 92.494064 
872.000000	 92.768813 
871.000000	 93.083865 
870.000000	 93.427016 
869.000000	 93.767920 
868.000000	 94.079446 
867.000000	 94.356514 
866.000000	 94.605920 
865.000000	 94.831460 
864.000000	 95.038102 
863.000000	 95.238139 
862.000000	 95.440625 
861.000000	 95.640461 
860.000000	 95.825955 
859.000000	 95.991959 
858.000000	 96.140639 
857.000000	 96.276122 
856.000000	 96.403824 
855.000000	 96.528805 
854.000000	 96.648925 
853.000000	 96.754104 
852.000000	 96.836729 
851.000000	 96.899956 
850.000000	 96.955237 
849.000000	 97.016401 
848.000000	 97.094636 
847.000000	 97.190429 
846.000000	 97.289307 
845.000000	 97.373854 
844.000000	 97.440491 
843.000000	 97.496675 
842.000000	 97.543823 
841.000000	 97.574874 
840.000000	 97.588830 
839.000000	 97.594431 
838.000000	 97.596533 
837.000000	 97.591606 
836.000000	 97.581223 
835.000000	 97.577471 
834.000000	 97.587780 
833.000000	 97.604436 
832.000000	 97.616934 
831.000000	 97.626585 
830.000000	 97.641732 
829.000000	 97.665382 
828.000000	 97.694726 
827.000000	 97.727131 
826.000000	 97.760289 
825.000000	 97.791385 
824.000000	 97.819896 
823.000000	 97.844954 
822.000000	 97.859080 
821.000000	 97.854003 
820.000000	 97.833051 
819.000000	 97.806227 
818.000000	 97.770852 
817.000000	 97.707788 
816.000000	 97.600903 
815.000000	 97.451851 
814.000000	 97.270622 
813.000000	 97.057469 
812.000000	 96.798502 
811.000000	 96.472986 
810.000000	 96.060746 
809.000000	 95.549542 
808.000000	 94.942588 
807.000000	 94.257112 
806.000000	 93.513594 
805.000000	 92.732121 
804.000000	 91.941614 
803.000000	 91.181896 
802.000000	 90.488956 
801.000000	 89.885952 
800.000000	 89.391872 
799.000000	 89.024676 
798.000000	 88.788331 
797.000000	 88.668904 
796.000000	 88.648325 
795.000000	 88.709204 
794.000000	 88.824974 
793.000000	 88.963167 
792.000000	 89.103381 
791.000000	 89.238271 
790.000000	 89.355471 
789.000000	 89.433412 
788.000000	 89.455862 
787.000000	 89.415809 
786.000000	 89.305758 
785.000000	 89.121222 
784.000000	 88.875502 
783.000000	 88.594920 
782.000000	 88.298164 
781.000000	 87.998077 
780.000000	 87.724589 
779.000000	 87.523457 
778.000000	 87.425542 
777.000000	 87.434703 
776.000000	 87.546612 
775.000000	 87.754532 
774.000000	 88.031303 
773.000000	 88.332411 
772.000000	 88.629413 
771.000000	 88.922673 
770.000000	 89.215128 
769.000000	 89.494013 
768.000000	 89.745534 
767.000000	 89.967487 
766.000000	 90.159570 
765.000000	 90.320853 
764.000000	 90.465822 
763.000000	 90.623364 
762.000000	 90.807639 
761.000000	 91.004404 
760.000000	 91.194694 
759.000000	 91.376098 
758.000000	 91.552638 
757.000000	 91.722574 
756.000000	 91.888930 
755.000000	 92.065705 
754.000000	 92.258089 
753.000000	 92.447637 
752.000000	 92.610166 
751.000000	 92.739755 
750.000000	 92.846781 
749.000000	 92.942896 
748.000000	 93.037915 
747.000000	 93.141755 
746.000000	 93.258013 
745.000000	 93.381827 
744.000000	 93.511841 
743.000000	 93.656684 
742.000000	 93.822183 
741.000000	 94.000011 
740.000000	 94.176067 
739.000000	 94.342731 
738.000000	 94.496876 
737.000000	 94.633536 
736.000000	 94.749162 
735.000000	 94.846850 
734.000000	 94.933847 
733.000000	 95.017480 
732.000000	 95.104151 
731.000000	 95.194865 
730.000000	 95.279699 
729.000000	 95.344198 
728.000000	 95.383858 
727.000000	 95.408120 
726.000000	 95.432075 
725.000000	 95.470194 
724.000000	 95.534467 
723.000000	 95.627531 
722.000000	 95.735967 
721.000000	 95.838034 
720.000000	 95.919206 
719.000000	 95.975086 
718.000000	 96.003263 
717.000000	 96.004024 
716.000000	 95.988048 
715.000000	 95.971902 
714.000000	 95.966958 
713.000000	 95.984166 
712.000000	 96.044225 
711.000000	 96.162590 
710.000000	 96.322083 
709.000000	 96.478831 
708.000000	 96.600043 
707.000000	 96.681310 
706.000000	 96.726863 
705.000000	 96.732148 
704.000000	 96.691666 
703.000000	 96.606130 
702.000000	 96.469408 
701.000000	 96.260917 
700.000000	 95.963343 
699.000000	 95.582220 
698.000000	 95.147995 
697.000000	 94.712944 
696.000000	 94.348485 
695.000000	 94.124920 
694.000000	 94.075743 
693.000000	 94.183849 
692.000000	 94.402947 
691.000000	 94.682239 
690.000000	 94.974674 
689.000000	 95.242465 
688.000000	 95.469202 
687.000000	 95.661105 
686.000000	 95.828325 
685.000000	 95.973778 
684.000000	 96.101486 
683.000000	 96.218790 
682.000000	 96.326267 
681.000000	 96.419620 
680.000000	 96.503887 
679.000000	 96.590741 
678.000000	 96.679513 
677.000000	 96.760710 
676.000000	 96.839889 
675.000000	 96.932126 
674.000000	 97.031985 
673.000000	 97.111703 
672.000000	 97.152038 
671.000000	 97.156320 
670.000000	 97.142763 
669.000000	 97.141270 
668.000000	 97.187303 
667.000000	 97.300603 
666.000000	 97.441568 
665.000000	 97.543995 
664.000000	 97.599376 
663.000000	 97.639609 
662.000000	 97.694815 
661.000000	 97.759675 
660.000000	 97.811749 
659.000000	 97.843818 
658.000000	 97.863997 
657.000000	 97.879388 
656.000000	 97.890969 
655.000000	 97.891362 
654.000000	 97.865061 
653.000000	 97.806275 
652.000000	 97.740455 
651.000000	 97.714048 
650.000000	 97.744646 

