4000.000000	96.373048 
3999.000000	96.371844 
3998.000000	96.369039 
3997.000000	96.365574 
3996.000000	96.362795 
3995.000000	96.361534 
3994.000000	96.361776 
3993.000000	96.362724 
3992.000000	96.363259 
3991.000000	96.362724 
3990.000000	96.361508 
3989.000000	96.360684 
3988.000000	96.360838 
3987.000000	96.361643 
3986.000000	96.362596 
3985.000000	96.363696 
3984.000000	96.365033 
3983.000000	96.366217 
3982.000000	96.366919 
3981.000000	96.367490 
3980.000000	96.368304 
3979.000000	96.368886 
3978.000000	96.368489 
3977.000000	96.367311 
3976.000000	96.366397 
3975.000000	96.366172 
3974.000000	96.365901 
3973.000000	96.364770 
3972.000000	96.362745 
3971.000000	96.360347 
3970.000000	96.358114 
3969.000000	96.356632 
3968.000000	96.356443 
3967.000000	96.357503 
3966.000000	96.359076 
3965.000000	96.360207 
3964.000000	96.360179 
3963.000000	96.358761 
3962.000000	96.356412 
3961.000000	96.354165 
3960.000000	96.352835 
3959.000000	96.352414 
3958.000000	96.352384 
3957.000000	96.352552 
3956.000000	96.352989 
3955.000000	96.353338 
3954.000000	96.353016 
3953.000000	96.351799 
3952.000000	96.349972 
3951.000000	96.347803 
3950.000000	96.345335 
3949.000000	96.342841 
3948.000000	96.340899 
3947.000000	96.340003 
3946.000000	96.340248 
3945.000000	96.341267 
3944.000000	96.342190 
3943.000000	96.342218 
3942.000000	96.341696 
3941.000000	96.341813 
3940.000000	96.343188 
3939.000000	96.345214 
3938.000000	96.346659 
3937.000000	96.346935 
3936.000000	96.346178 
3935.000000	96.344269 
3934.000000	96.341079 
3933.000000	96.337382 
3932.000000	96.334856 
3931.000000	96.334133 
3930.000000	96.334272 
3929.000000	96.334737 
3928.000000	96.336134 
3927.000000	96.338691 
3926.000000	96.340744 
3925.000000	96.340334 
3924.000000	96.338076 
3923.000000	96.335997 
3922.000000	96.334332 
3921.000000	96.332051 
3920.000000	96.329379 
3919.000000	96.328061 
3918.000000	96.328604 
3917.000000	96.329595 
3916.000000	96.330109 
3915.000000	96.330894 
3914.000000	96.332523 
3913.000000	96.334363 
3912.000000	96.335676 
3911.000000	96.336892 
3910.000000	96.338286 
3909.000000	96.339408 
3908.000000	96.339728 
3907.000000	96.338832 
3906.000000	96.336213 
3905.000000	96.330891 
3904.000000	96.323202 
3903.000000	96.315843 
3902.000000	96.311610 
3901.000000	96.311078 
3900.000000	96.312821 
3899.000000	96.315249 
3898.000000	96.317903 
3897.000000	96.320379 
3896.000000	96.321831 
3895.000000	96.322217 
3894.000000	96.322258 
3893.000000	96.322503 
3892.000000	96.322236 
3891.000000	96.320568 
3890.000000	96.318019 
3889.000000	96.315888 
3888.000000	96.314793 
3887.000000	96.314192 
3886.000000	96.313659 
3885.000000	96.313542 
3884.000000	96.313834 
3883.000000	96.313603 
3882.000000	96.312266 
3881.000000	96.310538 
3880.000000	96.309696 
3879.000000	96.309924 
3878.000000	96.310504 
3877.000000	96.311008 
3876.000000	96.311510 
3875.000000	96.311871 
3874.000000	96.311751 
3873.000000	96.311153 
3872.000000	96.310309 
3871.000000	96.309218 
3870.000000	96.308002 
3869.000000	96.307327 
3868.000000	96.307469 
3867.000000	96.307903 
3866.000000	96.307917 
3865.000000	96.307521 
3864.000000	96.307411 
3863.000000	96.307848 
3862.000000	96.308231 
3861.000000	96.308323 
3860.000000	96.308588 
3859.000000	96.309312 
3858.000000	96.310077 
3857.000000	96.310328 
3856.000000	96.309979 
3855.000000	96.308928 
3854.000000	96.306828 
3853.000000	96.304624 
3852.000000	96.303745 
3851.000000	96.304243 
3850.000000	96.305179 
3849.000000	96.306110 
3848.000000	96.307408 
3847.000000	96.309372 
3846.000000	96.311331 
3845.000000	96.312390 
3844.000000	96.312415 
3843.000000	96.311822 
3842.000000	96.311013 
3841.000000	96.310302 
3840.000000	96.309701 
3839.000000	96.309439 
3838.000000	96.309929 
3837.000000	96.310963 
3836.000000	96.311921 
3835.000000	96.312499 
3834.000000	96.312921 
3833.000000	96.313495 
3832.000000	96.314221 
3831.000000	96.315012 
3830.000000	96.315824 
3829.000000	96.316660 
3828.000000	96.317672 
3827.000000	96.318902 
3826.000000	96.320003 
3825.000000	96.320783 
3824.000000	96.321224 
3823.000000	96.321247 
3822.000000	96.320698 
3821.000000	96.319876 
3820.000000	96.319515 
3819.000000	96.319598 
3818.000000	96.319546 
3817.000000	96.319134 
3816.000000	96.319193 
3815.000000	96.320680 
3814.000000	96.323155 
3813.000000	96.325063 
3812.000000	96.325684 
3811.000000	96.325909 
3810.000000	96.326922 
3809.000000	96.328554 
3808.000000	96.329426 
3807.000000	96.328842 
3806.000000	96.327626 
3805.000000	96.326842 
3804.000000	96.326383 
3803.000000	96.325797 
3802.000000	96.325141 
3801.000000	96.325399 
3800.000000	96.326930 
3799.000000	96.328070 
3798.000000	96.327455 
3797.000000	96.326232 
3796.000000	96.326893 
3795.000000	96.330072 
3794.000000	96.333632 
3793.000000	96.335278 
3792.000000	96.335333 
3791.000000	96.335962 
3790.000000	96.337823 
3789.000000	96.339247 
3788.000000	96.339077 
3787.000000	96.338250 
3786.000000	96.338096 
3785.000000	96.338372 
3784.000000	96.338107 
3783.000000	96.337428 
3782.000000	96.336598 
3781.000000	96.335045 
3780.000000	96.332673 
3779.000000	96.331352 
3778.000000	96.332605 
3777.000000	96.335452 
3776.000000	96.337346 
3775.000000	96.336970 
3774.000000	96.335283 
3773.000000	96.333766 
3772.000000	96.332034 
3771.000000	96.328290 
3770.000000	96.322886 
3769.000000	96.319027 
3768.000000	96.318002 
3767.000000	96.317575 
3766.000000	96.315755 
3765.000000	96.313570 
3764.000000	96.314015 
3763.000000	96.317643 
3762.000000	96.320744 
3761.000000	96.319579 
3760.000000	96.315045 
3759.000000	96.311688 
3758.000000	96.309125 
3757.000000	96.303449 
3756.000000	96.295207 
3755.000000	96.287728 
3754.000000	96.281120 
3753.000000	96.271877 
3752.000000	96.260838 
3751.000000	96.253922 
3750.000000	96.250297 
3749.000000	96.243870 
3748.000000	96.236325 
3747.000000	96.234249 
3746.000000	96.236694 
3745.000000	96.234838 
3744.000000	96.233949 
3743.000000	96.242957 
3742.000000	96.252183 
3741.000000	96.248325 
3740.000000	96.234073 
3739.000000	96.226614 
3738.000000	96.234699 
3737.000000	96.245022 
3736.000000	96.243016 
3735.000000	96.233827 
3734.000000	96.230540 
3733.000000	96.232819 
3732.000000	96.234822 
3731.000000	96.237989 
3730.000000	96.244478 
3729.000000	96.250611 
3728.000000	96.251637 
3727.000000	96.248210 
3726.000000	96.246513 
3725.000000	96.249092 
3724.000000	96.251749 
3723.000000	96.251384 
3722.000000	96.250700 
3721.000000	96.252431 
3720.000000	96.253188 
3719.000000	96.250432 
3718.000000	96.244763 
3717.000000	96.237384 
3716.000000	96.229591 
3715.000000	96.219813 
3714.000000	96.205474 
3713.000000	96.187086 
3712.000000	96.168420 
3711.000000	96.152268 
3710.000000	96.136714 
3709.000000	96.120224 
3708.000000	96.103675 
3707.000000	96.087233 
3706.000000	96.070869 
3705.000000	96.055190 
3704.000000	96.039774 
3703.000000	96.022293 
3702.000000	95.999123 
3701.000000	95.969297 
3700.000000	95.936342 
3699.000000	95.906491 
3698.000000	95.884530 
3697.000000	95.870863 
3696.000000	95.864985 
3695.000000	95.865308 
3694.000000	95.866685 
3693.000000	95.864167 
3692.000000	95.857678 
3691.000000	95.849650 
3690.000000	95.838793 
3689.000000	95.824856 
3688.000000	95.813861 
3687.000000	95.810406 
3686.000000	95.811575 
3685.000000	95.810437 
3684.000000	95.803862 
3683.000000	95.796635 
3682.000000	95.793232 
3681.000000	95.787267 
3680.000000	95.768023 
3679.000000	95.734267 
3678.000000	95.696703 
3677.000000	95.661697 
3676.000000	95.625789 
3675.000000	95.591778 
3674.000000	95.562489 
3673.000000	95.532769 
3672.000000	95.498169 
3671.000000	95.463835 
3670.000000	95.440307 
3669.000000	95.428596 
3668.000000	95.415088 
3667.000000	95.389946 
3666.000000	95.359117 
3665.000000	95.332527 
3664.000000	95.311415 
3663.000000	95.290293 
3662.000000	95.263070 
3661.000000	95.226901 
3660.000000	95.184153 
3659.000000	95.139568 
3658.000000	95.098392 
3657.000000	95.061511 
3656.000000	95.026153 
3655.000000	94.989063 
3654.000000	94.946791 
3653.000000	94.898392 
3652.000000	94.846554 
3651.000000	94.797582 
3650.000000	94.759101 
3649.000000	94.732922 
3648.000000	94.713147 
3647.000000	94.694446 
3646.000000	94.676402 
3645.000000	94.659243 
3644.000000	94.641966 
3643.000000	94.624694 
3642.000000	94.607711 
3641.000000	94.589540 
3640.000000	94.566819 
3639.000000	94.536247 
3638.000000	94.499016 
3637.000000	94.460449 
3636.000000	94.424910 
3635.000000	94.390299 
3634.000000	94.350419 
3633.000000	94.302649 
3632.000000	94.251130 
3631.000000	94.204416 
3630.000000	94.171300 
3629.000000	94.157792 
3628.000000	94.157413 
3627.000000	94.151842 
3626.000000	94.130315 
3625.000000	94.099723 
3624.000000	94.073393 
3623.000000	94.058230 
3622.000000	94.052215 
3621.000000	94.050624 
3620.000000	94.052622 
3619.000000	94.060240 
3618.000000	94.071263 
3617.000000	94.081688 
3616.000000	94.094436 
3615.000000	94.115487 
3614.000000	94.144820 
3613.000000	94.175523 
3612.000000	94.200129 
3611.000000	94.216391 
3610.000000	94.229666 
3609.000000	94.248503 
3608.000000	94.275852 
3607.000000	94.306120 
3606.000000	94.331145 
3605.000000	94.350044 
3604.000000	94.369193 
3603.000000	94.393534 
3602.000000	94.420884 
3601.000000	94.443854 
3600.000000	94.457686 
3599.000000	94.463636 
3598.000000	94.466845 
3597.000000	94.472698 
3596.000000	94.486175 
3595.000000	94.506238 
3594.000000	94.525766 
3593.000000	94.537275 
3592.000000	94.538122 
3591.000000	94.531667 
3590.000000	94.525682 
3589.000000	94.527879 
3588.000000	94.541397 
3587.000000	94.562083 
3586.000000	94.581111 
3585.000000	94.593038 
3584.000000	94.600377 
3583.000000	94.608841 
3582.000000	94.621300 
3581.000000	94.634791 
3580.000000	94.643931 
3579.000000	94.645881 
3578.000000	94.642550 
3577.000000	94.638517 
3576.000000	94.637402 
3575.000000	94.639662 
3574.000000	94.642316 
3573.000000	94.641585 
3572.000000	94.635023 
3571.000000	94.622896 
3570.000000	94.608321 
3569.000000	94.596113 
3568.000000	94.590917 
3567.000000	94.594676 
3566.000000	94.603766 
3565.000000	94.611613 
3564.000000	94.615142 
3563.000000	94.616571 
3562.000000	94.619309 
3561.000000	94.624232 
3560.000000	94.629191 
3559.000000	94.631626 
3558.000000	94.630886 
3557.000000	94.628461 
3556.000000	94.626398 
3555.000000	94.625953 
3554.000000	94.626872 
3553.000000	94.627553 
3552.000000	94.626248 
3551.000000	94.621968 
3550.000000	94.615262 
3549.000000	94.608519 
3548.000000	94.604791 
3547.000000	94.605132 
3546.000000	94.607414 
3545.000000	94.608760 
3544.000000	94.609173 
3543.000000	94.610950 
3542.000000	94.615007 
3541.000000	94.619843 
3540.000000	94.623628 
3539.000000	94.625784 
3538.000000	94.626632 
3537.000000	94.626539 
3536.000000	94.625969 
3535.000000	94.625166 
3534.000000	94.624110 
3533.000000	94.622892 
3532.000000	94.622173 
3531.000000	94.622680 
3530.000000	94.624061 
3529.000000	94.624711 
3528.000000	94.623181 
3527.000000	94.619713 
3526.000000	94.616219 
3525.000000	94.614723 
3524.000000	94.615977 
3523.000000	94.619324 
3522.000000	94.623272 
3521.000000	94.626422 
3520.000000	94.628386 
3519.000000	94.629600 
3518.000000	94.630548 
3517.000000	94.631109 
3516.000000	94.630891 
3515.000000	94.629856 
3514.000000	94.628586 
3513.000000	94.627770 
3512.000000	94.627470 
3511.000000	94.627089 
3510.000000	94.626147 
3509.000000	94.624915 
3508.000000	94.624134 
3507.000000	94.624172 
3506.000000	94.624646 
3505.000000	94.624764 
3504.000000	94.624117 
3503.000000	94.622914 
3502.000000	94.621647 
3501.000000	94.620739 
3500.000000	94.620564 
3499.000000	94.621374 
3498.000000	94.622946 
3497.000000	94.624493 
3496.000000	94.624985 
3495.000000	94.623773 
3494.000000	94.621103 
3493.000000	94.618066 
3492.000000	94.615647 
3491.000000	94.613809 
3490.000000	94.611985 
3489.000000	94.610157 
3488.000000	94.608635 
3487.000000	94.606948 
3486.000000	94.604015 
3485.000000	94.599909 
3484.000000	94.596459 
3483.000000	94.595253 
3482.000000	94.595834 
3481.000000	94.596533 
3480.000000	94.596532 
3479.000000	94.596002 
3478.000000	94.594761 
3477.000000	94.592096 
3476.000000	94.587806 
3475.000000	94.582714 
3474.000000	94.577932 
3473.000000	94.574097 
3472.000000	94.571297 
3471.000000	94.569206 
3470.000000	94.567250 
3469.000000	94.565024 
3468.000000	94.562585 
3467.000000	94.560348 
3466.000000	94.558707 
3465.000000	94.557623 
3464.000000	94.556415 
3463.000000	94.553975 
3462.000000	94.549581 
3461.000000	94.543648 
3460.000000	94.537485 
3459.000000	94.532075 
3458.000000	94.527259 
3457.000000	94.522211 
3456.000000	94.516715 
3455.000000	94.511567 
3454.000000	94.507914 
3453.000000	94.506072 
3452.000000	94.505255 
3451.000000	94.504283 
3450.000000	94.502325 
3449.000000	94.499085 
3448.000000	94.494563 
3447.000000	94.488970 
3446.000000	94.482705 
3445.000000	94.476448 
3444.000000	94.471128 
3443.000000	94.467452 
3442.000000	94.465212 
3441.000000	94.463176 
3440.000000	94.460082 
3439.000000	94.455642 
3438.000000	94.450436 
3437.000000	94.445086 
3436.000000	94.440131 
3435.000000	94.436400 
3434.000000	94.434799 
3433.000000	94.435146 
3432.000000	94.435836 
3431.000000	94.435207 
3430.000000	94.432874 
3429.000000	94.429569 
3428.000000	94.425885 
3427.000000	94.421761 
3426.000000	94.417235 
3425.000000	94.413204 
3424.000000	94.410793 
3423.000000	94.409863 
3422.000000	94.408743 
3421.000000	94.405992 
3420.000000	94.402068 
3419.000000	94.398619 
3418.000000	94.396541 
3417.000000	94.395527 
3416.000000	94.395156 
3415.000000	94.395267 
3414.000000	94.395137 
3413.000000	94.393447 
3412.000000	94.389766 
3411.000000	94.385493 
3410.000000	94.382679 
3409.000000	94.382186 
3408.000000	94.383235 
3407.000000	94.384305 
3406.000000	94.384318 
3405.000000	94.383341 
3404.000000	94.382425 
3403.000000	94.382359 
3402.000000	94.382710 
3401.000000	94.382392 
3400.000000	94.381143 
3399.000000	94.379817 
3398.000000	94.379228 
3397.000000	94.379373 
3396.000000	94.379880 
3395.000000	94.380667 
3394.000000	94.381767 
3393.000000	94.382871 
3392.000000	94.383409 
3391.000000	94.383048 
3390.000000	94.382057 
3389.000000	94.381309 
3388.000000	94.381896 
3387.000000	94.384349 
3386.000000	94.388006 
3385.000000	94.391121 
3384.000000	94.392089 
3383.000000	94.390873 
3382.000000	94.389403 
3381.000000	94.390045 
3380.000000	94.393268 
3379.000000	94.397088 
3378.000000	94.399306 
3377.000000	94.400319 
3376.000000	94.402583 
3375.000000	94.407268 
3374.000000	94.412617 
3373.000000	94.416032 
3372.000000	94.417083 
3371.000000	94.417563 
3370.000000	94.419184 
3369.000000	94.422040 
3368.000000	94.425191 
3367.000000	94.427806 
3366.000000	94.429582 
3365.000000	94.430741 
3364.000000	94.431949 
3363.000000	94.433815 
3362.000000	94.436218 
3361.000000	94.438476 
3360.000000	94.440350 
3359.000000	94.442536 
3358.000000	94.445863 
3357.000000	94.450275 
3356.000000	94.454888 
3355.000000	94.458939 
3354.000000	94.462473 
3353.000000	94.466098 
3352.000000	94.470223 
3351.000000	94.474609 
3350.000000	94.478626 
3349.000000	94.481923 
3348.000000	94.484825 
3347.000000	94.488009 
3346.000000	94.491848 
3345.000000	94.496065 
3344.000000	94.499976 
3343.000000	94.503011 
3342.000000	94.505090 
3341.000000	94.506722 
3340.000000	94.508669 
3339.000000	94.511325 
3338.000000	94.514538 
3337.000000	94.517929 
3336.000000	94.521270 
3335.000000	94.524546 
3334.000000	94.527776 
3333.000000	94.530968 
3332.000000	94.534193 
3331.000000	94.537554 
3330.000000	94.541035 
3329.000000	94.544476 
3328.000000	94.547788 
3327.000000	94.551097 
3326.000000	94.554589 
3325.000000	94.558272 
3324.000000	94.561975 
3323.000000	94.565520 
3322.000000	94.568889 
3321.000000	94.572184 
3320.000000	94.575517 
3319.000000	94.578932 
3318.000000	94.582409 
3317.000000	94.585909 
3316.000000	94.589402 
3315.000000	94.592874 
3314.000000	94.596321 
3313.000000	94.599748 
3312.000000	94.603160 
3311.000000	94.606572 
3310.000000	94.609994 
3309.000000	94.613428 
3308.000000	94.616867 
3307.000000	94.620301 
3306.000000	94.623726 
3305.000000	94.627154 
3304.000000	94.630596 
3303.000000	94.634063 
3302.000000	94.637557 
3301.000000	94.641073 
3300.000000	94.644605 
3299.000000	94.648142 
3298.000000	94.651679 
3297.000000	94.655218 
3296.000000	94.658769 
3295.000000	94.662341 
3294.000000	94.665937 
3293.000000	94.669556 
3292.000000	94.673191 
3291.000000	94.676832 
3290.000000	94.680472 
3289.000000	94.684107 
3288.000000	94.687739 
3287.000000	94.691376 
3286.000000	94.695021 
3285.000000	94.698671 
3284.000000	94.702327 
3283.000000	94.706003 
3282.000000	94.709724 
3281.000000	94.713503 
3280.000000	94.717319 
3279.000000	94.721124 
3278.000000	94.724892 
3277.000000	94.728649 
3276.000000	94.732461 
3275.000000	94.736361 
3274.000000	94.740318 
3273.000000	94.744289 
3272.000000	94.748273 
3271.000000	94.752287 
3270.000000	94.756327 
3269.000000	94.760370 
3268.000000	94.764398 
3267.000000	94.768413 
3266.000000	94.772440 
3265.000000	94.776514 
3264.000000	94.780652 
3263.000000	94.784846 
3262.000000	94.789061 
3261.000000	94.793265 
3260.000000	94.797451 
3259.000000	94.801630 
3258.000000	94.805821 
3257.000000	94.810043 
3256.000000	94.814315 
3255.000000	94.818641 
3254.000000	94.822995 
3253.000000	94.827343 
3252.000000	94.831679 
3251.000000	94.836025 
3250.000000	94.840395 
3249.000000	94.844780 
3248.000000	94.849166 
3247.000000	94.853566 
3246.000000	94.858005 
3245.000000	94.862495 
3244.000000	94.867016 
3243.000000	94.871536 
3242.000000	94.876034 
3241.000000	94.880510 
3240.000000	94.884987 
3239.000000	94.889498 
3238.000000	94.894082 
3237.000000	94.898764 
3236.000000	94.903536 
3235.000000	94.908346 
3234.000000	94.913121 
3233.000000	94.917834 
3232.000000	94.922489 
3231.000000	94.927119 
3230.000000	94.931773 
3229.000000	94.936476 
3228.000000	94.941230 
3227.000000	94.946014 
3226.000000	94.950820 
3225.000000	94.955667 
3224.000000	94.960557 
3223.000000	94.965463 
3222.000000	94.970356 
3221.000000	94.975233 
3220.000000	94.980111 
3219.000000	94.984993 
3218.000000	94.989873 
3217.000000	94.994759 
3216.000000	94.999675 
3215.000000	95.004629 
3214.000000	95.009615 
3213.000000	95.014622 
3212.000000	95.019638 
3211.000000	95.024658 
3210.000000	95.029679 
3209.000000	95.034710 
3208.000000	95.039765 
3207.000000	95.044847 
3206.000000	95.049945 
3205.000000	95.055040 
3204.000000	95.060134 
3203.000000	95.065245 
3202.000000	95.070385 
3201.000000	95.075544 
3200.000000	95.080705 
3199.000000	95.085869 
3198.000000	95.091047 
3197.000000	95.096238 
3196.000000	95.101419 
3195.000000	95.106560 
3194.000000	95.111652 
3193.000000	95.116739 
3192.000000	95.121892 
3191.000000	95.127118 
3190.000000	95.132315 
3189.000000	95.137361 
3188.000000	95.142233 
3187.000000	95.147066 
3186.000000	95.152061 
3185.000000	95.157322 
3184.000000	95.162770 
3183.000000	95.168182 
3182.000000	95.173422 
3181.000000	95.178535 
3180.000000	95.183616 
3179.000000	95.188630 
3178.000000	95.193483 
3177.000000	95.198265 
3176.000000	95.203261 
3175.000000	95.208676 
3174.000000	95.214448 
3173.000000	95.220284 
3172.000000	95.225848 
3171.000000	95.230915 
3170.000000	95.235495 
3169.000000	95.239852 
3168.000000	95.244276 
3167.000000	95.248836 
3166.000000	95.253454 
3165.000000	95.258120 
3164.000000	95.262843 
3163.000000	95.267474 
3162.000000	95.271824 
3161.000000	95.275981 
3160.000000	95.280311 
3159.000000	95.285094 
3158.000000	95.290284 
3157.000000	95.295646 
3156.000000	95.300951 
3155.000000	95.306006 
3154.000000	95.310677 
3153.000000	95.315008 
3152.000000	95.319226 
3151.000000	95.323486 
3150.000000	95.327720 
3149.000000	95.331797 
3148.000000	95.335731 
3147.000000	95.339700 
3146.000000	95.343935 
3145.000000	95.348577 
3144.000000	95.353534 
3143.000000	95.358424 
3142.000000	95.362843 
3141.000000	95.366782 
3140.000000	95.370682 
3139.000000	95.375013 
3138.000000	95.379830 
3137.000000	95.384778 
3136.000000	95.389402 
3135.000000	95.393445 
3134.000000	95.396969 
3133.000000	95.400328 
3132.000000	95.403898 
3131.000000	95.407763 
3130.000000	95.411794 
3129.000000	95.416008 
3128.000000	95.420609 
3127.000000	95.425664 
3126.000000	95.430885 
3125.000000	95.435856 
3124.000000	95.440349 
3123.000000	95.444354 
3122.000000	95.447958 
3121.000000	95.451384 
3120.000000	95.454976 
3119.000000	95.458944 
3118.000000	95.463183 
3117.000000	95.467460 
3116.000000	95.471633 
3115.000000	95.475590 
3114.000000	95.479220 
3113.000000	95.482669 
3112.000000	95.486513 
3111.000000	95.491336 
3110.000000	95.497071 
3109.000000	95.502854 
3108.000000	95.507755 
3107.000000	95.511628 
3106.000000	95.515096 
3105.000000	95.518692 
3104.000000	95.522154 
3103.000000	95.524834 
3102.000000	95.526599 
3101.000000	95.528072 
3100.000000	95.529941 
3099.000000	95.532364 
3098.000000	95.535332 
3097.000000	95.539226 
3096.000000	95.544394 
3095.000000	95.550279 
3094.000000	95.555649 
3093.000000	95.559775 
3092.000000	95.562940 
3091.000000	95.565674 
3090.000000	95.568064 
3089.000000	95.570062 
3088.000000	95.571927 
3087.000000	95.574067 
3086.000000	95.576739 
3085.000000	95.579998 
3084.000000	95.583582 
3083.000000	95.586856 
3082.000000	95.589344 
3081.000000	95.591416 
3080.000000	95.593966 
3079.000000	95.597197 
3078.000000	95.600430 
3077.000000	95.603353 
3076.000000	95.606679 
3075.000000	95.610841 
3074.000000	95.614848 
3073.000000	95.617449 
3072.000000	95.618934 
3071.000000	95.620685 
3070.000000	95.623202 
3069.000000	95.625764 
3068.000000	95.627934 
3067.000000	95.630133 
3066.000000	95.632561 
3065.000000	95.634711 
3064.000000	95.636239 
3063.000000	95.637383 
3062.000000	95.638273 
3061.000000	95.638722 
3060.000000	95.638954 
3059.000000	95.639833 
3058.000000	95.642198 
3057.000000	95.646342 
3056.000000	95.651868 
3055.000000	95.657286 
3054.000000	95.660288 
3053.000000	95.659760 
3052.000000	95.657652 
3051.000000	95.657619 
3050.000000	95.661096 
3049.000000	95.665744 
3048.000000	95.668188 
3047.000000	95.667301 
3046.000000	95.664325 
3045.000000	95.661109 
3044.000000	95.659273 
3043.000000	95.660347 
3042.000000	95.665132 
3041.000000	95.672368 
3040.000000	95.678702 
3039.000000	95.680920 
3038.000000	95.678403 
3037.000000	95.673463 
3036.000000	95.669223 
3035.000000	95.666892 
3034.000000	95.665344 
3033.000000	95.663146 
3032.000000	95.660249 
3031.000000	95.657562 
3030.000000	95.655664 
3029.000000	95.654339 
3028.000000	95.652710 
3027.000000	95.649371 
3026.000000	95.643224 
3025.000000	95.635076 
3024.000000	95.627839 
3023.000000	95.624007 
3022.000000	95.623201 
3021.000000	95.623239 
3020.000000	95.623066 
3019.000000	95.623196 
3018.000000	95.623383 
3017.000000	95.621699 
3016.000000	95.616670 
3015.000000	95.609186 
3014.000000	95.601743 
3013.000000	95.596401 
3012.000000	95.593518 
3011.000000	95.591537 
3010.000000	95.587858 
3009.000000	95.580916 
3008.000000	95.571693 
3007.000000	95.562589 
3006.000000	95.554725 
3005.000000	95.547286 
3004.000000	95.539532 
3003.000000	95.532277 
3002.000000	95.527024 
3001.000000	95.524457 
3000.000000	95.523870 
2999.000000	95.523182 
2998.000000	95.519652 
2997.000000	95.511980 
2996.000000	95.502014 
2995.000000	95.493219 
2994.000000	95.486950 
2993.000000	95.481187 
2992.000000	95.473174 
2991.000000	95.462427 
2990.000000	95.450942 
2989.000000	95.441565 
2988.000000	95.436576 
2987.000000	95.436733 
2986.000000	95.440907 
2985.000000	95.447180 
2984.000000	95.454494 
2983.000000	95.462584 
2982.000000	95.470468 
2981.000000	95.476255 
2980.000000	95.478765 
2979.000000	95.478246 
2978.000000	95.475277 
2977.000000	95.470402 
2976.000000	95.465354 
2975.000000	95.463106 
2974.000000	95.465482 
2973.000000	95.471536 
2972.000000	95.478888 
2971.000000	95.485866 
2970.000000	95.491736 
2969.000000	95.496176 
2968.000000	95.499762 
2967.000000	95.504187 
2966.000000	95.510757 
2965.000000	95.519022 
2964.000000	95.527605 
2963.000000	95.535711 
2962.000000	95.543033 
2961.000000	95.548997 
2960.000000	95.553422 
2959.000000	95.557607 
2958.000000	95.563560 
2957.000000	95.572007 
2956.000000	95.581719 
2955.000000	95.590614 
2954.000000	95.597151 
2953.000000	95.601240 
2952.000000	95.604505 
2951.000000	95.609198 
2950.000000	95.615830 
2949.000000	95.622163 
2948.000000	95.625441 
2947.000000	95.625252 
2946.000000	95.623545 
2945.000000	95.622296 
2944.000000	95.622153 
2943.000000	95.623043 
2942.000000	95.624593 
2941.000000	95.625723 
2940.000000	95.625175 
2939.000000	95.623199 
2938.000000	95.621917 
2937.000000	95.623316 
2936.000000	95.627177 
2935.000000	95.631354 
2934.000000	95.633684 
2933.000000	95.633336 
2932.000000	95.630913 
2931.000000	95.627941 
2930.000000	95.626072 
2929.000000	95.626149 
2928.000000	95.627743 
2927.000000	95.629618 
2926.000000	95.630724 
2925.000000	95.631014 
2924.000000	95.631534 
2923.000000	95.633635 
2922.000000	95.637731 
2921.000000	95.642759 
2920.000000	95.647212 
2919.000000	95.650731 
2918.000000	95.654123 
2917.000000	95.657603 
2916.000000	95.659754 
2915.000000	95.659036 
2914.000000	95.656117 
2913.000000	95.653845 
2912.000000	95.654516 
2911.000000	95.657655 
2910.000000	95.660903 
2909.000000	95.662747 
2908.000000	95.663883 
2907.000000	95.665759 
2906.000000	95.668368 
2905.000000	95.669856 
2904.000000	95.668476 
2903.000000	95.664672 
2902.000000	95.661726 
2901.000000	95.662972 
2900.000000	95.669137 
2899.000000	95.678162 
2898.000000	95.687117 
2897.000000	95.694566 
2896.000000	95.700485 
2895.000000	95.704858 
2894.000000	95.707620 
2893.000000	95.709861 
2892.000000	95.713583 
2891.000000	95.719463 
2890.000000	95.725778 
2889.000000	95.730534 
2888.000000	95.734015 
2887.000000	95.737970 
2886.000000	95.742726 
2885.000000	95.746738 
2884.000000	95.749302 
2883.000000	95.752083 
2882.000000	95.756967 
2881.000000	95.763524 
2880.000000	95.769901 
2879.000000	95.775641 
2878.000000	95.782102 
2877.000000	95.790032 
2876.000000	95.798112 
2875.000000	95.804459 
2874.000000	95.808673 
2873.000000	95.811778 
2872.000000	95.814849 
2871.000000	95.818317 
2870.000000	95.822156 
2869.000000	95.825972 
2868.000000	95.829096 
2867.000000	95.831313 
2866.000000	95.833504 
2865.000000	95.836997 
2864.000000	95.842276 
2863.000000	95.848863 
2862.000000	95.856353 
2861.000000	95.864713 
2860.000000	95.873339 
2859.000000	95.880824 
2858.000000	95.886412 
2857.000000	95.891209 
2856.000000	95.897103 
2855.000000	95.904459 
2854.000000	95.911609 
2853.000000	95.916794 
2852.000000	95.920033 
2851.000000	95.922921 
2850.000000	95.927030 
2849.000000	95.932755 
2848.000000	95.939341 
2847.000000	95.945574 
2846.000000	95.950592 
2845.000000	95.954413 
2844.000000	95.957815 
2843.000000	95.961646 
2842.000000	95.966243 
2841.000000	95.971391 
2840.000000	95.976514 
2839.000000	95.980877 
2838.000000	95.984018 
2837.000000	95.986222 
2836.000000	95.988370 
2835.000000	95.991199 
2834.000000	95.994871 
2833.000000	95.999349 
2832.000000	96.004718 
2831.000000	96.010728 
2830.000000	96.016282 
2829.000000	96.020026 
2828.000000	96.021623 
2827.000000	96.022267 
2826.000000	96.023852 
2825.000000	96.027494 
2824.000000	96.032711 
2823.000000	96.037750 
2822.000000	96.040889 
2821.000000	96.041693 
2820.000000	96.041170 
2819.000000	96.040747 
2818.000000	96.041126 
2817.000000	96.042216 
2816.000000	96.043878 
2815.000000	96.046247 
2814.000000	96.049273 
2813.000000	96.052340 
2812.000000	96.054620 
2811.000000	96.055794 
2810.000000	96.056325 
2809.000000	96.057109 
2808.000000	96.058867 
2807.000000	96.061823 
2806.000000	96.065730 
2805.000000	96.070020 
2804.000000	96.073926 
2803.000000	96.076727 
2802.000000	96.078199 
2801.000000	96.078918 
2800.000000	96.079934 
2799.000000	96.081840 
2798.000000	96.084256 
2797.000000	96.086340 
2796.000000	96.087706 
2795.000000	96.088679 
2794.000000	96.089825 
2793.000000	96.091410 
2792.000000	96.093350 
2791.000000	96.095445 
2790.000000	96.097512 
2789.000000	96.099401 
2788.000000	96.101049 
2787.000000	96.102540 
2786.000000	96.104040 
2785.000000	96.105669 
2784.000000	96.107408 
2783.000000	96.109157 
2782.000000	96.110853 
2781.000000	96.112526 
2780.000000	96.114247 
2779.000000	96.116049 
2778.000000	96.117896 
2777.000000	96.119698 
2776.000000	96.121368 
2775.000000	96.122880 
2774.000000	96.124284 
2773.000000	96.125662 
2772.000000	96.127066 
2771.000000	96.128519 
2770.000000	96.130051 
2769.000000	96.131702 
2768.000000	96.133477 
2767.000000	96.135293 
2766.000000	96.137022 
2765.000000	96.138582 
2764.000000	96.139987 
2763.000000	96.141303 
2762.000000	96.142551 
2761.000000	96.143717 
2760.000000	96.144844 
2759.000000	96.146070 
2758.000000	96.147501 
2757.000000	96.149069 
2756.000000	96.150553 
2755.000000	96.151799 
2754.000000	96.152896 
2753.000000	96.154078 
2752.000000	96.155457 
2751.000000	96.156936 
2750.000000	96.158404 
2749.000000	96.159877 
2748.000000	96.161344 
2747.000000	96.162584 
2746.000000	96.163387 
2745.000000	96.163870 
2744.000000	96.164446 
2743.000000	96.165384 
2742.000000	96.166596 
2741.000000	96.167830 
2740.000000	96.168943 
2739.000000	96.169954 
2738.000000	96.170899 
2737.000000	96.171782 
2736.000000	96.172646 
2735.000000	96.173587 
2734.000000	96.174652 
2733.000000	96.175793 
2732.000000	96.176932 
2731.000000	96.178038 
2730.000000	96.179135 
2729.000000	96.180237 
2728.000000	96.181326 
2727.000000	96.182364 
2726.000000	96.183333 
2725.000000	96.184256 
2724.000000	96.185170 
2723.000000	96.186097 
2722.000000	96.187036 
2721.000000	96.187983 
2720.000000	96.188939 
2719.000000	96.189905 
2718.000000	96.190885 
2717.000000	96.191875 
2716.000000	96.192869 
2715.000000	96.193864 
2714.000000	96.194857 
2713.000000	96.195855 
2712.000000	96.196862 
2711.000000	96.197875 
2710.000000	96.198874 
2709.000000	96.199845 
2708.000000	96.200795 
2707.000000	96.201760 
2706.000000	96.202795 
2705.000000	96.203933 
2704.000000	96.205123 
2703.000000	96.206203 
2702.000000	96.207030 
2701.000000	96.207648 
2700.000000	96.208345 
2699.000000	96.209410 
2698.000000	96.210849 
2697.000000	96.212318 
2696.000000	96.213392 
2695.000000	96.213948 
2694.000000	96.214285 
2693.000000	96.214849 
2692.000000	96.215758 
2691.000000	96.216697 
2690.000000	96.217315 
2689.000000	96.217638 
2688.000000	96.217910 
2687.000000	96.218144 
2686.000000	96.218139 
2685.000000	96.217983 
2684.000000	96.218176 
2683.000000	96.219100 
2682.000000	96.220585 
2681.000000	96.222163 
2680.000000	96.223560 
2679.000000	96.224805 
2678.000000	96.226048 
2677.000000	96.227446 
2676.000000	96.228929 
2675.000000	96.229891 
2674.000000	96.229531 
2673.000000	96.227860 
2672.000000	96.226081 
2671.000000	96.225412 
2670.000000	96.225793 
2669.000000	96.226334 
2668.000000	96.226733 
2667.000000	96.227425 
2666.000000	96.228327 
2665.000000	96.228373 
2664.000000	96.226810 
2663.000000	96.224318 
2662.000000	96.222388 
2661.000000	96.221724 
2660.000000	96.221807 
2659.000000	96.221778 
2658.000000	96.221290 
2657.000000	96.220533 
2656.000000	96.219806 
2655.000000	96.219145 
2654.000000	96.218239 
2653.000000	96.216788 
2652.000000	96.215088 
2651.000000	96.214101 
2650.000000	96.214609 
2649.000000	96.216362 
2648.000000	96.218199 
2647.000000	96.219030 
2646.000000	96.218521 
2645.000000	96.216917 
2644.000000	96.214707 
2643.000000	96.212529 
2642.000000	96.210988 
2641.000000	96.210256 
2640.000000	96.209998 
2639.000000	96.209861 
2638.000000	96.209928 
2637.000000	96.210447 
2636.000000	96.211356 
2635.000000	96.212343 
2634.000000	96.213212 
2633.000000	96.213864 
2632.000000	96.214035 
2631.000000	96.213454 
2630.000000	96.212357 
2629.000000	96.211489 
2628.000000	96.211392 
2627.000000	96.211888 
2626.000000	96.212446 
2625.000000	96.212872 
2624.000000	96.213378 
2623.000000	96.214077 
2622.000000	96.214656 
2621.000000	96.214607 
2620.000000	96.213640 
2619.000000	96.211880 
2618.000000	96.209919 
2617.000000	96.208595 
2616.000000	96.208426 
2615.000000	96.209220 
2614.000000	96.210227 
2613.000000	96.210866 
2612.000000	96.211217 
2611.000000	96.211722 
2610.000000	96.212602 
2609.000000	96.213646 
2608.000000	96.214448 
2607.000000	96.214753 
2606.000000	96.214665 
2605.000000	96.214551 
2604.000000	96.214685 
2603.000000	96.215031 
2602.000000	96.215431 
2601.000000	96.215886 
2600.000000	96.216482 
2599.000000	96.217118 
2598.000000	96.217532 
2597.000000	96.217626 
2596.000000	96.217546 
2595.000000	96.217474 
2594.000000	96.217462 
2593.000000	96.217524 
2592.000000	96.217773 
2591.000000	96.218303 
2590.000000	96.219001 
2589.000000	96.219577 
2588.000000	96.219870 
2587.000000	96.220002 
2586.000000	96.220221 
2585.000000	96.220629 
2584.000000	96.221139 
2583.000000	96.221614 
2582.000000	96.221988 
2581.000000	96.222268 
2580.000000	96.222509 
2579.000000	96.222797 
2578.000000	96.223200 
2577.000000	96.223719 
2576.000000	96.224263 
2575.000000	96.224699 
2574.000000	96.224934 
2573.000000	96.224976 
2572.000000	96.224900 
2571.000000	96.224740 
2570.000000	96.224490 
2569.000000	96.224248 
2568.000000	96.224278 
2567.000000	96.224765 
2566.000000	96.225544 
2565.000000	96.226158 
2564.000000	96.226331 
2563.000000	96.226188 
2562.000000	96.225997 
2561.000000	96.225873 
2560.000000	96.225888 
2559.000000	96.226256 
2558.000000	96.227116 
2557.000000	96.228182 
2556.000000	96.228937 
2555.000000	96.229225 
2554.000000	96.229363 
2553.000000	96.229592 
2552.000000	96.229703 
2551.000000	96.229512 
2550.000000	96.229323 
2549.000000	96.229481 
2548.000000	96.229676 
2547.000000	96.229270 
2546.000000	96.228220 
2545.000000	96.227225 
2544.000000	96.226816 
2543.000000	96.226756 
2542.000000	96.226570 
2541.000000	96.226337 
2540.000000	96.226561 
2539.000000	96.227339 
2538.000000	96.228099 
2537.000000	96.228278 
2536.000000	96.227987 
2535.000000	96.227804 
2534.000000	96.228061 
2533.000000	96.228527 
2532.000000	96.228796 
2531.000000	96.228746 
2530.000000	96.228497 
2529.000000	96.228085 
2528.000000	96.227416 
2527.000000	96.226617 
2526.000000	96.226222 
2525.000000	96.226742 
2524.000000	96.228122 
2523.000000	96.229681 
2522.000000	96.230699 
2521.000000	96.231003 
2520.000000	96.230939 
2519.000000	96.230897 
2518.000000	96.230945 
2517.000000	96.230864 
2516.000000	96.230423 
2515.000000	96.229638 
2514.000000	96.228895 
2513.000000	96.228740 
2512.000000	96.229442 
2511.000000	96.230784 
2510.000000	96.232325 
2509.000000	96.233750 
2508.000000	96.234886 
2507.000000	96.235566 
2506.000000	96.235808 
2505.000000	96.236105 
2504.000000	96.237139 
2503.000000	96.238989 
2502.000000	96.240818 
2501.000000	96.241661 
2500.000000	96.241369 
2499.000000	96.240543 
2498.000000	96.239793 
2497.000000	96.239260 
2496.000000	96.238943 
2495.000000	96.239016 
2494.000000	96.239594 
2493.000000	96.240432 
2492.000000	96.241183 
2491.000000	96.241893 
2490.000000	96.242959 
2489.000000	96.244510 
2488.000000	96.245991 
2487.000000	96.246632 
2486.000000	96.246290 
2485.000000	96.245667 
2484.000000	96.245628 
2483.000000	96.246370 
2482.000000	96.247378 
2481.000000	96.248056 
2480.000000	96.248262 
2479.000000	96.248322 
2478.000000	96.248720 
2477.000000	96.249705 
2476.000000	96.250946 
2475.000000	96.251613 
2474.000000	96.251055 
2473.000000	96.249445 
2472.000000	96.247655 
2471.000000	96.246430 
2470.000000	96.245913 
2469.000000	96.245981 
2468.000000	96.246582 
2467.000000	96.247565 
2466.000000	96.248468 
2465.000000	96.248841 
2464.000000	96.248758 
2463.000000	96.248786 
2462.000000	96.249489 
2461.000000	96.251072 
2460.000000	96.253343 
2459.000000	96.255771 
2458.000000	96.257508 
2457.000000	96.257684 
2456.000000	96.255945 
2455.000000	96.252897 
2454.000000	96.250014 
2453.000000	96.248540 
2452.000000	96.248401 
2451.000000	96.248455 
2450.000000	96.248044 
2449.000000	96.247895 
2448.000000	96.248972 
2447.000000	96.250973 
2446.000000	96.252661 
2445.000000	96.253475 
2444.000000	96.253937 
2443.000000	96.254542 
2442.000000	96.255172 
2441.000000	96.255714 
2440.000000	96.256442 
2439.000000	96.257657 
2438.000000	96.259543 
2437.000000	96.262335 
2436.000000	96.265905 
2435.000000	96.269151 
2434.000000	96.270682 
2433.000000	96.270388 
2432.000000	96.269674 
2431.000000	96.269862 
2430.000000	96.271110 
2429.000000	96.273176 
2428.000000	96.275890 
2427.000000	96.278247 
2426.000000	96.278490 
2425.000000	96.276165 
2424.000000	96.273064 
2423.000000	96.271162 
2422.000000	96.270671 
2421.000000	96.271101 
2420.000000	96.272808 
2419.000000	96.275965 
2418.000000	96.279240 
2417.000000	96.281341 
2416.000000	96.282731 
2415.000000	96.284396 
2414.000000	96.285997 
2413.000000	96.286763 
2412.000000	96.287076 
2411.000000	96.287531 
2410.000000	96.287408 
2409.000000	96.285948 
2408.000000	96.284334 
2407.000000	96.284414 
2406.000000	96.285863 
2405.000000	96.286359 
2404.000000	96.284523 
2403.000000	96.281257 
2402.000000	96.278392 
2401.000000	96.277246 
2400.000000	96.278344 
2399.000000	96.281276 
2398.000000	96.284848 
2397.000000	96.288227 
2396.000000	96.291540 
2395.000000	96.294513 
2394.000000	96.295408 
2393.000000	96.292884 
2392.000000	96.288392 
2391.000000	96.284543 
2390.000000	96.281843 
2389.000000	96.278716 
2388.000000	96.274044 
2387.000000	96.268267 
2386.000000	96.262121 
2385.000000	96.255651 
2384.000000	96.248881 
2383.000000	96.242338 
2382.000000	96.236694 
2381.000000	96.232836 
2380.000000	96.232051 
2379.000000	96.234821 
2378.000000	96.239274 
2377.000000	96.241911 
2376.000000	96.240907 
2375.000000	96.237850 
2374.000000	96.235379 
2373.000000	96.234049 
2372.000000	96.232458 
2371.000000	96.229968 
2370.000000	96.227689 
2369.000000	96.226434 
2368.000000	96.225257 
2367.000000	96.222966 
2366.000000	96.219945 
2365.000000	96.217438 
2364.000000	96.215702 
2363.000000	96.214268 
2362.000000	96.213031 
2361.000000	96.212088 
2360.000000	96.211643 
2359.000000	96.211259 
2358.000000	96.210356 
2357.000000	96.209473 
2356.000000	96.208825 
2355.000000	96.208223 
2354.000000	96.207103 
2353.000000	96.205201 
2352.000000	96.203141 
2351.000000	96.201788 
2350.000000	96.202090 
2349.000000	96.202999 
2348.000000	96.202219 
2347.000000	96.198925 
2346.000000	96.194245 
2345.000000	96.191183 
2344.000000	96.190923 
2343.000000	96.193274 
2342.000000	96.196708 
2341.000000	96.199661 
2340.000000	96.202835 
2339.000000	96.205961 
2338.000000	96.208339 
2337.000000	96.208862 
2336.000000	96.208066 
2335.000000	96.206846 
2334.000000	96.205962 
2333.000000	96.205338 
2332.000000	96.205989 
2331.000000	96.208037 
2330.000000	96.211104 
2329.000000	96.212455 
2328.000000	96.210439 
2327.000000	96.206137 
2326.000000	96.200197 
2325.000000	96.195380 
2324.000000	96.193524 
2323.000000	96.197403 
2322.000000	96.205788 
2321.000000	96.213888 
2320.000000	96.219289 
2319.000000	96.222511 
2318.000000	96.226254 
2317.000000	96.229020 
2316.000000	96.229504 
2315.000000	96.227695 
2314.000000	96.226619 
2313.000000	96.228191 
2312.000000	96.232849 
2311.000000	96.239720 
2310.000000	96.246755 
2309.000000	96.251525 
2308.000000	96.252734 
2307.000000	96.252516 
2306.000000	96.253140 
2305.000000	96.254573 
2304.000000	96.254823 
2303.000000	96.253967 
2302.000000	96.254036 
2301.000000	96.255923 
2300.000000	96.258135 
2299.000000	96.258244 
2298.000000	96.254784 
2297.000000	96.248035 
2296.000000	96.239931 
2295.000000	96.233961 
2294.000000	96.231966 
2293.000000	96.233036 
2292.000000	96.233719 
2291.000000	96.232451 
2290.000000	96.229919 
2289.000000	96.228137 
2288.000000	96.227655 
2287.000000	96.227824 
2286.000000	96.227471 
2285.000000	96.226182 
2284.000000	96.224596 
2283.000000	96.223710 
2282.000000	96.223644 
2281.000000	96.223527 
2280.000000	96.222781 
2279.000000	96.221366 
2278.000000	96.219307 
2277.000000	96.216571 
2276.000000	96.214129 
2275.000000	96.213373 
2274.000000	96.214740 
2273.000000	96.217457 
2272.000000	96.220821 
2271.000000	96.224464 
2270.000000	96.227313 
2269.000000	96.228167 
2268.000000	96.227411 
2267.000000	96.226797 
2266.000000	96.227119 
2265.000000	96.227428 
2264.000000	96.226747 
2263.000000	96.225199 
2262.000000	96.223209 
2261.000000	96.220960 
2260.000000	96.218844 
2259.000000	96.217522 
2258.000000	96.217037 
2257.000000	96.216836 
2256.000000	96.216946 
2255.000000	96.218065 
2254.000000	96.220222 
2253.000000	96.221987 
2252.000000	96.221939 
2251.000000	96.220102 
2250.000000	96.217399 
2249.000000	96.214564 
2248.000000	96.212118 
2247.000000	96.210697 
2246.000000	96.210489 
2245.000000	96.210841 
2244.000000	96.210778 
2243.000000	96.210027 
2242.000000	96.209010 
2241.000000	96.208200 
2240.000000	96.207762 
2239.000000	96.207638 
2238.000000	96.207646 
2237.000000	96.207534 
2236.000000	96.207169 
2235.000000	96.206628 
2234.000000	96.206042 
2233.000000	96.205444 
2232.000000	96.204810 
2231.000000	96.204138 
2230.000000	96.203434 
2229.000000	96.202681 
2228.000000	96.201877 
2227.000000	96.201062 
2226.000000	96.200264 
2225.000000	96.199468 
2224.000000	96.198644 
2223.000000	96.197803 
2222.000000	96.196984 
2221.000000	96.196213 
2220.000000	96.195485 
2219.000000	96.194783 
2218.000000	96.194093 
2217.000000	96.193408 
2216.000000	96.192727 
2215.000000	96.192048 
2214.000000	96.191367 
2213.000000	96.190687 
2212.000000	96.190021 
2211.000000	96.189401 
2210.000000	96.188849 
2209.000000	96.188366 
2208.000000	96.187925 
2207.000000	96.187495 
2206.000000	96.187055 
2205.000000	96.186588 
2204.000000	96.186076 
2203.000000	96.185636 
2202.000000	96.185500 
2201.000000	96.185630 
2200.000000	96.185582 
2199.000000	96.184918 
2198.000000	96.183593 
2197.000000	96.181992 
2196.000000	96.180743 
2195.000000	96.180280 
2194.000000	96.180329 
2193.000000	96.180073 
2192.000000	96.179144 
2191.000000	96.178055 
2190.000000	96.177342 
2189.000000	96.176957 
2188.000000	96.176958 
2187.000000	96.177744 
2186.000000	96.178696 
2185.000000	96.177957 
2184.000000	96.175300 
2183.000000	96.174099 
2182.000000	96.177902 
2181.000000	96.185578 
2180.000000	96.191661 
2179.000000	96.192483 
2178.000000	96.189479 
2177.000000	96.186447 
2176.000000	96.185362 
2175.000000	96.185828 
2174.000000	96.187073 
2173.000000	96.188960 
2172.000000	96.191874 
2171.000000	96.196303 
2170.000000	96.201461 
2169.000000	96.204230 
2168.000000	96.201493 
2167.000000	96.194288 
2166.000000	96.187793 
2165.000000	96.185548 
2164.000000	96.185537 
2163.000000	96.183921 
2162.000000	96.181631 
2161.000000	96.184564 
2160.000000	96.197277 
2159.000000	96.218286 
2158.000000	96.240878 
2157.000000	96.258229 
2156.000000	96.267758 
2155.000000	96.270998 
2154.000000	96.271214 
2153.000000	96.271330 
2152.000000	96.272482 
2151.000000	96.273224 
2150.000000	96.270777 
2149.000000	96.264743 
2148.000000	96.259379 
2147.000000	96.259920 
2146.000000	96.266361 
2145.000000	96.273365 
2144.000000	96.277400 
2143.000000	96.281067 
2142.000000	96.288029 
2141.000000	96.296619 
2140.000000	96.302106 
2139.000000	96.303870 
2138.000000	96.306465 
2137.000000	96.313426 
2136.000000	96.322846 
2135.000000	96.329512 
2134.000000	96.329611 
2133.000000	96.323666 
2132.000000	96.316707 
2131.000000	96.314701 
2130.000000	96.319169 
2129.000000	96.325712 
2128.000000	96.328914 
2127.000000	96.327966 
2126.000000	96.326189 
2125.000000	96.326259 
2124.000000	96.327798 
2123.000000	96.328908 
2122.000000	96.327870 
2121.000000	96.323465 
2120.000000	96.315514 
2119.000000	96.305608 
2118.000000	96.296329 
2117.000000	96.289553 
2116.000000	96.285665 
2115.000000	96.283792 
2114.000000	96.282163 
2113.000000	96.279264 
2112.000000	96.275916 
2111.000000	96.274972 
2110.000000	96.277833 
2109.000000	96.282605 
2108.000000	96.286710 
2107.000000	96.289765 
2106.000000	96.292453 
2105.000000	96.294599 
2104.000000	96.296206 
2103.000000	96.298395 
2102.000000	96.300982 
2101.000000	96.300911 
2100.000000	96.296008 
2099.000000	96.289232 
2098.000000	96.286471 
2097.000000	96.290191 
2096.000000	96.297743 
2095.000000	96.304971 
2094.000000	96.309559 
2093.000000	96.311048 
2092.000000	96.309901 
2091.000000	96.307549 
2090.000000	96.306030 
2089.000000	96.306478 
2088.000000	96.308273 
2087.000000	96.309813 
2086.000000	96.309862 
2085.000000	96.308294 
2084.000000	96.306145 
2083.000000	96.304863 
2082.000000	96.305078 
2081.000000	96.306279 
2080.000000	96.307883 
2079.000000	96.310046 
2078.000000	96.312762 
2077.000000	96.314908 
2076.000000	96.315373 
2075.000000	96.314717 
2074.000000	96.314417 
2073.000000	96.314567 
2072.000000	96.313862 
2071.000000	96.311885 
2070.000000	96.310021 
2069.000000	96.309781 
2068.000000	96.311164 
2067.000000	96.312993 
2066.000000	96.314098 
2065.000000	96.313814 
2064.000000	96.312050 
2063.000000	96.309527 
2062.000000	96.307699 
2061.000000	96.307846 
2060.000000	96.310281 
2059.000000	96.314503 
2058.000000	96.319414 
2057.000000	96.323420 
2056.000000	96.325157 
2055.000000	96.324283 
2054.000000	96.321669 
2053.000000	96.318871 
2052.000000	96.317232 
2051.000000	96.317185 
2050.000000	96.318125 
2049.000000	96.319048 
2048.000000	96.319744 
2047.000000	96.320947 
2046.000000	96.323037 
2045.000000	96.325308 
2044.000000	96.327017 
2043.000000	96.328468 
2042.000000	96.330341 
2041.000000	96.332569 
2040.000000	96.334756 
2039.000000	96.337327 
2038.000000	96.340978 
2037.000000	96.345097 
2036.000000	96.348040 
2035.000000	96.349139 
2034.000000	96.349545 
2033.000000	96.351006 
2032.000000	96.354212 
2031.000000	96.358250 
2030.000000	96.360998 
2029.000000	96.360628 
2028.000000	96.357450 
2027.000000	96.354113 
2026.000000	96.352958 
2025.000000	96.353829 
2024.000000	96.355404 
2023.000000	96.357711 
2022.000000	96.361912 
2021.000000	96.367627 
2020.000000	96.372110 
2019.000000	96.372900 
2018.000000	96.369905 
2017.000000	96.365005 
2016.000000	96.360615 
2015.000000	96.358554 
2014.000000	96.358987 
2013.000000	96.359877 
2012.000000	96.359078 
2011.000000	96.357541 
2010.000000	96.358387 
2009.000000	96.362331 
2008.000000	96.366253 
2007.000000	96.367575 
2006.000000	96.367697 
2005.000000	96.369108 
2004.000000	96.371515 
2003.000000	96.373143 
2002.000000	96.374069 
2001.000000	96.375335 
2000.000000	96.375842 
1999.000000	96.372807 
1998.000000	96.365182 
1997.000000	96.355326 
1996.000000	96.347280 
1995.000000	96.343615 
1994.000000	96.344075 
1993.000000	96.346153 
1992.000000	96.346964 
1991.000000	96.345789 
1990.000000	96.344530 
1989.000000	96.345291 
1988.000000	96.347889 
1987.000000	96.349850 
1986.000000	96.348714 
1985.000000	96.344252 
1984.000000	96.338578 
1983.000000	96.334340 
1982.000000	96.332669 
1981.000000	96.332941 
1980.000000	96.334353 
1979.000000	96.336952 
1978.000000	96.340587 
1977.000000	96.343879 
1976.000000	96.345248 
1975.000000	96.344717 
1974.000000	96.343954 
1973.000000	96.344721 
1972.000000	96.347463 
1971.000000	96.351053 
1970.000000	96.353502 
1969.000000	96.353322 
1968.000000	96.350564 
1967.000000	96.346770 
1966.000000	96.343938 
1965.000000	96.343096 
1964.000000	96.344093 
1963.000000	96.346211 
1962.000000	96.348576 
1961.000000	96.350273 
1960.000000	96.350585 
1959.000000	96.349371 
1958.000000	96.347310 
1957.000000	96.345635 
1956.000000	96.345204 
1955.000000	96.345832 
1954.000000	96.346536 
1953.000000	96.346570 
1952.000000	96.345984 
1951.000000	96.345180 
1950.000000	96.344404 
1949.000000	96.343853 
1948.000000	96.343866 
1947.000000	96.344552 
1946.000000	96.345302 
1945.000000	96.345147 
1944.000000	96.343664 
1943.000000	96.341303 
1942.000000	96.338988 
1941.000000	96.337307 
1940.000000	96.336267 
1939.000000	96.335548 
1938.000000	96.334773 
1937.000000	96.333903 
1936.000000	96.333333 
1935.000000	96.333259 
1934.000000	96.333150 
1933.000000	96.332479 
1932.000000	96.331688 
1931.000000	96.331680 
1930.000000	96.332441 
1929.000000	96.332680 
1928.000000	96.331593 
1927.000000	96.329873 
1926.000000	96.328564 
1925.000000	96.327609 
1924.000000	96.326150 
1923.000000	96.324070 
1922.000000	96.322048 
1921.000000	96.320282 
1920.000000	96.318543 
1919.000000	96.316943 
1918.000000	96.315468 
1917.000000	96.313332 
1916.000000	96.310057 
1915.000000	96.306892 
1914.000000	96.305458 
1913.000000	96.305564 
1912.000000	96.305465 
1911.000000	96.304262 
1910.000000	96.302680 
1909.000000	96.301428 
1908.000000	96.300516 
1907.000000	96.299815 
1906.000000	96.299063 
1905.000000	96.297350 
1904.000000	96.293849 
1903.000000	96.289629 
1902.000000	96.286906 
1901.000000	96.286143 
1900.000000	96.285841 
1899.000000	96.284934 
1898.000000	96.283808 
1897.000000	96.282848 
1896.000000	96.281313 
1895.000000	96.278640 
1894.000000	96.275408 
1893.000000	96.272182 
1892.000000	96.268893 
1891.000000	96.265843 
1890.000000	96.263945 
1889.000000	96.263405 
1888.000000	96.263413 
1887.000000	96.263713 
1886.000000	96.264706 
1885.000000	96.265674 
1884.000000	96.264981 
1883.000000	96.262538 
1882.000000	96.260343 
1881.000000	96.259868 
1880.000000	96.260549 
1879.000000	96.260880 
1878.000000	96.260030 
1877.000000	96.258422 
1876.000000	96.257157 
1875.000000	96.257266 
1874.000000	96.259122 
1873.000000	96.261846 
1872.000000	96.263947 
1871.000000	96.264764 
1870.000000	96.264552 
1869.000000	96.263618 
1868.000000	96.262274 
1867.000000	96.261535 
1866.000000	96.262149 
1865.000000	96.263101 
1864.000000	96.262919 
1863.000000	96.262193 
1862.000000	96.262973 
1861.000000	96.265758 
1860.000000	96.268923 
1859.000000	96.271337 
1858.000000	96.273626 
1857.000000	96.276267 
1856.000000	96.278712 
1855.000000	96.280588 
1854.000000	96.282059 
1853.000000	96.282942 
1852.000000	96.283328 
1851.000000	96.284289 
1850.000000	96.286558 
1849.000000	96.289482 
1848.000000	96.291730 
1847.000000	96.293030 
1846.000000	96.294144 
1845.000000	96.295576 
1844.000000	96.297094 
1843.000000	96.298584 
1842.000000	96.300275 
1841.000000	96.302162 
1840.000000	96.304186 
1839.000000	96.306405 
1838.000000	96.308693 
1837.000000	96.310427 
1836.000000	96.311105 
1835.000000	96.311342 
1834.000000	96.312257 
1833.000000	96.314042 
1832.000000	96.316047 
1831.000000	96.317417 
1830.000000	96.317680 
1829.000000	96.317374 
1828.000000	96.317431 
1827.000000	96.318245 
1826.000000	96.319722 
1825.000000	96.321346 
1824.000000	96.322385 
1823.000000	96.322524 
1822.000000	96.322392 
1821.000000	96.322648 
1820.000000	96.322962 
1819.000000	96.322713 
1818.000000	96.322784 
1817.000000	96.324621 
1816.000000	96.327263 
1815.000000	96.328859 
1814.000000	96.329705 
1813.000000	96.331568 
1812.000000	96.333927 
1811.000000	96.333511 
1810.000000	96.330139 
1809.000000	96.327304 
1808.000000	96.326254 
1807.000000	96.325665 
1806.000000	96.325710 
1805.000000	96.327547 
1804.000000	96.329793 
1803.000000	96.329712 
1802.000000	96.326688 
1801.000000	96.323135 
1800.000000	96.320731 
1799.000000	96.318636 
1798.000000	96.317397 
1797.000000	96.317596 
1796.000000	96.317284 
1795.000000	96.315327 
1794.000000	96.313590 
1793.000000	96.314152 
1792.000000	96.314969 
1791.000000	96.313077 
1790.000000	96.311123 
1789.000000	96.312761 
1788.000000	96.317392 
1787.000000	96.322101 
1786.000000	96.325891 
1785.000000	96.329300 
1784.000000	96.331611 
1783.000000	96.332636 
1782.000000	96.332950 
1781.000000	96.333092 
1780.000000	96.333809 
1779.000000	96.335631 
1778.000000	96.339448 
1777.000000	96.344492 
1776.000000	96.348620 
1775.000000	96.350799 
1774.000000	96.351198 
1773.000000	96.351057 
1772.000000	96.351589 
1771.000000	96.351697 
1770.000000	96.350262 
1769.000000	96.348947 
1768.000000	96.349858 
1767.000000	96.352860 
1766.000000	96.356112 
1765.000000	96.358770 
1764.000000	96.361314 
1763.000000	96.363338 
1762.000000	96.363708 
1761.000000	96.363192 
1760.000000	96.363453 
1759.000000	96.364452 
1758.000000	96.365194 
1757.000000	96.365024 
1756.000000	96.365473 
1755.000000	96.366956 
1754.000000	96.367224 
1753.000000	96.364763 
1752.000000	96.361279 
1751.000000	96.360428 
1750.000000	96.363111 
1749.000000	96.366546 
1748.000000	96.368561 
1747.000000	96.369853 
1746.000000	96.370454 
1745.000000	96.370393 
1744.000000	96.371094 
1743.000000	96.372547 
1742.000000	96.372830 
1741.000000	96.371635 
1740.000000	96.371017 
1739.000000	96.372301 
1738.000000	96.373402 
1737.000000	96.372657 
1736.000000	96.370479 
1735.000000	96.367475 
1734.000000	96.364489 
1733.000000	96.362072 
1732.000000	96.360395 
1731.000000	96.361267 
1730.000000	96.366031 
1729.000000	96.370815 
1728.000000	96.372700 
1727.000000	96.372138 
1726.000000	96.370767 
1725.000000	96.369292 
1724.000000	96.367766 
1723.000000	96.366096 
1722.000000	96.365258 
1721.000000	96.365338 
1720.000000	96.365668 
1719.000000	96.364238 
1718.000000	96.359614 
1717.000000	96.353916 
1716.000000	96.346464 
1715.000000	96.336895 
1714.000000	96.331047 
1713.000000	96.330483 
1712.000000	96.329826 
1711.000000	96.326450 
1710.000000	96.322636 
1709.000000	96.319387 
1708.000000	96.315370 
1707.000000	96.310728 
1706.000000	96.307791 
1705.000000	96.306274 
1704.000000	96.300097 
1703.000000	96.287310 
1702.000000	96.271973 
1701.000000	96.261669 
1700.000000	96.257702 
1699.000000	96.251643 
1698.000000	96.243103 
1697.000000	96.237263 
1696.000000	96.233467 
1695.000000	96.228722 
1694.000000	96.222562 
1693.000000	96.216055 
1692.000000	96.209967 
1691.000000	96.203516 
1690.000000	96.196218 
1689.000000	96.188163 
1688.000000	96.180017 
1687.000000	96.172539 
1686.000000	96.166271 
1685.000000	96.161243 
1684.000000	96.153937 
1683.000000	96.143654 
1682.000000	96.133221 
1681.000000	96.122929 
1680.000000	96.114484 
1679.000000	96.107253 
1678.000000	96.099333 
1677.000000	96.089129 
1676.000000	96.079645 
1675.000000	96.073991 
1674.000000	96.067412 
1673.000000	96.054671 
1672.000000	96.039534 
1671.000000	96.028407 
1670.000000	96.022162 
1669.000000	96.015726 
1668.000000	96.009167 
1667.000000	96.005322 
1666.000000	96.001412 
1665.000000	95.995016 
1664.000000	95.987552 
1663.000000	95.981623 
1662.000000	95.974797 
1661.000000	95.960976 
1660.000000	95.944535 
1659.000000	95.933596 
1658.000000	95.929286 
1657.000000	95.922483 
1656.000000	95.912515 
1655.000000	95.904456 
1654.000000	95.900875 
1653.000000	95.897500 
1652.000000	95.887619 
1651.000000	95.867099 
1650.000000	95.839233 
1649.000000	95.820278 
1648.000000	95.808612 
1647.000000	95.801046 
1646.000000	95.795891 
1645.000000	95.795337 
1644.000000	95.791263 
1643.000000	95.784649 
1642.000000	95.780535 
1641.000000	95.780000 
1640.000000	95.779370 
1639.000000	95.774885 
1638.000000	95.768713 
1637.000000	95.764727 
1636.000000	95.764052 
1635.000000	95.769746 
1634.000000	95.779064 
1633.000000	95.783593 
1632.000000	95.781803 
1631.000000	95.779386 
1630.000000	95.782933 
1629.000000	95.792247 
1628.000000	95.802564 
1627.000000	95.812775 
1626.000000	95.823798 
1625.000000	95.835085 
1624.000000	95.847329 
1623.000000	95.863187 
1622.000000	95.880994 
1621.000000	95.892442 
1620.000000	95.897251 
1619.000000	95.904713 
1618.000000	95.921467 
1617.000000	95.941036 
1616.000000	95.952601 
1615.000000	95.958482 
1614.000000	95.964130 
1613.000000	95.969376 
1612.000000	95.973075 
1611.000000	95.979021 
1610.000000	95.990303 
1609.000000	96.003808 
1608.000000	96.017264 
1607.000000	96.033246 
1606.000000	96.050523 
1605.000000	96.063663 
1604.000000	96.073430 
1603.000000	96.083981 
1602.000000	96.095125 
1601.000000	96.103895 
1600.000000	96.111634 
1599.000000	96.122498 
1598.000000	96.135629 
1597.000000	96.146636 
1596.000000	96.154504 
1595.000000	96.162582 
1594.000000	96.172616 
1593.000000	96.181742 
1592.000000	96.188066 
1591.000000	96.194183 
1590.000000	96.202417 
1589.000000	96.211073 
1588.000000	96.219004 
1587.000000	96.228414 
1586.000000	96.239592 
1585.000000	96.247578 
1584.000000	96.251317 
1583.000000	96.256786 
1582.000000	96.265887 
1581.000000	96.273942 
1580.000000	96.279066 
1579.000000	96.286317 
1578.000000	96.299327 
1577.000000	96.314447 
1576.000000	96.325584 
1575.000000	96.332917 
1574.000000	96.336106 
1573.000000	96.335029 
1572.000000	96.335865 
1571.000000	96.342781 
1570.000000	96.351126 
1569.000000	96.350226 
1568.000000	96.344272 
1567.000000	96.343076 
1566.000000	96.347130 
1565.000000	96.350575 
1564.000000	96.354089 
1563.000000	96.358363 
1562.000000	96.361323 
1561.000000	96.357140 
1560.000000	96.353438 
1559.000000	96.353848 
1558.000000	96.355541 
1557.000000	96.358625 
1556.000000	96.354962 
1555.000000	96.355874 
1554.000000	96.355796 
1553.000000	96.354384 
1552.000000	96.350506 
1551.000000	96.346028 
1550.000000	96.339627 
1549.000000	96.332885 
1548.000000	96.328530 
1547.000000	96.327934 
1546.000000	96.328428 
1545.000000	96.326580 
1544.000000	96.322755 
1543.000000	96.320304 
1542.000000	96.322847 
1541.000000	96.328228 
1540.000000	96.323015 
1539.000000	96.308304 
1538.000000	96.293636 
1537.000000	96.277409 
1536.000000	96.262063 
1535.000000	96.251805 
1534.000000	96.247583 
1533.000000	96.244939 
1532.000000	96.240032 
1531.000000	96.231221 
1530.000000	96.221356 
1529.000000	96.212770 
1528.000000	96.203698 
1527.000000	96.192672 
1526.000000	96.181181 
1525.000000	96.171766 
1524.000000	96.165620 
1523.000000	96.162308 
1522.000000	96.159337 
1521.000000	96.152737 
1520.000000	96.140765 
1519.000000	96.125473 
1518.000000	96.110499 
1517.000000	96.097671 
1516.000000	96.086368 
1515.000000	96.076579 
1514.000000	96.068503 
1513.000000	96.062566 
1512.000000	96.056988 
1511.000000	96.047920 
1510.000000	96.034823 
1509.000000	96.021493 
1508.000000	96.011212 
1507.000000	96.000684 
1506.000000	95.990998 
1505.000000	95.983818 
1504.000000	95.973726 
1503.000000	95.960878 
1502.000000	95.946964 
1501.000000	95.933969 
1500.000000	95.922697 
1499.000000	95.912312 
1498.000000	95.900694 
1497.000000	95.888913 
1496.000000	95.879340 
1495.000000	95.871142 
1494.000000	95.862581 
1493.000000	95.854039 
1492.000000	95.846745 
1491.000000	95.840279 
1490.000000	95.832506 
1489.000000	95.822907 
1488.000000	95.811312 
1487.000000	95.797258 
1486.000000	95.783305 
1485.000000	95.769379 
1484.000000	95.754273 
1483.000000	95.739461 
1482.000000	95.726704 
1481.000000	95.716022 
1480.000000	95.704972 
1479.000000	95.692291 
1478.000000	95.679189 
1477.000000	95.666928 
1476.000000	95.653235 
1475.000000	95.635930 
1474.000000	95.617702 
1473.000000	95.604049 
1472.000000	95.597197 
1471.000000	95.592131 
1470.000000	95.583910 
1469.000000	95.572446 
1468.000000	95.558654 
1467.000000	95.542930 
1466.000000	95.527791 
1465.000000	95.516592 
1464.000000	95.509754 
1463.000000	95.501148 
1462.000000	95.485973 
1461.000000	95.466971 
1460.000000	95.450108 
1459.000000	95.438238 
1458.000000	95.424861 
1457.000000	95.407121 
1456.000000	95.394073 
1455.000000	95.383995 
1454.000000	95.368378 
1453.000000	95.352855 
1452.000000	95.343347 
1451.000000	95.339612 
1450.000000	95.337302 
1449.000000	95.336749 
1448.000000	95.337610 
1447.000000	95.335307 
1446.000000	95.326211 
1445.000000	95.313765 
1444.000000	95.305020 
1443.000000	95.298935 
1442.000000	95.290057 
1441.000000	95.276480 
1440.000000	95.260938 
1439.000000	95.244953 
1438.000000	95.228852 
1437.000000	95.218347 
1436.000000	95.218613 
1435.000000	95.220981 
1434.000000	95.215042 
1433.000000	95.205869 
1432.000000	95.201767 
1431.000000	95.203123 
1430.000000	95.203816 
1429.000000	95.202717 
1428.000000	95.202476 
1427.000000	95.203112 
1426.000000	95.203035 
1425.000000	95.203059 
1424.000000	95.207141 
1423.000000	95.210856 
1422.000000	95.206476 
1421.000000	95.198303 
1420.000000	95.200578 
1419.000000	95.212348 
1418.000000	95.214899 
1417.000000	95.207714 
1416.000000	95.206674 
1415.000000	95.216563 
1414.000000	95.226518 
1413.000000	95.228400 
1412.000000	95.227265 
1411.000000	95.229752 
1410.000000	95.233572 
1409.000000	95.236884 
1408.000000	95.242867 
1407.000000	95.253863 
1406.000000	95.267607 
1405.000000	95.282321 
1404.000000	95.301596 
1403.000000	95.322823 
1402.000000	95.338241 
1401.000000	95.349603 
1400.000000	95.367037 
1399.000000	95.392938 
1398.000000	95.415800 
1397.000000	95.427342 
1396.000000	95.433180 
1395.000000	95.444258 
1394.000000	95.462947 
1393.000000	95.485275 
1392.000000	95.510524 
1391.000000	95.537027 
1390.000000	95.559838 
1389.000000	95.575890 
1388.000000	95.586830 
1387.000000	95.595850 
1386.000000	95.604499 
1385.000000	95.614424 
1384.000000	95.629065 
1383.000000	95.648417 
1382.000000	95.667355 
1381.000000	95.682212 
1380.000000	95.694249 
1379.000000	95.707437 
1378.000000	95.723646 
1377.000000	95.741876 
1376.000000	95.760434 
1375.000000	95.777792 
1374.000000	95.792257 
1373.000000	95.804783 
1372.000000	95.818622 
1371.000000	95.836024 
1370.000000	95.856357 
1369.000000	95.875956 
1368.000000	95.893724 
1367.000000	95.910674 
1366.000000	95.927037 
1365.000000	95.942756 
1364.000000	95.957426 
1363.000000	95.969377 
1362.000000	95.978628 
1361.000000	95.988494 
1360.000000	96.002057 
1359.000000	96.019771 
1358.000000	96.039482 
1357.000000	96.058120 
1356.000000	96.074245 
1355.000000	96.087890 
1354.000000	96.099673 
1353.000000	96.111645 
1352.000000	96.124846 
1351.000000	96.139214 
1350.000000	96.154330 
1349.000000	96.167298 
1348.000000	96.176597 
1347.000000	96.183502 
1346.000000	96.191063 
1345.000000	96.200841 
1344.000000	96.212197 
1343.000000	96.223597 
1342.000000	96.234233 
1341.000000	96.243347 
1340.000000	96.249759 
1339.000000	96.253506 
1338.000000	96.256459 
1337.000000	96.260858 
1336.000000	96.267592 
1335.000000	96.275237 
1334.000000	96.281704 
1333.000000	96.286923 
1332.000000	96.292588 
1331.000000	96.299801 
1330.000000	96.307605 
1329.000000	96.314307 
1328.000000	96.319595 
1327.000000	96.324978 
1326.000000	96.331325 
1325.000000	96.336684 
1324.000000	96.339347 
1323.000000	96.339075 
1322.000000	96.336435 
1321.000000	96.332816 
1320.000000	96.330906 
1319.000000	96.332636 
1318.000000	96.337049 
1317.000000	96.341785 
1316.000000	96.345446 
1315.000000	96.347322 
1314.000000	96.346743 
1313.000000	96.345190 
1312.000000	96.346572 
1311.000000	96.352779 
1310.000000	96.360453 
1309.000000	96.365030 
1308.000000	96.366074 
1307.000000	96.366883 
1306.000000	96.369753 
1305.000000	96.373544 
1304.000000	96.376829 
1303.000000	96.378875 
1302.000000	96.378805 
1301.000000	96.376233 
1300.000000	96.373134 
1299.000000	96.372223 
1298.000000	96.373578 
1297.000000	96.374625 
1296.000000	96.373436 
1295.000000	96.370743 
1294.000000	96.368421 
1293.000000	96.367909 
1292.000000	96.369783 
1291.000000	96.373272 
1290.000000	96.376443 
1289.000000	96.377864 
1288.000000	96.377568 
1287.000000	96.375882 
1286.000000	96.372540 
1285.000000	96.368362 
1284.000000	96.366229 
1283.000000	96.367896 
1282.000000	96.371000 
1281.000000	96.371361 
1280.000000	96.368004 
1279.000000	96.364195 
1278.000000	96.363476 
1277.000000	96.366438 
1276.000000	96.370891 
1275.000000	96.374032 
1274.000000	96.374310 
1273.000000	96.372731 
1272.000000	96.372163 
1271.000000	96.374129 
1270.000000	96.376686 
1269.000000	96.376824 
1268.000000	96.374378 
1267.000000	96.371545 
1266.000000	96.369346 
1265.000000	96.367523 
1264.000000	96.366935 
1263.000000	96.368839 
1262.000000	96.372013 
1261.000000	96.373366 
1260.000000	96.372272 
1259.000000	96.371908 
1258.000000	96.374722 
1257.000000	96.379001 
1256.000000	96.380928 
1255.000000	96.379068 
1254.000000	96.375847 
1253.000000	96.374633 
1252.000000	96.375504 
1251.000000	96.374883 
1250.000000	96.370212 
1249.000000	96.364403 
1248.000000	96.363581 
1247.000000	96.369610 
1246.000000	96.376955 
1245.000000	96.378941 
1244.000000	96.374826 
1243.000000	96.369177 
1242.000000	96.366658 
1241.000000	96.369387 
1240.000000	96.376793 
1239.000000	96.385090 
1238.000000	96.388805 
1237.000000	96.385807 
1236.000000	96.379663 
1235.000000	96.374937 
1234.000000	96.371827 
1233.000000	96.367768 
1232.000000	96.362159 
1231.000000	96.356142 
1230.000000	96.349487 
1229.000000	96.341298 
1228.000000	96.332372 
1227.000000	96.323371 
1226.000000	96.311740 
1225.000000	96.293889 
1224.000000	96.269785 
1223.000000	96.242285 
1222.000000	96.212567 
1221.000000	96.179354 
1220.000000	96.142315 
1219.000000	96.102925 
1218.000000	96.061687 
1217.000000	96.017374 
1216.000000	95.969020 
1215.000000	95.916370 
1214.000000	95.858976 
1213.000000	95.797656 
1212.000000	95.735880 
1211.000000	95.675972 
1210.000000	95.614643 
1209.000000	95.546151 
1208.000000	95.469719 
1207.000000	95.390154 
1206.000000	95.311255 
1205.000000	95.232182 
1204.000000	95.150464 
1203.000000	95.065167 
1202.000000	94.976774 
1201.000000	94.886744 
1200.000000	94.797443 
1199.000000	94.709916 
1198.000000	94.621700 
1197.000000	94.529742 
1196.000000	94.434860 
1195.000000	94.340310 
1194.000000	94.246663 
1193.000000	94.151338 
1192.000000	94.052760 
1191.000000	93.951462 
1190.000000	93.847508 
1189.000000	93.740311 
1188.000000	93.630647 
1187.000000	93.519613 
1186.000000	93.406403 
1185.000000	93.290425 
1184.000000	93.174091 
1183.000000	93.059610 
1182.000000	92.944665 
1181.000000	92.825573 
1180.000000	92.702923 
1179.000000	92.579127 
1178.000000	92.452133 
1177.000000	92.317532 
1176.000000	92.175678 
1175.000000	92.030627 
1174.000000	91.883089 
1173.000000	91.730887 
1172.000000	91.575749 
1171.000000	91.422263 
1170.000000	91.270272 
1169.000000	91.116121 
1168.000000	90.962273 
1167.000000	90.818465 
1166.000000	90.693246 
1165.000000	90.592655 
1164.000000	90.527341 
1163.000000	90.510183 
1162.000000	90.542531 
1161.000000	90.608696 
1160.000000	90.685611 
1159.000000	90.752190 
1158.000000	90.790289 
1157.000000	90.786961 
1156.000000	90.740236 
1155.000000	90.658124 
1154.000000	90.550538 
1153.000000	90.426113 
1152.000000	90.295299 
1151.000000	90.167901 
1150.000000	90.045468 
1149.000000	89.923024 
1148.000000	89.799564 
1147.000000	89.679503 
1146.000000	89.563089 
1145.000000	89.444144 
1144.000000	89.319534 
1143.000000	89.192902 
1142.000000	89.066891 
1141.000000	88.939644 
1140.000000	88.811121 
1139.000000	88.684638 
1138.000000	88.559745 
1137.000000	88.431462 
1136.000000	88.298721 
1135.000000	88.165705 
1134.000000	88.033151 
1133.000000	87.896759 
1132.000000	87.755946 
1131.000000	87.615358 
1130.000000	87.475751 
1129.000000	87.332360 
1128.000000	87.184294 
1127.000000	87.036213 
1126.000000	86.888500 
1125.000000	86.735265 
1124.000000	86.574724 
1123.000000	86.412376 
1122.000000	86.251600 
1121.000000	86.090722 
1120.000000	85.931471 
1119.000000	85.779559 
1118.000000	85.634219 
1117.000000	85.488485 
1116.000000	85.342582 
1115.000000	85.205567 
1114.000000	85.080682 
1113.000000	84.960770 
1112.000000	84.841126 
1111.000000	84.724722 
1110.000000	84.611760 
1109.000000	84.496783 
1108.000000	84.378835 
1107.000000	84.261879 
1106.000000	84.143753 
1105.000000	84.017355 
1104.000000	83.884067 
1103.000000	83.752981 
1102.000000	83.625018 
1101.000000	83.492838 
1100.000000	83.357240 
1099.000000	83.227324 
1098.000000	83.105403 
1097.000000	82.983991 
1096.000000	82.861148 
1095.000000	82.742097 
1094.000000	82.624250 
1093.000000	82.497635 
1092.000000	82.363586 
1091.000000	82.236320 
1090.000000	82.122057 
1089.000000	82.012252 
1088.000000	81.900512 
1087.000000	81.789717 
1086.000000	81.679425 
1085.000000	81.563268 
1084.000000	81.442560 
1083.000000	81.326184 
1082.000000	81.213809 
1081.000000	81.095685 
1080.000000	80.971436 
1079.000000	80.851392 
1078.000000	80.736270 
1077.000000	80.613345 
1076.000000	80.475763 
1075.000000	80.327400 
1074.000000	80.166231 
1073.000000	79.982188 
1072.000000	79.774365 
1071.000000	79.550523 
1070.000000	79.306219 
1069.000000	79.025582 
1068.000000	78.708422 
1067.000000	78.376906 
1066.000000	78.049335 
1065.000000	77.725898 
1064.000000	77.405482 
1063.000000	77.093823 
1062.000000	76.786469 
1061.000000	76.465346 
1060.000000	76.122867 
1059.000000	75.771933 
1058.000000	75.424222 
1057.000000	75.076290 
1056.000000	74.724084 
1055.000000	74.371928 
1054.000000	74.019068 
1053.000000	73.655662 
1052.000000	73.280242 
1051.000000	72.902867 
1050.000000	72.524036 
1049.000000	72.131625 
1048.000000	71.724618 
1047.000000	71.316350 
1046.000000	70.910442 
1045.000000	70.497755 
1044.000000	70.079256 
1043.000000	69.667448 
1042.000000	69.262702 
1041.000000	68.852832 
1040.000000	68.439778 
1039.000000	68.041667 
1038.000000	67.664308 
1037.000000	67.296207 
1036.000000	66.935530 
1035.000000	66.595088 
1034.000000	66.276609 
1033.000000	65.967903 
1032.000000	65.669645 
1031.000000	65.396401 
1030.000000	65.147370 
1029.000000	64.906308 
1028.000000	64.674826 
1027.000000	64.473949 
1026.000000	64.306522 
1025.000000	64.149457 
1024.000000	63.989857 
1023.000000	63.837691 
1022.000000	63.695866 
1021.000000	63.550075 
1020.000000	63.396364 
1019.000000	63.247904 
1018.000000	63.106607 
1017.000000	62.958179 
1016.000000	62.802049 
1015.000000	62.655344 
1014.000000	62.520475 
1013.000000	62.380068 
1012.000000	62.230890 
1011.000000	62.091193 
1010.000000	61.967418 
1009.000000	61.845762 
1008.000000	61.724016 
1007.000000	61.619502 
1006.000000	61.537502 
1005.000000	61.463780 
1004.000000	61.395813 
1003.000000	61.348832 
1002.000000	61.322991 
1001.000000	61.297926 
1000.000000	61.269110 
999.000000	 61.256873 
998.000000	 61.269510 
997.000000	 61.289563 
996.000000	 61.306442 
995.000000	 61.331416 
994.000000	 61.370026 
993.000000	 61.410549 
992.000000	 61.449979 
991.000000	 61.501540 
990.000000	 61.566722 
989.000000	 61.629409 
988.000000	 61.686940 
987.000000	 61.757773 
986.000000	 61.849910 
985.000000	 61.951377 
984.000000	 62.059588 
983.000000	 62.189481 
982.000000	 62.343786 
981.000000	 62.505480 
980.000000	 62.668689 
979.000000	 62.847659 
978.000000	 63.046641 
977.000000	 63.251216 
976.000000	 63.458398 
975.000000	 63.685297 
974.000000	 63.937953 
973.000000	 64.200360 
972.000000	 64.463838 
971.000000	 64.739298 
970.000000	 65.030857 
969.000000	 65.325066 
968.000000	 65.616085 
967.000000	 65.915195 
966.000000	 66.226053 
965.000000	 66.535943 
964.000000	 66.839951 
963.000000	 67.148949 
962.000000	 67.465954 
961.000000	 67.779028 
960.000000	 68.084330 
959.000000	 68.391536 
958.000000	 68.700089 
957.000000	 68.995164 
956.000000	 69.274073 
955.000000	 69.552351 
954.000000	 69.837046 
953.000000	 70.117272 
952.000000	 70.386622 
951.000000	 70.650522 
950.000000	 70.906318 
949.000000	 71.140989 
948.000000	 71.354553 
947.000000	 71.561834 
946.000000	 71.765464 
945.000000	 71.951024 
944.000000	 72.114241 
943.000000	 72.268576 
942.000000	 72.420303 
941.000000	 72.560579 
940.000000	 72.689040 
939.000000	 72.820655 
938.000000	 72.961316 
937.000000	 73.099795 
936.000000	 73.231540 
935.000000	 73.367720 
934.000000	 73.513548 
933.000000	 73.660118 
932.000000	 73.804622 
931.000000	 73.956215 
930.000000	 74.115103 
929.000000	 74.267966 
928.000000	 74.410745 
927.000000	 74.554345 
926.000000	 74.701679 
925.000000	 74.840463 
924.000000	 74.964274 
923.000000	 75.079509 
922.000000	 75.187161 
921.000000	 75.280106 
920.000000	 75.362934 
919.000000	 75.451000 
918.000000	 75.544197 
917.000000	 75.624800 
916.000000	 75.687578 
915.000000	 75.749907 
914.000000	 75.826893 
913.000000	 75.919917 
912.000000	 76.035100 
911.000000	 76.187940 
910.000000	 76.381483 
909.000000	 76.602514 
908.000000	 76.846167 
907.000000	 77.122283 
906.000000	 77.432569 
905.000000	 77.764925 
904.000000	 78.115000 
903.000000	 78.489456 
902.000000	 78.883288 
901.000000	 79.278151 
900.000000	 79.668195 
899.000000	 80.064577 
898.000000	 80.470383 
897.000000	 80.873387 
896.000000	 81.266540 
895.000000	 81.652493 
894.000000	 82.025506 
893.000000	 82.372886 
892.000000	 82.698096 
891.000000	 83.019687 
890.000000	 83.343097 
889.000000	 83.654314 
888.000000	 83.943798 
887.000000	 84.214780 
886.000000	 84.466558 
885.000000	 84.693162 
884.000000	 84.901306 
883.000000	 85.105962 
882.000000	 85.305108 
881.000000	 85.483699 
880.000000	 85.645814 
879.000000	 85.815766 
878.000000	 86.002304 
877.000000	 86.190330 
876.000000	 86.375032 
875.000000	 86.574494 
874.000000	 86.799665 
873.000000	 87.041341 
872.000000	 87.296811 
871.000000	 87.580070 
870.000000	 87.893378 
869.000000	 88.214679 
868.000000	 88.525641 
867.000000	 88.830107 
866.000000	 89.135334 
865.000000	 89.437176 
864.000000	 89.734536 
863.000000	 90.037960 
862.000000	 90.351363 
861.000000	 90.661425 
860.000000	 90.955672 
859.000000	 91.236740 
858.000000	 91.510781 
857.000000	 91.775913 
856.000000	 92.029278 
855.000000	 92.271235 
854.000000	 92.495741 
853.000000	 92.690845 
852.000000	 92.856173 
851.000000	 93.007840 
850.000000	 93.160091 
849.000000	 93.313128 
848.000000	 93.461778 
847.000000	 93.601451 
846.000000	 93.722012 
845.000000	 93.812118 
844.000000	 93.875556 
843.000000	 93.929011 
842.000000	 93.978129 
841.000000	 94.009548 
840.000000	 94.011134 
839.000000	 93.985273 
838.000000	 93.938128 
837.000000	 93.872359 
836.000000	 93.797428 
835.000000	 93.731398 
834.000000	 93.682898 
833.000000	 93.643641 
832.000000	 93.606329 
831.000000	 93.577262 
830.000000	 93.564822 
829.000000	 93.570001 
828.000000	 93.596703 
827.000000	 93.656375 
826.000000	 93.751404 
825.000000	 93.866487 
824.000000	 93.985030 
823.000000	 94.100883 
822.000000	 94.209290 
821.000000	 94.303602 
820.000000	 94.385999 
819.000000	 94.464742 
818.000000	 94.536059 
817.000000	 94.582572 
816.000000	 94.592615 
815.000000	 94.567992 
814.000000	 94.509716 
813.000000	 94.408844 
812.000000	 94.254632 
811.000000	 94.038642 
810.000000	 93.747132 
809.000000	 93.363261 
808.000000	 92.883471 
807.000000	 92.322065 
806.000000	 91.696982 
805.000000	 91.023705 
804.000000	 90.326882 
803.000000	 89.642178 
802.000000	 88.999712 
801.000000	 88.420012 
800.000000	 87.929099 
799.000000	 87.556377 
798.000000	 87.310177 
797.000000	 87.174422 
796.000000	 87.133572 
795.000000	 87.178614 
794.000000	 87.285508 
793.000000	 87.415195 
792.000000	 87.543609 
791.000000	 87.669540 
790.000000	 87.787678 
789.000000	 87.877452 
788.000000	 87.924100 
787.000000	 87.926993 
786.000000	 87.880294 
785.000000	 87.768305 
784.000000	 87.588991 
783.000000	 87.362831 
782.000000	 87.112282 
781.000000	 86.853555 
780.000000	 86.613794 
779.000000	 86.431033 
778.000000	 86.326533 
777.000000	 86.297730 
776.000000	 86.343858 
775.000000	 86.472322 
774.000000	 86.671047 
773.000000	 86.901224 
772.000000	 87.130015 
771.000000	 87.349596 
770.000000	 87.556690 
769.000000	 87.738263 
768.000000	 87.887694 
767.000000	 88.012192 
766.000000	 88.113802 
765.000000	 88.184727 
764.000000	 88.231395 
763.000000	 88.280570 
762.000000	 88.349122 
761.000000	 88.427222 
760.000000	 88.501933 
759.000000	 88.577170 
758.000000	 88.660013 
757.000000	 88.748708 
756.000000	 88.846436 
755.000000	 88.966550 
754.000000	 89.110438 
753.000000	 89.257218 
752.000000	 89.387256 
751.000000	 89.500979 
750.000000	 89.607055 
749.000000	 89.709754 
748.000000	 89.816262 
747.000000	 89.937817 
746.000000	 90.073897 
745.000000	 90.212123 
744.000000	 90.351636 
743.000000	 90.508244 
742.000000	 90.688818 
741.000000	 90.880595 
740.000000	 91.074364 
739.000000	 91.278053 
738.000000	 91.497405 
737.000000	 91.721586 
736.000000	 91.938019 
735.000000	 92.144754 
734.000000	 92.339760 
733.000000	 92.515052 
732.000000	 92.669146 
731.000000	 92.808701 
730.000000	 92.931623 
729.000000	 93.026235 
728.000000	 93.093862 
727.000000	 93.154428 
726.000000	 93.222892 
725.000000	 93.297533 
724.000000	 93.377240 
723.000000	 93.470780 
722.000000	 93.580800 
721.000000	 93.696381 
720.000000	 93.810036 
719.000000	 93.925752 
718.000000	 94.042744 
717.000000	 94.149548 
716.000000	 94.241096 
715.000000	 94.324310 
714.000000	 94.401977 
713.000000	 94.469059 
712.000000	 94.530402 
711.000000	 94.601876 
710.000000	 94.685433 
709.000000	 94.761420 
708.000000	 94.815013 
707.000000	 94.849887 
706.000000	 94.868313 
705.000000	 94.859608 
704.000000	 94.817154 
703.000000	 94.745129 
702.000000	 94.636396 
701.000000	 94.463602 
700.000000	 94.205455 
699.000000	 93.868158 
698.000000	 93.476935 
697.000000	 93.069583 
696.000000	 92.706672 
695.000000	 92.459281 
694.000000	 92.365251 
693.000000	 92.408598 
692.000000	 92.548075 
691.000000	 92.748305 
690.000000	 92.978162 
689.000000	 93.204841 
688.000000	 93.407927 
687.000000	 93.586126 
686.000000	 93.739599 
685.000000	 93.863087 
684.000000	 93.963130 
683.000000	 94.058972 
682.000000	 94.158542 
681.000000	 94.255080 
680.000000	 94.351603 
679.000000	 94.463680 
678.000000	 94.591043 
677.000000	 94.712238 
676.000000	 94.823397 
675.000000	 94.944695 
674.000000	 95.072221 
673.000000	 95.166272 
672.000000	 95.200242 
671.000000	 95.196996 
670.000000	 95.212459 
669.000000	 95.328153 
668.000000	 95.577844 
667.000000	 95.822501 
666.000000	 95.950300 
665.000000	 95.993626 
664.000000	 96.011497 
663.000000	 96.051616 
662.000000	 96.123579 
661.000000	 96.198346 
660.000000	 96.258530 
659.000000	 96.319987 
658.000000	 96.391475 
657.000000	 96.447928 
656.000000	 96.468444 
655.000000	 96.460912 
654.000000	 96.432583 
653.000000	 96.378692 
652.000000	 96.315281 
651.000000	 96.288338 
650.000000	 96.318890 

