4000.000000	96.998699 
3999.000000	96.997887 
3998.000000	96.996505 
3997.000000	96.995185 
3996.000000	96.994512 
3995.000000	96.994591 
3994.000000	96.995208 
3993.000000	96.995974 
3992.000000	96.996521 
3991.000000	96.996677 
3990.000000	96.996504 
3989.000000	96.996220 
3988.000000	96.995983 
3987.000000	96.995786 
3986.000000	96.995591 
3985.000000	96.995457 
3984.000000	96.995407 
3983.000000	96.995325 
3982.000000	96.995147 
3981.000000	96.995026 
3980.000000	96.995059 
3979.000000	96.995027 
3978.000000	96.994673 
3977.000000	96.994143 
3976.000000	96.993839 
3975.000000	96.993827 
3974.000000	96.993684 
3973.000000	96.992997 
3972.000000	96.991753 
3971.000000	96.990296 
3970.000000	96.989050 
3969.000000	96.988303 
3968.000000	96.988111 
3967.000000	96.988266 
3966.000000	96.988395 
3965.000000	96.988230 
3964.000000	96.987700 
3963.000000	96.986863 
3962.000000	96.985865 
3961.000000	96.984922 
3960.000000	96.984170 
3959.000000	96.983606 
3958.000000	96.983162 
3957.000000	96.982802 
3956.000000	96.982494 
3955.000000	96.982093 
3954.000000	96.981425 
3953.000000	96.980436 
3952.000000	96.979291 
3951.000000	96.978284 
3950.000000	96.977586 
3949.000000	96.977123 
3948.000000	96.976590 
3947.000000	96.975741 
3946.000000	96.974734 
3945.000000	96.974092 
3944.000000	96.974190 
3943.000000	96.974648 
3942.000000	96.974702 
3941.000000	96.974167 
3940.000000	96.973610 
3939.000000	96.973578 
3938.000000	96.973885 
3937.000000	96.973831 
3936.000000	96.972907 
3935.000000	96.970977 
3934.000000	96.968494 
3933.000000	96.966429 
3932.000000	96.965664 
3931.000000	96.965935 
3930.000000	96.966054 
3929.000000	96.965658 
3928.000000	96.965734 
3927.000000	96.967226 
3926.000000	96.969419 
3925.000000	96.970230 
3924.000000	96.968545 
3923.000000	96.965082 
3922.000000	96.961039 
3921.000000	96.957349 
3920.000000	96.955037 
3919.000000	96.955141 
3918.000000	96.957510 
3917.000000	96.960522 
3916.000000	96.962718 
3915.000000	96.963957 
3914.000000	96.964641 
3913.000000	96.964763 
3912.000000	96.964152 
3911.000000	96.963155 
3910.000000	96.961991 
3909.000000	96.960335 
3908.000000	96.957972 
3907.000000	96.954943 
3906.000000	96.951463 
3905.000000	96.947115 
3904.000000	96.941593 
3903.000000	96.936286 
3902.000000	96.933592 
3901.000000	96.934662 
3900.000000	96.938404 
3899.000000	96.942432 
3898.000000	96.945280 
3897.000000	96.946683 
3896.000000	96.946670 
3895.000000	96.945762 
3894.000000	96.945005 
3893.000000	96.945228 
3892.000000	96.945849 
3891.000000	96.945276 
3890.000000	96.943070 
3889.000000	96.940242 
3888.000000	96.938206 
3887.000000	96.937619 
3886.000000	96.938136 
3885.000000	96.938780 
3884.000000	96.938725 
3883.000000	96.937800 
3882.000000	96.936618 
3881.000000	96.936097 
3880.000000	96.936495 
3879.000000	96.937097 
3878.000000	96.937151 
3877.000000	96.936693 
3876.000000	96.936241 
3875.000000	96.935962 
3874.000000	96.935546 
3873.000000	96.934852 
3872.000000	96.934131 
3871.000000	96.933607 
3870.000000	96.933270 
3869.000000	96.933090 
3868.000000	96.933032 
3867.000000	96.933017 
3866.000000	96.933007 
3865.000000	96.933037 
3864.000000	96.933121 
3863.000000	96.933213 
3862.000000	96.933279 
3861.000000	96.933319 
3860.000000	96.933326 
3859.000000	96.933290 
3858.000000	96.933209 
3857.000000	96.933097 
3856.000000	96.932985 
3855.000000	96.932901 
3854.000000	96.932863 
3853.000000	96.932866 
3852.000000	96.932908 
3851.000000	96.933019 
3850.000000	96.933201 
3849.000000	96.933456 
3848.000000	96.933811 
3847.000000	96.934283 
3846.000000	96.934785 
3845.000000	96.935164 
3844.000000	96.935336 
3843.000000	96.935322 
3842.000000	96.935186 
3841.000000	96.935078 
3840.000000	96.935165 
3839.000000	96.935556 
3838.000000	96.936224 
3837.000000	96.936879 
3836.000000	96.937258 
3835.000000	96.937377 
3834.000000	96.937500 
3833.000000	96.937934 
3832.000000	96.938751 
3831.000000	96.939754 
3830.000000	96.940701 
3829.000000	96.941512 
3828.000000	96.942418 
3827.000000	96.943645 
3826.000000	96.944829 
3825.000000	96.945320 
3824.000000	96.944850 
3823.000000	96.944018 
3822.000000	96.943844 
3821.000000	96.944387 
3820.000000	96.944923 
3819.000000	96.945034 
3818.000000	96.945071 
3817.000000	96.946019 
3816.000000	96.948694 
3815.000000	96.952812 
3814.000000	96.956824 
3813.000000	96.959066 
3812.000000	96.959118 
3811.000000	96.958373 
3810.000000	96.958578 
3809.000000	96.960037 
3808.000000	96.961475 
3807.000000	96.961399 
3806.000000	96.959436 
3805.000000	96.956202 
3804.000000	96.952408 
3803.000000	96.949957 
3802.000000	96.950622 
3801.000000	96.953419 
3800.000000	96.955928 
3799.000000	96.956341 
3798.000000	96.955176 
3797.000000	96.955530 
3796.000000	96.959832 
3795.000000	96.966828 
3794.000000	96.972586 
3793.000000	96.974811 
3792.000000	96.974991 
3791.000000	96.976376 
3790.000000	96.979520 
3789.000000	96.981762 
3788.000000	96.981464 
3787.000000	96.980209 
3786.000000	96.980202 
3785.000000	96.980992 
3784.000000	96.980140 
3783.000000	96.976633 
3782.000000	96.971750 
3781.000000	96.967886 
3780.000000	96.967050 
3779.000000	96.969732 
3778.000000	96.974226 
3777.000000	96.977782 
3776.000000	96.978399 
3775.000000	96.975774 
3774.000000	96.971093 
3773.000000	96.966038 
3772.000000	96.962030 
3771.000000	96.959370 
3770.000000	96.957502 
3769.000000	96.956489 
3768.000000	96.956811 
3767.000000	96.958130 
3766.000000	96.959686 
3765.000000	96.960385 
3764.000000	96.959538 
3763.000000	96.956772 
3762.000000	96.951731 
3761.000000	96.945694 
3760.000000	96.941673 
3759.000000	96.941798 
3758.000000	96.941993 
3757.000000	96.935348 
3756.000000	96.921001 
3755.000000	96.903154 
3754.000000	96.885540 
3753.000000	96.869743 
3752.000000	96.858943 
3751.000000	96.856393 
3750.000000	96.857240 
3749.000000	96.853071 
3748.000000	96.843641 
3747.000000	96.836476 
3746.000000	96.839517 
3745.000000	96.850816 
3744.000000	96.864061 
3743.000000	96.875509 
3742.000000	96.878687 
3741.000000	96.867804 
3740.000000	96.847810 
3739.000000	96.833562 
3738.000000	96.834808 
3737.000000	96.843837 
3736.000000	96.848672 
3735.000000	96.849398 
3734.000000	96.853705 
3733.000000	96.861869 
3732.000000	96.868754 
3731.000000	96.873859 
3730.000000	96.878102 
3729.000000	96.879647 
3728.000000	96.878099 
3727.000000	96.876412 
3726.000000	96.877401 
3725.000000	96.879216 
3724.000000	96.877706 
3723.000000	96.872547 
3722.000000	96.867422 
3721.000000	96.864845 
3720.000000	96.861247 
3719.000000	96.853517 
3718.000000	96.842610 
3717.000000	96.829238 
3716.000000	96.812903 
3715.000000	96.791172 
3714.000000	96.763468 
3713.000000	96.735182 
3712.000000	96.712713 
3711.000000	96.696592 
3710.000000	96.681216 
3709.000000	96.662342 
3708.000000	96.639875 
3707.000000	96.613548 
3706.000000	96.582782 
3705.000000	96.548278 
3704.000000	96.512232 
3703.000000	96.476649 
3702.000000	96.440618 
3701.000000	96.402347 
3700.000000	96.362966 
3699.000000	96.326770 
3698.000000	96.298456 
3697.000000	96.279051 
3696.000000	96.266858 
3695.000000	96.259209 
3694.000000	96.252152 
3693.000000	96.243312 
3692.000000	96.234432 
3691.000000	96.229033 
3690.000000	96.225182 
3689.000000	96.217910 
3688.000000	96.208183 
3687.000000	96.200307 
3686.000000	96.194301 
3685.000000	96.186135 
3684.000000	96.173289 
3683.000000	96.158098 
3682.000000	96.143621 
3681.000000	96.125753 
3680.000000	96.095934 
3679.000000	96.049868 
3678.000000	95.992903 
3677.000000	95.934425 
3676.000000	95.878088 
3675.000000	95.826362 
3674.000000	95.781781 
3673.000000	95.740826 
3672.000000	95.697801 
3671.000000	95.655826 
3670.000000	95.620863 
3669.000000	95.591911 
3668.000000	95.562174 
3667.000000	95.526892 
3666.000000	95.488937 
3665.000000	95.453513 
3664.000000	95.420532 
3663.000000	95.386280 
3662.000000	95.347385 
3661.000000	95.302044 
3660.000000	95.250847 
3659.000000	95.194988 
3658.000000	95.136242 
3657.000000	95.075638 
3656.000000	95.015044 
3655.000000	94.959605 
3654.000000	94.911626 
3653.000000	94.867254 
3652.000000	94.818975 
3651.000000	94.760211 
3650.000000	94.689217 
3649.000000	94.613160 
3648.000000	94.546598 
3647.000000	94.500414 
3646.000000	94.475337 
3645.000000	94.464717 
3644.000000	94.459697 
3643.000000	94.453105 
3642.000000	94.439937 
3641.000000	94.417047 
3640.000000	94.384397 
3639.000000	94.344085 
3638.000000	94.299410 
3637.000000	94.253005 
3636.000000	94.206039 
3635.000000	94.158864 
3634.000000	94.112817 
3633.000000	94.070865 
3632.000000	94.032944 
3631.000000	93.992443 
3630.000000	93.939659 
3629.000000	93.873641 
3628.000000	93.811017 
3627.000000	93.770465 
3626.000000	93.752964 
3625.000000	93.750012 
3624.000000	93.755413 
3623.000000	93.765189 
3622.000000	93.774984 
3621.000000	93.780937 
3620.000000	93.782572 
3619.000000	93.784557 
3618.000000	93.794176 
3617.000000	93.816777 
3616.000000	93.854478 
3615.000000	93.904971 
3614.000000	93.959888 
3613.000000	94.009004 
3612.000000	94.047316 
3611.000000	94.076033 
3610.000000	94.099179 
3609.000000	94.120862 
3608.000000	94.143254 
3607.000000	94.167370 
3606.000000	94.194229 
3605.000000	94.225517 
3604.000000	94.262817 
3603.000000	94.304383 
3602.000000	94.344426 
3601.000000	94.376282 
3600.000000	94.397463 
3599.000000	94.411237 
3598.000000	94.423390 
3597.000000	94.438029 
3596.000000	94.457182 
3595.000000	94.478850 
3594.000000	94.497562 
3593.000000	94.510167 
3592.000000	94.517581 
3591.000000	94.522431 
3590.000000	94.526956 
3589.000000	94.532020 
3588.000000	94.536805 
3587.000000	94.540906 
3586.000000	94.546909 
3585.000000	94.558469 
3584.000000	94.577524 
3583.000000	94.602659 
3582.000000	94.629784 
3581.000000	94.652969 
3580.000000	94.667568 
3579.000000	94.673024 
3578.000000	94.672647 
3577.000000	94.670834 
3576.000000	94.669719 
3575.000000	94.669056 
3574.000000	94.667385 
3573.000000	94.664016 
3572.000000	94.658682 
3571.000000	94.650399 
3570.000000	94.638097 
3569.000000	94.622950 
3568.000000	94.609327 
3567.000000	94.602284 
3566.000000	94.603598 
3565.000000	94.610789 
3564.000000	94.619754 
3563.000000	94.628087 
3562.000000	94.635388 
3561.000000	94.641943 
3560.000000	94.647452 
3559.000000	94.651061 
3558.000000	94.652442 
3557.000000	94.652655 
3556.000000	94.653484 
3555.000000	94.655884 
3554.000000	94.658904 
3553.000000	94.659964 
3552.000000	94.657223 
3551.000000	94.651218 
3550.000000	94.644443 
3549.000000	94.639814 
3548.000000	94.639149 
3547.000000	94.641571 
3546.000000	94.643805 
3545.000000	94.643355 
3544.000000	94.641565 
3543.000000	94.642050 
3542.000000	94.646487 
3541.000000	94.653316 
3540.000000	94.659894 
3539.000000	94.664450 
3538.000000	94.666379 
3537.000000	94.665865 
3536.000000	94.664080 
3535.000000	94.662403 
3534.000000	94.661423 
3533.000000	94.660994 
3532.000000	94.661018 
3531.000000	94.661713 
3530.000000	94.662781 
3529.000000	94.663007 
3528.000000	94.661100 
3527.000000	94.657010 
3526.000000	94.652204 
3525.000000	94.648705 
3524.000000	94.647889 
3523.000000	94.649919 
3522.000000	94.653822 
3521.000000	94.658043 
3520.000000	94.661393 
3519.000000	94.663414 
3518.000000	94.664226 
3517.000000	94.664022 
3516.000000	94.662884 
3515.000000	94.660973 
3514.000000	94.658832 
3513.000000	94.657352 
3512.000000	94.656968 
3511.000000	94.656932 
3510.000000	94.655809 
3509.000000	94.653068 
3508.000000	94.649857 
3507.000000	94.647818 
3506.000000	94.647250 
3505.000000	94.646790 
3504.000000	94.644972 
3503.000000	94.641780 
3502.000000	94.638580 
3501.000000	94.636696 
3500.000000	94.636465 
3499.000000	94.637535 
3498.000000	94.639336 
3497.000000	94.640966 
3496.000000	94.640939 
3495.000000	94.637976 
3494.000000	94.632429 
3493.000000	94.626585 
3492.000000	94.622807 
3491.000000	94.621360 
3490.000000	94.620612 
3489.000000	94.619017 
3488.000000	94.616032 
3487.000000	94.611496 
3486.000000	94.605467 
3485.000000	94.599010 
3484.000000	94.593933 
3483.000000	94.590903 
3482.000000	94.588562 
3481.000000	94.585291 
3480.000000	94.581093 
3479.000000	94.576830 
3478.000000	94.572339 
3477.000000	94.566538 
3476.000000	94.559128 
3475.000000	94.551414 
3474.000000	94.545283 
3473.000000	94.541719 
3472.000000	94.540251 
3471.000000	94.539310 
3470.000000	94.537203 
3469.000000	94.533259 
3468.000000	94.528110 
3467.000000	94.522908 
3466.000000	94.518383 
3465.000000	94.514466 
3464.000000	94.510386 
3463.000000	94.504999 
3462.000000	94.497560 
3461.000000	94.488569 
3460.000000	94.479587 
3459.000000	94.471821 
3458.000000	94.465152 
3457.000000	94.458700 
3456.000000	94.452174 
3455.000000	94.446173 
3454.000000	94.441455 
3453.000000	94.438231 
3452.000000	94.436110 
3451.000000	94.434442 
3450.000000	94.432354 
3449.000000	94.428759 
3448.000000	94.422689 
3447.000000	94.413944 
3446.000000	94.403467 
3445.000000	94.393090 
3444.000000	94.384657 
3443.000000	94.379047 
3442.000000	94.375649 
3441.000000	94.372672 
3440.000000	94.368430 
3439.000000	94.362494 
3438.000000	94.355702 
3437.000000	94.349273 
3436.000000	94.344149 
3435.000000	94.340782 
3434.000000	94.339029 
3433.000000	94.337961 
3432.000000	94.336234 
3431.000000	94.333212 
3430.000000	94.329361 
3429.000000	94.325446 
3428.000000	94.321404 
3427.000000	94.316492 
3426.000000	94.310711 
3425.000000	94.305609 
3424.000000	94.302996 
3423.000000	94.302685 
3422.000000	94.302123 
3421.000000	94.298942 
3420.000000	94.293518 
3419.000000	94.288256 
3418.000000	94.284787 
3417.000000	94.282922 
3416.000000	94.281953 
3415.000000	94.281464 
3414.000000	94.280573 
3413.000000	94.277711 
3412.000000	94.272262 
3411.000000	94.265890 
3410.000000	94.261306 
3409.000000	94.259889 
3408.000000	94.260890 
3407.000000	94.262498 
3406.000000	94.263373 
3405.000000	94.263381 
3404.000000	94.263331 
3403.000000	94.263848 
3402.000000	94.264543 
3401.000000	94.264541 
3400.000000	94.263650 
3399.000000	94.262419 
3398.000000	94.261070 
3397.000000	94.259256 
3396.000000	94.257111 
3395.000000	94.255812 
3394.000000	94.256452 
3393.000000	94.258693 
3392.000000	94.260904 
3391.000000	94.261562 
3390.000000	94.260407 
3389.000000	94.258556 
3388.000000	94.257851 
3387.000000	94.259691 
3386.000000	94.263860 
3385.000000	94.268262 
3384.000000	94.270456 
3383.000000	94.269979 
3382.000000	94.268981 
3381.000000	94.270154 
3380.000000	94.273968 
3379.000000	94.278438 
3378.000000	94.281753 
3377.000000	94.284624 
3376.000000	94.289049 
3375.000000	94.295108 
3374.000000	94.300246 
3373.000000	94.302132 
3372.000000	94.301322 
3371.000000	94.300551 
3370.000000	94.301880 
3369.000000	94.305202 
3368.000000	94.309203 
3367.000000	94.312894 
3366.000000	94.316112 
3365.000000	94.319177 
3364.000000	94.322412 
3363.000000	94.325786 
3362.000000	94.328862 
3361.000000	94.331245 
3360.000000	94.333224 
3359.000000	94.335766 
3358.000000	94.339665 
3357.000000	94.344758 
3356.000000	94.350063 
3355.000000	94.354733 
3354.000000	94.358815 
3353.000000	94.362987 
3352.000000	94.367633 
3351.000000	94.372349 
3350.000000	94.376391 
3349.000000	94.379512 
3348.000000	94.382251 
3347.000000	94.385461 
3346.000000	94.389628 
3345.000000	94.394553 
3344.000000	94.399480 
3343.000000	94.403605 
3342.000000	94.406668 
3341.000000	94.409142 
3340.000000	94.411786 
3339.000000	94.414865 
3338.000000	94.418112 
3337.000000	94.421302 
3336.000000	94.424572 
3335.000000	94.428163 
3334.000000	94.432041 
3333.000000	94.435900 
3332.000000	94.439506 
3331.000000	94.442940 
3330.000000	94.446477 
3329.000000	94.450282 
3328.000000	94.454299 
3327.000000	94.458374 
3326.000000	94.462432 
3325.000000	94.466495 
3324.000000	94.470536 
3323.000000	94.474403 
3322.000000	94.477946 
3321.000000	94.481207 
3320.000000	94.484415 
3319.000000	94.487801 
3318.000000	94.491470 
3317.000000	94.495418 
3316.000000	94.499566 
3315.000000	94.503732 
3314.000000	94.507689 
3313.000000	94.511347 
3312.000000	94.514858 
3311.000000	94.518501 
3310.000000	94.522457 
3309.000000	94.526711 
3308.000000	94.531084 
3307.000000	94.535301 
3306.000000	94.539114 
3305.000000	94.542466 
3304.000000	94.545593 
3303.000000	94.548912 
3302.000000	94.552695 
3301.000000	94.556853 
3300.000000	94.560964 
3299.000000	94.564580 
3298.000000	94.567571 
3297.000000	94.570273 
3296.000000	94.573309 
3295.000000	94.577099 
3294.000000	94.581632 
3293.000000	94.586593 
3292.000000	94.591633 
3291.000000	94.596509 
3290.000000	94.601076 
3289.000000	94.605305 
3288.000000	94.609316 
3287.000000	94.613291 
3286.000000	94.617286 
3285.000000	94.621167 
3284.000000	94.624784 
3283.000000	94.628207 
3282.000000	94.631747 
3281.000000	94.635662 
3280.000000	94.639821 
3279.000000	94.643771 
3278.000000	94.647268 
3277.000000	94.650667 
3276.000000	94.654576 
3275.000000	94.659126 
3274.000000	94.663799 
3273.000000	94.668089 
3272.000000	94.672131 
3271.000000	94.676519 
3270.000000	94.681597 
3269.000000	94.687035 
3268.000000	94.692059 
3267.000000	94.696139 
3266.000000	94.699459 
3265.000000	94.702819 
3264.000000	94.706881 
3263.000000	94.711567 
3262.000000	94.716326 
3261.000000	94.720841 
3260.000000	94.725139 
3259.000000	94.729068 
3258.000000	94.732318 
3257.000000	94.735154 
3256.000000	94.738573 
3255.000000	94.743154 
3254.000000	94.748194 
3253.000000	94.752562 
3252.000000	94.756223 
3251.000000	94.760303 
3250.000000	94.765629 
3249.000000	94.771826 
3248.000000	94.777857 
3247.000000	94.783122 
3246.000000	94.787744 
3245.000000	94.792013 
3244.000000	94.795888 
3243.000000	94.799171 
3242.000000	94.802091 
3241.000000	94.805483 
3240.000000	94.810078 
3239.000000	94.815748 
3238.000000	94.821769 
3237.000000	94.827855 
3236.000000	94.834452 
3235.000000	94.841732 
3234.000000	94.848860 
3233.000000	94.854692 
3232.000000	94.859029 
3231.000000	94.862807 
3230.000000	94.867116 
3229.000000	94.872356 
3228.000000	94.878264 
3227.000000	94.884391 
3226.000000	94.890539 
3225.000000	94.896855 
3224.000000	94.903515 
3223.000000	94.910383 
3222.000000	94.917071 
3221.000000	94.923372 
3220.000000	94.929472 
3219.000000	94.935698 
3218.000000	94.942133 
3217.000000	94.948506 
3216.000000	94.954435 
3215.000000	94.959875 
3214.000000	94.965358 
3213.000000	94.971547 
3212.000000	94.978452 
3211.000000	94.985337 
3210.000000	94.991596 
3209.000000	94.997462 
3208.000000	95.003623 
3207.000000	95.010367 
3206.000000	95.017428 
3205.000000	95.024585 
3204.000000	95.031954 
3203.000000	95.039641 
3202.000000	95.047386 
3201.000000	95.054705 
3200.000000	95.061294 
3199.000000	95.067295 
3198.000000	95.073222 
3197.000000	95.079541 
3196.000000	95.086258 
3195.000000	95.093049 
3194.000000	95.099871 
3193.000000	95.107173 
3192.000000	95.115312 
3191.000000	95.123914 
3190.000000	95.132051 
3189.000000	95.139095 
3188.000000	95.145186 
3187.000000	95.151093 
3186.000000	95.157690 
3185.000000	95.165371 
3184.000000	95.173774 
3183.000000	95.182079 
3182.000000	95.189856 
3181.000000	95.197367 
3180.000000	95.204921 
3179.000000	95.212313 
3178.000000	95.219208 
3177.000000	95.225833 
3176.000000	95.232810 
3175.000000	95.240417 
3174.000000	95.248464 
3173.000000	95.256765 
3172.000000	95.265241 
3171.000000	95.273550 
3170.000000	95.281150 
3169.000000	95.287915 
3168.000000	95.294300 
3167.000000	95.300761 
3166.000000	95.307343 
3165.000000	95.313976 
3164.000000	95.320734 
3163.000000	95.327624 
3162.000000	95.334454 
3161.000000	95.341069 
3160.000000	95.347547 
3159.000000	95.354104 
3158.000000	95.361013 
3157.000000	95.368572 
3156.000000	95.376831 
3155.000000	95.385301 
3154.000000	95.393275 
3153.000000	95.400571 
3152.000000	95.407630 
3151.000000	95.414780 
3150.000000	95.421689 
3149.000000	95.427816 
3148.000000	95.433163 
3147.000000	95.438427 
3146.000000	95.444515 
3145.000000	95.451919 
3144.000000	95.460369 
3143.000000	95.468819 
3142.000000	95.476193 
3141.000000	95.482377 
3140.000000	95.488280 
3139.000000	95.494777 
3138.000000	95.501853 
3137.000000	95.508979 
3136.000000	95.515815 
3135.000000	95.522264 
3134.000000	95.528297 
3133.000000	95.534127 
3132.000000	95.540163 
3131.000000	95.546511 
3130.000000	95.552897 
3129.000000	95.559387 
3128.000000	95.566661 
3127.000000	95.575219 
3126.000000	95.584681 
3125.000000	95.594179 
3124.000000	95.603084 
3123.000000	95.611054 
3122.000000	95.617852 
3121.000000	95.623649 
3120.000000	95.629259 
3119.000000	95.635524 
3118.000000	95.642582 
3117.000000	95.650075 
3116.000000	95.657767 
3115.000000	95.665612 
3114.000000	95.673527 
3113.000000	95.681486 
3112.000000	95.689635 
3111.000000	95.697932 
3110.000000	95.705906 
3109.000000	95.713112 
3108.000000	95.719657 
3107.000000	95.725982 
3106.000000	95.732201 
3105.000000	95.737990 
3104.000000	95.743061 
3103.000000	95.747482 
3102.000000	95.751475 
3101.000000	95.755181 
3100.000000	95.758813 
3099.000000	95.762986 
3098.000000	95.768736 
3097.000000	95.776927 
3096.000000	95.787250 
3095.000000	95.797816 
3094.000000	95.806471 
3093.000000	95.812659 
3092.000000	95.817626 
3091.000000	95.822775 
3090.000000	95.828225 
3089.000000	95.833192 
3088.000000	95.837225 
3087.000000	95.840778 
3086.000000	95.844869 
3085.000000	95.850340 
3084.000000	95.857043 
3083.000000	95.863771 
3082.000000	95.869511 
3081.000000	95.874745 
3080.000000	95.880782 
3079.000000	95.887682 
3078.000000	95.894006 
3077.000000	95.899064 
3076.000000	95.904125 
3075.000000	95.910445 
3074.000000	95.917191 
3073.000000	95.922581 
3072.000000	95.926266 
3071.000000	95.929326 
3070.000000	95.932589 
3069.000000	95.936409 
3068.000000	95.941525 
3067.000000	95.948365 
3066.000000	95.955475 
3065.000000	95.960291 
3064.000000	95.961776 
3063.000000	95.961207 
3062.000000	95.960405 
3061.000000	95.960388 
3060.000000	95.961776 
3059.000000	95.965150 
3058.000000	95.970633 
3057.000000	95.977815 
3056.000000	95.985953 
3055.000000	95.993429 
3054.000000	95.997733 
3053.000000	95.997783 
3052.000000	95.996221 
3051.000000	95.997617 
3050.000000	96.003676 
3049.000000	96.011598 
3048.000000	96.017586 
3047.000000	96.020420 
3046.000000	96.020918 
3045.000000	96.019930 
3044.000000	96.018510 
3043.000000	96.019019 
3042.000000	96.023771 
3041.000000	96.032134 
3040.000000	96.040147 
3039.000000	96.043807 
3038.000000	96.042389 
3037.000000	96.038319 
3036.000000	96.034252 
3035.000000	96.030802 
3034.000000	96.027195 
3033.000000	96.023243 
3032.000000	96.019722 
3031.000000	96.017156 
3030.000000	96.015329 
3029.000000	96.014027 
3028.000000	96.013025 
3027.000000	96.011039 
3026.000000	96.006067 
3025.000000	95.997744 
3024.000000	95.988427 
3023.000000	95.980821 
3022.000000	95.975202 
3021.000000	95.970251 
3020.000000	95.965759 
3019.000000	95.962672 
3018.000000	95.960538 
3017.000000	95.956782 
3016.000000	95.949323 
3015.000000	95.938876 
3014.000000	95.928168 
3013.000000	95.919487 
3012.000000	95.913121 
3011.000000	95.907408 
3010.000000	95.900072 
3009.000000	95.890158 
3008.000000	95.878787 
3007.000000	95.867669 
3006.000000	95.857105 
3005.000000	95.846213 
3004.000000	95.834871 
3003.000000	95.824374 
3002.000000	95.816069 
3001.000000	95.810137 
3000.000000	95.805668 
2999.000000	95.800940 
2998.000000	95.793767 
2997.000000	95.783035 
2996.000000	95.770288 
2995.000000	95.758449 
2994.000000	95.748175 
2993.000000	95.736509 
2992.000000	95.720314 
2991.000000	95.700725 
2990.000000	95.683128 
2989.000000	95.672685 
2988.000000	95.670640 
2987.000000	95.674833 
2986.000000	95.682759 
2985.000000	95.693356 
2984.000000	95.705913 
2983.000000	95.718428 
2982.000000	95.728186 
2981.000000	95.733837 
2980.000000	95.735986 
2979.000000	95.735622 
2978.000000	95.733101 
2977.000000	95.729202 
2976.000000	95.726067 
2975.000000	95.725886 
2974.000000	95.729062 
2973.000000	95.734555 
2972.000000	95.741567 
2971.000000	95.749886 
2970.000000	95.759001 
2969.000000	95.768263 
2968.000000	95.777942 
2967.000000	95.788871 
2966.000000	95.800822 
2965.000000	95.812354 
2964.000000	95.822675 
2963.000000	95.832690 
2962.000000	95.843699 
2961.000000	95.855772 
2960.000000	95.868031 
2959.000000	95.880038 
2958.000000	95.892264 
2957.000000	95.905198 
2956.000000	95.918181 
2955.000000	95.929240 
2954.000000	95.936625 
2953.000000	95.941109 
2952.000000	95.946370 
2951.000000	95.956012 
2950.000000	95.969807 
2949.000000	95.983579 
2948.000000	95.993125 
2947.000000	95.997660 
2946.000000	95.999565 
2945.000000	96.001729 
2944.000000	96.005479 
2943.000000	96.010337 
2942.000000	96.014830 
2941.000000	96.017626 
2940.000000	96.018637 
2939.000000	96.019229 
2938.000000	96.021004 
2937.000000	96.024354 
2936.000000	96.028273 
2935.000000	96.031321 
2934.000000	96.032559 
2933.000000	96.031873 
2932.000000	96.029924 
2931.000000	96.027853 
2930.000000	96.026778 
2929.000000	96.027394 
2928.000000	96.029807 
2927.000000	96.033421 
2926.000000	96.037062 
2925.000000	96.039787 
2924.000000	96.041882 
2923.000000	96.044586 
2922.000000	96.048402 
2921.000000	96.052139 
2920.000000	96.054359 
2919.000000	96.055519 
2918.000000	96.057586 
2917.000000	96.061115 
2916.000000	96.063646 
2915.000000	96.062095 
2914.000000	96.056620 
2913.000000	96.051074 
2912.000000	96.049180 
2911.000000	96.050814 
2910.000000	96.052746 
2909.000000	96.052660 
2908.000000	96.051572 
2907.000000	96.051881 
2906.000000	96.053753 
2905.000000	96.054205 
2904.000000	96.050267 
2903.000000	96.042696 
2902.000000	96.037002 
2901.000000	96.038951 
2900.000000	96.050073 
2899.000000	96.067031 
2898.000000	96.084446 
2897.000000	96.098725 
2896.000000	96.108779 
2895.000000	96.114671 
2894.000000	96.117330 
2893.000000	96.119358 
2892.000000	96.123965 
2891.000000	96.131939 
2890.000000	96.140650 
2889.000000	96.147154 
2888.000000	96.151557 
2887.000000	96.156055 
2886.000000	96.161414 
2885.000000	96.166414 
2884.000000	96.170921 
2883.000000	96.177312 
2882.000000	96.187479 
2881.000000	96.199825 
2880.000000	96.211019 
2879.000000	96.220276 
2878.000000	96.229944 
2877.000000	96.241714 
2876.000000	96.254114 
2875.000000	96.264591 
2874.000000	96.272635 
2873.000000	96.279503 
2872.000000	96.285760 
2871.000000	96.290794 
2870.000000	96.294653 
2869.000000	96.298798 
2868.000000	96.304555 
2867.000000	96.311866 
2866.000000	96.320111 
2865.000000	96.329300 
2864.000000	96.339881 
2863.000000	96.352072 
2862.000000	96.365848 
2861.000000	96.380772 
2860.000000	96.395278 
2859.000000	96.407179 
2858.000000	96.415977 
2857.000000	96.424074 
2856.000000	96.434318 
2855.000000	96.446596 
2854.000000	96.458134 
2853.000000	96.466834 
2852.000000	96.472902 
2851.000000	96.477494 
2850.000000	96.481452 
2849.000000	96.485779 
2848.000000	96.491877 
2847.000000	96.500256 
2846.000000	96.509680 
2845.000000	96.518372 
2844.000000	96.525662 
2843.000000	96.532017 
2842.000000	96.538018 
2841.000000	96.543727 
2840.000000	96.548677 
2839.000000	96.552237 
2838.000000	96.554437 
2837.000000	96.556592 
2836.000000	96.560477 
2835.000000	96.566529 
2834.000000	96.573568 
2833.000000	96.580620 
2832.000000	96.588096 
2831.000000	96.596429 
2830.000000	96.604358 
2829.000000	96.609827 
2828.000000	96.612431 
2827.000000	96.614045 
2826.000000	96.616904 
2825.000000	96.621615 
2824.000000	96.627120 
2823.000000	96.631854 
2822.000000	96.634727 
2821.000000	96.635656 
2820.000000	96.635670 
2819.000000	96.636263 
2818.000000	96.638209 
2817.000000	96.641107 
2816.000000	96.644187 
2815.000000	96.647281 
2814.000000	96.650580 
2813.000000	96.653650 
2812.000000	96.655376 
2811.000000	96.655270 
2810.000000	96.654539 
2809.000000	96.655333 
2808.000000	96.658882 
2807.000000	96.664668 
2806.000000	96.671149 
2805.000000	96.676857 
2804.000000	96.680900 
2803.000000	96.683087 
2802.000000	96.684138 
2801.000000	96.685439 
2800.000000	96.687970 
2799.000000	96.691465 
2798.000000	96.694891 
2797.000000	96.697591 
2796.000000	96.699659 
2795.000000	96.701442 
2794.000000	96.703189 
2793.000000	96.705149 
2792.000000	96.707554 
2791.000000	96.710315 
2790.000000	96.713005 
2789.000000	96.715284 
2788.000000	96.717230 
2787.000000	96.719192 
2786.000000	96.721442 
2785.000000	96.723989 
2784.000000	96.726639 
2783.000000	96.729168 
2782.000000	96.731492 
2781.000000	96.733711 
2780.000000	96.735979 
2779.000000	96.738372 
2778.000000	96.740849 
2777.000000	96.743303 
2776.000000	96.745637 
2775.000000	96.747803 
2774.000000	96.749825 
2773.000000	96.751777 
2772.000000	96.753715 
2771.000000	96.755651 
2770.000000	96.757610 
2769.000000	96.759700 
2768.000000	96.762043 
2767.000000	96.764607 
2766.000000	96.767148 
2765.000000	96.769398 
2764.000000	96.771304 
2763.000000	96.772995 
2762.000000	96.774572 
2761.000000	96.776054 
2760.000000	96.777519 
2759.000000	96.779154 
2758.000000	96.781084 
2757.000000	96.783184 
2756.000000	96.785125 
2755.000000	96.786700 
2754.000000	96.788065 
2753.000000	96.789618 
2752.000000	96.791570 
2751.000000	96.793759 
2750.000000	96.795881 
2749.000000	96.797839 
2748.000000	96.799689 
2747.000000	96.801310 
2746.000000	96.802463 
2745.000000	96.803208 
2744.000000	96.804022 
2743.000000	96.805315 
2742.000000	96.807036 
2741.000000	96.808807 
2740.000000	96.810392 
2739.000000	96.811845 
2738.000000	96.813262 
2737.000000	96.814637 
2736.000000	96.815991 
2735.000000	96.817444 
2734.000000	96.819077 
2733.000000	96.820821 
2732.000000	96.822526 
2731.000000	96.824143 
2730.000000	96.825780 
2729.000000	96.827592 
2728.000000	96.829586 
2727.000000	96.831529 
2726.000000	96.833118 
2725.000000	96.834271 
2724.000000	96.835191 
2723.000000	96.836137 
2722.000000	96.837207 
2721.000000	96.838383 
2720.000000	96.839646 
2719.000000	96.840976 
2718.000000	96.842290 
2717.000000	96.843494 
2716.000000	96.844578 
2715.000000	96.845663 
2714.000000	96.846908 
2713.000000	96.848381 
2712.000000	96.849980 
2711.000000	96.851495 
2710.000000	96.852806 
2709.000000	96.854006 
2708.000000	96.855309 
2707.000000	96.856834 
2706.000000	96.858522 
2705.000000	96.860216 
2704.000000	96.861770 
2703.000000	96.863089 
2702.000000	96.864181 
2701.000000	96.865221 
2700.000000	96.866498 
2699.000000	96.868177 
2698.000000	96.870149 
2697.000000	96.872043 
2696.000000	96.873513 
2695.000000	96.874505 
2694.000000	96.875270 
2693.000000	96.876152 
2692.000000	96.877263 
2691.000000	96.878439 
2690.000000	96.879474 
2689.000000	96.880344 
2688.000000	96.881178 
2687.000000	96.882070 
2686.000000	96.883046 
2685.000000	96.884151 
2684.000000	96.885419 
2683.000000	96.886727 
2682.000000	96.887841 
2681.000000	96.888685 
2680.000000	96.889459 
2679.000000	96.890426 
2678.000000	96.891673 
2677.000000	96.893116 
2676.000000	96.894579 
2675.000000	96.895761 
2674.000000	96.896361 
2673.000000	96.896408 
2672.000000	96.896359 
2671.000000	96.896642 
2670.000000	96.897229 
2669.000000	96.897851 
2668.000000	96.898475 
2667.000000	96.899299 
2666.000000	96.900318 
2665.000000	96.901169 
2664.000000	96.901539 
2663.000000	96.901499 
2662.000000	96.901410 
2661.000000	96.901557 
2660.000000	96.901950 
2659.000000	96.902406 
2658.000000	96.902735 
2657.000000	96.902903 
2656.000000	96.903031 
2655.000000	96.903222 
2654.000000	96.903389 
2653.000000	96.903371 
2652.000000	96.903210 
2651.000000	96.903209 
2650.000000	96.903616 
2649.000000	96.904359 
2648.000000	96.905131 
2647.000000	96.905696 
2646.000000	96.905987 
2645.000000	96.905971 
2644.000000	96.905642 
2643.000000	96.905191 
2642.000000	96.905001 
2641.000000	96.905277 
2640.000000	96.905793 
2639.000000	96.906121 
2638.000000	96.906148 
2637.000000	96.906150 
2636.000000	96.906381 
2635.000000	96.906805 
2634.000000	96.907301 
2633.000000	96.907865 
2632.000000	96.908461 
2631.000000	96.908880 
2630.000000	96.908972 
2629.000000	96.908898 
2628.000000	96.908936 
2627.000000	96.909098 
2626.000000	96.909234 
2625.000000	96.909462 
2624.000000	96.910140 
2623.000000	96.911360 
2622.000000	96.912672 
2621.000000	96.913462 
2620.000000	96.913409 
2619.000000	96.912511 
2618.000000	96.911029 
2617.000000	96.909585 
2616.000000	96.908866 
2615.000000	96.909060 
2614.000000	96.909732 
2613.000000	96.910369 
2612.000000	96.910983 
2611.000000	96.911893 
2610.000000	96.913202 
2609.000000	96.914686 
2608.000000	96.915992 
2607.000000	96.916809 
2606.000000	96.917046 
2605.000000	96.916928 
2604.000000	96.916766 
2603.000000	96.916621 
2602.000000	96.916415 
2601.000000	96.916345 
2600.000000	96.916764 
2599.000000	96.917576 
2598.000000	96.918175 
2597.000000	96.918242 
2596.000000	96.918212 
2595.000000	96.918634 
2594.000000	96.919415 
2593.000000	96.920083 
2592.000000	96.920586 
2591.000000	96.921319 
2590.000000	96.922404 
2589.000000	96.923407 
2588.000000	96.923918 
2587.000000	96.923998 
2586.000000	96.923950 
2585.000000	96.923953 
2584.000000	96.924044 
2583.000000	96.924230 
2582.000000	96.924449 
2581.000000	96.924631 
2580.000000	96.924891 
2579.000000	96.925525 
2578.000000	96.926695 
2577.000000	96.928190 
2576.000000	96.929462 
2575.000000	96.929981 
2574.000000	96.929622 
2573.000000	96.928887 
2572.000000	96.928570 
2571.000000	96.928959 
2570.000000	96.929599 
2569.000000	96.929934 
2568.000000	96.930040 
2567.000000	96.930379 
2566.000000	96.930958 
2565.000000	96.931260 
2564.000000	96.931019 
2563.000000	96.930605 
2562.000000	96.930503 
2561.000000	96.930862 
2560.000000	96.931718 
2559.000000	96.933197 
2558.000000	96.935194 
2557.000000	96.937154 
2556.000000	96.938541 
2555.000000	96.939376 
2554.000000	96.940027 
2553.000000	96.940558 
2552.000000	96.940659 
2551.000000	96.940351 
2550.000000	96.940303 
2549.000000	96.941056 
2548.000000	96.942130 
2547.000000	96.942441 
2546.000000	96.941690 
2545.000000	96.940790 
2544.000000	96.940670 
2543.000000	96.941062 
2542.000000	96.941042 
2541.000000	96.940485 
2540.000000	96.940307 
2539.000000	96.941114 
2538.000000	96.942276 
2537.000000	96.942752 
2536.000000	96.942491 
2535.000000	96.942393 
2534.000000	96.943003 
2533.000000	96.943867 
2532.000000	96.944293 
2531.000000	96.944239 
2530.000000	96.944082 
2529.000000	96.943873 
2528.000000	96.943325 
2527.000000	96.942530 
2526.000000	96.942265 
2525.000000	96.943221 
2524.000000	96.945202 
2523.000000	96.947210 
2522.000000	96.948401 
2521.000000	96.948784 
2520.000000	96.948901 
2519.000000	96.949130 
2518.000000	96.949403 
2517.000000	96.949449 
2516.000000	96.949075 
2515.000000	96.948306 
2514.000000	96.947526 
2513.000000	96.947387 
2512.000000	96.948300 
2511.000000	96.950074 
2510.000000	96.952200 
2509.000000	96.954340 
2508.000000	96.956254 
2507.000000	96.957486 
2506.000000	96.957755 
2505.000000	96.957679 
2504.000000	96.958451 
2503.000000	96.960410 
2502.000000	96.962466 
2501.000000	96.963355 
2500.000000	96.963019 
2499.000000	96.962310 
2498.000000	96.961831 
2497.000000	96.961647 
2496.000000	96.961868 
2495.000000	96.962672 
2494.000000	96.963715 
2493.000000	96.964236 
2492.000000	96.964018 
2491.000000	96.963821 
2490.000000	96.964594 
2489.000000	96.966387 
2488.000000	96.968182 
2487.000000	96.968782 
2486.000000	96.967842 
2485.000000	96.966152 
2484.000000	96.964971 
2483.000000	96.965000 
2482.000000	96.966074 
2481.000000	96.967618 
2480.000000	96.969141 
2479.000000	96.970324 
2478.000000	96.971075 
2477.000000	96.971601 
2476.000000	96.972019 
2475.000000	96.971833 
2474.000000	96.970284 
2473.000000	96.967359 
2472.000000	96.964003 
2471.000000	96.961167 
2470.000000	96.959230 
2469.000000	96.958443 
2468.000000	96.959026 
2467.000000	96.960500 
2466.000000	96.961706 
2465.000000	96.962087 
2464.000000	96.962459 
2463.000000	96.963997 
2462.000000	96.966973 
2461.000000	96.970843 
2460.000000	96.974904 
2459.000000	96.978376 
2458.000000	96.980281 
2457.000000	96.979947 
2456.000000	96.977538 
2455.000000	96.973967 
2454.000000	96.970459 
2453.000000	96.968025 
2452.000000	96.966910 
2451.000000	96.966512 
2450.000000	96.966295 
2449.000000	96.966644 
2448.000000	96.968092 
2447.000000	96.969879 
2446.000000	96.970361 
2445.000000	96.969076 
2444.000000	96.967375 
2443.000000	96.966658 
2442.000000	96.966954 
2441.000000	96.967697 
2440.000000	96.968832 
2439.000000	96.970508 
2438.000000	96.972539 
2437.000000	96.974806 
2436.000000	96.977461 
2435.000000	96.980221 
2434.000000	96.982102 
2433.000000	96.982478 
2432.000000	96.981950 
2431.000000	96.981751 
2430.000000	96.982609 
2429.000000	96.984434 
2428.000000	96.986530 
2427.000000	96.987827 
2426.000000	96.987484 
2425.000000	96.985648 
2424.000000	96.983396 
2423.000000	96.981769 
2422.000000	96.981255 
2421.000000	96.982198 
2420.000000	96.984821 
2419.000000	96.988488 
2418.000000	96.991726 
2417.000000	96.993679 
2416.000000	96.994757 
2415.000000	96.995557 
2414.000000	96.996020 
2413.000000	96.996147 
2412.000000	96.996613 
2411.000000	96.997794 
2410.000000	96.998873 
2409.000000	96.998939 
2408.000000	96.998319 
2407.000000	96.997961 
2406.000000	96.998001 
2405.000000	96.997780 
2404.000000	96.996973 
2403.000000	96.995986 
2402.000000	96.995430 
2401.000000	96.995763 
2400.000000	96.997191 
2399.000000	96.999360 
2398.000000	97.001361 
2397.000000	97.002529 
2396.000000	97.003043 
2395.000000	97.003268 
2394.000000	97.002942 
2393.000000	97.001792 
2392.000000	97.000395 
2391.000000	96.999738 
2390.000000	96.999876 
2389.000000	96.999989 
2388.000000	96.999560 
2387.000000	96.998819 
2386.000000	96.998110 
2385.000000	96.997529 
2384.000000	96.997076 
2383.000000	96.996720 
2382.000000	96.996407 
2381.000000	96.996111 
2380.000000	96.995853 
2379.000000	96.995636 
2378.000000	96.995409 
2377.000000	96.995118 
2376.000000	96.994764 
2375.000000	96.994388 
2374.000000	96.994013 
2373.000000	96.993634 
2372.000000	96.993248 
2371.000000	96.992862 
2370.000000	96.992486 
2369.000000	96.992116 
2368.000000	96.991743 
2367.000000	96.991364 
2366.000000	96.990988 
2365.000000	96.990639 
2364.000000	96.990335 
2363.000000	96.990084 
2362.000000	96.989881 
2361.000000	96.989714 
2360.000000	96.989562 
2359.000000	96.989402 
2358.000000	96.989218 
2357.000000	96.989007 
2356.000000	96.988782 
2355.000000	96.988562 
2354.000000	96.988365 
2353.000000	96.988206 
2352.000000	96.988100 
2351.000000	96.988050 
2350.000000	96.988041 
2349.000000	96.988048 
2348.000000	96.988066 
2347.000000	96.988121 
2346.000000	96.988251 
2345.000000	96.988471 
2344.000000	96.988763 
2343.000000	96.989087 
2342.000000	96.989411 
2341.000000	96.989719 
2340.000000	96.990003 
2339.000000	96.990257 
2338.000000	96.990469 
2337.000000	96.990637 
2336.000000	96.990770 
2335.000000	96.990883 
2334.000000	96.990992 
2333.000000	96.991102 
2332.000000	96.991214 
2331.000000	96.991340 
2330.000000	96.991484 
2329.000000	96.991629 
2328.000000	96.991754 
2327.000000	96.991846 
2326.000000	96.991921 
2325.000000	96.992009 
2324.000000	96.992179 
2323.000000	96.992485 
2322.000000	96.992886 
2321.000000	96.993230 
2320.000000	96.993384 
2319.000000	96.993404 
2318.000000	96.993430 
2317.000000	96.993498 
2316.000000	96.993455 
2315.000000	96.993273 
2314.000000	96.993136 
2313.000000	96.993250 
2312.000000	96.993637 
2311.000000	96.994241 
2310.000000	96.994997 
2309.000000	96.995614 
2308.000000	96.995767 
2307.000000	96.995423 
2306.000000	96.994923 
2305.000000	96.994522 
2304.000000	96.994273 
2303.000000	96.994244 
2302.000000	96.994631 
2301.000000	96.995420 
2300.000000	96.996058 
2299.000000	96.995694 
2298.000000	96.993796 
2297.000000	96.990534 
2296.000000	96.986941 
2295.000000	96.984150 
2294.000000	96.982632 
2293.000000	96.981796 
2292.000000	96.981071 
2291.000000	96.980486 
2290.000000	96.980547 
2289.000000	96.981439 
2288.000000	96.982844 
2287.000000	96.984078 
2286.000000	96.984454 
2285.000000	96.983801 
2284.000000	96.982755 
2283.000000	96.982171 
2282.000000	96.982191 
2281.000000	96.982112 
2280.000000	96.981091 
2279.000000	96.978827 
2278.000000	96.975630 
2277.000000	96.972369 
2276.000000	96.970092 
2275.000000	96.969348 
2274.000000	96.969786 
2273.000000	96.970659 
2272.000000	96.971644 
2271.000000	96.972719 
2270.000000	96.973486 
2269.000000	96.973307 
2268.000000	96.972153 
2267.000000	96.970721 
2266.000000	96.969630 
2265.000000	96.968950 
2264.000000	96.968449 
2263.000000	96.967783 
2262.000000	96.966512 
2261.000000	96.964456 
2260.000000	96.962059 
2259.000000	96.960010 
2258.000000	96.958525 
2257.000000	96.957395 
2256.000000	96.956619 
2255.000000	96.956416 
2254.000000	96.956613 
2253.000000	96.956502 
2252.000000	96.955539 
2251.000000	96.953838 
2250.000000	96.951842 
2249.000000	96.949880 
2248.000000	96.948113 
2247.000000	96.946675 
2246.000000	96.945581 
2245.000000	96.944606 
2244.000000	96.943464 
2243.000000	96.942109 
2242.000000	96.940698 
2241.000000	96.939406 
2240.000000	96.938302 
2239.000000	96.937375 
2238.000000	96.936539 
2237.000000	96.935672 
2236.000000	96.934706 
2235.000000	96.933667 
2234.000000	96.932603 
2233.000000	96.931517 
2232.000000	96.930380 
2231.000000	96.929188 
2230.000000	96.927965 
2229.000000	96.926735 
2228.000000	96.925518 
2227.000000	96.924331 
2226.000000	96.923170 
2225.000000	96.922020 
2224.000000	96.920867 
2223.000000	96.919715 
2222.000000	96.918579 
2221.000000	96.917469 
2220.000000	96.916386 
2219.000000	96.915322 
2218.000000	96.914274 
2217.000000	96.913251 
2216.000000	96.912267 
2215.000000	96.911320 
2214.000000	96.910391 
2213.000000	96.909461 
2212.000000	96.908538 
2211.000000	96.907649 
2210.000000	96.906828 
2209.000000	96.906082 
2208.000000	96.905392 
2207.000000	96.904728 
2206.000000	96.904067 
2205.000000	96.903390 
2204.000000	96.902681 
2203.000000	96.901928 
2202.000000	96.901121 
2201.000000	96.900257 
2200.000000	96.899333 
2199.000000	96.898354 
2198.000000	96.897350 
2197.000000	96.896300 
2196.000000	96.895249 
2195.000000	96.894295 
2194.000000	96.893455 
2193.000000	96.892636 
2192.000000	96.891816 
2191.000000	96.891077 
2190.000000	96.890401 
2189.000000	96.889666 
2188.000000	96.888939 
2187.000000	96.888405 
2186.000000	96.887838 
2185.000000	96.886621 
2184.000000	96.884814 
2183.000000	96.883753 
2182.000000	96.884733 
2181.000000	96.887308 
2180.000000	96.889221 
2179.000000	96.888724 
2178.000000	96.886049 
2177.000000	96.883054 
2176.000000	96.881559 
2175.000000	96.882064 
2174.000000	96.883662 
2173.000000	96.884891 
2172.000000	96.885211 
2171.000000	96.885545 
2170.000000	96.886890 
2169.000000	96.888612 
2168.000000	96.888991 
2167.000000	96.887371 
2166.000000	96.884690 
2165.000000	96.881581 
2164.000000	96.877187 
2163.000000	96.870873 
2162.000000	96.864592 
2161.000000	96.862236 
2160.000000	96.866335 
2159.000000	96.876006 
2158.000000	96.887810 
2157.000000	96.898373 
2156.000000	96.906245 
2155.000000	96.911774 
2154.000000	96.916122 
2153.000000	96.920320 
2152.000000	96.924292 
2151.000000	96.926383 
2150.000000	96.924693 
2149.000000	96.919680 
2148.000000	96.914907 
2147.000000	96.914040 
2146.000000	96.917427 
2145.000000	96.922551 
2144.000000	96.927456 
2143.000000	96.932377 
2142.000000	96.937734 
2141.000000	96.942358 
2140.000000	96.944938 
2139.000000	96.946400 
2138.000000	96.949537 
2137.000000	96.956034 
2136.000000	96.964165 
2135.000000	96.969714 
2134.000000	96.969581 
2133.000000	96.964802 
2132.000000	96.960146 
2131.000000	96.959690 
2130.000000	96.963240 
2129.000000	96.967607 
2128.000000	96.970496 
2127.000000	96.972375 
2126.000000	96.974766 
2125.000000	96.978063 
2124.000000	96.981390 
2123.000000	96.983649 
2122.000000	96.984196 
2121.000000	96.983077 
2120.000000	96.981055 
2119.000000	96.979099 
2118.000000	96.977828 
2117.000000	96.977579 
2116.000000	96.978480 
2115.000000	96.979931 
2114.000000	96.980377 
2113.000000	96.978659 
2112.000000	96.975664 
2111.000000	96.973749 
2110.000000	96.974183 
2109.000000	96.976120 
2108.000000	96.978052 
2107.000000	96.979306 
2106.000000	96.979811 
2105.000000	96.979656 
2104.000000	96.979540 
2103.000000	96.980493 
2102.000000	96.982237 
2101.000000	96.982852 
2100.000000	96.981107 
2099.000000	96.978416 
2098.000000	96.977478 
2097.000000	96.979176 
2096.000000	96.982142 
2095.000000	96.984635 
2094.000000	96.985990 
2093.000000	96.986298 
2092.000000	96.985834 
2091.000000	96.985197 
2090.000000	96.985255 
2089.000000	96.986392 
2088.000000	96.988015 
2087.000000	96.988999 
2086.000000	96.988631 
2085.000000	96.987073 
2084.000000	96.985244 
2083.000000	96.984140 
2082.000000	96.984023 
2081.000000	96.984373 
2080.000000	96.984758 
2079.000000	96.985477 
2078.000000	96.986849 
2077.000000	96.988160 
2076.000000	96.988199 
2075.000000	96.986856 
2074.000000	96.985278 
2073.000000	96.984108 
2072.000000	96.982666 
2071.000000	96.980368 
2070.000000	96.977862 
2069.000000	96.976281 
2068.000000	96.975948 
2067.000000	96.976252 
2066.000000	96.976357 
2065.000000	96.975659 
2064.000000	96.973903 
2063.000000	96.971290 
2062.000000	96.968527 
2061.000000	96.966567 
2060.000000	96.965981 
2059.000000	96.966663 
2058.000000	96.967846 
2057.000000	96.968418 
2056.000000	96.967627 
2055.000000	96.965453 
2054.000000	96.962613 
2053.000000	96.960180 
2052.000000	96.958899 
2051.000000	96.958694 
2050.000000	96.958866 
2049.000000	96.958721 
2048.000000	96.958108 
2047.000000	96.957322 
2046.000000	96.956659 
2045.000000	96.956204 
2044.000000	96.955944 
2043.000000	96.955842 
2042.000000	96.955828 
2041.000000	96.955879 
2040.000000	96.956195 
2039.000000	96.957134 
2038.000000	96.958782 
2037.000000	96.960567 
2036.000000	96.961580 
2035.000000	96.961397 
2034.000000	96.960609 
2033.000000	96.960521 
2032.000000	96.961930 
2031.000000	96.964030 
2030.000000	96.964777 
2029.000000	96.962842 
2028.000000	96.959126 
2027.000000	96.956044 
2026.000000	96.954968 
2025.000000	96.955352 
2024.000000	96.956349 
2023.000000	96.958421 
2022.000000	96.962512 
2021.000000	96.968060 
2020.000000	96.972650 
2019.000000	96.973948 
2018.000000	96.971396 
2017.000000	96.966450 
2016.000000	96.961714 
2015.000000	96.959010 
2014.000000	96.958003 
2013.000000	96.956700 
2012.000000	96.953931 
2011.000000	96.951329 
2010.000000	96.951692 
2009.000000	96.955567 
2008.000000	96.960375 
2007.000000	96.963217 
2006.000000	96.963798 
2005.000000	96.963680 
2004.000000	96.963943 
2003.000000	96.964592 
2002.000000	96.965611 
2001.000000	96.966982 
2000.000000	96.967673 
1999.000000	96.965910 
1998.000000	96.961002 
1997.000000	96.954441 
1996.000000	96.948938 
1995.000000	96.946196 
1994.000000	96.945856 
1993.000000	96.946213 
1992.000000	96.945663 
1991.000000	96.944035 
1990.000000	96.942565 
1989.000000	96.942527 
1988.000000	96.943845 
1987.000000	96.945007 
1986.000000	96.944494 
1985.000000	96.942347 
1984.000000	96.940021 
1983.000000	96.938827 
1982.000000	96.938742 
1981.000000	96.938943 
1980.000000	96.938972 
1979.000000	96.938973 
1978.000000	96.938988 
1977.000000	96.938749 
1976.000000	96.938206 
1975.000000	96.937746 
1974.000000	96.937776 
1973.000000	96.938340 
1972.000000	96.939163 
1971.000000	96.939871 
1970.000000	96.940206 
1969.000000	96.940144 
1968.000000	96.939849 
1967.000000	96.939550 
1966.000000	96.939427 
1965.000000	96.939517 
1964.000000	96.939768 
1963.000000	96.940083 
1962.000000	96.940386 
1961.000000	96.940638 
1960.000000	96.940843 
1959.000000	96.941031 
1958.000000	96.941226 
1957.000000	96.941457 
1956.000000	96.941750 
1955.000000	96.942101 
1954.000000	96.942468 
1953.000000	96.942806 
1952.000000	96.943095 
1951.000000	96.943348 
1950.000000	96.943584 
1949.000000	96.943818 
1948.000000	96.944055 
1947.000000	96.944289 
1946.000000	96.944500 
1945.000000	96.944664 
1944.000000	96.944757 
1943.000000	96.944782 
1942.000000	96.944764 
1941.000000	96.944721 
1940.000000	96.944661 
1939.000000	96.944597 
1938.000000	96.944537 
1937.000000	96.944489 
1936.000000	96.944479 
1935.000000	96.944518 
1934.000000	96.944537 
1933.000000	96.944433 
1932.000000	96.944204 
1931.000000	96.943973 
1930.000000	96.943845 
1929.000000	96.943726 
1928.000000	96.943453 
1927.000000	96.943030 
1926.000000	96.942555 
1925.000000	96.942009 
1924.000000	96.941305 
1923.000000	96.940492 
1922.000000	96.939635 
1921.000000	96.938625 
1920.000000	96.937456 
1919.000000	96.936457 
1918.000000	96.935855 
1917.000000	96.935203 
1916.000000	96.933901 
1915.000000	96.932367 
1914.000000	96.931628 
1913.000000	96.931739 
1912.000000	96.931587 
1911.000000	96.930533 
1910.000000	96.929100 
1909.000000	96.927991 
1908.000000	96.927379 
1907.000000	96.927173 
1906.000000	96.926969 
1905.000000	96.925746 
1904.000000	96.922763 
1903.000000	96.919117 
1902.000000	96.916924 
1901.000000	96.916565 
1900.000000	96.916515 
1899.000000	96.915753 
1898.000000	96.914781 
1897.000000	96.913966 
1896.000000	96.912344 
1895.000000	96.909207 
1894.000000	96.905414 
1893.000000	96.902012 
1892.000000	96.899048 
1891.000000	96.896552 
1890.000000	96.895237 
1889.000000	96.895289 
1888.000000	96.895774 
1887.000000	96.896309 
1886.000000	96.897463 
1885.000000	96.898547 
1884.000000	96.897216 
1883.000000	96.892502 
1882.000000	96.886750 
1881.000000	96.883122 
1880.000000	96.882284 
1879.000000	96.882485 
1878.000000	96.881893 
1877.000000	96.880625 
1876.000000	96.880151 
1875.000000	96.881536 
1874.000000	96.884611 
1873.000000	96.887967 
1872.000000	96.890033 
1871.000000	96.890308 
1870.000000	96.889273 
1869.000000	96.887795 
1868.000000	96.886782 
1867.000000	96.887151 
1866.000000	96.888974 
1865.000000	96.890488 
1864.000000	96.889972 
1863.000000	96.888506 
1862.000000	96.888905 
1861.000000	96.891954 
1860.000000	96.895579 
1859.000000	96.898119 
1858.000000	96.900274 
1857.000000	96.902942 
1856.000000	96.905681 
1855.000000	96.907945 
1854.000000	96.909644 
1853.000000	96.910313 
1852.000000	96.910192 
1851.000000	96.911183 
1850.000000	96.914666 
1849.000000	96.919528 
1848.000000	96.923307 
1847.000000	96.925324 
1846.000000	96.926881 
1845.000000	96.928795 
1844.000000	96.930388 
1843.000000	96.931232 
1842.000000	96.931899 
1841.000000	96.932934 
1840.000000	96.934828 
1839.000000	96.937824 
1838.000000	96.941167 
1837.000000	96.943165 
1836.000000	96.942965 
1835.000000	96.941788 
1834.000000	96.941558 
1833.000000	96.942663 
1832.000000	96.944249 
1831.000000	96.945305 
1830.000000	96.945457 
1829.000000	96.945365 
1828.000000	96.945792 
1827.000000	96.946918 
1826.000000	96.948657 
1825.000000	96.950776 
1824.000000	96.952789 
1823.000000	96.954201 
1822.000000	96.955128 
1821.000000	96.955793 
1820.000000	96.955746 
1819.000000	96.954485 
1818.000000	96.952986 
1817.000000	96.952891 
1816.000000	96.953799 
1815.000000	96.954214 
1814.000000	96.954230 
1813.000000	96.955377 
1812.000000	96.957513 
1811.000000	96.957870 
1810.000000	96.955791 
1809.000000	96.954151 
1808.000000	96.954507 
1807.000000	96.955670 
1806.000000	96.956824 
1805.000000	96.958151 
1804.000000	96.958810 
1803.000000	96.957536 
1802.000000	96.954861 
1801.000000	96.953308 
1800.000000	96.953388 
1799.000000	96.952527 
1798.000000	96.950225 
1797.000000	96.947925 
1796.000000	96.945530 
1795.000000	96.942903 
1794.000000	96.941813 
1793.000000	96.943928 
1792.000000	96.946998 
1791.000000	96.947566 
1790.000000	96.947080 
1789.000000	96.948692 
1788.000000	96.952188 
1787.000000	96.955278 
1786.000000	96.957534 
1785.000000	96.960151 
1784.000000	96.962862 
1783.000000	96.964873 
1782.000000	96.966108 
1781.000000	96.967100 
1780.000000	96.968365 
1779.000000	96.969935 
1778.000000	96.972526 
1777.000000	96.976137 
1776.000000	96.979328 
1775.000000	96.981084 
1774.000000	96.981637 
1773.000000	96.982653 
1772.000000	96.985336 
1771.000000	96.987384 
1770.000000	96.986329 
1769.000000	96.983946 
1768.000000	96.983714 
1767.000000	96.986052 
1766.000000	96.988394 
1765.000000	96.989640 
1764.000000	96.991517 
1763.000000	96.995019 
1762.000000	96.998440 
1761.000000	97.000342 
1760.000000	97.001067 
1759.000000	97.000964 
1758.000000	96.999876 
1757.000000	96.997910 
1756.000000	96.997046 
1755.000000	96.997095 
1754.000000	96.994467 
1753.000000	96.987457 
1752.000000	96.979858 
1751.000000	96.978089 
1750.000000	96.983115 
1749.000000	96.989483 
1748.000000	96.993258 
1747.000000	96.994922 
1746.000000	96.994468 
1745.000000	96.992441 
1744.000000	96.991825 
1743.000000	96.993413 
1742.000000	96.993966 
1741.000000	96.992129 
1740.000000	96.991307 
1739.000000	96.993722 
1738.000000	96.994573 
1737.000000	96.989704 
1736.000000	96.981264 
1735.000000	96.974367 
1734.000000	96.971382 
1733.000000	96.969251 
1732.000000	96.966027 
1731.000000	96.965602 
1730.000000	96.970764 
1729.000000	96.976099 
1728.000000	96.977036 
1727.000000	96.974315 
1726.000000	96.970497 
1725.000000	96.965864 
1724.000000	96.960287 
1723.000000	96.955122 
1722.000000	96.952247 
1721.000000	96.950131 
1720.000000	96.945884 
1719.000000	96.937368 
1718.000000	96.925979 
1717.000000	96.917170 
1716.000000	96.908565 
1715.000000	96.896103 
1714.000000	96.885790 
1713.000000	96.880287 
1712.000000	96.873863 
1711.000000	96.864345 
1710.000000	96.855942 
1709.000000	96.850650 
1708.000000	96.845640 
1707.000000	96.839054 
1706.000000	96.833455 
1705.000000	96.829721 
1704.000000	96.819716 
1703.000000	96.799429 
1702.000000	96.774896 
1701.000000	96.757880 
1700.000000	96.749548 
1699.000000	96.736092 
1698.000000	96.717443 
1697.000000	96.704370 
1696.000000	96.698068 
1695.000000	96.691195 
1694.000000	96.680074 
1693.000000	96.666669 
1692.000000	96.652974 
1691.000000	96.638637 
1690.000000	96.623394 
1689.000000	96.607732 
1688.000000	96.592554 
1687.000000	96.578713 
1686.000000	96.567432 
1685.000000	96.558933 
1684.000000	96.548028 
1683.000000	96.532957 
1682.000000	96.515599 
1681.000000	96.496035 
1680.000000	96.479881 
1679.000000	96.468683 
1678.000000	96.458989 
1677.000000	96.445574 
1676.000000	96.429620 
1675.000000	96.414735 
1674.000000	96.398137 
1673.000000	96.376844 
1672.000000	96.355906 
1671.000000	96.340887 
1670.000000	96.329004 
1669.000000	96.312625 
1668.000000	96.294929 
1667.000000	96.283718 
1666.000000	96.276564 
1665.000000	96.267345 
1664.000000	96.253661 
1663.000000	96.237122 
1662.000000	96.218138 
1661.000000	96.193825 
1660.000000	96.168751 
1659.000000	96.151169 
1658.000000	96.143438 
1657.000000	96.136686 
1656.000000	96.126552 
1655.000000	96.113000 
1654.000000	96.091039 
1653.000000	96.058023 
1652.000000	96.029222 
1651.000000	96.012807 
1650.000000	95.999172 
1649.000000	95.988069 
1648.000000	95.972788 
1647.000000	95.954037 
1646.000000	95.937407 
1645.000000	95.928800 
1644.000000	95.921523 
1643.000000	95.913932 
1642.000000	95.908065 
1641.000000	95.905838 
1640.000000	95.906557 
1639.000000	95.907791 
1638.000000	95.908928 
1637.000000	95.909001 
1636.000000	95.906459 
1635.000000	95.907144 
1634.000000	95.913914 
1633.000000	95.920143 
1632.000000	95.922995 
1631.000000	95.927363 
1630.000000	95.939386 
1629.000000	95.957584 
1628.000000	95.976261 
1627.000000	95.994604 
1626.000000	96.014145 
1625.000000	96.033814 
1624.000000	96.053117 
1623.000000	96.075754 
1622.000000	96.103039 
1621.000000	96.127704 
1620.000000	96.146628 
1619.000000	96.166040 
1618.000000	96.192202 
1617.000000	96.220279 
1616.000000	96.241484 
1615.000000	96.259402 
1614.000000	96.278848 
1613.000000	96.297565 
1612.000000	96.313119 
1611.000000	96.328488 
1610.000000	96.347179 
1609.000000	96.368113 
1608.000000	96.390559 
1607.000000	96.416295 
1606.000000	96.442101 
1605.000000	96.461688 
1604.000000	96.476267 
1603.000000	96.491504 
1602.000000	96.508116 
1601.000000	96.522494 
1600.000000	96.535111 
1599.000000	96.550289 
1598.000000	96.567704 
1597.000000	96.582797 
1596.000000	96.594367 
1595.000000	96.606339 
1594.000000	96.620995 
1593.000000	96.634916 
1592.000000	96.645132 
1591.000000	96.653905 
1590.000000	96.664031 
1589.000000	96.674342 
1588.000000	96.684005 
1587.000000	96.695669 
1586.000000	96.709585 
1585.000000	96.720180 
1584.000000	96.725527 
1583.000000	96.731563 
1582.000000	96.742040 
1581.000000	96.753538 
1580.000000	96.762385 
1579.000000	96.770364 
1578.000000	96.780608 
1577.000000	96.792600 
1576.000000	96.803931 
1575.000000	96.815429 
1574.000000	96.824628 
1573.000000	96.828807 
1572.000000	96.833535 
1571.000000	96.844485 
1570.000000	96.856992 
1569.000000	96.858184 
1568.000000	96.850123 
1567.000000	96.844357 
1566.000000	96.844684 
1565.000000	96.846283 
1564.000000	96.848264 
1563.000000	96.850030 
1562.000000	96.850821 
1561.000000	96.848533 
1560.000000	96.848949 
1559.000000	96.857355 
1558.000000	96.869516 
1557.000000	96.875162 
1556.000000	96.869259 
1555.000000	96.867427 
1554.000000	96.866681 
1553.000000	96.865508 
1552.000000	96.860429 
1551.000000	96.853232 
1550.000000	96.844633 
1549.000000	96.837433 
1548.000000	96.833468 
1547.000000	96.832771 
1546.000000	96.832351 
1545.000000	96.829459 
1544.000000	96.825083 
1543.000000	96.821699 
1542.000000	96.821314 
1541.000000	96.823382 
1540.000000	96.818952 
1539.000000	96.807533 
1538.000000	96.795160 
1537.000000	96.780343 
1536.000000	96.764738 
1535.000000	96.752258 
1534.000000	96.745727 
1533.000000	96.742855 
1532.000000	96.738671 
1531.000000	96.729079 
1530.000000	96.716926 
1529.000000	96.705986 
1528.000000	96.695688 
1527.000000	96.684913 
1526.000000	96.674627 
1525.000000	96.666348 
1524.000000	96.659994 
1523.000000	96.654550 
1522.000000	96.649244 
1521.000000	96.643201 
1520.000000	96.634613 
1519.000000	96.622268 
1518.000000	96.607608 
1517.000000	96.593597 
1516.000000	96.582191 
1515.000000	96.573852 
1514.000000	96.567747 
1513.000000	96.563794 
1512.000000	96.560389 
1511.000000	96.553543 
1510.000000	96.541811 
1509.000000	96.528352 
1508.000000	96.517241 
1507.000000	96.507571 
1506.000000	96.499989 
1505.000000	96.494576 
1504.000000	96.487004 
1503.000000	96.477537 
1502.000000	96.467179 
1501.000000	96.457887 
1500.000000	96.450168 
1499.000000	96.442031 
1498.000000	96.430276 
1497.000000	96.417062 
1496.000000	96.407536 
1495.000000	96.402096 
1494.000000	96.398012 
1493.000000	96.394472 
1492.000000	96.392073 
1491.000000	96.389567 
1490.000000	96.384205 
1489.000000	96.376385 
1488.000000	96.366967 
1487.000000	96.355220 
1486.000000	96.343139 
1485.000000	96.330861 
1484.000000	96.317703 
1483.000000	96.305275 
1482.000000	96.295194 
1481.000000	96.287510 
1480.000000	96.279884 
1479.000000	96.270464 
1478.000000	96.259599 
1477.000000	96.248751 
1476.000000	96.237250 
1475.000000	96.223452 
1474.000000	96.208016 
1473.000000	96.194359 
1472.000000	96.185588 
1471.000000	96.179298 
1470.000000	96.172041 
1469.000000	96.163773 
1468.000000	96.154493 
1467.000000	96.142525 
1466.000000	96.127939 
1465.000000	96.114301 
1464.000000	96.105155 
1463.000000	96.097278 
1462.000000	96.086435 
1461.000000	96.074493 
1460.000000	96.065303 
1459.000000	96.057679 
1458.000000	96.039525 
1457.000000	96.006821 
1456.000000	95.978582 
1455.000000	95.962727 
1454.000000	95.948671 
1453.000000	95.935248 
1452.000000	95.926756 
1451.000000	95.924977 
1450.000000	95.926227 
1449.000000	95.928665 
1448.000000	95.930930 
1447.000000	95.929343 
1446.000000	95.921079 
1445.000000	95.909705 
1444.000000	95.901850 
1443.000000	95.896991 
1442.000000	95.890462 
1441.000000	95.881380 
1440.000000	95.872957 
1439.000000	95.864752 
1438.000000	95.850709 
1437.000000	95.830573 
1436.000000	95.816252 
1435.000000	95.812592 
1434.000000	95.811431 
1433.000000	95.810282 
1432.000000	95.811755 
1431.000000	95.815604 
1430.000000	95.817584 
1429.000000	95.817588 
1428.000000	95.819658 
1427.000000	95.824928 
1426.000000	95.830267 
1425.000000	95.833480 
1424.000000	95.838824 
1423.000000	95.847423 
1422.000000	95.853933 
1421.000000	95.856605 
1420.000000	95.859585 
1419.000000	95.861100 
1418.000000	95.854849 
1417.000000	95.847822 
1416.000000	95.852464 
1415.000000	95.868841 
1414.000000	95.884227 
1413.000000	95.890047 
1412.000000	95.891708 
1411.000000	95.897533 
1410.000000	95.906744 
1409.000000	95.916475 
1408.000000	95.928067 
1407.000000	95.943019 
1406.000000	95.959416 
1405.000000	95.976867 
1404.000000	96.000613 
1403.000000	96.029936 
1402.000000	96.057008 
1401.000000	96.080269 
1400.000000	96.106114 
1399.000000	96.136698 
1398.000000	96.162654 
1397.000000	96.175456 
1396.000000	96.178939 
1395.000000	96.185674 
1394.000000	96.203786 
1393.000000	96.232685 
1392.000000	96.269462 
1391.000000	96.308801 
1390.000000	96.343039 
1389.000000	96.366748 
1388.000000	96.379771 
1387.000000	96.386313 
1386.000000	96.391717 
1385.000000	96.400418 
1384.000000	96.415608 
1383.000000	96.436212 
1382.000000	96.456749 
1381.000000	96.473343 
1380.000000	96.486814 
1379.000000	96.500801 
1378.000000	96.517552 
1377.000000	96.536569 
1376.000000	96.556170 
1375.000000	96.574928 
1374.000000	96.591965 
1373.000000	96.608202 
1372.000000	96.625509 
1371.000000	96.644911 
1370.000000	96.665521 
1369.000000	96.684276 
1368.000000	96.700659 
1367.000000	96.716202 
1366.000000	96.731397 
1365.000000	96.746003 
1364.000000	96.759447 
1363.000000	96.770670 
1362.000000	96.780076 
1361.000000	96.789899 
1360.000000	96.802087 
1359.000000	96.817301 
1358.000000	96.834261 
1357.000000	96.850251 
1356.000000	96.863472 
1355.000000	96.873871 
1354.000000	96.882669 
1353.000000	96.892269 
1352.000000	96.903239 
1351.000000	96.914485 
1350.000000	96.925304 
1349.000000	96.933926 
1348.000000	96.940148 
1347.000000	96.945706 
1346.000000	96.952487 
1345.000000	96.960109 
1344.000000	96.966991 
1343.000000	96.972501 
1342.000000	96.977157 
1341.000000	96.980545 
1340.000000	96.981544 
1339.000000	96.981104 
1338.000000	96.981785 
1337.000000	96.984695 
1336.000000	96.988642 
1335.000000	96.991437 
1334.000000	96.991986 
1333.000000	96.991313 
1332.000000	96.991248 
1331.000000	96.992951 
1330.000000	96.996238 
1329.000000	96.999864 
1328.000000	97.002589 
1327.000000	97.004374 
1326.000000	97.005531 
1325.000000	97.004833 
1324.000000	97.001634 
1323.000000	96.996918 
1322.000000	96.992378 
1321.000000	96.989489 
1320.000000	96.989478 
1319.000000	96.992384 
1318.000000	96.996301 
1317.000000	96.998867 
1316.000000	96.998903 
1315.000000	96.996125 
1314.000000	96.990966 
1313.000000	96.986232 
1312.000000	96.986224 
1311.000000	96.991881 
1310.000000	96.998520 
1309.000000	97.001024 
1308.000000	96.999473 
1307.000000	96.997944 
1306.000000	96.998906 
1305.000000	97.000987 
1304.000000	97.002895 
1303.000000	97.004603 
1302.000000	97.005381 
1301.000000	97.003830 
1300.000000	97.000817 
1299.000000	96.999213 
1298.000000	97.000057 
1297.000000	97.001181 
1296.000000	97.000448 
1295.000000	96.998724 
1294.000000	96.998210 
1293.000000	96.999581 
1292.000000	97.001601 
1291.000000	97.002587 
1290.000000	97.001927 
1289.000000	97.000635 
1288.000000	97.000131 
1287.000000	97.000134 
1286.000000	96.998630 
1285.000000	96.995036 
1284.000000	96.992043 
1283.000000	96.992354 
1282.000000	96.994907 
1281.000000	96.996418 
1280.000000	96.995881 
1279.000000	96.995346 
1278.000000	96.996441 
1277.000000	96.998664 
1276.000000	97.000882 
1275.000000	97.002709 
1274.000000	97.003862 
1273.000000	97.004080 
1272.000000	97.003885 
1271.000000	97.003851 
1270.000000	97.003151 
1269.000000	97.000602 
1268.000000	96.997115 
1267.000000	96.994747 
1266.000000	96.993477 
1265.000000	96.992025 
1264.000000	96.991284 
1263.000000	96.993411 
1262.000000	96.997522 
1261.000000	96.999817 
1260.000000	96.999241 
1259.000000	96.999609 
1258.000000	97.003733 
1257.000000	97.008624 
1256.000000	97.008788 
1255.000000	97.002904 
1254.000000	96.995273 
1253.000000	96.991024 
1252.000000	96.990969 
1251.000000	96.991719 
1250.000000	96.990466 
1249.000000	96.989052 
1248.000000	96.992128 
1247.000000	97.000610 
1246.000000	97.008504 
1245.000000	97.008615 
1244.000000	97.000325 
1243.000000	96.990160 
1242.000000	96.985766 
1241.000000	96.990685 
1240.000000	97.003042 
1239.000000	97.016492 
1238.000000	97.023670 
1237.000000	97.021665 
1236.000000	97.013864 
1235.000000	97.005137 
1234.000000	96.996736 
1233.000000	96.987763 
1232.000000	96.979070 
1231.000000	96.971946 
1230.000000	96.964679 
1229.000000	96.954565 
1228.000000	96.942113 
1227.000000	96.929207 
1226.000000	96.914007 
1225.000000	96.892064 
1224.000000	96.862506 
1223.000000	96.829128 
1222.000000	96.794895 
1221.000000	96.758899 
1220.000000	96.719341 
1219.000000	96.675978 
1218.000000	96.628549 
1217.000000	96.575918 
1216.000000	96.517695 
1215.000000	96.454395 
1214.000000	96.386092 
1213.000000	96.313733 
1212.000000	96.240949 
1211.000000	96.170268 
1210.000000	96.097868 
1209.000000	96.016946 
1208.000000	95.926853 
1207.000000	95.834398 
1206.000000	95.745211 
1205.000000	95.658091 
1204.000000	95.569014 
1203.000000	95.476422 
1202.000000	95.381153 
1201.000000	95.284753 
1200.000000	95.189360 
1199.000000	95.096386 
1198.000000	95.004139 
1197.000000	94.909681 
1196.000000	94.813138 
1195.000000	94.717058 
1194.000000	94.621745 
1193.000000	94.524706 
1192.000000	94.424724 
1191.000000	94.322735 
1190.000000	94.218799 
1189.000000	94.112024 
1188.000000	94.003404 
1187.000000	93.894963 
1186.000000	93.786451 
1185.000000	93.676635 
1184.000000	93.566690 
1183.000000	93.457972 
1182.000000	93.347951 
1181.000000	93.233388 
1180.000000	93.115941 
1179.000000	92.998746 
1178.000000	92.878835 
1177.000000	92.749868 
1176.000000	92.611689 
1175.000000	92.470081 
1174.000000	92.327338 
1173.000000	92.180407 
1172.000000	92.028542 
1171.000000	91.874622 
1170.000000	91.718214 
1169.000000	91.556084 
1168.000000	91.391648 
1167.000000	91.236195 
1166.000000	91.099503 
1165.000000	90.987798 
1164.000000	90.911901 
1163.000000	90.885975 
1162.000000	90.912583 
1161.000000	90.975205 
1160.000000	91.048174 
1159.000000	91.108270 
1158.000000	91.137045 
1157.000000	91.122633 
1156.000000	91.064589 
1155.000000	90.972145 
1154.000000	90.855405 
1153.000000	90.722223 
1152.000000	90.582347 
1151.000000	90.445542 
1150.000000	90.313246 
1149.000000	90.179803 
1148.000000	90.043672 
1147.000000	89.909354 
1146.000000	89.776998 
1145.000000	89.639608 
1144.000000	89.493495 
1143.000000	89.342973 
1142.000000	89.191819 
1141.000000	89.038374 
1140.000000	88.881671 
1139.000000	88.723973 
1138.000000	88.564665 
1137.000000	88.399929 
1136.000000	88.230482 
1135.000000	88.061094 
1134.000000	87.890942 
1133.000000	87.713745 
1132.000000	87.528806 
1131.000000	87.341975 
1130.000000	87.154419 
1129.000000	86.961156 
1128.000000	86.762177 
1127.000000	86.563324 
1126.000000	86.364000 
1125.000000	86.156119 
1124.000000	85.938132 
1123.000000	85.718318 
1122.000000	85.501327 
1121.000000	85.283707 
1120.000000	85.065630 
1119.000000	84.853996 
1118.000000	84.650653 
1117.000000	84.450926 
1116.000000	84.256597 
1115.000000	84.076324 
1114.000000	83.910202 
1113.000000	83.748267 
1112.000000	83.587064 
1111.000000	83.432464 
1110.000000	83.283552 
1109.000000	83.130265 
1108.000000	82.970035 
1107.000000	82.810177 
1106.000000	82.651281 
1105.000000	82.485009 
1104.000000	82.311315 
1103.000000	82.140799 
1102.000000	81.976025 
1101.000000	81.808789 
1100.000000	81.638624 
1099.000000	81.474677 
1098.000000	81.318172 
1097.000000	81.158836 
1096.000000	80.993991 
1095.000000	80.831539 
1094.000000	80.670726 
1093.000000	80.500014 
1092.000000	80.319227 
1091.000000	80.144002 
1090.000000	79.982429 
1089.000000	79.825915 
1088.000000	79.667801 
1087.000000	79.511437 
1086.000000	79.355585 
1085.000000	79.192504 
1084.000000	79.025584 
1083.000000	78.868285 
1082.000000	78.720519 
1081.000000	78.566916 
1080.000000	78.403266 
1079.000000	78.242738 
1078.000000	78.090335 
1077.000000	77.933188 
1076.000000	77.762377 
1075.000000	77.582208 
1074.000000	77.392019 
1073.000000	77.181004 
1072.000000	76.946526 
1071.000000	76.694639 
1070.000000	76.417288 
1069.000000	76.094527 
1068.000000	75.728080 
1067.000000	75.349740 
1066.000000	74.986733 
1065.000000	74.639238 
1064.000000	74.299608 
1063.000000	73.967743 
1062.000000	73.636320 
1061.000000	73.285980 
1060.000000	72.909551 
1059.000000	72.522184 
1058.000000	72.137235 
1057.000000	71.750415 
1056.000000	71.354953 
1055.000000	70.950817 
1054.000000	70.531149 
1053.000000	70.082279 
1052.000000	69.606966 
1051.000000	69.125426 
1050.000000	68.644260 
1049.000000	68.149914 
1048.000000	67.640171 
1047.000000	67.131564 
1046.000000	66.628730 
1045.000000	66.117374 
1044.000000	65.594028 
1043.000000	65.073768 
1042.000000	64.562021 
1041.000000	64.046607 
1040.000000	63.525050 
1039.000000	63.012470 
1038.000000	62.515577 
1037.000000	62.026818 
1036.000000	61.550066 
1035.000000	61.102355 
1034.000000	60.684102 
1033.000000	60.277742 
1032.000000	59.880824 
1031.000000	59.509103 
1030.000000	59.163437 
1029.000000	58.828622 
1028.000000	58.509581 
1027.000000	58.231289 
1026.000000	57.995349 
1025.000000	57.772857 
1024.000000	57.548023 
1023.000000	57.332671 
1022.000000	57.130109 
1021.000000	56.922972 
1020.000000	56.706132 
1019.000000	56.495202 
1018.000000	56.293321 
1017.000000	56.085091 
1016.000000	55.870904 
1015.000000	55.670578 
1014.000000	55.485382 
1013.000000	55.293709 
1012.000000	55.091881 
1011.000000	54.901455 
1010.000000	54.728739 
1009.000000	54.556274 
1008.000000	54.382696 
1007.000000	54.231391 
1006.000000	54.110084 
1005.000000	54.000679 
1004.000000	53.898140 
1003.000000	53.820266 
1002.000000	53.769438 
1001.000000	53.724432 
1000.000000	53.680491 
999.000000	 53.658387 
998.000000	 53.663048 
997.000000	 53.672080 
996.000000	 53.676163 
995.000000	 53.693006 
994.000000	 53.730476 
993.000000	 53.773563 
992.000000	 53.817902 
991.000000	 53.878455 
990.000000	 53.955025 
989.000000	 54.027267 
988.000000	 54.094211 
987.000000	 54.181069 
986.000000	 54.297036 
985.000000	 54.424211 
984.000000	 54.557247 
983.000000	 54.714939 
982.000000	 54.902023 
981.000000	 55.098464 
980.000000	 55.297968 
979.000000	 55.519402 
978.000000	 55.768780 
977.000000	 56.027977 
976.000000	 56.292753 
975.000000	 56.584500 
974.000000	 56.911382 
973.000000	 57.253482 
972.000000	 57.598671 
971.000000	 57.959091 
970.000000	 58.340369 
969.000000	 58.728203 
968.000000	 59.116665 
967.000000	 59.517377 
966.000000	 59.930610 
965.000000	 60.339507 
964.000000	 60.742014 
963.000000	 61.156065 
962.000000	 61.584168 
961.000000	 62.005171 
960.000000	 62.409979 
959.000000	 62.813184 
958.000000	 63.220347 
957.000000	 63.615842 
956.000000	 63.993169 
955.000000	 64.366546 
954.000000	 64.742386 
953.000000	 65.108120 
952.000000	 65.457763 
951.000000	 65.799528 
950.000000	 66.130621 
949.000000	 66.433825 
948.000000	 66.706769 
947.000000	 66.965957 
946.000000	 67.214969 
945.000000	 67.437735 
944.000000	 67.630385 
943.000000	 67.810143 
942.000000	 67.984785 
941.000000	 68.142547 
940.000000	 68.281165 
939.000000	 68.417844 
938.000000	 68.561009 
937.000000	 68.699961 
936.000000	 68.831616 
935.000000	 68.969525 
934.000000	 69.117499 
933.000000	 69.262060 
932.000000	 69.399837 
931.000000	 69.544794 
930.000000	 69.699780 
929.000000	 69.848491 
928.000000	 69.984245 
927.000000	 70.119237 
926.000000	 70.256863 
925.000000	 70.382222 
924.000000	 70.488745 
923.000000	 70.587518 
922.000000	 70.682054 
921.000000	 70.760611 
920.000000	 70.821555 
919.000000	 70.879561 
918.000000	 70.938602 
917.000000	 70.985755 
916.000000	 71.020383 
915.000000	 71.063660 
914.000000	 71.131497 
913.000000	 71.223938 
912.000000	 71.347381 
911.000000	 71.519037 
910.000000	 71.741820 
909.000000	 72.002333 
908.000000	 72.299962 
907.000000	 72.649755 
906.000000	 73.051405 
905.000000	 73.484780 
904.000000	 73.941022 
903.000000	 74.428253 
902.000000	 74.942183 
901.000000	 75.462108 
900.000000	 75.981353 
899.000000	 76.511738 
898.000000	 77.052848 
897.000000	 77.585604 
896.000000	 78.100528 
895.000000	 78.603837 
894.000000	 79.092564 
893.000000	 79.552943 
892.000000	 79.987290 
891.000000	 80.413791 
890.000000	 80.834981 
889.000000	 81.233505 
888.000000	 81.602851 
887.000000	 81.955148 
886.000000	 82.295208 
885.000000	 82.614306 
884.000000	 82.912955 
883.000000	 83.201630 
882.000000	 83.475985 
881.000000	 83.721795 
880.000000	 83.948892 
879.000000	 84.188215 
878.000000	 84.448423 
877.000000	 84.707864 
876.000000	 84.957552 
875.000000	 85.219187 
874.000000	 85.512271 
873.000000	 85.836624 
872.000000	 86.195882 
871.000000	 86.603062 
870.000000	 87.049939 
869.000000	 87.501043 
868.000000	 87.930587 
867.000000	 88.341088 
866.000000	 88.739232 
865.000000	 89.120070 
864.000000	 89.483663 
863.000000	 89.842040 
862.000000	 90.198250 
861.000000	 90.538821 
860.000000	 90.855864 
859.000000	 91.157601 
858.000000	 91.450275 
857.000000	 91.728498 
856.000000	 91.989545 
855.000000	 92.237929 
854.000000	 92.469688 
853.000000	 92.671104 
852.000000	 92.839524 
851.000000	 92.988725 
850.000000	 93.129319 
849.000000	 93.260366 
848.000000	 93.382059 
847.000000	 93.496416 
846.000000	 93.592433 
845.000000	 93.651944 
844.000000	 93.674492 
843.000000	 93.676412 
842.000000	 93.662385 
841.000000	 93.619583 
840.000000	 93.543281 
839.000000	 93.444576 
838.000000	 93.328079 
837.000000	 93.186883 
836.000000	 93.027576 
835.000000	 92.875914 
834.000000	 92.746673 
833.000000	 92.629800 
832.000000	 92.517649 
831.000000	 92.424267 
830.000000	 92.365400 
829.000000	 92.340250 
828.000000	 92.346417 
827.000000	 92.392168 
826.000000	 92.478983 
825.000000	 92.590928 
824.000000	 92.713884 
823.000000	 92.845566 
822.000000	 92.979068 
821.000000	 93.101391 
820.000000	 93.214690 
819.000000	 93.333359 
818.000000	 93.453671 
817.000000	 93.548427 
816.000000	 93.597071 
815.000000	 93.601263 
814.000000	 93.565926 
813.000000	 93.484670 
812.000000	 93.349859 
811.000000	 93.156415 
810.000000	 92.887078 
809.000000	 92.513633 
808.000000	 92.024238 
807.000000	 91.435748 
806.000000	 90.773117 
805.000000	 90.054632 
804.000000	 89.305992 
803.000000	 88.568642 
802.000000	 87.881582 
801.000000	 87.272206 
800.000000	 86.772323 
799.000000	 86.418464 
798.000000	 86.223578 
797.000000	 86.169015 
796.000000	 86.231827 
795.000000	 86.396091 
794.000000	 86.632450 
793.000000	 86.896387 
792.000000	 87.157698 
791.000000	 87.408536 
790.000000	 87.637135 
789.000000	 87.819057 
788.000000	 87.939885 
787.000000	 88.000902 
786.000000	 87.996008 
785.000000	 87.907668 
784.000000	 87.733606 
783.000000	 87.496444 
782.000000	 87.223437 
781.000000	 86.941742 
780.000000	 86.696842 
779.000000	 86.543713 
778.000000	 86.507025 
777.000000	 86.573415 
776.000000	 86.727696 
775.000000	 86.966816 
774.000000	 87.271325 
773.000000	 87.596929 
772.000000	 87.908754 
771.000000	 88.198766 
770.000000	 88.461110 
769.000000	 88.678842 
768.000000	 88.845638 
767.000000	 88.973740 
766.000000	 89.069216 
765.000000	 89.124556 
764.000000	 89.146173 
763.000000	 89.162451 
762.000000	 89.191107 
761.000000	 89.222533 
760.000000	 89.247605 
759.000000	 89.277091 
758.000000	 89.320806 
757.000000	 89.373000 
756.000000	 89.432907 
755.000000	 89.515326 
754.000000	 89.624741 
753.000000	 89.740271 
752.000000	 89.841363 
751.000000	 89.930390 
750.000000	 90.019279 
749.000000	 90.114016 
748.000000	 90.223161 
747.000000	 90.360255 
746.000000	 90.524873 
745.000000	 90.700243 
744.000000	 90.880234 
743.000000	 91.078827 
742.000000	 91.303650 
741.000000	 91.542257 
740.000000	 91.784117 
739.000000	 92.033419 
738.000000	 92.289744 
737.000000	 92.537707 
736.000000	 92.766337 
735.000000	 92.978583 
734.000000	 93.173504 
733.000000	 93.340553 
732.000000	 93.479282 
731.000000	 93.602833 
730.000000	 93.714512 
729.000000	 93.802978 
728.000000	 93.867437 
727.000000	 93.925661 
726.000000	 93.991471 
725.000000	 94.065946 
724.000000	 94.154138 
723.000000	 94.265238 
722.000000	 94.391029 
721.000000	 94.509307 
720.000000	 94.615295 
719.000000	 94.724006 
718.000000	 94.835634 
717.000000	 94.929715 
716.000000	 95.000252 
715.000000	 95.065519 
714.000000	 95.134649 
713.000000	 95.193945 
712.000000	 95.237421 
711.000000	 95.280694 
710.000000	 95.330610 
709.000000	 95.369532 
708.000000	 95.383550 
707.000000	 95.379320 
706.000000	 95.360180 
705.000000	 95.312738 
704.000000	 95.231394 
703.000000	 95.128473 
702.000000	 95.001794 
701.000000	 94.817779 
700.000000	 94.546049 
699.000000	 94.192512 
698.000000	 93.791052 
697.000000	 93.389242 
696.000000	 93.052596 
695.000000	 92.849725 
694.000000	 92.807603 
693.000000	 92.895632 
692.000000	 93.062460 
691.000000	 93.269292 
690.000000	 93.485309 
689.000000	 93.682614 
688.000000	 93.852271 
687.000000	 94.002480 
686.000000	 94.130555 
685.000000	 94.225774 
684.000000	 94.303982 
683.000000	 94.401032 
682.000000	 94.524113 
681.000000	 94.643889 
680.000000	 94.742252 
679.000000	 94.833851 
678.000000	 94.932154 
677.000000	 95.034382 
676.000000	 95.149624 
675.000000	 95.295696 
674.000000	 95.457860 
673.000000	 95.591943 
672.000000	 95.679643 
671.000000	 95.740292 
670.000000	 95.789635 
669.000000	 95.823442 
668.000000	 95.874591 
667.000000	 96.018540 
666.000000	 96.219758 
665.000000	 96.380972 
664.000000	 96.483141 
663.000000	 96.561083 
662.000000	 96.651828 
661.000000	 96.754416 
660.000000	 96.853302 
659.000000	 96.947789 
658.000000	 97.030949 
657.000000	 97.077373 
656.000000	 97.080622 
655.000000	 97.066335 
654.000000	 97.047394 
653.000000	 97.005414 
652.000000	 96.943584 
651.000000	 96.914312 
650.000000	 96.950771 

