4000.000000	98.404013 
3999.000000	98.402666 
3998.000000	98.399912 
3997.000000	98.396956 
3996.000000	98.395011 
3995.000000	98.394615 
3994.000000	98.395648 
3993.000000	98.397317 
3992.000000	98.398461 
3991.000000	98.398306 
3990.000000	98.397020 
3989.000000	98.395553 
3988.000000	98.394763 
3987.000000	98.394870 
3986.000000	98.395758 
3985.000000	98.397269 
3984.000000	98.398971 
3983.000000	98.400106 
3982.000000	98.400306 
3981.000000	98.400074 
3980.000000	98.400039 
3979.000000	98.400137 
3978.000000	98.400034 
3977.000000	98.399982 
3976.000000	98.400593 
3975.000000	98.401757 
3974.000000	98.402483 
3973.000000	98.401986 
3972.000000	98.400350 
3971.000000	98.398194 
3970.000000	98.396070 
3969.000000	98.394449 
3968.000000	98.393803 
3967.000000	98.394217 
3966.000000	98.395160 
3965.000000	98.395827 
3964.000000	98.395626 
3963.000000	98.394462 
3962.000000	98.392788 
3961.000000	98.391294 
3960.000000	98.390280 
3959.000000	98.389536 
3958.000000	98.388793 
3957.000000	98.388140 
3956.000000	98.387701 
3955.000000	98.387041 
3954.000000	98.385595 
3953.000000	98.383377 
3952.000000	98.381109 
3951.000000	98.379528 
3950.000000	98.378690 
3949.000000	98.378135 
3948.000000	98.377387 
3947.000000	98.376454 
3946.000000	98.375813 
3945.000000	98.375825 
3944.000000	98.376174 
3943.000000	98.376027 
3942.000000	98.375178 
3941.000000	98.374389 
3940.000000	98.374345 
3939.000000	98.374802 
3938.000000	98.374863 
3937.000000	98.373996 
3936.000000	98.372432 
3935.000000	98.370565 
3934.000000	98.368650 
3933.000000	98.366935 
3932.000000	98.365789 
3931.000000	98.365244 
3930.000000	98.364862 
3929.000000	98.364495 
3928.000000	98.364519 
3927.000000	98.365161 
3926.000000	98.365835 
3925.000000	98.365535 
3924.000000	98.364047 
3923.000000	98.362092 
3922.000000	98.360296 
3921.000000	98.358831 
3920.000000	98.357869 
3919.000000	98.357748 
3918.000000	98.358336 
3917.000000	98.358862 
3916.000000	98.358823 
3915.000000	98.358492 
3914.000000	98.358261 
3913.000000	98.358025 
3912.000000	98.357455 
3911.000000	98.356609 
3910.000000	98.355704 
3909.000000	98.354789 
3908.000000	98.353923 
3907.000000	98.353106 
3906.000000	98.352165 
3905.000000	98.350481 
3904.000000	98.347625 
3903.000000	98.344206 
3902.000000	98.341554 
3901.000000	98.340462 
3900.000000	98.340705 
3899.000000	98.341424 
3898.000000	98.341969 
3897.000000	98.342070 
3896.000000	98.341549 
3895.000000	98.340541 
3894.000000	98.339498 
3893.000000	98.338789 
3892.000000	98.338123 
3891.000000	98.336872 
3890.000000	98.335066 
3889.000000	98.333314 
3888.000000	98.332085 
3887.000000	98.331272 
3886.000000	98.330484 
3885.000000	98.329582 
3884.000000	98.328700 
3883.000000	98.327839 
3882.000000	98.326941 
3881.000000	98.326094 
3880.000000	98.325407 
3879.000000	98.324752 
3878.000000	98.323945 
3877.000000	98.323033 
3876.000000	98.322219 
3875.000000	98.321524 
3874.000000	98.320767 
3873.000000	98.319860 
3872.000000	98.318887 
3871.000000	98.317896 
3870.000000	98.316892 
3869.000000	98.316023 
3868.000000	98.315421 
3867.000000	98.314996 
3866.000000	98.314512 
3865.000000	98.313900 
3864.000000	98.313350 
3863.000000	98.312984 
3862.000000	98.312611 
3861.000000	98.312109 
3860.000000	98.311670 
3859.000000	98.311458 
3858.000000	98.311290 
3857.000000	98.310807 
3856.000000	98.309933 
3855.000000	98.308891 
3854.000000	98.307709 
3853.000000	98.306478 
3852.000000	98.305690 
3851.000000	98.305551 
3850.000000	98.305668 
3849.000000	98.305803 
3848.000000	98.306119 
3847.000000	98.306807 
3846.000000	98.307485 
3845.000000	98.307503 
3844.000000	98.306635 
3843.000000	98.305129 
3842.000000	98.303435 
3841.000000	98.302131 
3840.000000	98.301571 
3839.000000	98.301811 
3838.000000	98.302656 
3837.000000	98.303412 
3836.000000	98.303481 
3835.000000	98.302919 
3834.000000	98.302351 
3833.000000	98.302461 
3832.000000	98.303367 
3831.000000	98.304714 
3830.000000	98.306136 
3829.000000	98.307420 
3828.000000	98.308617 
3827.000000	98.309622 
3826.000000	98.309688 
3825.000000	98.308341 
3824.000000	98.305975 
3823.000000	98.303748 
3822.000000	98.302576 
3821.000000	98.302022 
3820.000000	98.301574 
3819.000000	98.301191 
3818.000000	98.300833 
3817.000000	98.300856 
3816.000000	98.302445 
3815.000000	98.306682 
3814.000000	98.312412 
3813.000000	98.316409 
3812.000000	98.316755 
3811.000000	98.315156 
3810.000000	98.314776 
3809.000000	98.316461 
3808.000000	98.317735 
3807.000000	98.315871 
3806.000000	98.311167 
3805.000000	98.305945 
3804.000000	98.301347 
3803.000000	98.298495 
3802.000000	98.298496 
3801.000000	98.301183 
3800.000000	98.305450 
3799.000000	98.308610 
3798.000000	98.308977 
3797.000000	98.308690 
3796.000000	98.311381 
3795.000000	98.317650 
3794.000000	98.324085 
3793.000000	98.327512 
3792.000000	98.328714 
3791.000000	98.331182 
3790.000000	98.335890 
3789.000000	98.339900 
3788.000000	98.340663 
3787.000000	98.338770 
3786.000000	98.336122 
3785.000000	98.333300 
3784.000000	98.329883 
3783.000000	98.326335 
3782.000000	98.323390 
3781.000000	98.321261 
3780.000000	98.320353 
3779.000000	98.321931 
3778.000000	98.326294 
3777.000000	98.331373 
3776.000000	98.334044 
3775.000000	98.332901 
3774.000000	98.329295 
3773.000000	98.325429 
3772.000000	98.321856 
3771.000000	98.317025 
3770.000000	98.310403 
3769.000000	98.304948 
3768.000000	98.303720 
3767.000000	98.305927 
3766.000000	98.308594 
3765.000000	98.309777 
3764.000000	98.310156 
3763.000000	98.310602 
3762.000000	98.309684 
3761.000000	98.305940 
3760.000000	98.300715 
3759.000000	98.297307 
3758.000000	98.294742 
3757.000000	98.288778 
3756.000000	98.279135 
3755.000000	98.268718 
3754.000000	98.258893 
3753.000000	98.248757 
3752.000000	98.239800 
3751.000000	98.235586 
3750.000000	98.234244 
3749.000000	98.230909 
3748.000000	98.227022 
3747.000000	98.228539 
3746.000000	98.238092 
3745.000000	98.249055 
3744.000000	98.256267 
3743.000000	98.261503 
3742.000000	98.262702 
3741.000000	98.255064 
3740.000000	98.241321 
3739.000000	98.232463 
3738.000000	98.235462 
3737.000000	98.243086 
3736.000000	98.245093 
3735.000000	98.243378 
3734.000000	98.246737 
3733.000000	98.255376 
3732.000000	98.262926 
3731.000000	98.267821 
3730.000000	98.272181 
3729.000000	98.275951 
3728.000000	98.277543 
3727.000000	98.276750 
3726.000000	98.275919 
3725.000000	98.276887 
3724.000000	98.278711 
3723.000000	98.279892 
3722.000000	98.280498 
3721.000000	98.281327 
3720.000000	98.280772 
3719.000000	98.278043 
3718.000000	98.274491 
3717.000000	98.270784 
3716.000000	98.266836 
3715.000000	98.260894 
3714.000000	98.251736 
3713.000000	98.241949 
3712.000000	98.235562 
3711.000000	98.233684 
3710.000000	98.233289 
3709.000000	98.231721 
3708.000000	98.228889 
3707.000000	98.224604 
3706.000000	98.218878 
3705.000000	98.212939 
3704.000000	98.208581 
3703.000000	98.206115 
3702.000000	98.202347 
3701.000000	98.193412 
3700.000000	98.179096 
3699.000000	98.162950 
3698.000000	98.148884 
3697.000000	98.137671 
3696.000000	98.128572 
3695.000000	98.120963 
3694.000000	98.112976 
3693.000000	98.102690 
3692.000000	98.090444 
3691.000000	98.078636 
3690.000000	98.067969 
3689.000000	98.058635 
3688.000000	98.053346 
3687.000000	98.053561 
3686.000000	98.056469 
3685.000000	98.057674 
3684.000000	98.055857 
3683.000000	98.054367 
3682.000000	98.056384 
3681.000000	98.057889 
3680.000000	98.050801 
3679.000000	98.031970 
3678.000000	98.007480 
3677.000000	97.986084 
3676.000000	97.970053 
3675.000000	97.959487 
3674.000000	97.954952 
3673.000000	97.953911 
3672.000000	97.952251 
3671.000000	97.951261 
3670.000000	97.954982 
3669.000000	97.964135 
3668.000000	97.974335 
3667.000000	97.980946 
3666.000000	97.984952 
3665.000000	97.989799 
3664.000000	97.995789 
3663.000000	98.000670 
3662.000000	98.001915 
3661.000000	97.998017 
3660.000000	97.990404 
3659.000000	97.982528 
3658.000000	97.978311 
3657.000000	97.978156 
3656.000000	97.978933 
3655.000000	97.978851 
3654.000000	97.977406 
3653.000000	97.973813 
3652.000000	97.966998 
3651.000000	97.957996 
3650.000000	97.950921 
3649.000000	97.950074 
3648.000000	97.956355 
3647.000000	97.967714 
3646.000000	97.982457 
3645.000000	97.999654 
3644.000000	98.017775 
3643.000000	98.034797 
3642.000000	98.048702 
3641.000000	98.058069 
3640.000000	98.062966 
3639.000000	98.064181 
3638.000000	98.063309 
3637.000000	98.062253 
3636.000000	98.062037 
3635.000000	98.061729 
3634.000000	98.059692 
3633.000000	98.056277 
3632.000000	98.052987 
3631.000000	98.050074 
3630.000000	98.046202 
3629.000000	98.041069 
3628.000000	98.037575 
3627.000000	98.038350 
3626.000000	98.042173 
3625.000000	98.047723 
3624.000000	98.055568 
3623.000000	98.065733 
3622.000000	98.075620 
3621.000000	98.080917 
3620.000000	98.078819 
3619.000000	98.070845 
3618.000000	98.062072 
3617.000000	98.057103 
3616.000000	98.057926 
3615.000000	98.063889 
3614.000000	98.071991 
3613.000000	98.078831 
3612.000000	98.082906 
3611.000000	98.084593 
3610.000000	98.085217 
3609.000000	98.086380 
3608.000000	98.088899 
3607.000000	98.092489 
3606.000000	98.096317 
3605.000000	98.100122 
3604.000000	98.104499 
3603.000000	98.109702 
3602.000000	98.114873 
3601.000000	98.118516 
3600.000000	98.119899 
3599.000000	98.119633 
3598.000000	98.118995 
3597.000000	98.118862 
3596.000000	98.119726 
3595.000000	98.121120 
3594.000000	98.121809 
3593.000000	98.121376 
3592.000000	98.120486 
3591.000000	98.120033 
3590.000000	98.120484 
3589.000000	98.121551 
3588.000000	98.122273 
3587.000000	98.121960 
3586.000000	98.121268 
3585.000000	98.121719 
3584.000000	98.124666 
3583.000000	98.130151 
3582.000000	98.136793 
3581.000000	98.142198 
3580.000000	98.144587 
3579.000000	98.144006 
3578.000000	98.142091 
3577.000000	98.140904 
3576.000000	98.141390 
3575.000000	98.143070 
3574.000000	98.144416 
3573.000000	98.144173 
3572.000000	98.142013 
3571.000000	98.138276 
3570.000000	98.133588 
3569.000000	98.128858 
3568.000000	98.125292 
3567.000000	98.123874 
3566.000000	98.124500 
3565.000000	98.126096 
3564.000000	98.127740 
3563.000000	98.129461 
3562.000000	98.131549 
3561.000000	98.133739 
3560.000000	98.135213 
3559.000000	98.135400 
3558.000000	98.134577 
3557.000000	98.133678 
3556.000000	98.133578 
3555.000000	98.134569 
3554.000000	98.136249 
3553.000000	98.137649 
3552.000000	98.137884 
3551.000000	98.136736 
3550.000000	98.134762 
3549.000000	98.132948 
3548.000000	98.132058 
3547.000000	98.131948 
3546.000000	98.131684 
3545.000000	98.130613 
3544.000000	98.129301 
3543.000000	98.128950 
3542.000000	98.130056 
3541.000000	98.132097 
3540.000000	98.134204 
3539.000000	98.135758 
3538.000000	98.136446 
3537.000000	98.136145 
3536.000000	98.135110 
3535.000000	98.133834 
3534.000000	98.132748 
3533.000000	98.132075 
3532.000000	98.131910 
3531.000000	98.132215 
3530.000000	98.132645 
3529.000000	98.132657 
3528.000000	98.131983 
3527.000000	98.130898 
3526.000000	98.129990 
3525.000000	98.129640 
3524.000000	98.129823 
3523.000000	98.130283 
3522.000000	98.130750 
3521.000000	98.131078 
3520.000000	98.131282 
3519.000000	98.131418 
3518.000000	98.131460 
3517.000000	98.131266 
3516.000000	98.130745 
3515.000000	98.130016 
3514.000000	98.129357 
3513.000000	98.128961 
3512.000000	98.128785 
3511.000000	98.128621 
3510.000000	98.128315 
3509.000000	98.127894 
3508.000000	98.127502 
3507.000000	98.127230 
3506.000000	98.127046 
3505.000000	98.126846 
3504.000000	98.126541 
3503.000000	98.126108 
3502.000000	98.125572 
3501.000000	98.124994 
3500.000000	98.124466 
3499.000000	98.124082 
3498.000000	98.123856 
3497.000000	98.123701 
3496.000000	98.123477 
3495.000000	98.123115 
3494.000000	98.122657 
3493.000000	98.122208 
3492.000000	98.121851 
3491.000000	98.121578 
3490.000000	98.121308 
3489.000000	98.120966 
3488.000000	98.120525 
3487.000000	98.119979 
3486.000000	98.119364 
3485.000000	98.118805 
3484.000000	98.118439 
3483.000000	98.118290 
3482.000000	98.118226 
3481.000000	98.118082 
3480.000000	98.117832 
3479.000000	98.117542 
3478.000000	98.117209 
3477.000000	98.116707 
3476.000000	98.115925 
3475.000000	98.114909 
3474.000000	98.113879 
3473.000000	98.113089 
3472.000000	98.112681 
3471.000000	98.112611 
3470.000000	98.112687 
3469.000000	98.112732 
3468.000000	98.112698 
3467.000000	98.112601 
3466.000000	98.112440 
3465.000000	98.112191 
3464.000000	98.111768 
3463.000000	98.111020 
3462.000000	98.109885 
3461.000000	98.108589 
3460.000000	98.107575 
3459.000000	98.107079 
3458.000000	98.106857 
3457.000000	98.106400 
3456.000000	98.105481 
3455.000000	98.104386 
3454.000000	98.103620 
3453.000000	98.103428 
3452.000000	98.103633 
3451.000000	98.103941 
3450.000000	98.104180 
3449.000000	98.104202 
3448.000000	98.103724 
3447.000000	98.102526 
3446.000000	98.100778 
3445.000000	98.099075 
3444.000000	98.097989 
3443.000000	98.097637 
3442.000000	98.097676 
3441.000000	98.097634 
3440.000000	98.097308 
3439.000000	98.096820 
3438.000000	98.096343 
3437.000000	98.095877 
3436.000000	98.095432 
3435.000000	98.095277 
3434.000000	98.095761 
3433.000000	98.096804 
3432.000000	98.097845 
3431.000000	98.098413 
3430.000000	98.098539 
3429.000000	98.098504 
3428.000000	98.098341 
3427.000000	98.097822 
3426.000000	98.096949 
3425.000000	98.096162 
3424.000000	98.095900 
3423.000000	98.096124 
3422.000000	98.096392 
3421.000000	98.096337 
3420.000000	98.096011 
3419.000000	98.095713 
3418.000000	98.095604 
3417.000000	98.095591 
3416.000000	98.095521 
3415.000000	98.095356 
3414.000000	98.095143 
3413.000000	98.094925 
3412.000000	98.094729 
3411.000000	98.094585 
3410.000000	98.094507 
3409.000000	98.094470 
3408.000000	98.094426 
3407.000000	98.094326 
3406.000000	98.094154 
3405.000000	98.093931 
3404.000000	98.093701 
3403.000000	98.093488 
3402.000000	98.093288 
3401.000000	98.093089 
3400.000000	98.092882 
3399.000000	98.092668 
3398.000000	98.092447 
3397.000000	98.092223 
3396.000000	98.091997 
3395.000000	98.091773 
3394.000000	98.091553 
3393.000000	98.091337 
3392.000000	98.091123 
3391.000000	98.090910 
3390.000000	98.090699 
3389.000000	98.090498 
3388.000000	98.090332 
3387.000000	98.090224 
3386.000000	98.090177 
3385.000000	98.090165 
3384.000000	98.090138 
3383.000000	98.090044 
3382.000000	98.089884 
3381.000000	98.089765 
3380.000000	98.089793 
3379.000000	98.089937 
3378.000000	98.090051 
3377.000000	98.090082 
3376.000000	98.090153 
3375.000000	98.090364 
3374.000000	98.090600 
3373.000000	98.090678 
3372.000000	98.090638 
3371.000000	98.090763 
3370.000000	98.091255 
3369.000000	98.091980 
3368.000000	98.092560 
3367.000000	98.092693 
3366.000000	98.092331 
3365.000000	98.091654 
3364.000000	98.090967 
3363.000000	98.090553 
3362.000000	98.090557 
3361.000000	98.090943 
3360.000000	98.091581 
3359.000000	98.092357 
3358.000000	98.093166 
3357.000000	98.093878 
3356.000000	98.094384 
3355.000000	98.094730 
3354.000000	98.095158 
3353.000000	98.095984 
3352.000000	98.097356 
3351.000000	98.099096 
3350.000000	98.100728 
3349.000000	98.101717 
3348.000000	98.101827 
3347.000000	98.101336 
3346.000000	98.100901 
3345.000000	98.101047 
3344.000000	98.101714 
3343.000000	98.102389 
3342.000000	98.102710 
3341.000000	98.102821 
3340.000000	98.103019 
3339.000000	98.103229 
3338.000000	98.103132 
3337.000000	98.102713 
3336.000000	98.102361 
3335.000000	98.102408 
3334.000000	98.102789 
3333.000000	98.103174 
3332.000000	98.103301 
3331.000000	98.103129 
3330.000000	98.102822 
3329.000000	98.102655 
3328.000000	98.102889 
3327.000000	98.103614 
3326.000000	98.104686 
3325.000000	98.105780 
3324.000000	98.106516 
3323.000000	98.106683 
3322.000000	98.106391 
3321.000000	98.106000 
3320.000000	98.105847 
3319.000000	98.105974 
3318.000000	98.106205 
3317.000000	98.106394 
3316.000000	98.106553 
3315.000000	98.106746 
3314.000000	98.106978 
3313.000000	98.107218 
3312.000000	98.107467 
3311.000000	98.107746 
3310.000000	98.108048 
3309.000000	98.108337 
3308.000000	98.108555 
3307.000000	98.108617 
3306.000000	98.108492 
3305.000000	98.108265 
3304.000000	98.108088 
3303.000000	98.108069 
3302.000000	98.108199 
3301.000000	98.108391 
3300.000000	98.108537 
3299.000000	98.108578 
3298.000000	98.108521 
3297.000000	98.108442 
3296.000000	98.108446 
3295.000000	98.108579 
3294.000000	98.108808 
3293.000000	98.109065 
3292.000000	98.109300 
3291.000000	98.109505 
3290.000000	98.109689 
3289.000000	98.109861 
3288.000000	98.110028 
3287.000000	98.110190 
3286.000000	98.110339 
3285.000000	98.110466 
3284.000000	98.110570 
3283.000000	98.110663 
3282.000000	98.110761 
3281.000000	98.110879 
3280.000000	98.111022 
3279.000000	98.111189 
3278.000000	98.111376 
3277.000000	98.111584 
3276.000000	98.111810 
3275.000000	98.112051 
3274.000000	98.112301 
3273.000000	98.112556 
3272.000000	98.112818 
3271.000000	98.113089 
3270.000000	98.113366 
3269.000000	98.113642 
3268.000000	98.113914 
3267.000000	98.114185 
3266.000000	98.114469 
3265.000000	98.114779 
3264.000000	98.115122 
3263.000000	98.115495 
3262.000000	98.115884 
3261.000000	98.116275 
3260.000000	98.116661 
3259.000000	98.117041 
3258.000000	98.117421 
3257.000000	98.117810 
3256.000000	98.118217 
3255.000000	98.118644 
3254.000000	98.119083 
3253.000000	98.119520 
3252.000000	98.119945 
3251.000000	98.120356 
3250.000000	98.120757 
3249.000000	98.121150 
3248.000000	98.121539 
3247.000000	98.121928 
3246.000000	98.122322 
3245.000000	98.122726 
3244.000000	98.123144 
3243.000000	98.123580 
3242.000000	98.124035 
3241.000000	98.124509 
3240.000000	98.125001 
3239.000000	98.125503 
3238.000000	98.126010 
3237.000000	98.126511 
3236.000000	98.127001 
3235.000000	98.127471 
3234.000000	98.127912 
3233.000000	98.128323 
3232.000000	98.128712 
3231.000000	98.129105 
3230.000000	98.129524 
3229.000000	98.129973 
3228.000000	98.130434 
3227.000000	98.130883 
3226.000000	98.131326 
3225.000000	98.131781 
3224.000000	98.132255 
3223.000000	98.132724 
3222.000000	98.133157 
3221.000000	98.133550 
3220.000000	98.133929 
3219.000000	98.134313 
3218.000000	98.134710 
3217.000000	98.135120 
3216.000000	98.135547 
3215.000000	98.135988 
3214.000000	98.136438 
3213.000000	98.136884 
3212.000000	98.137318 
3211.000000	98.137742 
3210.000000	98.138165 
3209.000000	98.138603 
3208.000000	98.139063 
3207.000000	98.139552 
3206.000000	98.140070 
3205.000000	98.140613 
3204.000000	98.141170 
3203.000000	98.141732 
3202.000000	98.142292 
3201.000000	98.142845 
3200.000000	98.143389 
3199.000000	98.143925 
3198.000000	98.144462 
3197.000000	98.145006 
3196.000000	98.145563 
3195.000000	98.146135 
3194.000000	98.146721 
3193.000000	98.147329 
3192.000000	98.147965 
3191.000000	98.148628 
3190.000000	98.149311 
3189.000000	98.149998 
3188.000000	98.150680 
3187.000000	98.151357 
3186.000000	98.152038 
3185.000000	98.152734 
3184.000000	98.153450 
3183.000000	98.154186 
3182.000000	98.154936 
3181.000000	98.155698 
3180.000000	98.156470 
3179.000000	98.157251 
3178.000000	98.158038 
3177.000000	98.158830 
3176.000000	98.159632 
3175.000000	98.160447 
3174.000000	98.161274 
3173.000000	98.162103 
3172.000000	98.162919 
3171.000000	98.163710 
3170.000000	98.164474 
3169.000000	98.165232 
3168.000000	98.166023 
3167.000000	98.166866 
3166.000000	98.167738 
3165.000000	98.168582 
3164.000000	98.169347 
3163.000000	98.170012 
3162.000000	98.170584 
3161.000000	98.171123 
3160.000000	98.171714 
3159.000000	98.172398 
3158.000000	98.173176 
3157.000000	98.174046 
3156.000000	98.175011 
3155.000000	98.176013 
3154.000000	98.176933 
3153.000000	98.177697 
3152.000000	98.178360 
3151.000000	98.179045 
3150.000000	98.179784 
3149.000000	98.180505 
3148.000000	98.181153 
3147.000000	98.181766 
3146.000000	98.182458 
3145.000000	98.183311 
3144.000000	98.184290 
3143.000000	98.185239 
3142.000000	98.186013 
3141.000000	98.186633 
3140.000000	98.187275 
3139.000000	98.188050 
3138.000000	98.188854 
3137.000000	98.189494 
3136.000000	98.189923 
3135.000000	98.190266 
3134.000000	98.190673 
3133.000000	98.191247 
3132.000000	98.192028 
3131.000000	98.192944 
3130.000000	98.193825 
3129.000000	98.194569 
3128.000000	98.195238 
3127.000000	98.195970 
3126.000000	98.196879 
3125.000000	98.198032 
3124.000000	98.199367 
3123.000000	98.200609 
3122.000000	98.201424 
3121.000000	98.201772 
3120.000000	98.202011 
3119.000000	98.202559 
3118.000000	98.203498 
3117.000000	98.204658 
3116.000000	98.205904 
3115.000000	98.207147 
3114.000000	98.208180 
3113.000000	98.208765 
3112.000000	98.208966 
3111.000000	98.209218 
3110.000000	98.209941 
3109.000000	98.211098 
3108.000000	98.212261 
3107.000000	98.213053 
3106.000000	98.213456 
3105.000000	98.213667 
3104.000000	98.213731 
3103.000000	98.213507 
3102.000000	98.213044 
3101.000000	98.212760 
3100.000000	98.213001 
3099.000000	98.213598 
3098.000000	98.214188 
3097.000000	98.214905 
3096.000000	98.216249 
3095.000000	98.218194 
3094.000000	98.219891 
3093.000000	98.220621 
3092.000000	98.220666 
3091.000000	98.220755 
3090.000000	98.220952 
3089.000000	98.220604 
3088.000000	98.219323 
3087.000000	98.217707 
3086.000000	98.217059 
3085.000000	98.218404 
3084.000000	98.221350 
3083.000000	98.223868 
3082.000000	98.224079 
3081.000000	98.222613 
3080.000000	98.222098 
3079.000000	98.223725 
3078.000000	98.225851 
3077.000000	98.226930 
3076.000000	98.228024 
3075.000000	98.230656 
3074.000000	98.233719 
3073.000000	98.234694 
3072.000000	98.232984 
3071.000000	98.230081 
3070.000000	98.227268 
3069.000000	98.225342 
3068.000000	98.225807 
3067.000000	98.229636 
3066.000000	98.234766 
3065.000000	98.237198 
3064.000000	98.235035 
3063.000000	98.229779 
3062.000000	98.223777 
3061.000000	98.218336 
3060.000000	98.214376 
3059.000000	98.212780 
3058.000000	98.213539 
3057.000000	98.215827 
3056.000000	98.218935 
3055.000000	98.221693 
3054.000000	98.221661 
3053.000000	98.217411 
3052.000000	98.211728 
3051.000000	98.209832 
3050.000000	98.213253 
3049.000000	98.217579 
3048.000000	98.217476 
3047.000000	98.211991 
3046.000000	98.203721 
3045.000000	98.195067 
3044.000000	98.187395 
3043.000000	98.182480 
3042.000000	98.181840 
3041.000000	98.184157 
3040.000000	98.185135 
3039.000000	98.180998 
3038.000000	98.171671 
3037.000000	98.160029 
3036.000000	98.148321 
3035.000000	98.135888 
3034.000000	98.120734 
3033.000000	98.102770 
3032.000000	98.084593 
3031.000000	98.069273 
3030.000000	98.058144 
3029.000000	98.050611 
3028.000000	98.044528 
3027.000000	98.036098 
3026.000000	98.021318 
3025.000000	97.999474 
3024.000000	97.974634 
3023.000000	97.952089 
3022.000000	97.933601 
3021.000000	97.917543 
3020.000000	97.902551 
3019.000000	97.888564 
3018.000000	97.874413 
3017.000000	97.857168 
3016.000000	97.835089 
3015.000000	97.809672 
3014.000000	97.784093 
3013.000000	97.760761 
3012.000000	97.740496 
3011.000000	97.722270 
3010.000000	97.703091 
3009.000000	97.679813 
3008.000000	97.651942 
3007.000000	97.621703 
3006.000000	97.591046 
3005.000000	97.560235 
3004.000000	97.529992 
3003.000000	97.503099 
3002.000000	97.482330 
3001.000000	97.467639 
3000.000000	97.456095 
2999.000000	97.443562 
2998.000000	97.426202 
2997.000000	97.402577 
2996.000000	97.375597 
2995.000000	97.350322 
2994.000000	97.327557 
2993.000000	97.301100 
2992.000000	97.264265 
2991.000000	97.219197 
2990.000000	97.177387 
2989.000000	97.150379 
2988.000000	97.141639 
2987.000000	97.146915 
2986.000000	97.159506 
2985.000000	97.174029 
2984.000000	97.186929 
2983.000000	97.196189 
2982.000000	97.201462 
2981.000000	97.203628 
2980.000000	97.203540 
2979.000000	97.201186 
2978.000000	97.196146 
2977.000000	97.188647 
2976.000000	97.179964 
2975.000000	97.171758 
2974.000000	97.165347 
2973.000000	97.161859 
2972.000000	97.162665 
2971.000000	97.168733 
2970.000000	97.179300 
2969.000000	97.192002 
2968.000000	97.204937 
2967.000000	97.218131 
2966.000000	97.232441 
2965.000000	97.247684 
2964.000000	97.262787 
2963.000000	97.277345 
2962.000000	97.291869 
2961.000000	97.306350 
2960.000000	97.319607 
2959.000000	97.330676 
2958.000000	97.340428 
2957.000000	97.351219 
2956.000000	97.364805 
2955.000000	97.380707 
2954.000000	97.396717 
2953.000000	97.411250 
2952.000000	97.425057 
2951.000000	97.440071 
2950.000000	97.456306 
2949.000000	97.470624 
2948.000000	97.479365 
2947.000000	97.481587 
2946.000000	97.479275 
2945.000000	97.475251 
2944.000000	97.471826 
2943.000000	97.471094 
2942.000000	97.474326 
2941.000000	97.480009 
2940.000000	97.484160 
2939.000000	97.483994 
2938.000000	97.480484 
2937.000000	97.476362 
2936.000000	97.472485 
2935.000000	97.467499 
2934.000000	97.460549 
2933.000000	97.452580 
2932.000000	97.444776 
2931.000000	97.437187 
2930.000000	97.429564 
2929.000000	97.422535 
2928.000000	97.417108 
2927.000000	97.413505 
2926.000000	97.411248 
2925.000000	97.410124 
2924.000000	97.410381 
2923.000000	97.411933 
2922.000000	97.413770 
2921.000000	97.414397 
2920.000000	97.413066 
2919.000000	97.410828 
2918.000000	97.409988 
2917.000000	97.411669 
2916.000000	97.413735 
2915.000000	97.412154 
2914.000000	97.405275 
2913.000000	97.396058 
2912.000000	97.389176 
2911.000000	97.386121 
2910.000000	97.384346 
2909.000000	97.381169 
2908.000000	97.377202 
2907.000000	97.374863 
2906.000000	97.374108 
2905.000000	97.370852 
2904.000000	97.360779 
2903.000000	97.344856 
2902.000000	97.331636 
2901.000000	97.331183 
2900.000000	97.347148 
2899.000000	97.373988 
2898.000000	97.401290 
2897.000000	97.421869 
2896.000000	97.434829 
2895.000000	97.442401 
2894.000000	97.446874 
2893.000000	97.451054 
2892.000000	97.458579 
2891.000000	97.470989 
2890.000000	97.485326 
2889.000000	97.496834 
2888.000000	97.503801 
2887.000000	97.508039 
2886.000000	97.511202 
2885.000000	97.513478 
2884.000000	97.516489 
2883.000000	97.524413 
2882.000000	97.539926 
2881.000000	97.560366 
2880.000000	97.580113 
2879.000000	97.596468 
2878.000000	97.611157 
2877.000000	97.626370 
2876.000000	97.641709 
2875.000000	97.655636 
2874.000000	97.667895 
2873.000000	97.679007 
2872.000000	97.688567 
2871.000000	97.695722 
2870.000000	97.701095 
2869.000000	97.706948 
2868.000000	97.715273 
2867.000000	97.726465 
2866.000000	97.739828 
2865.000000	97.754487 
2864.000000	97.769649 
2863.000000	97.784843 
2862.000000	97.800370 
2861.000000	97.816892 
2860.000000	97.834169 
2859.000000	97.850844 
2858.000000	97.866089 
2857.000000	97.880985 
2856.000000	97.897252 
2855.000000	97.914545 
2854.000000	97.930047 
2853.000000	97.941324 
2852.000000	97.949042 
2851.000000	97.956606 
2850.000000	97.967256 
2849.000000	97.981597 
2848.000000	97.997542 
2847.000000	98.012173 
2846.000000	98.023749 
2845.000000	98.032573 
2844.000000	98.040457 
2843.000000	98.049386 
2842.000000	98.060329 
2841.000000	98.072761 
2840.000000	98.084877 
2839.000000	98.094508 
2838.000000	98.100518 
2837.000000	98.103821 
2836.000000	98.107026 
2835.000000	98.112584 
2834.000000	98.120985 
2833.000000	98.130865 
2832.000000	98.140581 
2831.000000	98.149234 
2830.000000	98.156214 
2829.000000	98.160673 
2828.000000	98.162400 
2827.000000	98.163130 
2826.000000	98.166023 
2825.000000	98.172972 
2824.000000	98.182514 
2823.000000	98.190875 
2822.000000	98.195187 
2821.000000	98.195522 
2820.000000	98.194058 
2819.000000	98.192912 
2818.000000	98.192997 
2817.000000	98.194452 
2816.000000	98.197311 
2815.000000	98.201350 
2814.000000	98.205572 
2813.000000	98.208350 
2812.000000	98.208460 
2811.000000	98.206211 
2810.000000	98.203596 
2809.000000	98.203070 
2808.000000	98.205816 
2807.000000	98.211036 
2806.000000	98.216753 
2805.000000	98.221234 
2804.000000	98.223780 
2803.000000	98.224674 
2802.000000	98.224896 
2801.000000	98.225767 
2800.000000	98.228211 
2799.000000	98.231862 
2798.000000	98.235029 
2797.000000	98.236025 
2796.000000	98.234739 
2795.000000	98.232834 
2794.000000	98.232325 
2793.000000	98.233975 
2792.000000	98.237089 
2791.000000	98.240447 
2790.000000	98.243144 
2789.000000	98.244756 
2788.000000	98.245331 
2787.000000	98.245505 
2786.000000	98.246216 
2785.000000	98.247902 
2784.000000	98.250072 
2783.000000	98.251870 
2782.000000	98.252989 
2781.000000	98.253824 
2780.000000	98.254864 
2779.000000	98.256240 
2778.000000	98.257806 
2777.000000	98.259381 
2776.000000	98.260849 
2775.000000	98.262183 
2774.000000	98.263453 
2773.000000	98.264745 
2772.000000	98.266048 
2771.000000	98.267270 
2770.000000	98.268376 
2769.000000	98.269478 
2768.000000	98.270713 
2767.000000	98.272064 
2766.000000	98.273360 
2765.000000	98.274487 
2764.000000	98.275474 
2763.000000	98.276370 
2762.000000	98.277179 
2761.000000	98.277936 
2760.000000	98.278738 
2759.000000	98.279677 
2758.000000	98.280750 
2757.000000	98.281809 
2756.000000	98.282657 
2755.000000	98.283261 
2754.000000	98.283854 
2753.000000	98.284733 
2752.000000	98.285899 
2751.000000	98.287037 
2750.000000	98.287928 
2749.000000	98.288722 
2748.000000	98.289643 
2747.000000	98.290561 
2746.000000	98.291152 
2745.000000	98.291391 
2744.000000	98.291623 
2743.000000	98.292167 
2742.000000	98.292993 
2741.000000	98.293850 
2740.000000	98.294579 
2739.000000	98.295207 
2738.000000	98.295809 
2737.000000	98.296413 
2736.000000	98.297032 
2735.000000	98.297703 
2734.000000	98.298456 
2733.000000	98.299280 
2732.000000	98.300132 
2731.000000	98.300974 
2730.000000	98.301801 
2729.000000	98.302620 
2728.000000	98.303418 
2727.000000	98.304154 
2726.000000	98.304810 
2725.000000	98.305417 
2724.000000	98.306037 
2723.000000	98.306697 
2722.000000	98.307382 
2721.000000	98.308068 
2720.000000	98.308743 
2719.000000	98.309415 
2718.000000	98.310090 
2717.000000	98.310770 
2716.000000	98.311452 
2715.000000	98.312136 
2714.000000	98.312823 
2713.000000	98.313519 
2712.000000	98.314223 
2711.000000	98.314919 
2710.000000	98.315580 
2709.000000	98.316203 
2708.000000	98.316811 
2707.000000	98.317434 
2706.000000	98.318080 
2705.000000	98.318737 
2704.000000	98.319377 
2703.000000	98.319960 
2702.000000	98.320456 
2701.000000	98.320908 
2700.000000	98.321433 
2699.000000	98.322128 
2698.000000	98.322986 
2697.000000	98.323846 
2696.000000	98.324514 
2695.000000	98.324906 
2694.000000	98.325114 
2693.000000	98.325321 
2692.000000	98.325619 
2691.000000	98.325933 
2690.000000	98.326138 
2689.000000	98.326226 
2688.000000	98.326326 
2687.000000	98.326542 
2686.000000	98.326849 
2685.000000	98.327162 
2684.000000	98.327427 
2683.000000	98.327576 
2682.000000	98.327513 
2681.000000	98.327250 
2680.000000	98.327031 
2679.000000	98.327156 
2678.000000	98.327717 
2677.000000	98.328574 
2676.000000	98.329507 
2675.000000	98.330244 
2674.000000	98.330457 
2673.000000	98.330002 
2672.000000	98.329185 
2671.000000	98.328517 
2670.000000	98.328122 
2669.000000	98.327709 
2668.000000	98.327115 
2667.000000	98.326553 
2666.000000	98.326225 
2665.000000	98.325987 
2664.000000	98.325626 
2663.000000	98.325244 
2662.000000	98.325105 
2661.000000	98.325177 
2660.000000	98.325085 
2659.000000	98.324544 
2658.000000	98.323670 
2657.000000	98.322845 
2656.000000	98.322379 
2655.000000	98.322290 
2654.000000	98.322326 
2653.000000	98.322134 
2652.000000	98.321564 
2651.000000	98.320850 
2650.000000	98.320416 
2649.000000	98.320433 
2648.000000	98.320645 
2647.000000	98.320634 
2646.000000	98.320196 
2645.000000	98.319382 
2644.000000	98.318355 
2643.000000	98.317347 
2642.000000	98.316619 
2641.000000	98.316264 
2640.000000	98.316078 
2639.000000	98.315812 
2638.000000	98.315541 
2637.000000	98.315541 
2636.000000	98.315856 
2635.000000	98.316242 
2634.000000	98.316490 
2633.000000	98.316566 
2632.000000	98.316423 
2631.000000	98.315964 
2630.000000	98.315260 
2629.000000	98.314620 
2628.000000	98.314305 
2627.000000	98.314257 
2626.000000	98.314229 
2625.000000	98.314130 
2624.000000	98.314100 
2623.000000	98.314257 
2622.000000	98.314540 
2621.000000	98.314760 
2620.000000	98.314692 
2619.000000	98.314166 
2618.000000	98.313214 
2617.000000	98.312190 
2616.000000	98.311527 
2615.000000	98.311316 
2614.000000	98.311274 
2613.000000	98.311115 
2612.000000	98.310873 
2611.000000	98.310801 
2610.000000	98.311057 
2609.000000	98.311516 
2608.000000	98.311842 
2607.000000	98.311781 
2606.000000	98.311464 
2605.000000	98.311332 
2604.000000	98.311598 
2603.000000	98.311912 
2602.000000	98.311821 
2601.000000	98.311453 
2600.000000	98.311311 
2599.000000	98.311410 
2598.000000	98.311171 
2597.000000	98.310323 
2596.000000	98.309352 
2595.000000	98.308820 
2594.000000	98.308633 
2593.000000	98.308425 
2592.000000	98.308296 
2591.000000	98.308516 
2590.000000	98.308747 
2589.000000	98.308277 
2588.000000	98.307112 
2587.000000	98.306214 
2586.000000	98.306412 
2585.000000	98.307565 
2584.000000	98.308921 
2583.000000	98.309983 
2582.000000	98.310722 
2581.000000	98.311186 
2580.000000	98.311351 
2579.000000	98.311407 
2578.000000	98.311797 
2577.000000	98.312724 
2576.000000	98.313687 
2575.000000	98.313813 
2574.000000	98.312758 
2573.000000	98.311118 
2572.000000	98.309897 
2571.000000	98.309520 
2570.000000	98.309559 
2569.000000	98.309373 
2568.000000	98.308813 
2567.000000	98.308244 
2566.000000	98.308013 
2565.000000	98.308152 
2564.000000	98.308546 
2563.000000	98.309132 
2562.000000	98.309845 
2561.000000	98.310568 
2560.000000	98.311343 
2559.000000	98.312470 
2558.000000	98.314080 
2557.000000	98.315698 
2556.000000	98.316577 
2555.000000	98.316522 
2554.000000	98.316057 
2553.000000	98.315704 
2552.000000	98.315436 
2551.000000	98.315173 
2550.000000	98.315347 
2549.000000	98.316376 
2548.000000	98.317772 
2547.000000	98.318414 
2546.000000	98.317896 
2545.000000	98.316942 
2544.000000	98.316406 
2543.000000	98.316227 
2542.000000	98.315943 
2541.000000	98.315672 
2540.000000	98.315965 
2539.000000	98.316873 
2538.000000	98.317782 
2537.000000	98.318226 
2536.000000	98.318425 
2535.000000	98.318765 
2534.000000	98.319146 
2533.000000	98.319134 
2532.000000	98.318581 
2531.000000	98.317798 
2530.000000	98.317217 
2529.000000	98.316987 
2528.000000	98.316946 
2527.000000	98.316922 
2526.000000	98.316987 
2525.000000	98.317340 
2524.000000	98.317966 
2523.000000	98.318558 
2522.000000	98.318842 
2521.000000	98.318860 
2520.000000	98.318828 
2519.000000	98.318848 
2518.000000	98.318858 
2517.000000	98.318793 
2516.000000	98.318610 
2515.000000	98.318235 
2514.000000	98.317690 
2513.000000	98.317270 
2512.000000	98.317321 
2511.000000	98.317850 
2510.000000	98.318571 
2509.000000	98.319259 
2508.000000	98.319841 
2507.000000	98.320175 
2506.000000	98.320125 
2505.000000	98.319916 
2504.000000	98.320050 
2503.000000	98.320690 
2502.000000	98.321410 
2501.000000	98.321694 
2500.000000	98.321473 
2499.000000	98.321003 
2498.000000	98.320471 
2497.000000	98.319968 
2496.000000	98.319726 
2495.000000	98.319991 
2494.000000	98.320673 
2493.000000	98.321341 
2492.000000	98.321684 
2491.000000	98.321801 
2490.000000	98.321996 
2489.000000	98.322398 
2488.000000	98.322824 
2487.000000	98.322976 
2486.000000	98.322737 
2485.000000	98.322307 
2484.000000	98.322009 
2483.000000	98.321942 
2482.000000	98.321945 
2481.000000	98.321981 
2480.000000	98.322331 
2479.000000	98.323185 
2478.000000	98.324241 
2477.000000	98.325016 
2476.000000	98.325365 
2475.000000	98.325331 
2474.000000	98.324698 
2473.000000	98.323205 
2472.000000	98.321132 
2471.000000	98.319237 
2470.000000	98.318127 
2469.000000	98.318014 
2468.000000	98.318794 
2467.000000	98.319977 
2466.000000	98.320749 
2465.000000	98.320630 
2464.000000	98.320160 
2463.000000	98.320456 
2462.000000	98.321988 
2461.000000	98.324100 
2460.000000	98.325778 
2459.000000	98.326547 
2458.000000	98.326383 
2457.000000	98.325263 
2456.000000	98.323236 
2455.000000	98.320821 
2454.000000	98.318928 
2453.000000	98.318137 
2452.000000	98.318205 
2451.000000	98.318463 
2450.000000	98.318668 
2449.000000	98.319193 
2448.000000	98.320270 
2447.000000	98.321413 
2446.000000	98.321871 
2445.000000	98.321504 
2444.000000	98.320908 
2443.000000	98.320724 
2442.000000	98.321106 
2441.000000	98.321827 
2440.000000	98.322632 
2439.000000	98.323432 
2438.000000	98.324380 
2437.000000	98.325728 
2436.000000	98.327438 
2435.000000	98.329011 
2434.000000	98.329922 
2433.000000	98.330171 
2432.000000	98.330255 
2431.000000	98.330673 
2430.000000	98.331575 
2429.000000	98.332844 
2428.000000	98.334226 
2427.000000	98.335375 
2426.000000	98.336046 
2425.000000	98.336300 
2424.000000	98.336463 
2423.000000	98.336851 
2422.000000	98.337536 
2421.000000	98.338434 
2420.000000	98.339448 
2419.000000	98.340494 
2418.000000	98.341489 
2417.000000	98.342402 
2416.000000	98.343273 
2415.000000	98.344164 
2414.000000	98.345098 
2413.000000	98.346076 
2412.000000	98.347107 
2411.000000	98.348152 
2410.000000	98.349110 
2409.000000	98.349948 
2408.000000	98.350785 
2407.000000	98.351721 
2406.000000	98.352697 
2405.000000	98.353562 
2404.000000	98.354238 
2403.000000	98.354764 
2402.000000	98.355239 
2401.000000	98.355759 
2400.000000	98.356376 
2399.000000	98.357090 
2398.000000	98.357866 
2397.000000	98.358655 
2396.000000	98.359407 
2395.000000	98.360055 
2394.000000	98.360506 
2393.000000	98.360753 
2392.000000	98.360915 
2391.000000	98.361141 
2390.000000	98.361439 
2389.000000	98.361698 
2388.000000	98.361843 
2387.000000	98.361890 
2386.000000	98.361883 
2385.000000	98.361845 
2384.000000	98.361786 
2383.000000	98.361715 
2382.000000	98.361632 
2381.000000	98.361530 
2380.000000	98.361402 
2379.000000	98.361243 
2378.000000	98.361033 
2377.000000	98.360744 
2376.000000	98.360363 
2375.000000	98.359898 
2374.000000	98.359364 
2373.000000	98.358771 
2372.000000	98.358129 
2371.000000	98.357448 
2370.000000	98.356737 
2369.000000	98.355990 
2368.000000	98.355182 
2367.000000	98.354288 
2366.000000	98.353306 
2365.000000	98.352265 
2364.000000	98.351204 
2363.000000	98.350154 
2362.000000	98.349127 
2361.000000	98.348120 
2360.000000	98.347118 
2359.000000	98.346095 
2358.000000	98.345028 
2357.000000	98.343908 
2356.000000	98.342738 
2355.000000	98.341527 
2354.000000	98.340291 
2353.000000	98.339058 
2352.000000	98.337856 
2351.000000	98.336703 
2350.000000	98.335586 
2349.000000	98.334488 
2348.000000	98.333393 
2347.000000	98.332301 
2346.000000	98.331263 
2345.000000	98.330352 
2344.000000	98.329587 
2343.000000	98.328871 
2342.000000	98.328106 
2341.000000	98.327348 
2340.000000	98.326780 
2339.000000	98.326452 
2338.000000	98.326051 
2337.000000	98.325224 
2336.000000	98.324043 
2335.000000	98.322902 
2334.000000	98.321887 
2333.000000	98.320865 
2332.000000	98.320041 
2331.000000	98.319936 
2330.000000	98.320169 
2329.000000	98.319528 
2328.000000	98.317372 
2327.000000	98.314026 
2326.000000	98.310409 
2325.000000	98.307316 
2324.000000	98.306222 
2323.000000	98.307990 
2322.000000	98.311313 
2321.000000	98.313758 
2320.000000	98.314527 
2319.000000	98.315324 
2318.000000	98.316985 
2317.000000	98.318288 
2316.000000	98.317568 
2315.000000	98.315199 
2314.000000	98.312818 
2313.000000	98.311949 
2312.000000	98.313659 
2311.000000	98.318314 
2310.000000	98.324193 
2309.000000	98.327665 
2308.000000	98.326863 
2307.000000	98.323790 
2306.000000	98.321861 
2305.000000	98.321732 
2304.000000	98.321571 
2303.000000	98.320501 
2302.000000	98.319867 
2301.000000	98.320734 
2300.000000	98.321731 
2299.000000	98.320301 
2298.000000	98.315154 
2297.000000	98.307246 
2296.000000	98.299161 
2295.000000	98.293097 
2294.000000	98.289533 
2293.000000	98.287190 
2292.000000	98.284930 
2291.000000	98.282665 
2290.000000	98.280810 
2289.000000	98.279166 
2288.000000	98.277191 
2287.000000	98.274647 
2286.000000	98.271841 
2285.000000	98.269475 
2284.000000	98.268400 
2283.000000	98.268766 
2282.000000	98.269166 
2281.000000	98.267451 
2280.000000	98.262672 
2279.000000	98.255850 
2278.000000	98.248863 
2277.000000	98.243393 
2276.000000	98.240536 
2275.000000	98.240313 
2274.000000	98.241299 
2273.000000	98.241981 
2272.000000	98.242686 
2271.000000	98.244885 
2270.000000	98.248632 
2269.000000	98.252038 
2268.000000	98.253480 
2267.000000	98.252908 
2266.000000	98.250716 
2265.000000	98.247241 
2264.000000	98.243495 
2263.000000	98.240705 
2262.000000	98.238646 
2261.000000	98.235769 
2260.000000	98.231510 
2259.000000	98.227095 
2258.000000	98.223785 
2257.000000	98.221692 
2256.000000	98.220755 
2255.000000	98.221353 
2254.000000	98.223050 
2253.000000	98.223867 
2252.000000	98.222146 
2251.000000	98.218159 
2250.000000	98.213203 
2249.000000	98.208063 
2248.000000	98.203232 
2247.000000	98.199749 
2246.000000	98.198286 
2245.000000	98.198049 
2244.000000	98.197360 
2243.000000	98.195488 
2242.000000	98.193100 
2241.000000	98.191099 
2240.000000	98.189690 
2239.000000	98.188568 
2238.000000	98.187417 
2237.000000	98.186091 
2236.000000	98.184578 
2235.000000	98.182950 
2234.000000	98.181282 
2233.000000	98.179590 
2232.000000	98.177866 
2231.000000	98.176105 
2230.000000	98.174294 
2229.000000	98.172434 
2228.000000	98.170553 
2227.000000	98.168673 
2226.000000	98.166785 
2225.000000	98.164888 
2224.000000	98.162970 
2223.000000	98.161036 
2222.000000	98.159104 
2221.000000	98.157192 
2220.000000	98.155296 
2219.000000	98.153399 
2218.000000	98.151495 
2217.000000	98.149592 
2216.000000	98.147703 
2215.000000	98.145830 
2214.000000	98.143966 
2213.000000	98.142107 
2212.000000	98.140263 
2211.000000	98.138458 
2210.000000	98.136708 
2209.000000	98.135000 
2208.000000	98.133302 
2207.000000	98.131582 
2206.000000	98.129825 
2205.000000	98.128010 
2204.000000	98.126128 
2203.000000	98.124386 
2202.000000	98.123116 
2201.000000	98.122241 
2200.000000	98.120948 
2199.000000	98.118190 
2198.000000	98.113971 
2197.000000	98.109805 
2196.000000	98.107314 
2195.000000	98.106524 
2194.000000	98.105768 
2193.000000	98.103465 
2192.000000	98.099790 
2191.000000	98.096418 
2190.000000	98.094634 
2189.000000	98.094001 
2188.000000	98.093074 
2187.000000	98.090902 
2186.000000	98.087143 
2185.000000	98.081490 
2184.000000	98.074804 
2183.000000	98.070605 
2182.000000	98.072684 
2181.000000	98.080056 
2180.000000	98.086060 
2179.000000	98.085103 
2178.000000	98.078836 
2177.000000	98.073880 
2176.000000	98.074133 
2175.000000	98.077476 
2174.000000	98.079803 
2173.000000	98.079876 
2172.000000	98.079509 
2171.000000	98.080677 
2170.000000	98.083223 
2169.000000	98.084482 
2168.000000	98.081316 
2167.000000	98.073548 
2166.000000	98.064755 
2165.000000	98.057919 
2164.000000	98.051182 
2163.000000	98.041080 
2162.000000	98.030444 
2161.000000	98.028941 
2160.000000	98.043481 
2159.000000	98.070647 
2158.000000	98.098962 
2157.000000	98.118855 
2156.000000	98.128632 
2155.000000	98.131862 
2154.000000	98.133205 
2153.000000	98.136126 
2152.000000	98.141483 
2151.000000	98.147175 
2150.000000	98.150101 
2149.000000	98.149327 
2148.000000	98.147291 
2147.000000	98.147484 
2146.000000	98.151079 
2145.000000	98.156289 
2144.000000	98.161158 
2143.000000	98.166251 
2142.000000	98.173621 
2141.000000	98.183512 
2140.000000	98.193527 
2139.000000	98.201683 
2138.000000	98.208958 
2137.000000	98.217256 
2136.000000	98.225434 
2135.000000	98.229256 
2134.000000	98.225993 
2133.000000	98.218508 
2132.000000	98.214058 
2131.000000	98.218398 
2130.000000	98.231058 
2129.000000	98.245549 
2128.000000	98.254416 
2127.000000	98.255099 
2126.000000	98.251184 
2125.000000	98.248421 
2124.000000	98.249241 
2123.000000	98.251382 
2122.000000	98.251425 
2121.000000	98.248365 
2120.000000	98.243555 
2119.000000	98.238531 
2118.000000	98.234114 
2117.000000	98.231184 
2116.000000	98.230454 
2115.000000	98.230872 
2114.000000	98.229536 
2113.000000	98.224523 
2112.000000	98.217540 
2111.000000	98.212654 
2110.000000	98.212449 
2109.000000	98.216170 
2108.000000	98.221117 
2107.000000	98.224805 
2106.000000	98.225941 
2105.000000	98.224835 
2104.000000	98.223408 
2103.000000	98.223468 
2102.000000	98.224186 
2101.000000	98.222487 
2100.000000	98.217063 
2099.000000	98.211095 
2098.000000	98.209568 
2097.000000	98.214241 
2096.000000	98.222277 
2095.000000	98.229104 
2094.000000	98.231974 
2093.000000	98.230799 
2092.000000	98.227241 
2091.000000	98.223790 
2090.000000	98.222521 
2089.000000	98.223578 
2088.000000	98.224843 
2087.000000	98.223632 
2086.000000	98.218723 
2085.000000	98.211028 
2084.000000	98.203132 
2083.000000	98.197682 
2082.000000	98.195611 
2081.000000	98.195753 
2080.000000	98.196263 
2079.000000	98.196265 
2078.000000	98.195521 
2077.000000	98.193155 
2076.000000	98.188187 
2075.000000	98.181620 
2074.000000	98.176207 
2073.000000	98.173107 
2072.000000	98.170421 
2071.000000	98.165948 
2070.000000	98.160198 
2069.000000	98.155366 
2068.000000	98.152371 
2067.000000	98.150164 
2066.000000	98.147390 
2065.000000	98.143582 
2064.000000	98.138947 
2063.000000	98.134101 
2062.000000	98.130160 
2061.000000	98.128133 
2060.000000	98.127927 
2059.000000	98.128398 
2058.000000	98.128194 
2057.000000	98.126489 
2056.000000	98.122998 
2055.000000	98.117757 
2054.000000	98.111300 
2053.000000	98.104680 
2052.000000	98.098973 
2051.000000	98.094554 
2050.000000	98.090915 
2049.000000	98.087275 
2048.000000	98.083458 
2047.000000	98.080050 
2046.000000	98.077644 
2045.000000	98.076173 
2044.000000	98.075070 
2043.000000	98.073802 
2042.000000	98.072105 
2041.000000	98.069951 
2040.000000	98.067747 
2039.000000	98.066412 
2038.000000	98.066486 
2037.000000	98.066941 
2036.000000	98.065717 
2035.000000	98.062061 
2034.000000	98.057906 
2033.000000	98.056213 
2032.000000	98.057947 
2031.000000	98.061122 
2030.000000	98.062458 
2029.000000	98.060002 
2028.000000	98.054432 
2027.000000	98.048551 
2026.000000	98.045052 
2025.000000	98.044685 
2024.000000	98.046802 
2023.000000	98.051221 
2022.000000	98.058357 
2021.000000	98.066943 
2020.000000	98.073047 
2019.000000	98.072983 
2018.000000	98.066595 
2017.000000	98.057636 
2016.000000	98.050595 
2015.000000	98.047260 
2014.000000	98.046283 
2013.000000	98.044767 
2012.000000	98.041266 
2011.000000	98.038262 
2010.000000	98.040200 
2009.000000	98.047927 
2008.000000	98.056601 
2007.000000	98.061366 
2006.000000	98.063512 
2005.000000	98.067656 
2004.000000	98.074556 
2003.000000	98.080675 
2002.000000	98.084095 
2001.000000	98.086158 
2000.000000	98.086937 
1999.000000	98.083219 
1998.000000	98.072799 
1997.000000	98.058522 
1996.000000	98.046355 
1995.000000	98.040283 
1994.000000	98.040206 
1993.000000	98.043062 
1992.000000	98.044790 
1991.000000	98.043506 
1990.000000	98.041880 
1989.000000	98.044504 
1988.000000	98.051930 
1987.000000	98.058605 
1986.000000	98.058309 
1985.000000	98.050754 
1984.000000	98.041059 
1983.000000	98.033726 
1982.000000	98.029100 
1981.000000	98.025696 
1980.000000	98.023861 
1979.000000	98.025643 
1978.000000	98.031456 
1977.000000	98.038504 
1976.000000	98.043056 
1975.000000	98.044065 
1974.000000	98.044149 
1973.000000	98.047088 
1972.000000	98.054261 
1971.000000	98.063403 
1970.000000	98.070582 
1969.000000	98.073166 
1968.000000	98.071072 
1967.000000	98.066407 
1966.000000	98.062680 
1965.000000	98.062958 
1964.000000	98.067950 
1963.000000	98.075977 
1962.000000	98.084782 
1961.000000	98.092854 
1960.000000	98.098964 
1959.000000	98.101844 
1958.000000	98.101666 
1957.000000	98.101079 
1956.000000	98.103074 
1955.000000	98.107765 
1954.000000	98.112567 
1953.000000	98.115467 
1952.000000	98.116728 
1951.000000	98.117401 
1950.000000	98.118094 
1949.000000	98.119663 
1948.000000	98.123330 
1947.000000	98.129088 
1946.000000	98.134852 
1945.000000	98.138338 
1944.000000	98.139288 
1943.000000	98.139181 
1942.000000	98.139560 
1941.000000	98.140971 
1940.000000	98.143346 
1939.000000	98.146368 
1938.000000	98.149560 
1937.000000	98.152764 
1936.000000	98.156281 
1935.000000	98.160107 
1934.000000	98.163520 
1933.000000	98.166100 
1932.000000	98.168632 
1931.000000	98.172227 
1930.000000	98.176840 
1929.000000	98.181138 
1928.000000	98.184138 
1927.000000	98.186095 
1926.000000	98.187681 
1925.000000	98.189261 
1924.000000	98.191074 
1923.000000	98.193430 
1922.000000	98.195967 
1921.000000	98.197572 
1920.000000	98.197855 
1919.000000	98.197815 
1918.000000	98.198612 
1917.000000	98.200092 
1916.000000	98.201434 
1915.000000	98.202821 
1914.000000	98.204888 
1913.000000	98.207303 
1912.000000	98.209109 
1911.000000	98.210159 
1910.000000	98.211246 
1909.000000	98.212838 
1908.000000	98.214626 
1907.000000	98.216190 
1906.000000	98.217341 
1905.000000	98.217924 
1904.000000	98.217995 
1903.000000	98.218281 
1902.000000	98.219534 
1901.000000	98.221491 
1900.000000	98.223222 
1899.000000	98.224288 
1898.000000	98.224979 
1897.000000	98.225670 
1896.000000	98.226360 
1895.000000	98.226939 
1894.000000	98.227461 
1893.000000	98.228046 
1892.000000	98.228767 
1891.000000	98.229663 
1890.000000	98.230707 
1889.000000	98.231781 
1888.000000	98.232796 
1887.000000	98.233772 
1886.000000	98.234747 
1885.000000	98.235738 
1884.000000	98.236746 
1883.000000	98.237769 
1882.000000	98.238821 
1881.000000	98.239919 
1880.000000	98.241069 
1879.000000	98.242266 
1878.000000	98.243500 
1877.000000	98.244765 
1876.000000	98.246064 
1875.000000	98.247403 
1874.000000	98.248776 
1873.000000	98.250173 
1872.000000	98.251579 
1871.000000	98.252987 
1870.000000	98.254401 
1869.000000	98.255834 
1868.000000	98.257301 
1867.000000	98.258811 
1866.000000	98.260367 
1865.000000	98.261962 
1864.000000	98.263588 
1863.000000	98.265245 
1862.000000	98.266941 
1861.000000	98.268676 
1860.000000	98.270442 
1859.000000	98.272231 
1858.000000	98.274045 
1857.000000	98.275888 
1856.000000	98.277757 
1855.000000	98.279651 
1854.000000	98.281573 
1853.000000	98.283524 
1852.000000	98.285499 
1851.000000	98.287488 
1850.000000	98.289479 
1849.000000	98.291455 
1848.000000	98.293404 
1847.000000	98.295326 
1846.000000	98.297225 
1845.000000	98.299114 
1844.000000	98.300989 
1843.000000	98.302824 
1842.000000	98.304634 
1841.000000	98.306432 
1840.000000	98.308236 
1839.000000	98.310118 
1838.000000	98.312078 
1837.000000	98.313878 
1836.000000	98.315256 
1835.000000	98.316341 
1834.000000	98.317564 
1833.000000	98.319046 
1832.000000	98.320607 
1831.000000	98.322070 
1830.000000	98.323370 
1829.000000	98.324526 
1828.000000	98.325597 
1827.000000	98.326711 
1826.000000	98.328015 
1825.000000	98.329498 
1824.000000	98.330866 
1823.000000	98.331831 
1822.000000	98.332510 
1821.000000	98.333149 
1820.000000	98.333746 
1819.000000	98.334205 
1818.000000	98.334856 
1817.000000	98.336140 
1816.000000	98.337706 
1815.000000	98.338905 
1814.000000	98.339799 
1813.000000	98.340879 
1812.000000	98.341900 
1811.000000	98.341873 
1810.000000	98.340835 
1809.000000	98.340062 
1808.000000	98.340190 
1807.000000	98.340859 
1806.000000	98.341805 
1805.000000	98.342951 
1804.000000	98.343745 
1803.000000	98.343553 
1802.000000	98.342473 
1801.000000	98.341483 
1800.000000	98.341195 
1799.000000	98.341273 
1798.000000	98.341657 
1797.000000	98.342497 
1796.000000	98.343227 
1795.000000	98.343266 
1794.000000	98.342900 
1793.000000	98.342906 
1792.000000	98.343205 
1791.000000	98.343083 
1790.000000	98.342942 
1789.000000	98.343634 
1788.000000	98.344968 
1787.000000	98.346139 
1786.000000	98.346917 
1785.000000	98.347577 
1784.000000	98.347991 
1783.000000	98.348036 
1782.000000	98.348020 
1781.000000	98.348374 
1780.000000	98.349207 
1779.000000	98.350213 
1778.000000	98.351371 
1777.000000	98.352706 
1776.000000	98.353885 
1775.000000	98.354592 
1774.000000	98.354825 
1773.000000	98.355107 
1772.000000	98.355936 
1771.000000	98.356882 
1770.000000	98.357387 
1769.000000	98.357735 
1768.000000	98.358475 
1767.000000	98.359587 
1766.000000	98.360615 
1765.000000	98.361465 
1764.000000	98.362442 
1763.000000	98.363599 
1762.000000	98.364580 
1761.000000	98.365287 
1760.000000	98.366002 
1759.000000	98.366816 
1758.000000	98.367591 
1757.000000	98.368282 
1756.000000	98.369183 
1755.000000	98.370176 
1754.000000	98.370567 
1753.000000	98.369947 
1752.000000	98.368893 
1751.000000	98.368737 
1750.000000	98.369947 
1749.000000	98.371791 
1748.000000	98.373452 
1747.000000	98.374887 
1746.000000	98.376096 
1745.000000	98.377094 
1744.000000	98.378178 
1743.000000	98.379360 
1742.000000	98.380241 
1741.000000	98.380802 
1740.000000	98.381577 
1739.000000	98.382839 
1738.000000	98.384016 
1737.000000	98.384604 
1736.000000	98.384595 
1735.000000	98.384297 
1734.000000	98.384181 
1733.000000	98.384408 
1732.000000	98.385146 
1731.000000	98.386731 
1730.000000	98.389024 
1729.000000	98.390996 
1728.000000	98.391933 
1727.000000	98.392010 
1726.000000	98.391795 
1725.000000	98.391689 
1724.000000	98.391878 
1723.000000	98.392348 
1722.000000	98.393062 
1721.000000	98.393718 
1720.000000	98.393835 
1719.000000	98.393008 
1718.000000	98.391556 
1717.000000	98.390640 
1716.000000	98.390348 
1715.000000	98.390038 
1714.000000	98.389891 
1713.000000	98.390004 
1712.000000	98.389892 
1711.000000	98.389369 
1710.000000	98.388725 
1709.000000	98.388133 
1708.000000	98.387491 
1707.000000	98.386752 
1706.000000	98.386036 
1705.000000	98.385305 
1704.000000	98.384211 
1703.000000	98.382759 
1702.000000	98.381236 
1701.000000	98.380015 
1700.000000	98.379071 
1699.000000	98.378035 
1698.000000	98.376936 
1697.000000	98.375958 
1696.000000	98.375030 
1695.000000	98.374009 
1694.000000	98.372903 
1693.000000	98.371771 
1692.000000	98.370609 
1691.000000	98.369395 
1690.000000	98.368123 
1689.000000	98.366796 
1688.000000	98.365421 
1687.000000	98.364017 
1686.000000	98.362605 
1685.000000	98.361202 
1684.000000	98.359808 
1683.000000	98.358411 
1682.000000	98.357004 
1681.000000	98.355590 
1680.000000	98.354175 
1679.000000	98.352767 
1678.000000	98.351371 
1677.000000	98.349987 
1676.000000	98.348616 
1675.000000	98.347260 
1674.000000	98.345884 
1673.000000	98.344446 
1672.000000	98.342980 
1671.000000	98.341588 
1670.000000	98.340342 
1669.000000	98.339118 
1668.000000	98.337819 
1667.000000	98.336584 
1666.000000	98.335460 
1665.000000	98.334358 
1664.000000	98.333308 
1663.000000	98.332519 
1662.000000	98.331873 
1661.000000	98.330661 
1660.000000	98.328862 
1659.000000	98.327271 
1658.000000	98.326477 
1657.000000	98.325774 
1656.000000	98.324802 
1655.000000	98.323490 
1654.000000	98.322348 
1653.000000	98.320718 
1652.000000	98.316897 
1651.000000	98.312758 
1650.000000	98.309547 
1649.000000	98.307523 
1648.000000	98.306012 
1647.000000	98.304896 
1646.000000	98.303595 
1645.000000	98.302550 
1644.000000	98.301655 
1643.000000	98.301155 
1642.000000	98.301114 
1641.000000	98.301314 
1640.000000	98.301153 
1639.000000	98.300009 
1638.000000	98.298255 
1637.000000	98.296894 
1636.000000	98.296374 
1635.000000	98.296564 
1634.000000	98.296784 
1633.000000	98.296411 
1632.000000	98.294949 
1631.000000	98.293050 
1630.000000	98.292256 
1629.000000	98.292225 
1628.000000	98.291696 
1627.000000	98.291331 
1626.000000	98.292190 
1625.000000	98.293220 
1624.000000	98.293078 
1623.000000	98.292632 
1622.000000	98.293018 
1621.000000	98.292687 
1620.000000	98.291067 
1619.000000	98.289930 
1618.000000	98.290607 
1617.000000	98.290478 
1616.000000	98.286547 
1615.000000	98.282660 
1614.000000	98.282005 
1613.000000	98.281694 
1612.000000	98.278732 
1611.000000	98.275121 
1610.000000	98.274342 
1609.000000	98.276069 
1608.000000	98.278560 
1607.000000	98.282411 
1606.000000	98.286883 
1605.000000	98.289178 
1604.000000	98.289759 
1603.000000	98.291528 
1602.000000	98.294865 
1601.000000	98.297207 
1600.000000	98.297755 
1599.000000	98.298576 
1598.000000	98.300514 
1597.000000	98.302404 
1596.000000	98.303781 
1595.000000	98.305812 
1594.000000	98.308989 
1593.000000	98.311801 
1592.000000	98.313291 
1591.000000	98.314678 
1590.000000	98.316977 
1589.000000	98.319218 
1588.000000	98.320811 
1587.000000	98.323092 
1586.000000	98.326441 
1585.000000	98.328419 
1584.000000	98.327965 
1583.000000	98.327638 
1582.000000	98.329370 
1581.000000	98.332020 
1580.000000	98.334061 
1579.000000	98.335891 
1578.000000	98.338262 
1577.000000	98.340945 
1576.000000	98.343408 
1575.000000	98.346409 
1574.000000	98.349663 
1573.000000	98.351676 
1572.000000	98.352888 
1571.000000	98.354608 
1570.000000	98.356355 
1569.000000	98.355195 
1568.000000	98.352061 
1567.000000	98.350533 
1566.000000	98.351313 
1565.000000	98.352348 
1564.000000	98.353271 
1563.000000	98.354030 
1562.000000	98.354187 
1561.000000	98.351783 
1560.000000	98.348079 
1559.000000	98.348159 
1558.000000	98.350926 
1557.000000	98.351711 
1556.000000	98.349958 
1555.000000	98.349466 
1554.000000	98.349352 
1553.000000	98.349408 
1552.000000	98.348986 
1551.000000	98.348162 
1550.000000	98.346342 
1549.000000	98.344020 
1548.000000	98.342101 
1547.000000	98.341154 
1546.000000	98.340382 
1545.000000	98.339022 
1544.000000	98.337447 
1543.000000	98.336054 
1542.000000	98.334887 
1541.000000	98.334154 
1540.000000	98.331841 
1539.000000	98.327247 
1538.000000	98.322618 
1537.000000	98.318607 
1536.000000	98.315071 
1535.000000	98.312287 
1534.000000	98.310808 
1533.000000	98.309896 
1532.000000	98.308036 
1531.000000	98.304476 
1530.000000	98.300320 
1529.000000	98.296610 
1528.000000	98.293054 
1527.000000	98.289221 
1526.000000	98.285392 
1525.000000	98.282090 
1524.000000	98.279326 
1523.000000	98.276604 
1522.000000	98.273675 
1521.000000	98.270255 
1520.000000	98.265692 
1519.000000	98.260059 
1518.000000	98.254327 
1517.000000	98.249671 
1516.000000	98.246334 
1515.000000	98.243717 
1514.000000	98.241346 
1513.000000	98.239251 
1512.000000	98.236941 
1511.000000	98.233073 
1510.000000	98.227221 
1509.000000	98.220618 
1508.000000	98.215453 
1507.000000	98.212204 
1506.000000	98.209570 
1505.000000	98.206550 
1504.000000	98.202852 
1503.000000	98.198886 
1502.000000	98.194681 
1501.000000	98.190968 
1500.000000	98.188072 
1499.000000	98.184979 
1498.000000	98.179808 
1497.000000	98.173442 
1496.000000	98.168608 
1495.000000	98.165866 
1494.000000	98.164207 
1493.000000	98.163221 
1492.000000	98.162950 
1491.000000	98.162842 
1490.000000	98.161991 
1489.000000	98.160640 
1488.000000	98.158242 
1487.000000	98.153496 
1486.000000	98.147993 
1485.000000	98.142562 
1484.000000	98.136790 
1483.000000	98.131384 
1482.000000	98.127164 
1481.000000	98.124251 
1480.000000	98.121252 
1479.000000	98.117110 
1478.000000	98.112437 
1477.000000	98.108570 
1476.000000	98.104504 
1475.000000	98.097797 
1474.000000	98.088949 
1473.000000	98.082612 
1472.000000	98.081994 
1471.000000	98.083240 
1470.000000	98.082474 
1469.000000	98.080426 
1468.000000	98.078152 
1467.000000	98.074871 
1466.000000	98.070345 
1465.000000	98.066456 
1464.000000	98.064881 
1463.000000	98.063089 
1462.000000	98.058768 
1461.000000	98.054052 
1460.000000	98.052115 
1459.000000	98.052173 
1458.000000	98.045581 
1457.000000	98.028034 
1456.000000	98.010536 
1455.000000	98.000447 
1454.000000	97.993010 
1453.000000	97.987115 
1452.000000	97.985459 
1451.000000	97.989655 
1450.000000	97.997721 
1449.000000	98.008616 
1448.000000	98.020653 
1447.000000	98.029393 
1446.000000	98.031283 
1445.000000	98.028851 
1444.000000	98.028145 
1443.000000	98.029787 
1442.000000	98.030613 
1441.000000	98.029784 
1440.000000	98.029525 
1439.000000	98.029427 
1438.000000	98.024691 
1437.000000	98.014675 
1436.000000	98.006944 
1435.000000	98.004717 
1434.000000	98.003929 
1433.000000	98.003929 
1432.000000	98.005577 
1431.000000	98.007463 
1430.000000	98.006176 
1429.000000	98.001925 
1428.000000	97.997903 
1427.000000	97.995344 
1426.000000	97.992090 
1425.000000	97.985854 
1424.000000	97.979894 
1423.000000	97.976278 
1422.000000	97.971528 
1421.000000	97.962770 
1420.000000	97.951434 
1419.000000	97.937319 
1418.000000	97.917117 
1417.000000	97.895743 
1416.000000	97.882239 
1415.000000	97.876959 
1414.000000	97.871214 
1413.000000	97.858863 
1412.000000	97.843606 
1411.000000	97.831649 
1410.000000	97.822484 
1409.000000	97.813915 
1408.000000	97.807472 
1407.000000	97.805614 
1406.000000	97.807793 
1405.000000	97.812663 
1404.000000	97.822314 
1403.000000	97.835733 
1402.000000	97.847426 
1401.000000	97.855972 
1400.000000	97.865957 
1399.000000	97.879361 
1398.000000	97.887868 
1397.000000	97.881504 
1396.000000	97.861050 
1395.000000	97.840406 
1394.000000	97.834926 
1393.000000	97.848945 
1392.000000	97.877388 
1391.000000	97.910177 
1390.000000	97.936601 
1389.000000	97.950315 
1388.000000	97.951557 
1387.000000	97.945627 
1386.000000	97.938551 
1385.000000	97.934304 
1384.000000	97.935425 
1383.000000	97.941897 
1382.000000	97.950712 
1381.000000	97.959232 
1380.000000	97.967456 
1379.000000	97.977546 
1378.000000	97.990884 
1377.000000	98.006447 
1376.000000	98.022102 
1375.000000	98.036677 
1374.000000	98.050236 
1373.000000	98.063925 
1372.000000	98.079064 
1371.000000	98.096162 
1370.000000	98.114149 
1369.000000	98.130284 
1368.000000	98.144467 
1367.000000	98.158962 
1366.000000	98.174719 
1365.000000	98.190619 
1364.000000	98.204456 
1363.000000	98.214474 
1362.000000	98.221685 
1361.000000	98.229462 
1360.000000	98.240487 
1359.000000	98.255107 
1358.000000	98.271186 
1357.000000	98.285491 
1356.000000	98.296373 
1355.000000	98.304450 
1354.000000	98.311465 
1353.000000	98.319902 
1352.000000	98.330481 
1351.000000	98.342210 
1350.000000	98.354263 
1349.000000	98.364255 
1348.000000	98.370688 
1347.000000	98.374451 
1346.000000	98.377974 
1345.000000	98.382298 
1344.000000	98.386514 
1343.000000	98.389481 
1342.000000	98.391098 
1341.000000	98.391446 
1340.000000	98.390668 
1339.000000	98.390028 
1338.000000	98.390902 
1337.000000	98.393225 
1336.000000	98.395743 
1335.000000	98.396913 
1334.000000	98.396343 
1333.000000	98.395519 
1332.000000	98.396196 
1331.000000	98.398635 
1330.000000	98.401479 
1329.000000	98.403300 
1328.000000	98.404054 
1327.000000	98.405104 
1326.000000	98.407142 
1325.000000	98.408244 
1324.000000	98.406713 
1323.000000	98.402731 
1322.000000	98.397506 
1321.000000	98.392542 
1320.000000	98.389791 
1319.000000	98.390367 
1318.000000	98.393061 
1317.000000	98.395624 
1316.000000	98.396681 
1315.000000	98.395479 
1314.000000	98.391624 
1313.000000	98.387183 
1312.000000	98.386440 
1311.000000	98.390942 
1310.000000	98.396615 
1309.000000	98.398696 
1308.000000	98.397612 
1307.000000	98.397552 
1306.000000	98.400491 
1305.000000	98.404281 
1304.000000	98.407210 
1303.000000	98.409294 
1302.000000	98.409799 
1301.000000	98.407307 
1300.000000	98.403052 
1299.000000	98.400548 
1298.000000	98.401020 
1297.000000	98.401887 
1296.000000	98.400555 
1295.000000	98.397649 
1294.000000	98.395288 
1293.000000	98.394585 
1292.000000	98.395559 
1291.000000	98.397527 
1290.000000	98.399124 
1289.000000	98.399369 
1288.000000	98.398674 
1287.000000	98.397607 
1286.000000	98.395255 
1285.000000	98.390798 
1284.000000	98.386018 
1283.000000	98.383357 
1282.000000	98.381809 
1281.000000	98.377740 
1280.000000	98.370148 
1279.000000	98.362303 
1278.000000	98.357336 
1277.000000	98.354847 
1276.000000	98.352304 
1275.000000	98.348044 
1274.000000	98.341936 
1273.000000	98.334736 
1272.000000	98.327505 
1271.000000	98.320442 
1270.000000	98.312002 
1269.000000	98.300494 
1268.000000	98.286737 
1267.000000	98.273404 
1266.000000	98.261569 
1265.000000	98.250143 
1264.000000	98.238683 
1263.000000	98.228299 
1262.000000	98.219450 
1261.000000	98.211084 
1260.000000	98.202974 
1259.000000	98.196771 
1258.000000	98.193033 
1257.000000	98.189294 
1256.000000	98.182627 
1255.000000	98.173115 
1254.000000	98.163393 
1253.000000	98.155320 
1252.000000	98.148365 
1251.000000	98.141368 
1250.000000	98.134998 
1249.000000	98.132056 
1248.000000	98.135075 
1247.000000	98.142874 
1246.000000	98.149338 
1245.000000	98.147294 
1244.000000	98.134778 
1243.000000	98.117969 
1242.000000	98.107603 
1241.000000	98.110842 
1240.000000	98.125022 
1239.000000	98.138775 
1238.000000	98.141269 
1237.000000	98.131087 
1236.000000	98.115244 
1235.000000	98.100210 
1234.000000	98.086285 
1233.000000	98.071519 
1232.000000	98.057174 
1231.000000	98.045965 
1230.000000	98.037483 
1229.000000	98.029346 
1228.000000	98.021443 
1227.000000	98.015329 
1226.000000	98.010294 
1225.000000	98.003569 
1224.000000	97.994166 
1223.000000	97.983446 
1222.000000	97.972127 
1221.000000	97.959608 
1220.000000	97.946330 
1219.000000	97.934061 
1218.000000	97.923283 
1217.000000	97.912302 
1216.000000	97.898826 
1215.000000	97.880990 
1214.000000	97.858105 
1213.000000	97.832754 
1212.000000	97.810549 
1211.000000	97.794252 
1210.000000	97.779208 
1209.000000	97.758265 
1208.000000	97.730470 
1207.000000	97.701447 
1206.000000	97.675574 
1205.000000	97.651286 
1204.000000	97.624613 
1203.000000	97.594230 
1202.000000	97.562156 
1201.000000	97.531495 
1200.000000	97.503871 
1199.000000	97.477758 
1198.000000	97.449705 
1197.000000	97.418608 
1196.000000	97.387391 
1195.000000	97.358902 
1194.000000	97.331955 
1193.000000	97.303539 
1192.000000	97.273235 
1191.000000	97.242642 
1190.000000	97.211822 
1189.000000	97.179204 
1188.000000	97.143991 
1187.000000	97.106250 
1186.000000	97.066102 
1185.000000	97.025192 
1184.000000	96.986872 
1183.000000	96.952037 
1182.000000	96.916871 
1181.000000	96.877564 
1180.000000	96.834764 
1179.000000	96.790138 
1178.000000	96.741562 
1177.000000	96.686444 
1176.000000	96.627589 
1175.000000	96.570644 
1174.000000	96.517053 
1173.000000	96.464349 
1172.000000	96.412165 
1171.000000	96.362394 
1170.000000	96.314195 
1169.000000	96.264715 
1168.000000	96.214845 
1167.000000	96.169096 
1166.000000	96.129924 
1165.000000	96.097640 
1164.000000	96.075833 
1163.000000	96.070585 
1162.000000	96.082748 
1161.000000	96.105264 
1160.000000	96.128902 
1159.000000	96.146898 
1158.000000	96.154062 
1157.000000	96.146572 
1156.000000	96.124163 
1155.000000	96.089420 
1154.000000	96.044937 
1153.000000	95.994248 
1152.000000	95.944145 
1151.000000	95.900722 
1150.000000	95.862954 
1149.000000	95.825153 
1148.000000	95.785643 
1147.000000	95.747631 
1146.000000	95.711589 
1145.000000	95.673162 
1144.000000	95.630078 
1143.000000	95.585530 
1142.000000	95.542670 
1141.000000	95.500548 
1140.000000	95.457381 
1139.000000	95.413452 
1138.000000	95.369208 
1137.000000	95.324661 
1136.000000	95.281739 
1135.000000	95.242755 
1134.000000	95.205492 
1133.000000	95.164488 
1132.000000	95.118285 
1131.000000	95.070781 
1130.000000	95.024443 
1129.000000	94.977269 
1128.000000	94.928024 
1127.000000	94.879326 
1126.000000	94.833275 
1125.000000	94.788198 
1124.000000	94.741751 
1123.000000	94.693697 
1122.000000	94.644207 
1121.000000	94.593075 
1120.000000	94.541808 
1119.000000	94.492792 
1118.000000	94.445450 
1117.000000	94.396833 
1116.000000	94.346393 
1115.000000	94.296434 
1114.000000	94.247833 
1113.000000	94.199418 
1112.000000	94.151547 
1111.000000	94.105886 
1110.000000	94.061496 
1109.000000	94.015506 
1108.000000	93.967363 
1107.000000	93.918639 
1106.000000	93.869566 
1105.000000	93.819494 
1104.000000	93.769563 
1103.000000	93.721636 
1102.000000	93.675185 
1101.000000	93.628733 
1100.000000	93.582955 
1099.000000	93.539228 
1098.000000	93.497248 
1097.000000	93.455318 
1096.000000	93.412928 
1095.000000	93.370258 
1094.000000	93.325529 
1093.000000	93.275599 
1092.000000	93.219938 
1091.000000	93.161973 
1090.000000	93.105785 
1089.000000	93.053160 
1088.000000	93.003933 
1087.000000	92.956410 
1086.000000	92.907251 
1085.000000	92.854302 
1084.000000	92.799952 
1083.000000	92.748185 
1082.000000	92.698465 
1081.000000	92.647202 
1080.000000	92.595497 
1079.000000	92.549771 
1078.000000	92.513371 
1077.000000	92.482953 
1076.000000	92.454588 
1075.000000	92.428078 
1074.000000	92.403946 
1073.000000	92.381588 
1072.000000	92.360644 
1071.000000	92.337044 
1070.000000	92.297249 
1069.000000	92.226440 
1068.000000	92.127345 
1067.000000	92.025690 
1066.000000	91.950417 
1065.000000	91.910735 
1064.000000	91.894677 
1063.000000	91.881786 
1062.000000	91.853230 
1061.000000	91.797059 
1060.000000	91.713664 
1059.000000	91.617791 
1058.000000	91.530059 
1057.000000	91.463386 
1056.000000	91.416795 
1055.000000	91.379095 
1054.000000	91.337647 
1053.000000	91.287497 
1052.000000	91.234304 
1051.000000	91.186917 
1050.000000	91.147601 
1049.000000	91.112274 
1048.000000	91.077944 
1047.000000	91.044505 
1046.000000	91.011325 
1045.000000	90.978157 
1044.000000	90.948014 
1043.000000	90.923457 
1042.000000	90.901038 
1041.000000	90.874732 
1040.000000	90.844343 
1039.000000	90.816296 
1038.000000	90.797578 
1037.000000	90.792579 
1036.000000	90.802317 
1035.000000	90.821322 
1034.000000	90.838691 
1033.000000	90.847652 
1032.000000	90.849586 
1031.000000	90.843862 
1030.000000	90.822601 
1029.000000	90.785892 
1028.000000	90.754843 
1027.000000	90.754624 
1026.000000	90.786174 
1025.000000	90.826289 
1024.000000	90.854892 
1023.000000	90.870528 
1022.000000	90.879749 
1021.000000	90.885580 
1020.000000	90.889197 
1019.000000	90.891854 
1018.000000	90.891817 
1017.000000	90.887311 
1016.000000	90.883295 
1015.000000	90.887180 
1014.000000	90.898289 
1013.000000	90.910352 
1012.000000	90.923227 
1011.000000	90.941849 
1010.000000	90.964436 
1009.000000	90.982966 
1008.000000	90.995864 
1007.000000	91.009930 
1006.000000	91.029372 
1005.000000	91.052995 
1004.000000	91.081734 
1003.000000	91.117565 
1002.000000	91.154312 
1001.000000	91.181472 
1000.000000	91.199486 
999.000000	 91.220401 
998.000000	 91.250957 
997.000000	 91.285312 
996.000000	 91.316964 
995.000000	 91.347873 
994.000000	 91.382402 
993.000000	 91.421166 
992.000000	 91.463863 
991.000000	 91.509887 
990.000000	 91.554016 
989.000000	 91.589954 
988.000000	 91.620110 
987.000000	 91.653464 
986.000000	 91.692926 
985.000000	 91.734367 
984.000000	 91.778604 
983.000000	 91.832702 
982.000000	 91.897158 
981.000000	 91.962165 
980.000000	 92.020026 
979.000000	 92.072761 
978.000000	 92.124304 
977.000000	 92.174965 
976.000000	 92.227321 
975.000000	 92.287913 
974.000000	 92.357993 
973.000000	 92.430137 
972.000000	 92.498503 
971.000000	 92.565851 
970.000000	 92.636750 
969.000000	 92.710442 
968.000000	 92.783993 
967.000000	 92.856527 
966.000000	 92.927396 
965.000000	 92.995791 
964.000000	 93.064478 
963.000000	 93.138117 
962.000000	 93.215770 
961.000000	 93.290879 
960.000000	 93.360319 
959.000000	 93.427314 
958.000000	 93.493792 
957.000000	 93.556498 
956.000000	 93.613453 
955.000000	 93.668670 
954.000000	 93.727542 
953.000000	 93.791331 
952.000000	 93.857488 
951.000000	 93.921216 
950.000000	 93.976731 
949.000000	 94.022356 
948.000000	 94.064546 
947.000000	 94.111525 
946.000000	 94.162698 
945.000000	 94.210190 
944.000000	 94.250392 
943.000000	 94.287323 
942.000000	 94.324691 
941.000000	 94.362002 
940.000000	 94.399955 
939.000000	 94.442400 
938.000000	 94.490309 
937.000000	 94.539407 
936.000000	 94.585928 
935.000000	 94.629860 
934.000000	 94.671479 
933.000000	 94.710096 
932.000000	 94.747568 
931.000000	 94.787924 
930.000000	 94.831989 
929.000000	 94.876516 
928.000000	 94.919306 
927.000000	 94.960927 
926.000000	 95.001234 
925.000000	 95.038478 
924.000000	 95.071979 
923.000000	 95.101900 
922.000000	 95.127309 
921.000000	 95.148958 
920.000000	 95.172171 
919.000000	 95.201447 
918.000000	 95.233361 
917.000000	 95.260151 
916.000000	 95.279941 
915.000000	 95.298696 
914.000000	 95.322803 
913.000000	 95.354113 
912.000000	 95.390907 
911.000000	 95.429019 
910.000000	 95.463579 
909.000000	 95.494619 
908.000000	 95.529076 
907.000000	 95.572705 
906.000000	 95.622868 
905.000000	 95.673865 
904.000000	 95.725446 
903.000000	 95.779701 
902.000000	 95.833508 
901.000000	 95.881946 
900.000000	 95.926890 
899.000000	 95.974881 
898.000000	 96.028463 
897.000000	 96.085763 
896.000000	 96.145736 
895.000000	 96.206417 
894.000000	 96.261051 
893.000000	 96.304615 
892.000000	 96.342680 
891.000000	 96.385781 
890.000000	 96.435556 
889.000000	 96.484334 
888.000000	 96.527229 
887.000000	 96.565956 
886.000000	 96.601585 
885.000000	 96.632510 
884.000000	 96.659523 
883.000000	 96.684108 
882.000000	 96.702353 
881.000000	 96.711267 
880.000000	 96.721815 
879.000000	 96.752803 
878.000000	 96.807815 
877.000000	 96.868737 
876.000000	 96.916773 
875.000000	 96.950601 
874.000000	 96.978976 
873.000000	 97.007787 
872.000000	 97.041438 
871.000000	 97.085969 
870.000000	 97.141581 
869.000000	 97.199037 
868.000000	 97.250325 
867.000000	 97.296783 
866.000000	 97.342076 
865.000000	 97.385170 
864.000000	 97.426389 
863.000000	 97.473038 
862.000000	 97.531124 
861.000000	 97.595952 
860.000000	 97.657555 
859.000000	 97.712167 
858.000000	 97.763528 
857.000000	 97.816144 
856.000000	 97.871069 
855.000000	 97.924860 
854.000000	 97.969559 
853.000000	 97.997920 
852.000000	 98.012228 
851.000000	 98.024877 
850.000000	 98.047588 
849.000000	 98.082603 
848.000000	 98.124691 
847.000000	 98.166471 
846.000000	 98.200967 
845.000000	 98.225284 
844.000000	 98.244088 
843.000000	 98.264820 
842.000000	 98.288298 
841.000000	 98.308667 
840.000000	 98.322175 
839.000000	 98.329565 
838.000000	 98.330490 
837.000000	 98.323970 
836.000000	 98.315642 
835.000000	 98.316006 
834.000000	 98.327989 
833.000000	 98.343154 
832.000000	 98.353141 
831.000000	 98.357871 
830.000000	 98.359877 
829.000000	 98.358607 
828.000000	 98.355267 
827.000000	 98.356492 
826.000000	 98.366945 
825.000000	 98.383050 
824.000000	 98.398627 
823.000000	 98.411446 
822.000000	 98.420880 
821.000000	 98.425533 
820.000000	 98.426211 
819.000000	 98.424774 
818.000000	 98.417476 
817.000000	 98.395159 
816.000000	 98.352942 
815.000000	 98.295868 
814.000000	 98.232908 
813.000000	 98.168185 
812.000000	 98.098348 
811.000000	 98.013904 
810.000000	 97.902232 
809.000000	 97.754589 
808.000000	 97.572884 
807.000000	 97.367736 
806.000000	 97.150580 
805.000000	 96.930551 
804.000000	 96.716223 
803.000000	 96.513225 
802.000000	 96.321185 
801.000000	 96.141532 
800.000000	 95.987702 
799.000000	 95.877857 
798.000000	 95.816492 
797.000000	 95.791891 
796.000000	 95.791354 
795.000000	 95.808830 
794.000000	 95.838013 
793.000000	 95.870454 
792.000000	 95.902987 
791.000000	 95.937012 
790.000000	 95.968886 
789.000000	 95.990141 
788.000000	 95.997215 
787.000000	 95.991203 
786.000000	 95.968653 
785.000000	 95.923199 
784.000000	 95.856346 
783.000000	 95.776389 
782.000000	 95.687808 
781.000000	 95.594238 
780.000000	 95.511016 
779.000000	 95.459526 
778.000000	 95.446592 
777.000000	 95.462789 
776.000000	 95.502545 
775.000000	 95.570434 
774.000000	 95.663976 
773.000000	 95.766339 
772.000000	 95.862799 
771.000000	 95.951544 
770.000000	 96.033150 
769.000000	 96.103179 
768.000000	 96.161445 
767.000000	 96.215747 
766.000000	 96.269414 
765.000000	 96.316670 
764.000000	 96.356844 
763.000000	 96.401000 
762.000000	 96.456515 
761.000000	 96.515834 
760.000000	 96.568753 
759.000000	 96.616261 
758.000000	 96.664359 
757.000000	 96.713926 
756.000000	 96.765691 
755.000000	 96.826358 
754.000000	 96.898721 
753.000000	 96.970604 
752.000000	 97.023321 
751.000000	 97.049689 
750.000000	 97.059696 
749.000000	 97.071636 
748.000000	 97.099771 
747.000000	 97.145025 
746.000000	 97.194121 
745.000000	 97.232490 
744.000000	 97.260007 
743.000000	 97.288911 
742.000000	 97.326121 
741.000000	 97.365984 
740.000000	 97.402288 
739.000000	 97.437865 
738.000000	 97.477731 
737.000000	 97.519988 
736.000000	 97.558570 
735.000000	 97.590329 
734.000000	 97.616538 
733.000000	 97.641777 
732.000000	 97.671962 
731.000000	 97.707224 
730.000000	 97.736960 
729.000000	 97.749824 
728.000000	 97.748798 
727.000000	 97.748802 
726.000000	 97.760178 
725.000000	 97.783125 
724.000000	 97.816540 
723.000000	 97.860022 
722.000000	 97.905602 
721.000000	 97.939792 
720.000000	 97.958833 
719.000000	 97.972637 
718.000000	 97.989979 
717.000000	 98.010419 
716.000000	 98.032972 
715.000000	 98.059491 
714.000000	 98.085772 
713.000000	 98.102210 
712.000000	 98.108877 
711.000000	 98.118795 
710.000000	 98.140594 
709.000000	 98.168551 
708.000000	 98.194021 
707.000000	 98.214911 
706.000000	 98.228659 
705.000000	 98.227711 
704.000000	 98.209429 
703.000000	 98.180695 
702.000000	 98.144405 
701.000000	 98.090834 
700.000000	 98.010617 
699.000000	 97.908069 
698.000000	 97.795546 
697.000000	 97.683438 
696.000000	 97.583662 
695.000000	 97.514923 
694.000000	 97.493190 
693.000000	 97.519564 
692.000000	 97.582239 
691.000000	 97.665192 
690.000000	 97.753032 
689.000000	 97.833707 
688.000000	 97.901028 
687.000000	 97.952030 
686.000000	 97.982618 
685.000000	 97.994493 
684.000000	 98.003703 
683.000000	 98.027769 
682.000000	 98.064037 
681.000000	 98.094230 
680.000000	 98.111610 
679.000000	 98.129439 
678.000000	 98.159320 
677.000000	 98.198245 
676.000000	 98.241343 
675.000000	 98.286765 
674.000000	 98.323926 
673.000000	 98.335658 
672.000000	 98.317929 
671.000000	 98.281018 
670.000000	 98.234216 
669.000000	 98.184954 
668.000000	 98.160148 
667.000000	 98.196709 
666.000000	 98.271741 
665.000000	 98.328210 
664.000000	 98.350564 
663.000000	 98.354540 
662.000000	 98.361435 
661.000000	 98.376156 
660.000000	 98.394382 
659.000000	 98.417653 
658.000000	 98.445968 
657.000000	 98.467801 
656.000000	 98.472579 
655.000000	 98.461173 
654.000000	 98.436981 
653.000000	 98.400176 
652.000000	 98.360415 
651.000000	 98.342575 
650.000000	 98.360728 

