4000.000000	98.589294 
3999.000000	98.588043 
3998.000000	98.585034 
3997.000000	98.581451 
3996.000000	98.578713 
3995.000000	98.577566 
3994.000000	98.577867 
3993.000000	98.578726 
3992.000000	98.579090 
3991.000000	98.578457 
3990.000000	98.577161 
3989.000000	98.576030 
3988.000000	98.575663 
3987.000000	98.576100 
3986.000000	98.577057 
3985.000000	98.578220 
3984.000000	98.579295 
3983.000000	98.580059 
3982.000000	98.580650 
3981.000000	98.581532 
3980.000000	98.582784 
3979.000000	98.583746 
3978.000000	98.583806 
3977.000000	98.583252 
3976.000000	98.582928 
3975.000000	98.583113 
3974.000000	98.583154 
3973.000000	98.582232 
3972.000000	98.580101 
3971.000000	98.577179 
3970.000000	98.574226 
3969.000000	98.572057 
3968.000000	98.571340 
3967.000000	98.572189 
3966.000000	98.573908 
3965.000000	98.575327 
3964.000000	98.575433 
3963.000000	98.573934 
3962.000000	98.571480 
3961.000000	98.569212 
3960.000000	98.567888 
3959.000000	98.567567 
3958.000000	98.567860 
3957.000000	98.568321 
3956.000000	98.568606 
3955.000000	98.568387 
3954.000000	98.567497 
3953.000000	98.566042 
3952.000000	98.564321 
3951.000000	98.562612 
3950.000000	98.560981 
3949.000000	98.559468 
3948.000000	98.558213 
3947.000000	98.557387 
3946.000000	98.557094 
3945.000000	98.557342 
3944.000000	98.557909 
3943.000000	98.558224 
3942.000000	98.557980 
3941.000000	98.557522 
3940.000000	98.557366 
3939.000000	98.557603 
3938.000000	98.557833 
3937.000000	98.557580 
3936.000000	98.556692 
3935.000000	98.555251 
3934.000000	98.553510 
3933.000000	98.551819 
3932.000000	98.550535 
3931.000000	98.549748 
3930.000000	98.549335 
3929.000000	98.549458 
3928.000000	98.550433 
3927.000000	98.552106 
3926.000000	98.553592 
3925.000000	98.553814 
3924.000000	98.552472 
3923.000000	98.550203 
3922.000000	98.547862 
3921.000000	98.546061 
3920.000000	98.545142 
3919.000000	98.545197 
3918.000000	98.545890 
3917.000000	98.546526 
3916.000000	98.546690 
3915.000000	98.546559 
3914.000000	98.546576 
3913.000000	98.546878 
3912.000000	98.547182 
3911.000000	98.547271 
3910.000000	98.547136 
3909.000000	98.546866 
3908.000000	98.546562 
3907.000000	98.546068 
3906.000000	98.545019 
3905.000000	98.542900 
3904.000000	98.539549 
3903.000000	98.535862 
3902.000000	98.533349 
3901.000000	98.532840 
3900.000000	98.534004 
3899.000000	98.535608 
3898.000000	98.536677 
3897.000000	98.537069 
3896.000000	98.537033 
3895.000000	98.536933 
3894.000000	98.537036 
3893.000000	98.537261 
3892.000000	98.537103 
3891.000000	98.536092 
3890.000000	98.534375 
3889.000000	98.532421 
3888.000000	98.530722 
3887.000000	98.529672 
3886.000000	98.529390 
3885.000000	98.529532 
3884.000000	98.529459 
3883.000000	98.528712 
3882.000000	98.527388 
3881.000000	98.526041 
3880.000000	98.525207 
3879.000000	98.524851 
3878.000000	98.524578 
3877.000000	98.524212 
3876.000000	98.524000 
3875.000000	98.524080 
3874.000000	98.524131 
3873.000000	98.523715 
3872.000000	98.522783 
3871.000000	98.521624 
3870.000000	98.520621 
3869.000000	98.520119 
3868.000000	98.520106 
3867.000000	98.520184 
3866.000000	98.520097 
3865.000000	98.519929 
3864.000000	98.519860 
3863.000000	98.519864 
3862.000000	98.519700 
3861.000000	98.519411 
3860.000000	98.519344 
3859.000000	98.519661 
3858.000000	98.520107 
3857.000000	98.520281 
3856.000000	98.520052 
3855.000000	98.519581 
3854.000000	98.518801 
3853.000000	98.517731 
3852.000000	98.516893 
3851.000000	98.516571 
3850.000000	98.516562 
3849.000000	98.516719 
3848.000000	98.517015 
3847.000000	98.517439 
3846.000000	98.517811 
3845.000000	98.517859 
3844.000000	98.517540 
3843.000000	98.517079 
3842.000000	98.516662 
3841.000000	98.516399 
3840.000000	98.516352 
3839.000000	98.516567 
3838.000000	98.517074 
3837.000000	98.517707 
3836.000000	98.518217 
3835.000000	98.518466 
3834.000000	98.518468 
3833.000000	98.518410 
3832.000000	98.518485 
3831.000000	98.518740 
3830.000000	98.519109 
3829.000000	98.519473 
3828.000000	98.519873 
3827.000000	98.520514 
3826.000000	98.521339 
3825.000000	98.521905 
3824.000000	98.521744 
3823.000000	98.520964 
3822.000000	98.520295 
3821.000000	98.520268 
3820.000000	98.520797 
3819.000000	98.521284 
3818.000000	98.521172 
3817.000000	98.520830 
3816.000000	98.521325 
3815.000000	98.523057 
3814.000000	98.525096 
3813.000000	98.526301 
3812.000000	98.526705 
3811.000000	98.527446 
3810.000000	98.529072 
3809.000000	98.530558 
3808.000000	98.530518 
3807.000000	98.528937 
3806.000000	98.526955 
3805.000000	98.525034 
3804.000000	98.522446 
3803.000000	98.519692 
3802.000000	98.518626 
3801.000000	98.520002 
3800.000000	98.522640 
3799.000000	98.524195 
3798.000000	98.523641 
3797.000000	98.522757 
3796.000000	98.523970 
3795.000000	98.527411 
3794.000000	98.530870 
3793.000000	98.532645 
3792.000000	98.533217 
3791.000000	98.534200 
3790.000000	98.535903 
3789.000000	98.537041 
3788.000000	98.536894 
3787.000000	98.536220 
3786.000000	98.536094 
3785.000000	98.536579 
3784.000000	98.536791 
3783.000000	98.535872 
3782.000000	98.533478 
3781.000000	98.530019 
3780.000000	98.526806 
3779.000000	98.525721 
3778.000000	98.527606 
3777.000000	98.531162 
3776.000000	98.534149 
3775.000000	98.535524 
3774.000000	98.535350 
3773.000000	98.533464 
3772.000000	98.529822 
3771.000000	98.525315 
3770.000000	98.521337 
3769.000000	98.518957 
3768.000000	98.517861 
3767.000000	98.516190 
3766.000000	98.513259 
3765.000000	98.510648 
3764.000000	98.510338 
3763.000000	98.512056 
3762.000000	98.513772 
3761.000000	98.514086 
3760.000000	98.512522 
3759.000000	98.509859 
3758.000000	98.506691 
3757.000000	98.502205 
3756.000000	98.495267 
3755.000000	98.485391 
3754.000000	98.473566 
3753.000000	98.462053 
3752.000000	98.453014 
3751.000000	98.446891 
3750.000000	98.443422 
3749.000000	98.443033 
3748.000000	98.445230 
3747.000000	98.448091 
3746.000000	98.451291 
3745.000000	98.455278 
3744.000000	98.461960 
3743.000000	98.470513 
3742.000000	98.474284 
3741.000000	98.468963 
3740.000000	98.458178 
3739.000000	98.449834 
3738.000000	98.448903 
3737.000000	98.452993 
3736.000000	98.456843 
3735.000000	98.458341 
3734.000000	98.458903 
3733.000000	98.459979 
3732.000000	98.462680 
3731.000000	98.468239 
3730.000000	98.475045 
3729.000000	98.478899 
3728.000000	98.478264 
3727.000000	98.475631 
3726.000000	98.474066 
3725.000000	98.474035 
3724.000000	98.474908 
3723.000000	98.476908 
3722.000000	98.480156 
3721.000000	98.483785 
3720.000000	98.485006 
3719.000000	98.482574 
3718.000000	98.478966 
3717.000000	98.476643 
3716.000000	98.475270 
3715.000000	98.472030 
3714.000000	98.465815 
3713.000000	98.459602 
3712.000000	98.456276 
3711.000000	98.455532 
3710.000000	98.454869 
3709.000000	98.452349 
3708.000000	98.447856 
3707.000000	98.441576 
3706.000000	98.433842 
3705.000000	98.425895 
3704.000000	98.419449 
3703.000000	98.414919 
3702.000000	98.409698 
3701.000000	98.401022 
3700.000000	98.389034 
3699.000000	98.376059 
3698.000000	98.365086 
3697.000000	98.357648 
3696.000000	98.353062 
3695.000000	98.349385 
3694.000000	98.345051 
3693.000000	98.339896 
3692.000000	98.334275 
3691.000000	98.327788 
3690.000000	98.319075 
3689.000000	98.309159 
3688.000000	98.302369 
3687.000000	98.300308 
3686.000000	98.299598 
3685.000000	98.296896 
3684.000000	98.292135 
3683.000000	98.287484 
3682.000000	98.284108 
3681.000000	98.280272 
3680.000000	98.273202 
3679.000000	98.261234 
3678.000000	98.245557 
3677.000000	98.230488 
3676.000000	98.219471 
3675.000000	98.212650 
3674.000000	98.207458 
3673.000000	98.200412 
3672.000000	98.190441 
3671.000000	98.181359 
3670.000000	98.176263 
3669.000000	98.173492 
3668.000000	98.169672 
3667.000000	98.163488 
3666.000000	98.156884 
3665.000000	98.152562 
3664.000000	98.150413 
3663.000000	98.147929 
3662.000000	98.142712 
3661.000000	98.133936 
3660.000000	98.122601 
3659.000000	98.110330 
3658.000000	98.099003 
3657.000000	98.089495 
3656.000000	98.081178 
3655.000000	98.073314 
3654.000000	98.064614 
3653.000000	98.053835 
3652.000000	98.040935 
3651.000000	98.027199 
3650.000000	98.013955 
3649.000000	98.003460 
3648.000000	97.998984 
3647.000000	98.000830 
3646.000000	98.006437 
3645.000000	98.013462 
3644.000000	98.020554 
3643.000000	98.026740 
3642.000000	98.030771 
3641.000000	98.031055 
3640.000000	98.027260 
3639.000000	98.020455 
3638.000000	98.012223 
3637.000000	98.003359 
3636.000000	97.993783 
3635.000000	97.983354 
3634.000000	97.972026 
3633.000000	97.959835 
3632.000000	97.947019 
3631.000000	97.934970 
3630.000000	97.925977 
3629.000000	97.919792 
3628.000000	97.914545 
3627.000000	97.910108 
3626.000000	97.906616 
3625.000000	97.905419 
3624.000000	97.908382 
3623.000000	97.914613 
3622.000000	97.920364 
3621.000000	97.922209 
3620.000000	97.918453 
3619.000000	97.909728 
3618.000000	97.899812 
3617.000000	97.893625 
3616.000000	97.894798 
3615.000000	97.904753 
3614.000000	97.920862 
3613.000000	97.936738 
3612.000000	97.946651 
3611.000000	97.949242 
3610.000000	97.947962 
3609.000000	97.948074 
3608.000000	97.951551 
3607.000000	97.956593 
3606.000000	97.961390 
3605.000000	97.966863 
3604.000000	97.975388 
3603.000000	97.987230 
3602.000000	97.999403 
3601.000000	98.008198 
3600.000000	98.011727 
3599.000000	98.010735 
3598.000000	98.008134 
3597.000000	98.006807 
3596.000000	98.008427 
3595.000000	98.012232 
3594.000000	98.015124 
3593.000000	98.014676 
3592.000000	98.010828 
3591.000000	98.005164 
3590.000000	98.000538 
3589.000000	97.999926 
3588.000000	98.003762 
3587.000000	98.009196 
3586.000000	98.013410 
3585.000000	98.016092 
3584.000000	98.019048 
3583.000000	98.023816 
3582.000000	98.030323 
3581.000000	98.036501 
3580.000000	98.039810 
3579.000000	98.039259 
3578.000000	98.036263 
3577.000000	98.033522 
3576.000000	98.032470 
3575.000000	98.032412 
3574.000000	98.031559 
3573.000000	98.028901 
3572.000000	98.024625 
3571.000000	98.019095 
3570.000000	98.012589 
3569.000000	98.006556 
3568.000000	98.003648 
3567.000000	98.005239 
3566.000000	98.009718 
3565.000000	98.013855 
3564.000000	98.015661 
3563.000000	98.015728 
3562.000000	98.015748 
3561.000000	98.016535 
3560.000000	98.017457 
3559.000000	98.017354 
3558.000000	98.015878 
3557.000000	98.013878 
3556.000000	98.012533 
3555.000000	98.012372 
3554.000000	98.013072 
3553.000000	98.013626 
3552.000000	98.012968 
3551.000000	98.010632 
3550.000000	98.007161 
3549.000000	98.004041 
3548.000000	98.002750 
3547.000000	98.003320 
3546.000000	98.004262 
3545.000000	98.004218 
3544.000000	98.003509 
3543.000000	98.003392 
3542.000000	98.004342 
3541.000000	98.005749 
3540.000000	98.006903 
3539.000000	98.007596 
3538.000000	98.007919 
3537.000000	98.007842 
3536.000000	98.007304 
3535.000000	98.006373 
3534.000000	98.005254 
3533.000000	98.004248 
3532.000000	98.003656 
3531.000000	98.003614 
3530.000000	98.003877 
3529.000000	98.003898 
3528.000000	98.003269 
3527.000000	98.002083 
3526.000000	98.000891 
3525.000000	98.000294 
3524.000000	98.000517 
3523.000000	98.001326 
3522.000000	98.002224 
3521.000000	98.002794 
3520.000000	98.002978 
3519.000000	98.002961 
3518.000000	98.002893 
3517.000000	98.002709 
3516.000000	98.002283 
3515.000000	98.001679 
3514.000000	98.001153 
3513.000000	98.000895 
3512.000000	98.000839 
3511.000000	98.000741 
3510.000000	98.000429 
3509.000000	97.999972 
3508.000000	97.999582 
3507.000000	97.999374 
3506.000000	97.999277 
3505.000000	97.999127 
3504.000000	97.998799 
3503.000000	97.998274 
3502.000000	97.997650 
3501.000000	97.997080 
3500.000000	97.996679 
3499.000000	97.996477 
3498.000000	97.996402 
3497.000000	97.996298 
3496.000000	97.995979 
3495.000000	97.995353 
3494.000000	97.994552 
3493.000000	97.993903 
3492.000000	97.993632 
3491.000000	97.993583 
3490.000000	97.993345 
3489.000000	97.992736 
3488.000000	97.991924 
3487.000000	97.991012 
3486.000000	97.989838 
3485.000000	97.988422 
3484.000000	97.987275 
3483.000000	97.986925 
3482.000000	97.987291 
3481.000000	97.987787 
3480.000000	97.987998 
3479.000000	97.987854 
3478.000000	97.987230 
3477.000000	97.985894 
3476.000000	97.983863 
3475.000000	97.981554 
3474.000000	97.979537 
3473.000000	97.978223 
3472.000000	97.977711 
3471.000000	97.977696 
3470.000000	97.977538 
3469.000000	97.976818 
3468.000000	97.975839 
3467.000000	97.975363 
3466.000000	97.975783 
3465.000000	97.976637 
3464.000000	97.976933 
3463.000000	97.975872 
3462.000000	97.973297 
3461.000000	97.969756 
3460.000000	97.966172 
3459.000000	97.963149 
3458.000000	97.960548 
3457.000000	97.957748 
3456.000000	97.954515 
3455.000000	97.951449 
3454.000000	97.949540 
3453.000000	97.949270 
3452.000000	97.950164 
3451.000000	97.951230 
3450.000000	97.951706 
3449.000000	97.951351 
3448.000000	97.950159 
3447.000000	97.948146 
3446.000000	97.945516 
3445.000000	97.942867 
3444.000000	97.940927 
3443.000000	97.939994 
3442.000000	97.939692 
3441.000000	97.939321 
3440.000000	97.938471 
3439.000000	97.937208 
3438.000000	97.935762 
3437.000000	97.934260 
3436.000000	97.932870 
3435.000000	97.931930 
3434.000000	97.931700 
3433.000000	97.932012 
3432.000000	97.932306 
3431.000000	97.932099 
3430.000000	97.931320 
3429.000000	97.930175 
3428.000000	97.928846 
3427.000000	97.927414 
3426.000000	97.926056 
3425.000000	97.925070 
3424.000000	97.924604 
3423.000000	97.924451 
3422.000000	97.924204 
3421.000000	97.923669 
3420.000000	97.922984 
3419.000000	97.922388 
3418.000000	97.921969 
3417.000000	97.921648 
3416.000000	97.921307 
3415.000000	97.920899 
3414.000000	97.920437 
3413.000000	97.919943 
3412.000000	97.919445 
3411.000000	97.918984 
3410.000000	97.918593 
3409.000000	97.918274 
3408.000000	97.917998 
3407.000000	97.917729 
3406.000000	97.917450 
3405.000000	97.917165 
3404.000000	97.916890 
3403.000000	97.916641 
3402.000000	97.916416 
3401.000000	97.916206 
3400.000000	97.916003 
3399.000000	97.915811 
3398.000000	97.915648 
3397.000000	97.915527 
3396.000000	97.915454 
3395.000000	97.915430 
3394.000000	97.915444 
3393.000000	97.915461 
3392.000000	97.915428 
3391.000000	97.915312 
3390.000000	97.915146 
3389.000000	97.915051 
3388.000000	97.915164 
3387.000000	97.915541 
3386.000000	97.916103 
3385.000000	97.916669 
3384.000000	97.917061 
3383.000000	97.917214 
3382.000000	97.917273 
3381.000000	97.917520 
3380.000000	97.918084 
3379.000000	97.918769 
3378.000000	97.919284 
3377.000000	97.919686 
3376.000000	97.920377 
3375.000000	97.921539 
3374.000000	97.922756 
3373.000000	97.923422 
3372.000000	97.923503 
3371.000000	97.923682 
3370.000000	97.924616 
3369.000000	97.926210 
3368.000000	97.927735 
3367.000000	97.928577 
3366.000000	97.928718 
3365.000000	97.928550 
3364.000000	97.928456 
3363.000000	97.928624 
3362.000000	97.929113 
3361.000000	97.929940 
3360.000000	97.931122 
3359.000000	97.932657 
3358.000000	97.934454 
3357.000000	97.936277 
3356.000000	97.937836 
3355.000000	97.939013 
3354.000000	97.940055 
3353.000000	97.941488 
3352.000000	97.943760 
3351.000000	97.946863 
3350.000000	97.950218 
3349.000000	97.952942 
3348.000000	97.954467 
3347.000000	97.955009 
3346.000000	97.955460 
3345.000000	97.956645 
3344.000000	97.958488 
3343.000000	97.960048 
3342.000000	97.960542 
3341.000000	97.960255 
3340.000000	97.960272 
3339.000000	97.961202 
3338.000000	97.962577 
3337.000000	97.963566 
3336.000000	97.963962 
3335.000000	97.964232 
3334.000000	97.964808 
3333.000000	97.965661 
3332.000000	97.966550 
3331.000000	97.967426 
3330.000000	97.968428 
3329.000000	97.969648 
3328.000000	97.971052 
3327.000000	97.972553 
3326.000000	97.974030 
3325.000000	97.975273 
3324.000000	97.976061 
3323.000000	97.976406 
3322.000000	97.976657 
3321.000000	97.977279 
3320.000000	97.978470 
3319.000000	97.980033 
3318.000000	97.981595 
3317.000000	97.982911 
3316.000000	97.983971 
3315.000000	97.984882 
3314.000000	97.985757 
3313.000000	97.986677 
3312.000000	97.987695 
3311.000000	97.988830 
3310.000000	97.990064 
3309.000000	97.991341 
3308.000000	97.992547 
3307.000000	97.993517 
3306.000000	97.994159 
3305.000000	97.994557 
3304.000000	97.994932 
3303.000000	97.995503 
3302.000000	97.996328 
3301.000000	97.997328 
3300.000000	97.998359 
3299.000000	97.999301 
3298.000000	98.000128 
3297.000000	98.000899 
3296.000000	98.001715 
3295.000000	98.002644 
3294.000000	98.003678 
3293.000000	98.004755 
3292.000000	98.005811 
3291.000000	98.006811 
3290.000000	98.007749 
3289.000000	98.008640 
3288.000000	98.009503 
3287.000000	98.010355 
3286.000000	98.011202 
3285.000000	98.012046 
3284.000000	98.012892 
3283.000000	98.013754 
3282.000000	98.014646 
3281.000000	98.015558 
3280.000000	98.016473 
3279.000000	98.017380 
3278.000000	98.018281 
3277.000000	98.019182 
3276.000000	98.020092 
3275.000000	98.021015 
3274.000000	98.021952 
3273.000000	98.022901 
3272.000000	98.023859 
3271.000000	98.024823 
3270.000000	98.025788 
3269.000000	98.026746 
3268.000000	98.027698 
3267.000000	98.028650 
3266.000000	98.029613 
3265.000000	98.030599 
3264.000000	98.031612 
3263.000000	98.032649 
3262.000000	98.033697 
3261.000000	98.034748 
3260.000000	98.035795 
3259.000000	98.036839 
3258.000000	98.037886 
3257.000000	98.038940 
3256.000000	98.040007 
3255.000000	98.041086 
3254.000000	98.042172 
3253.000000	98.043260 
3252.000000	98.044346 
3251.000000	98.045432 
3250.000000	98.046520 
3249.000000	98.047612 
3248.000000	98.048706 
3247.000000	98.049803 
3246.000000	98.050907 
3245.000000	98.052022 
3244.000000	98.053149 
3243.000000	98.054287 
3242.000000	98.055432 
3241.000000	98.056580 
3240.000000	98.057729 
3239.000000	98.058881 
3238.000000	98.060037 
3237.000000	98.061201 
3236.000000	98.062371 
3235.000000	98.063542 
3234.000000	98.064703 
3233.000000	98.065846 
3232.000000	98.066972 
3231.000000	98.068087 
3230.000000	98.069194 
3229.000000	98.070295 
3228.000000	98.071398 
3227.000000	98.072513 
3226.000000	98.073654 
3225.000000	98.074835 
3224.000000	98.076051 
3223.000000	98.077267 
3222.000000	98.078445 
3221.000000	98.079581 
3220.000000	98.080715 
3219.000000	98.081875 
3218.000000	98.083046 
3217.000000	98.084204 
3216.000000	98.085353 
3215.000000	98.086510 
3214.000000	98.087689 
3213.000000	98.088897 
3212.000000	98.090134 
3211.000000	98.091374 
3210.000000	98.092565 
3209.000000	98.093684 
3208.000000	98.094776 
3207.000000	98.095889 
3206.000000	98.096994 
3205.000000	98.098036 
3204.000000	98.099083 
3203.000000	98.100321 
3202.000000	98.101869 
3201.000000	98.103602 
3200.000000	98.105222 
3199.000000	98.106544 
3198.000000	98.107657 
3197.000000	98.108801 
3196.000000	98.110068 
3195.000000	98.111318 
3194.000000	98.112450 
3193.000000	98.113617 
3192.000000	98.115055 
3191.000000	98.116726 
3190.000000	98.118261 
3189.000000	98.119339 
3188.000000	98.120065 
3187.000000	98.120946 
3186.000000	98.122462 
3185.000000	98.124640 
3184.000000	98.126971 
3183.000000	98.128861 
3182.000000	98.130213 
3181.000000	98.131394 
3180.000000	98.132714 
3179.000000	98.134094 
3178.000000	98.135368 
3177.000000	98.136678 
3176.000000	98.138327 
3175.000000	98.140392 
3174.000000	98.142691 
3173.000000	98.144989 
3172.000000	98.147061 
3171.000000	98.148656 
3170.000000	98.149681 
3169.000000	98.150415 
3168.000000	98.151292 
3167.000000	98.152443 
3166.000000	98.153661 
3165.000000	98.154752 
3164.000000	98.155722 
3163.000000	98.156664 
3162.000000	98.157664 
3161.000000	98.158812 
3160.000000	98.160163 
3159.000000	98.161666 
3158.000000	98.163233 
3157.000000	98.164859 
3156.000000	98.166543 
3155.000000	98.168172 
3154.000000	98.169624 
3153.000000	98.170971 
3152.000000	98.172401 
3151.000000	98.173908 
3150.000000	98.175246 
3149.000000	98.176250 
3148.000000	98.177046 
3147.000000	98.177953 
3146.000000	98.179197 
3145.000000	98.180771 
3144.000000	98.182469 
3143.000000	98.183999 
3142.000000	98.185171 
3141.000000	98.185996 
3140.000000	98.186687 
3139.000000	98.187522 
3138.000000	98.188642 
3137.000000	98.190012 
3136.000000	98.191448 
3135.000000	98.192712 
3134.000000	98.193674 
3133.000000	98.194463 
3132.000000	98.195380 
3131.000000	98.196574 
3130.000000	98.197912 
3129.000000	98.199243 
3128.000000	98.200650 
3127.000000	98.202313 
3126.000000	98.204234 
3125.000000	98.206196 
3124.000000	98.207961 
3123.000000	98.209402 
3122.000000	98.210513 
3121.000000	98.211451 
3120.000000	98.212496 
3119.000000	98.213851 
3118.000000	98.215457 
3117.000000	98.217060 
3116.000000	98.218409 
3115.000000	98.219350 
3114.000000	98.219887 
3113.000000	98.220288 
3112.000000	98.221062 
3111.000000	98.222647 
3110.000000	98.225004 
3109.000000	98.227530 
3108.000000	98.229465 
3107.000000	98.230500 
3106.000000	98.230947 
3105.000000	98.231290 
3104.000000	98.231538 
3103.000000	98.231286 
3102.000000	98.230425 
3101.000000	98.229475 
3100.000000	98.229071 
3099.000000	98.229387 
3098.000000	98.230358 
3097.000000	98.232204 
3096.000000	98.235113 
3095.000000	98.238529 
3094.000000	98.241428 
3093.000000	98.243298 
3092.000000	98.244479 
3091.000000	98.245426 
3090.000000	98.246056 
3089.000000	98.246072 
3088.000000	98.245593 
3087.000000	98.245277 
3086.000000	98.245926 
3085.000000	98.247856 
3084.000000	98.250410 
3083.000000	98.252282 
3082.000000	98.252777 
3081.000000	98.252681 
3080.000000	98.253327 
3079.000000	98.254703 
3078.000000	98.255506 
3077.000000	98.255319 
3076.000000	98.255464 
3075.000000	98.256882 
3074.000000	98.258485 
3073.000000	98.258912 
3072.000000	98.258810 
3071.000000	98.259742 
3070.000000	98.261483 
3069.000000	98.262240 
3068.000000	98.261400 
3067.000000	98.260285 
3066.000000	98.259983 
3065.000000	98.259998 
3064.000000	98.259457 
3063.000000	98.258277 
3062.000000	98.256628 
3061.000000	98.254413 
3060.000000	98.251987 
3059.000000	98.250621 
3058.000000	98.251725 
3057.000000	98.255739 
3056.000000	98.261505 
3055.000000	98.266103 
3054.000000	98.266023 
3053.000000	98.260127 
3052.000000	98.251781 
3051.000000	98.246738 
3050.000000	98.247852 
3049.000000	98.252630 
3048.000000	98.256192 
3047.000000	98.255627 
3046.000000	98.251050 
3045.000000	98.244205 
3044.000000	98.237596 
3043.000000	98.234082 
3042.000000	98.235209 
3041.000000	98.239216 
3040.000000	98.241726 
3039.000000	98.239340 
3038.000000	98.232462 
3037.000000	98.224352 
3036.000000	98.217509 
3035.000000	98.211470 
3034.000000	98.204309 
3033.000000	98.195487 
3032.000000	98.186370 
3031.000000	98.178428 
3030.000000	98.172028 
3029.000000	98.166955 
3028.000000	98.162594 
3027.000000	98.157033 
3026.000000	98.147579 
3025.000000	98.133580 
3024.000000	98.118047 
3023.000000	98.105056 
3022.000000	98.095824 
3021.000000	98.088708 
3020.000000	98.082338 
3019.000000	98.076728 
3018.000000	98.071137 
3017.000000	98.062963 
3016.000000	98.050129 
3015.000000	98.033625 
3014.000000	98.016816 
3013.000000	98.002578 
3012.000000	97.991359 
3011.000000	97.981211 
3010.000000	97.969263 
3009.000000	97.953936 
3008.000000	97.936278 
3007.000000	97.918816 
3006.000000	97.902974 
3005.000000	97.888288 
3004.000000	97.874171 
3003.000000	97.861301 
3002.000000	97.850686 
3001.000000	97.842166 
3000.000000	97.834370 
2999.000000	97.825572 
2998.000000	97.814333 
2997.000000	97.800315 
2996.000000	97.785085 
2995.000000	97.771025 
2994.000000	97.758320 
2993.000000	97.743688 
2992.000000	97.723499 
2991.000000	97.698441 
2990.000000	97.674238 
2989.000000	97.657439 
2988.000000	97.650887 
2987.000000	97.652997 
2986.000000	97.660239 
2985.000000	97.669767 
2984.000000	97.679953 
2983.000000	97.689402 
2982.000000	97.696437 
2981.000000	97.699786 
2980.000000	97.699282 
2979.000000	97.695516 
2978.000000	97.689219 
2977.000000	97.681513 
2976.000000	97.674323 
2975.000000	97.669624 
2974.000000	97.668172 
2973.000000	97.669565 
2972.000000	97.673409 
2971.000000	97.679553 
2970.000000	97.687161 
2969.000000	97.694848 
2968.000000	97.702395 
2967.000000	97.711356 
2966.000000	97.723024 
2965.000000	97.736346 
2964.000000	97.748731 
2963.000000	97.758573 
2962.000000	97.766290 
2961.000000	97.773229 
2960.000000	97.780526 
2959.000000	97.789023 
2958.000000	97.799320 
2957.000000	97.811212 
2956.000000	97.823168 
2955.000000	97.832881 
2954.000000	97.838955 
2953.000000	97.842532 
2952.000000	97.847002 
2951.000000	97.855148 
2950.000000	97.866052 
2949.000000	97.875510 
2948.000000	97.880090 
2947.000000	97.880217 
2946.000000	97.878990 
2945.000000	97.878821 
2944.000000	97.880069 
2943.000000	97.882219 
2942.000000	97.884642 
2941.000000	97.886004 
2940.000000	97.884683 
2939.000000	97.880799 
2938.000000	97.876852 
2937.000000	97.875388 
2936.000000	97.876426 
2935.000000	97.877874 
2934.000000	97.877901 
2933.000000	97.876117 
2932.000000	97.872955 
2931.000000	97.869045 
2930.000000	97.865284 
2929.000000	97.862642 
2928.000000	97.861363 
2927.000000	97.860647 
2926.000000	97.859470 
2925.000000	97.857740 
2924.000000	97.856501 
2923.000000	97.856936 
2922.000000	97.859050 
2921.000000	97.861430 
2920.000000	97.862673 
2919.000000	97.863074 
2918.000000	97.864236 
2917.000000	97.866511 
2916.000000	97.867499 
2915.000000	97.864237 
2914.000000	97.856910 
2913.000000	97.849305 
2912.000000	97.845077 
2911.000000	97.844176 
2910.000000	97.843681 
2909.000000	97.841574 
2908.000000	97.838750 
2907.000000	97.837157 
2906.000000	97.836772 
2905.000000	97.834957 
2904.000000	97.829158 
2903.000000	97.819964 
2902.000000	97.812474 
2901.000000	97.812390 
2900.000000	97.821605 
2899.000000	97.836976 
2898.000000	97.852777 
2897.000000	97.865102 
2896.000000	97.873286 
2895.000000	97.878261 
2894.000000	97.881250 
2893.000000	97.884136 
2892.000000	97.889128 
2891.000000	97.896627 
2890.000000	97.904237 
2889.000000	97.909249 
2888.000000	97.911676 
2887.000000	97.913514 
2886.000000	97.915523 
2885.000000	97.916741 
2884.000000	97.917613 
2883.000000	97.921348 
2882.000000	97.930471 
2881.000000	97.943299 
2880.000000	97.955724 
2879.000000	97.966228 
2878.000000	97.977016 
2877.000000	97.989976 
2876.000000	98.003600 
2875.000000	98.014889 
2874.000000	98.022719 
2873.000000	98.027987 
2872.000000	98.031598 
2871.000000	98.034086 
2870.000000	98.036718 
2869.000000	98.041163 
2868.000000	98.047655 
2867.000000	98.054711 
2866.000000	98.061080 
2865.000000	98.067067 
2864.000000	98.073657 
2863.000000	98.081397 
2862.000000	98.090550 
2861.000000	98.101245 
2860.000000	98.112684 
2859.000000	98.123126 
2858.000000	98.131698 
2857.000000	98.139742 
2856.000000	98.149357 
2855.000000	98.160788 
2854.000000	98.172037 
2853.000000	98.180979 
2852.000000	98.187160 
2851.000000	98.191781 
2850.000000	98.196727 
2849.000000	98.203497 
2848.000000	98.212223 
2847.000000	98.221396 
2846.000000	98.229057 
2845.000000	98.234534 
2844.000000	98.238890 
2843.000000	98.243758 
2842.000000	98.249998 
2841.000000	98.257216 
2840.000000	98.264053 
2839.000000	98.269049 
2838.000000	98.271822 
2837.000000	98.273513 
2836.000000	98.275822 
2835.000000	98.279548 
2834.000000	98.284408 
2833.000000	98.290041 
2832.000000	98.296366 
2831.000000	98.302735 
2830.000000	98.307572 
2829.000000	98.309600 
2828.000000	98.309377 
2827.000000	98.309257 
2826.000000	98.311641 
2825.000000	98.317097 
2824.000000	98.323929 
2823.000000	98.329441 
2822.000000	98.331927 
2821.000000	98.331736 
2820.000000	98.330625 
2819.000000	98.330143 
2818.000000	98.330664 
2817.000000	98.331814 
2816.000000	98.333359 
2815.000000	98.335442 
2814.000000	98.338081 
2813.000000	98.340635 
2812.000000	98.341931 
2811.000000	98.341187 
2810.000000	98.339009 
2809.000000	98.337314 
2808.000000	98.337883 
2807.000000	98.340968 
2806.000000	98.345385 
2805.000000	98.349686 
2804.000000	98.353029 
2803.000000	98.355178 
2802.000000	98.356392 
2801.000000	98.357457 
2800.000000	98.359249 
2799.000000	98.361820 
2798.000000	98.364172 
2797.000000	98.365282 
2796.000000	98.365165 
2795.000000	98.364721 
2794.000000	98.364762 
2793.000000	98.365460 
2792.000000	98.366668 
2791.000000	98.368280 
2790.000000	98.370101 
2789.000000	98.371712 
2788.000000	98.372781 
2787.000000	98.373464 
2786.000000	98.374245 
2785.000000	98.375417 
2784.000000	98.376836 
2783.000000	98.378187 
2782.000000	98.379336 
2781.000000	98.380377 
2780.000000	98.381430 
2779.000000	98.382531 
2778.000000	98.383655 
2777.000000	98.384765 
2776.000000	98.385830 
2775.000000	98.386845 
2774.000000	98.387830 
2773.000000	98.388818 
2772.000000	98.389817 
2771.000000	98.390813 
2770.000000	98.391801 
2769.000000	98.392801 
2768.000000	98.393830 
2767.000000	98.394864 
2766.000000	98.395849 
2765.000000	98.396758 
2764.000000	98.397621 
2763.000000	98.398478 
2762.000000	98.399328 
2761.000000	98.400151 
2760.000000	98.400947 
2759.000000	98.401748 
2758.000000	98.402579 
2757.000000	98.403423 
2756.000000	98.404226 
2755.000000	98.404956 
2754.000000	98.405640 
2753.000000	98.406348 
2752.000000	98.407115 
2751.000000	98.407912 
2750.000000	98.408696 
2749.000000	98.409468 
2748.000000	98.410250 
2747.000000	98.410990 
2746.000000	98.411607 
2745.000000	98.412100 
2744.000000	98.412567 
2743.000000	98.413110 
2742.000000	98.413741 
2741.000000	98.414409 
2740.000000	98.415073 
2739.000000	98.415733 
2738.000000	98.416384 
2737.000000	98.417004 
2736.000000	98.417595 
2735.000000	98.418188 
2734.000000	98.418811 
2733.000000	98.419466 
2732.000000	98.420137 
2731.000000	98.420816 
2730.000000	98.421502 
2729.000000	98.422193 
2728.000000	98.422869 
2727.000000	98.423505 
2726.000000	98.424088 
2725.000000	98.424631 
2724.000000	98.425166 
2723.000000	98.425712 
2722.000000	98.426272 
2721.000000	98.426840 
2720.000000	98.427413 
2719.000000	98.427992 
2718.000000	98.428577 
2717.000000	98.429164 
2716.000000	98.429751 
2715.000000	98.430334 
2714.000000	98.430916 
2713.000000	98.431500 
2712.000000	98.432084 
2711.000000	98.432664 
2710.000000	98.433234 
2709.000000	98.433793 
2708.000000	98.434344 
2707.000000	98.434894 
2706.000000	98.435445 
2705.000000	98.435997 
2704.000000	98.436547 
2703.000000	98.437097 
2702.000000	98.437645 
2701.000000	98.438194 
2700.000000	98.438744 
2699.000000	98.439294 
2698.000000	98.439840 
2697.000000	98.440370 
2696.000000	98.440876 
2695.000000	98.441356 
2694.000000	98.441813 
2693.000000	98.442253 
2692.000000	98.442679 
2691.000000	98.443094 
2690.000000	98.443498 
2689.000000	98.443894 
2688.000000	98.444287 
2687.000000	98.444676 
2686.000000	98.445065 
2685.000000	98.445457 
2684.000000	98.445853 
2683.000000	98.446253 
2682.000000	98.446651 
2681.000000	98.447041 
2680.000000	98.447418 
2679.000000	98.447782 
2678.000000	98.448132 
2677.000000	98.448467 
2676.000000	98.448787 
2675.000000	98.449091 
2674.000000	98.449379 
2673.000000	98.449654 
2672.000000	98.449915 
2671.000000	98.450162 
2670.000000	98.450393 
2669.000000	98.450610 
2668.000000	98.450818 
2667.000000	98.451021 
2666.000000	98.451220 
2665.000000	98.451413 
2664.000000	98.451599 
2663.000000	98.451779 
2662.000000	98.451959 
2661.000000	98.452138 
2660.000000	98.452309 
2659.000000	98.452464 
2658.000000	98.452594 
2657.000000	98.452698 
2656.000000	98.452782 
2655.000000	98.452855 
2654.000000	98.452921 
2653.000000	98.452983 
2652.000000	98.453043 
2651.000000	98.453106 
2650.000000	98.453180 
2649.000000	98.453271 
2648.000000	98.453368 
2647.000000	98.453438 
2646.000000	98.453458 
2645.000000	98.453431 
2644.000000	98.453375 
2643.000000	98.453315 
2642.000000	98.453265 
2641.000000	98.453234 
2640.000000	98.453217 
2639.000000	98.453198 
2638.000000	98.453171 
2637.000000	98.453145 
2636.000000	98.453119 
2635.000000	98.453084 
2634.000000	98.453044 
2633.000000	98.453012 
2632.000000	98.452973 
2631.000000	98.452879 
2630.000000	98.452714 
2629.000000	98.452526 
2628.000000	98.452392 
2627.000000	98.452327 
2626.000000	98.452291 
2625.000000	98.452249 
2624.000000	98.452218 
2623.000000	98.452218 
2622.000000	98.452227 
2621.000000	98.452185 
2620.000000	98.452035 
2619.000000	98.451745 
2618.000000	98.451345 
2617.000000	98.450960 
2616.000000	98.450723 
2615.000000	98.450653 
2614.000000	98.450649 
2613.000000	98.450604 
2612.000000	98.450519 
2611.000000	98.450455 
2610.000000	98.450440 
2609.000000	98.450436 
2608.000000	98.450381 
2607.000000	98.450225 
2606.000000	98.449983 
2605.000000	98.449734 
2604.000000	98.449532 
2603.000000	98.449337 
2602.000000	98.449085 
2601.000000	98.448818 
2600.000000	98.448658 
2599.000000	98.448610 
2598.000000	98.448506 
2597.000000	98.448232 
2596.000000	98.447864 
2595.000000	98.447502 
2594.000000	98.447093 
2593.000000	98.446626 
2592.000000	98.446384 
2591.000000	98.446652 
2590.000000	98.447233 
2589.000000	98.447546 
2588.000000	98.447329 
2587.000000	98.446939 
2586.000000	98.446881 
2585.000000	98.447238 
2584.000000	98.447705 
2583.000000	98.447952 
2582.000000	98.447855 
2581.000000	98.447541 
2580.000000	98.447337 
2579.000000	98.447520 
2578.000000	98.448020 
2577.000000	98.448418 
2576.000000	98.448284 
2575.000000	98.447482 
2574.000000	98.446271 
2573.000000	98.445200 
2572.000000	98.444724 
2571.000000	98.444719 
2570.000000	98.444541 
2569.000000	98.443803 
2568.000000	98.442995 
2567.000000	98.442923 
2566.000000	98.443608 
2565.000000	98.444174 
2564.000000	98.443895 
2563.000000	98.443015 
2562.000000	98.442348 
2561.000000	98.442492 
2560.000000	98.443670 
2559.000000	98.445903 
2558.000000	98.448753 
2557.000000	98.451113 
2556.000000	98.452027 
2555.000000	98.451675 
2554.000000	98.451173 
2553.000000	98.451144 
2552.000000	98.450984 
2551.000000	98.450127 
2550.000000	98.449260 
2549.000000	98.449445 
2548.000000	98.450370 
2547.000000	98.450544 
2546.000000	98.449327 
2545.000000	98.447749 
2544.000000	98.447021 
2543.000000	98.446949 
2542.000000	98.446559 
2541.000000	98.445701 
2540.000000	98.445162 
2539.000000	98.445361 
2538.000000	98.445778 
2537.000000	98.445824 
2536.000000	98.445681 
2535.000000	98.445907 
2534.000000	98.446552 
2533.000000	98.447062 
2532.000000	98.446966 
2531.000000	98.446342 
2530.000000	98.445593 
2529.000000	98.444960 
2528.000000	98.444375 
2527.000000	98.443754 
2526.000000	98.443272 
2525.000000	98.443209 
2524.000000	98.443597 
2523.000000	98.444141 
2522.000000	98.444532 
2521.000000	98.444704 
2520.000000	98.444760 
2519.000000	98.444796 
2518.000000	98.444853 
2517.000000	98.444905 
2516.000000	98.444774 
2515.000000	98.444234 
2514.000000	98.443354 
2513.000000	98.442667 
2512.000000	98.442702 
2511.000000	98.443466 
2510.000000	98.444522 
2509.000000	98.445407 
2508.000000	98.445955 
2507.000000	98.446196 
2506.000000	98.446270 
2505.000000	98.446448 
2504.000000	98.446966 
2503.000000	98.447731 
2502.000000	98.448330 
2501.000000	98.448476 
2500.000000	98.448277 
2499.000000	98.448057 
2498.000000	98.448002 
2497.000000	98.448093 
2496.000000	98.448317 
2495.000000	98.448722 
2494.000000	98.449276 
2493.000000	98.449798 
2492.000000	98.450135 
2491.000000	98.450346 
2490.000000	98.450643 
2489.000000	98.451151 
2488.000000	98.451742 
2487.000000	98.452163 
2486.000000	98.452337 
2485.000000	98.452480 
2484.000000	98.452854 
2483.000000	98.453457 
2482.000000	98.454036 
2481.000000	98.454402 
2480.000000	98.454619 
2479.000000	98.454862 
2478.000000	98.455223 
2477.000000	98.455715 
2476.000000	98.456300 
2475.000000	98.456785 
2474.000000	98.456815 
2473.000000	98.456160 
2472.000000	98.455001 
2471.000000	98.453890 
2470.000000	98.453387 
2469.000000	98.453808 
2468.000000	98.455033 
2467.000000	98.456466 
2466.000000	98.457404 
2465.000000	98.457585 
2464.000000	98.457379 
2463.000000	98.457437 
2462.000000	98.458186 
2461.000000	98.459671 
2460.000000	98.461591 
2459.000000	98.463353 
2458.000000	98.464292 
2457.000000	98.464106 
2456.000000	98.463076 
2455.000000	98.461857 
2454.000000	98.460991 
2453.000000	98.460538 
2452.000000	98.460121 
2451.000000	98.459392 
2450.000000	98.458573 
2449.000000	98.458380 
2448.000000	98.459169 
2447.000000	98.460387 
2446.000000	98.461117 
2445.000000	98.461063 
2444.000000	98.460608 
2443.000000	98.460100 
2442.000000	98.459590 
2441.000000	98.459193 
2440.000000	98.459183 
2439.000000	98.459670 
2438.000000	98.460602 
2437.000000	98.462058 
2436.000000	98.464045 
2435.000000	98.466016 
2434.000000	98.467154 
2433.000000	98.467268 
2432.000000	98.467011 
2431.000000	98.467105 
2430.000000	98.467756 
2429.000000	98.468846 
2428.000000	98.470093 
2427.000000	98.470875 
2426.000000	98.470487 
2425.000000	98.468830 
2424.000000	98.466565 
2423.000000	98.464541 
2422.000000	98.463373 
2421.000000	98.463528 
2420.000000	98.465143 
2419.000000	98.467522 
2418.000000	98.469400 
2417.000000	98.470222 
2416.000000	98.470511 
2415.000000	98.470859 
2414.000000	98.471206 
2413.000000	98.471402 
2412.000000	98.471774 
2411.000000	98.472500 
2410.000000	98.473037 
2409.000000	98.472899 
2408.000000	98.472549 
2407.000000	98.472747 
2406.000000	98.473423 
2405.000000	98.473809 
2404.000000	98.473436 
2403.000000	98.472501 
2402.000000	98.471518 
2401.000000	98.471047 
2400.000000	98.471530 
2399.000000	98.472916 
2398.000000	98.474572 
2397.000000	98.475914 
2396.000000	98.476894 
2395.000000	98.477536 
2394.000000	98.477411 
2393.000000	98.476371 
2392.000000	98.475132 
2391.000000	98.474580 
2390.000000	98.474625 
2389.000000	98.474456 
2388.000000	98.473664 
2387.000000	98.472563 
2386.000000	98.471517 
2385.000000	98.470607 
2384.000000	98.469821 
2383.000000	98.469116 
2382.000000	98.468413 
2381.000000	98.467670 
2380.000000	98.466942 
2379.000000	98.466276 
2378.000000	98.465622 
2377.000000	98.464888 
2376.000000	98.464059 
2375.000000	98.463183 
2374.000000	98.462296 
2373.000000	98.461386 
2372.000000	98.460443 
2371.000000	98.459479 
2370.000000	98.458511 
2369.000000	98.457543 
2368.000000	98.456567 
2367.000000	98.455581 
2366.000000	98.454593 
2365.000000	98.453626 
2364.000000	98.452703 
2363.000000	98.451839 
2362.000000	98.451035 
2361.000000	98.450288 
2360.000000	98.449589 
2359.000000	98.448923 
2358.000000	98.448273 
2357.000000	98.447627 
2356.000000	98.446989 
2355.000000	98.446375 
2354.000000	98.445803 
2353.000000	98.445294 
2352.000000	98.444870 
2351.000000	98.444539 
2350.000000	98.444277 
2349.000000	98.444054 
2348.000000	98.443858 
2347.000000	98.443717 
2346.000000	98.443677 
2345.000000	98.443769 
2344.000000	98.443984 
2343.000000	98.444294 
2342.000000	98.444673 
2341.000000	98.445111 
2340.000000	98.445611 
2339.000000	98.446169 
2338.000000	98.446735 
2337.000000	98.447247 
2336.000000	98.447704 
2335.000000	98.448173 
2334.000000	98.448660 
2333.000000	98.449112 
2332.000000	98.449555 
2331.000000	98.450170 
2330.000000	98.450978 
2329.000000	98.451823 
2328.000000	98.452626 
2327.000000	98.453488 
2326.000000	98.454525 
2325.000000	98.455636 
2324.000000	98.456925 
2323.000000	98.458519 
2322.000000	98.460256 
2321.000000	98.461628 
2320.000000	98.462424 
2319.000000	98.463188 
2318.000000	98.464351 
2317.000000	98.465691 
2316.000000	98.466564 
2315.000000	98.467093 
2314.000000	98.467986 
2313.000000	98.469747 
2312.000000	98.472096 
2311.000000	98.474452 
2310.000000	98.476195 
2309.000000	98.476715 
2308.000000	98.476206 
2307.000000	98.475955 
2306.000000	98.477132 
2305.000000	98.479100 
2304.000000	98.480461 
2303.000000	98.481051 
2302.000000	98.482163 
2301.000000	98.484566 
2300.000000	98.487111 
2299.000000	98.487988 
2298.000000	98.486401 
2297.000000	98.482786 
2296.000000	98.478468 
2295.000000	98.474983 
2294.000000	98.473302 
2293.000000	98.472893 
2292.000000	98.472640 
2291.000000	98.472096 
2290.000000	98.471964 
2289.000000	98.472872 
2288.000000	98.474565 
2287.000000	98.476174 
2286.000000	98.477206 
2285.000000	98.477834 
2284.000000	98.478510 
2283.000000	98.479357 
2282.000000	98.480006 
2281.000000	98.479882 
2280.000000	98.478521 
2279.000000	98.475809 
2278.000000	98.472227 
2277.000000	98.468997 
2276.000000	98.467412 
2275.000000	98.467818 
2274.000000	98.469386 
2273.000000	98.471240 
2272.000000	98.473380 
2271.000000	98.475925 
2270.000000	98.478059 
2269.000000	98.478701 
2268.000000	98.478001 
2267.000000	98.477251 
2266.000000	98.477222 
2265.000000	98.477483 
2264.000000	98.477339 
2263.000000	98.476533 
2262.000000	98.474946 
2261.000000	98.472551 
2260.000000	98.470024 
2259.000000	98.468445 
2258.000000	98.468132 
2257.000000	98.468490 
2256.000000	98.469269 
2255.000000	98.471053 
2254.000000	98.473916 
2253.000000	98.476358 
2252.000000	98.476594 
2251.000000	98.474419 
2250.000000	98.471010 
2249.000000	98.467577 
2248.000000	98.464755 
2247.000000	98.463022 
2246.000000	98.462614 
2245.000000	98.462983 
2244.000000	98.462968 
2243.000000	98.461909 
2242.000000	98.460219 
2241.000000	98.458882 
2240.000000	98.458564 
2239.000000	98.459255 
2238.000000	98.460376 
2237.000000	98.461171 
2236.000000	98.461296 
2235.000000	98.460992 
2234.000000	98.460692 
2233.000000	98.460613 
2232.000000	98.460742 
2231.000000	98.460998 
2230.000000	98.461203 
2229.000000	98.461085 
2228.000000	98.460573 
2227.000000	98.459968 
2226.000000	98.459650 
2225.000000	98.459621 
2224.000000	98.459579 
2223.000000	98.459351 
2222.000000	98.459068 
2221.000000	98.458908 
2220.000000	98.458828 
2219.000000	98.458686 
2218.000000	98.458454 
2217.000000	98.458210 
2216.000000	98.458028 
2215.000000	98.457910 
2214.000000	98.457816 
2213.000000	98.457722 
2212.000000	98.457654 
2211.000000	98.457674 
2210.000000	98.457823 
2209.000000	98.458093 
2208.000000	98.458444 
2207.000000	98.458825 
2206.000000	98.459211 
2205.000000	98.459598 
2204.000000	98.459988 
2203.000000	98.460374 
2202.000000	98.460745 
2201.000000	98.461087 
2200.000000	98.461372 
2199.000000	98.461570 
2198.000000	98.461678 
2197.000000	98.461746 
2196.000000	98.461855 
2195.000000	98.462059 
2194.000000	98.462355 
2193.000000	98.462705 
2192.000000	98.463093 
2191.000000	98.463504 
2190.000000	98.463860 
2189.000000	98.464069 
2188.000000	98.464155 
2187.000000	98.464226 
2186.000000	98.464289 
2185.000000	98.464230 
2184.000000	98.464050 
2183.000000	98.464032 
2182.000000	98.464465 
2181.000000	98.465334 
2180.000000	98.466242 
2179.000000	98.466790 
2178.000000	98.466929 
2177.000000	98.466995 
2176.000000	98.467394 
2175.000000	98.468238 
2174.000000	98.469393 
2173.000000	98.470730 
2172.000000	98.472245 
2171.000000	98.473952 
2170.000000	98.475667 
2169.000000	98.476950 
2168.000000	98.477409 
2167.000000	98.477155 
2166.000000	98.476849 
2165.000000	98.476990 
2164.000000	98.477304 
2163.000000	98.477177 
2162.000000	98.476648 
2161.000000	98.476582 
2160.000000	98.477617 
2159.000000	98.479394 
2158.000000	98.481077 
2157.000000	98.482391 
2156.000000	98.483623 
2155.000000	98.484916 
2154.000000	98.486123 
2153.000000	98.487170 
2152.000000	98.488086 
2151.000000	98.488639 
2150.000000	98.488442 
2149.000000	98.487664 
2148.000000	98.487270 
2147.000000	98.488055 
2146.000000	98.489678 
2145.000000	98.491120 
2144.000000	98.492200 
2143.000000	98.493929 
2142.000000	98.496950 
2141.000000	98.500215 
2140.000000	98.501962 
2139.000000	98.501866 
2138.000000	98.501425 
2137.000000	98.501860 
2136.000000	98.502615 
2135.000000	98.502376 
2134.000000	98.500716 
2133.000000	98.498459 
2132.000000	98.496936 
2131.000000	98.496842 
2130.000000	98.497840 
2129.000000	98.498952 
2128.000000	98.499433 
2127.000000	98.499388 
2126.000000	98.499490 
2125.000000	98.500185 
2124.000000	98.501270 
2123.000000	98.502177 
2122.000000	98.502525 
2121.000000	98.502369 
2120.000000	98.502011 
2119.000000	98.501740 
2118.000000	98.501722 
2117.000000	98.502030 
2116.000000	98.502622 
2115.000000	98.503263 
2114.000000	98.503586 
2113.000000	98.503410 
2112.000000	98.503030 
2111.000000	98.503012 
2110.000000	98.503595 
2109.000000	98.504492 
2108.000000	98.505325 
2107.000000	98.506070 
2106.000000	98.506910 
2105.000000	98.507862 
2104.000000	98.508800 
2103.000000	98.509653 
2102.000000	98.510323 
2101.000000	98.510509 
2100.000000	98.509948 
2099.000000	98.508980 
2098.000000	98.508572 
2097.000000	98.509378 
2096.000000	98.511205 
2095.000000	98.513192 
2094.000000	98.514621 
2093.000000	98.515367 
2092.000000	98.515599 
2091.000000	98.515579 
2090.000000	98.515729 
2089.000000	98.516536 
2088.000000	98.518085 
2087.000000	98.519771 
2086.000000	98.520769 
2085.000000	98.520810 
2084.000000	98.520421 
2083.000000	98.520382 
2082.000000	98.520980 
2081.000000	98.521948 
2080.000000	98.523027 
2079.000000	98.524307 
2078.000000	98.525809 
2077.000000	98.527070 
2076.000000	98.527621 
2075.000000	98.527768 
2074.000000	98.528308 
2073.000000	98.529163 
2072.000000	98.529087 
2071.000000	98.527221 
2070.000000	98.524297 
2069.000000	98.521913 
2068.000000	98.521065 
2067.000000	98.521688 
2066.000000	98.523116 
2065.000000	98.524379 
2064.000000	98.524503 
2063.000000	98.523387 
2062.000000	98.522372 
2061.000000	98.523187 
2060.000000	98.526274 
2059.000000	98.530635 
2058.000000	98.534718 
2057.000000	98.537385 
2056.000000	98.538203 
2055.000000	98.537399 
2054.000000	98.535954 
2053.000000	98.535155 
2052.000000	98.535584 
2051.000000	98.536661 
2050.000000	98.537394 
2049.000000	98.537509 
2048.000000	98.537605 
2047.000000	98.538202 
2046.000000	98.539126 
2045.000000	98.539947 
2044.000000	98.540621 
2043.000000	98.541441 
2042.000000	98.542566 
2041.000000	98.543898 
2040.000000	98.545413 
2039.000000	98.547413 
2038.000000	98.550136 
2037.000000	98.553074 
2036.000000	98.555016 
2035.000000	98.555099 
2034.000000	98.553736 
2033.000000	98.552520 
2032.000000	98.552781 
2031.000000	98.554317 
2030.000000	98.555580 
2029.000000	98.555140 
2028.000000	98.552980 
2027.000000	98.550395 
2026.000000	98.548722 
2025.000000	98.548368 
2024.000000	98.549119 
2023.000000	98.550877 
2022.000000	98.553666 
2021.000000	98.556890 
2020.000000	98.559126 
2019.000000	98.559154 
2018.000000	98.556957 
2017.000000	98.553806 
2016.000000	98.551289 
2015.000000	98.550002 
2014.000000	98.549272 
2013.000000	98.547973 
2012.000000	98.545903 
2011.000000	98.544389 
2010.000000	98.544924 
2009.000000	98.547325 
2008.000000	98.549607 
2007.000000	98.550123 
2006.000000	98.549286 
2005.000000	98.548662 
2004.000000	98.548988 
2003.000000	98.549779 
2002.000000	98.550427 
2001.000000	98.550652 
2000.000000	98.549967 
1999.000000	98.547749 
1998.000000	98.544091 
1997.000000	98.540045 
1996.000000	98.536874 
1995.000000	98.535156 
1994.000000	98.534672 
1993.000000	98.534724 
1992.000000	98.534549 
1991.000000	98.533889 
1990.000000	98.533143 
1989.000000	98.532781 
1988.000000	98.532724 
1987.000000	98.532447 
1986.000000	98.531629 
1985.000000	98.530460 
1984.000000	98.529336 
1983.000000	98.528446 
1982.000000	98.527713 
1981.000000	98.527007 
1980.000000	98.526275 
1979.000000	98.525500 
1978.000000	98.524670 
1977.000000	98.523800 
1976.000000	98.522934 
1975.000000	98.522106 
1974.000000	98.521323 
1973.000000	98.520568 
1972.000000	98.519823 
1971.000000	98.519065 
1970.000000	98.518262 
1969.000000	98.517385 
1968.000000	98.516424 
1967.000000	98.515401 
1966.000000	98.514369 
1965.000000	98.513390 
1964.000000	98.512504 
1963.000000	98.511703 
1962.000000	98.510945 
1961.000000	98.510185 
1960.000000	98.509396 
1959.000000	98.508578 
1958.000000	98.507762 
1957.000000	98.506991 
1956.000000	98.506296 
1955.000000	98.505667 
1954.000000	98.505061 
1953.000000	98.504432 
1952.000000	98.503760 
1951.000000	98.503049 
1950.000000	98.502318 
1949.000000	98.501589 
1948.000000	98.500874 
1947.000000	98.500165 
1946.000000	98.499454 
1945.000000	98.498731 
1944.000000	98.497959 
1943.000000	98.497107 
1942.000000	98.496185 
1941.000000	98.495205 
1940.000000	98.494182 
1939.000000	98.493129 
1938.000000	98.492039 
1937.000000	98.490985 
1936.000000	98.490225 
1935.000000	98.489903 
1934.000000	98.489699 
1933.000000	98.489178 
1932.000000	98.488501 
1931.000000	98.488270 
1930.000000	98.488666 
1929.000000	98.489095 
1928.000000	98.489013 
1927.000000	98.488606 
1926.000000	98.488311 
1925.000000	98.488138 
1924.000000	98.487760 
1923.000000	98.487067 
1922.000000	98.486192 
1921.000000	98.485125 
1920.000000	98.483943 
1919.000000	98.483059 
1918.000000	98.482475 
1917.000000	98.481196 
1916.000000	98.478506 
1915.000000	98.475488 
1914.000000	98.473855 
1913.000000	98.473781 
1912.000000	98.473861 
1911.000000	98.473221 
1910.000000	98.472504 
1909.000000	98.472419 
1908.000000	98.472677 
1907.000000	98.472545 
1906.000000	98.471493 
1905.000000	98.469185 
1904.000000	98.465751 
1903.000000	98.462504 
1902.000000	98.461118 
1901.000000	98.461595 
1900.000000	98.462258 
1899.000000	98.461812 
1898.000000	98.460518 
1897.000000	98.459216 
1896.000000	98.457951 
1895.000000	98.456207 
1894.000000	98.453937 
1893.000000	98.451527 
1892.000000	98.449341 
1891.000000	98.447780 
1890.000000	98.447234 
1889.000000	98.447460 
1888.000000	98.447652 
1887.000000	98.447591 
1886.000000	98.447766 
1885.000000	98.448068 
1884.000000	98.447451 
1883.000000	98.445453 
1882.000000	98.443272 
1881.000000	98.442410 
1880.000000	98.442855 
1879.000000	98.443255 
1878.000000	98.442594 
1877.000000	98.441397 
1876.000000	98.440968 
1875.000000	98.441905 
1874.000000	98.443833 
1873.000000	98.445846 
1872.000000	98.447090 
1871.000000	98.447315 
1870.000000	98.447085 
1869.000000	98.447319 
1868.000000	98.448201 
1867.000000	98.449290 
1866.000000	98.450241 
1865.000000	98.450552 
1864.000000	98.449837 
1863.000000	98.448869 
1862.000000	98.449257 
1861.000000	98.451620 
1860.000000	98.454747 
1859.000000	98.457219 
1858.000000	98.459212 
1857.000000	98.461519 
1856.000000	98.464014 
1855.000000	98.466081 
1854.000000	98.467448 
1853.000000	98.467984 
1852.000000	98.468034 
1851.000000	98.468907 
1850.000000	98.471657 
1849.000000	98.475690 
1848.000000	98.479129 
1847.000000	98.481043 
1846.000000	98.482340 
1845.000000	98.484316 
1844.000000	98.486976 
1843.000000	98.489595 
1842.000000	98.491954 
1841.000000	98.493987 
1840.000000	98.495955 
1839.000000	98.498509 
1838.000000	98.501627 
1837.000000	98.503963 
1836.000000	98.504248 
1835.000000	98.503388 
1834.000000	98.503597 
1833.000000	98.505582 
1832.000000	98.508281 
1831.000000	98.510135 
1830.000000	98.510191 
1829.000000	98.509286 
1828.000000	98.509316 
1827.000000	98.511035 
1826.000000	98.513850 
1825.000000	98.516623 
1824.000000	98.518212 
1823.000000	98.518147 
1822.000000	98.517115 
1821.000000	98.516111 
1820.000000	98.515211 
1819.000000	98.513758 
1818.000000	98.512283 
1817.000000	98.512519 
1816.000000	98.514404 
1815.000000	98.516148 
1814.000000	98.517294 
1813.000000	98.519399 
1812.000000	98.522801 
1811.000000	98.524437 
1810.000000	98.522610 
1809.000000	98.520054 
1808.000000	98.519082 
1807.000000	98.518614 
1806.000000	98.517708 
1805.000000	98.517390 
1804.000000	98.517773 
1803.000000	98.516758 
1802.000000	98.513029 
1801.000000	98.508972 
1800.000000	98.507445 
1799.000000	98.507768 
1798.000000	98.508637 
1797.000000	98.509803 
1796.000000	98.510078 
1795.000000	98.508443 
1794.000000	98.506360 
1793.000000	98.506987 
1792.000000	98.510062 
1791.000000	98.511581 
1790.000000	98.510978 
1789.000000	98.511269 
1788.000000	98.513532 
1787.000000	98.516117 
1786.000000	98.517836 
1785.000000	98.519343 
1784.000000	98.520982 
1783.000000	98.522426 
1782.000000	98.523551 
1781.000000	98.524750 
1780.000000	98.526553 
1779.000000	98.528854 
1778.000000	98.531649 
1777.000000	98.534695 
1776.000000	98.537177 
1775.000000	98.538644 
1774.000000	98.539119 
1773.000000	98.539260 
1772.000000	98.540060 
1771.000000	98.541504 
1770.000000	98.542809 
1769.000000	98.543961 
1768.000000	98.545599 
1767.000000	98.547625 
1766.000000	98.549329 
1765.000000	98.550707 
1764.000000	98.552437 
1763.000000	98.554569 
1762.000000	98.556167 
1761.000000	98.557007 
1760.000000	98.557993 
1759.000000	98.559446 
1758.000000	98.560809 
1757.000000	98.561558 
1756.000000	98.562144 
1755.000000	98.562944 
1754.000000	98.563285 
1753.000000	98.562579 
1752.000000	98.561656 
1751.000000	98.562233 
1750.000000	98.564676 
1749.000000	98.567628 
1748.000000	98.569794 
1747.000000	98.571338 
1746.000000	98.572627 
1745.000000	98.573702 
1744.000000	98.574823 
1743.000000	98.576073 
1742.000000	98.576904 
1741.000000	98.577056 
1740.000000	98.577261 
1739.000000	98.578302 
1738.000000	98.579614 
1737.000000	98.580161 
1736.000000	98.579567 
1735.000000	98.578254 
1734.000000	98.576913 
1733.000000	98.576306 
1732.000000	98.577180 
1731.000000	98.579758 
1730.000000	98.583572 
1729.000000	98.586673 
1728.000000	98.587935 
1727.000000	98.587994 
1726.000000	98.587815 
1725.000000	98.587583 
1724.000000	98.587317 
1723.000000	98.587160 
1722.000000	98.587451 
1721.000000	98.588090 
1720.000000	98.588712 
1719.000000	98.588512 
1718.000000	98.586661 
1717.000000	98.584890 
1716.000000	98.583853 
1715.000000	98.581692 
1714.000000	98.579694 
1713.000000	98.579948 
1712.000000	98.581354 
1711.000000	98.582174 
1710.000000	98.582245 
1709.000000	98.582020 
1708.000000	98.581640 
1707.000000	98.581145 
1706.000000	98.580758 
1705.000000	98.580354 
1704.000000	98.577782 
1703.000000	98.571663 
1702.000000	98.563102 
1701.000000	98.556878 
1700.000000	98.555297 
1699.000000	98.553870 
1698.000000	98.551397 
1697.000000	98.550716 
1696.000000	98.551595 
1695.000000	98.551290 
1694.000000	98.549564 
1693.000000	98.547713 
1692.000000	98.545834 
1691.000000	98.543405 
1690.000000	98.540528 
1689.000000	98.537735 
1688.000000	98.535290 
1687.000000	98.533089 
1686.000000	98.531247 
1685.000000	98.530393 
1684.000000	98.528773 
1683.000000	98.525623 
1682.000000	98.522888 
1681.000000	98.520538 
1680.000000	98.518469 
1679.000000	98.516577 
1678.000000	98.514574 
1677.000000	98.512050 
1676.000000	98.509317 
1675.000000	98.506975 
1674.000000	98.504503 
1673.000000	98.501224 
1672.000000	98.497797 
1671.000000	98.495601 
1670.000000	98.495066 
1669.000000	98.494487 
1668.000000	98.493172 
1667.000000	98.492178 
1666.000000	98.491132 
1665.000000	98.489306 
1664.000000	98.487221 
1663.000000	98.485711 
1662.000000	98.484169 
1661.000000	98.480770 
1660.000000	98.475944 
1659.000000	98.472192 
1658.000000	98.471165 
1657.000000	98.470788 
1656.000000	98.469555 
1655.000000	98.468109 
1654.000000	98.468201 
1653.000000	98.464079 
1652.000000	98.455019 
1651.000000	98.449266 
1650.000000	98.444897 
1649.000000	98.441813 
1648.000000	98.439576 
1647.000000	98.436990 
1646.000000	98.433300 
1645.000000	98.431691 
1644.000000	98.431310 
1643.000000	98.430300 
1642.000000	98.428766 
1641.000000	98.427656 
1640.000000	98.426961 
1639.000000	98.426074 
1638.000000	98.425351 
1637.000000	98.425598 
1636.000000	98.424969 
1635.000000	98.423649 
1634.000000	98.424742 
1633.000000	98.426371 
1632.000000	98.424993 
1631.000000	98.421680 
1630.000000	98.420449 
1629.000000	98.422362 
1628.000000	98.425020 
1627.000000	98.427646 
1626.000000	98.431327 
1625.000000	98.435334 
1624.000000	98.437885 
1623.000000	98.439218 
1622.000000	98.441195 
1621.000000	98.442627 
1620.000000	98.442023 
1619.000000	98.441385 
1618.000000	98.443710 
1617.000000	98.446076 
1616.000000	98.443027 
1615.000000	98.438942 
1614.000000	98.439029 
1613.000000	98.440521 
1612.000000	98.439396 
1611.000000	98.436864 
1610.000000	98.437086 
1609.000000	98.440401 
1608.000000	98.444522 
1607.000000	98.449710 
1606.000000	98.456006 
1605.000000	98.460743 
1604.000000	98.463401 
1603.000000	98.466740 
1602.000000	98.471824 
1601.000000	98.476084 
1600.000000	98.478220 
1599.000000	98.480834 
1598.000000	98.485606 
1597.000000	98.490748 
1596.000000	98.494472 
1595.000000	98.498120 
1594.000000	98.503591 
1593.000000	98.509266 
1592.000000	98.512475 
1591.000000	98.514099 
1590.000000	98.516782 
1589.000000	98.520399 
1588.000000	98.523718 
1587.000000	98.528016 
1586.000000	98.534078 
1585.000000	98.538347 
1584.000000	98.538586 
1583.000000	98.538884 
1582.000000	98.543204 
1581.000000	98.549276 
1580.000000	98.553691 
1579.000000	98.558220 
1578.000000	98.566251 
1577.000000	98.575331 
1576.000000	98.578162 
1575.000000	98.577152 
1574.000000	98.578729 
1573.000000	98.581285 
1572.000000	98.583981 
1571.000000	98.588963 
1570.000000	98.594323 
1569.000000	98.591619 
1568.000000	98.582815 
1567.000000	98.577705 
1566.000000	98.578405 
1565.000000	98.579301 
1564.000000	98.579333 
1563.000000	98.579969 
1562.000000	98.581818 
1561.000000	98.579251 
1560.000000	98.575270 
1559.000000	98.570380 
1558.000000	98.563321 
1557.000000	98.562157 
1556.000000	98.560060 
1555.000000	98.558771 
1554.000000	98.556045 
1553.000000	98.553742 
1552.000000	98.551418 
1551.000000	98.547993 
1550.000000	98.540296 
1549.000000	98.529710 
1548.000000	98.520857 
1547.000000	98.516267 
1546.000000	98.513692 
1545.000000	98.510314 
1544.000000	98.505926 
1543.000000	98.501958 
1542.000000	98.500422 
1541.000000	98.501314 
1540.000000	98.491335 
1539.000000	98.467993 
1538.000000	98.447183 
1537.000000	98.431639 
1536.000000	98.417858 
1535.000000	98.406010 
1534.000000	98.397775 
1533.000000	98.391565 
1532.000000	98.384474 
1531.000000	98.373668 
1530.000000	98.360428 
1529.000000	98.348208 
1528.000000	98.336935 
1527.000000	98.323830 
1526.000000	98.308044 
1525.000000	98.293097 
1524.000000	98.282468 
1523.000000	98.275580 
1522.000000	98.268390 
1521.000000	98.256433 
1520.000000	98.239561 
1519.000000	98.220280 
1518.000000	98.200157 
1517.000000	98.180601 
1516.000000	98.163030 
1515.000000	98.148918 
1514.000000	98.137695 
1513.000000	98.128154 
1512.000000	98.118974 
1511.000000	98.106661 
1510.000000	98.089647 
1509.000000	98.071253 
1508.000000	98.058222 
1507.000000	98.046491 
1506.000000	98.029739 
1505.000000	98.014364 
1504.000000	98.001053 
1503.000000	97.986949 
1502.000000	97.971110 
1501.000000	97.955721 
1500.000000	97.943392 
1499.000000	97.933262 
1498.000000	97.919216 
1497.000000	97.900321 
1496.000000	97.883214 
1495.000000	97.870682 
1494.000000	97.859896 
1493.000000	97.849801 
1492.000000	97.842564 
1491.000000	97.839009 
1490.000000	97.834897 
1489.000000	97.827082 
1488.000000	97.815321 
1487.000000	97.798921 
1486.000000	97.781060 
1485.000000	97.763698 
1484.000000	97.746664 
1483.000000	97.731545 
1482.000000	97.719285 
1481.000000	97.709074 
1480.000000	97.698188 
1479.000000	97.684899 
1478.000000	97.670598 
1477.000000	97.658543 
1476.000000	97.648349 
1475.000000	97.635887 
1474.000000	97.621323 
1473.000000	97.611150 
1472.000000	97.609176 
1471.000000	97.609473 
1470.000000	97.606006 
1469.000000	97.599319 
1468.000000	97.591408 
1467.000000	97.582021 
1466.000000	97.571949 
1465.000000	97.564657 
1464.000000	97.561760 
1463.000000	97.558200 
1462.000000	97.548852 
1461.000000	97.536505 
1460.000000	97.528213 
1459.000000	97.527578 
1458.000000	97.526068 
1457.000000	97.513641 
1456.000000	97.499379 
1455.000000	97.491154 
1454.000000	97.482336 
1453.000000	97.473199 
1452.000000	97.468830 
1451.000000	97.471192 
1450.000000	97.477419 
1449.000000	97.487119 
1448.000000	97.500466 
1447.000000	97.512658 
1446.000000	97.518099 
1445.000000	97.518161 
1444.000000	97.518894 
1443.000000	97.521488 
1442.000000	97.522505 
1441.000000	97.520079 
1440.000000	97.516710 
1439.000000	97.514919 
1438.000000	97.514160 
1437.000000	97.515222 
1436.000000	97.520761 
1435.000000	97.527551 
1434.000000	97.529674 
1433.000000	97.529394 
1432.000000	97.532669 
1431.000000	97.541634 
1430.000000	97.551583 
1429.000000	97.558138 
1428.000000	97.562139 
1427.000000	97.565936 
1426.000000	97.570362 
1425.000000	97.575084 
1424.000000	97.581861 
1423.000000	97.589956 
1422.000000	97.595033 
1421.000000	97.596891 
1420.000000	97.602098 
1419.000000	97.611299 
1418.000000	97.613882 
1417.000000	97.609186 
1416.000000	97.608237 
1415.000000	97.615365 
1414.000000	97.623857 
1413.000000	97.627142 
1412.000000	97.627929 
1411.000000	97.632112 
1410.000000	97.638625 
1409.000000	97.644394 
1408.000000	97.651001 
1407.000000	97.661451 
1406.000000	97.675256 
1405.000000	97.690124 
1404.000000	97.707196 
1403.000000	97.726149 
1402.000000	97.742840 
1401.000000	97.757180 
1400.000000	97.774664 
1399.000000	97.797271 
1398.000000	97.816912 
1397.000000	97.825395 
1396.000000	97.825161 
1395.000000	97.827218 
1394.000000	97.839481 
1393.000000	97.861375 
1392.000000	97.889805 
1391.000000	97.920664 
1390.000000	97.948465 
1389.000000	97.969145 
1388.000000	97.982200 
1387.000000	97.990020 
1386.000000	97.995734 
1385.000000	98.002403 
1384.000000	98.013064 
1383.000000	98.028402 
1382.000000	98.045505 
1381.000000	98.061352 
1380.000000	98.075520 
1379.000000	98.089996 
1378.000000	98.106659 
1377.000000	98.125495 
1376.000000	98.145096 
1375.000000	98.163921 
1374.000000	98.180728 
1373.000000	98.195913 
1372.000000	98.211376 
1371.000000	98.228728 
1370.000000	98.247986 
1369.000000	98.266309 
1368.000000	98.282070 
1367.000000	98.296479 
1366.000000	98.311127 
1365.000000	98.326800 
1364.000000	98.342653 
1363.000000	98.355966 
1362.000000	98.365399 
1361.000000	98.373433 
1360.000000	98.383741 
1359.000000	98.398010 
1358.000000	98.414811 
1357.000000	98.430614 
1356.000000	98.443014 
1355.000000	98.452458 
1354.000000	98.461072 
1353.000000	98.471405 
1352.000000	98.483586 
1351.000000	98.496162 
1350.000000	98.508825 
1349.000000	98.519430 
1348.000000	98.525864 
1347.000000	98.529232 
1346.000000	98.533444 
1345.000000	98.540589 
1344.000000	98.549096 
1343.000000	98.556799 
1342.000000	98.563644 
1341.000000	98.569776 
1340.000000	98.573559 
1339.000000	98.573951 
1338.000000	98.572478 
1337.000000	98.571545 
1336.000000	98.572236 
1335.000000	98.573993 
1334.000000	98.576021 
1333.000000	98.578295 
1332.000000	98.580883 
1331.000000	98.583646 
1330.000000	98.586290 
1329.000000	98.588216 
1328.000000	98.589010 
1327.000000	98.589622 
1326.000000	98.591300 
1325.000000	98.592568 
1324.000000	98.591515 
1323.000000	98.588470 
1322.000000	98.585199 
1321.000000	98.582895 
1320.000000	98.582158 
1319.000000	98.583324 
1318.000000	98.585731 
1317.000000	98.587945 
1316.000000	98.588942 
1315.000000	98.588284 
1314.000000	98.585583 
1313.000000	98.581691 
1312.000000	98.579374 
1311.000000	98.580652 
1310.000000	98.583830 
1309.000000	98.585643 
1308.000000	98.585554 
1307.000000	98.586091 
1306.000000	98.589009 
1305.000000	98.592678 
1304.000000	98.595238 
1303.000000	98.596297 
1302.000000	98.595473 
1301.000000	98.592152 
1300.000000	98.587948 
1299.000000	98.586348 
1298.000000	98.588374 
1297.000000	98.590833 
1296.000000	98.590340 
1295.000000	98.587596 
1294.000000	98.585737 
1293.000000	98.586266 
1292.000000	98.588246 
1291.000000	98.590158 
1290.000000	98.591215 
1289.000000	98.591443 
1288.000000	98.591306 
1287.000000	98.590962 
1286.000000	98.589730 
1285.000000	98.587339 
1284.000000	98.585474 
1283.000000	98.585982 
1282.000000	98.587697 
1281.000000	98.587201 
1280.000000	98.583406 
1279.000000	98.579524 
1278.000000	98.579227 
1277.000000	98.582741 
1276.000000	98.587541 
1275.000000	98.591408 
1274.000000	98.593280 
1273.000000	98.592813 
1272.000000	98.590806 
1271.000000	98.588887 
1270.000000	98.587311 
1269.000000	98.584203 
1268.000000	98.578434 
1267.000000	98.571586 
1266.000000	98.565575 
1265.000000	98.560678 
1264.000000	98.557052 
1263.000000	98.555560 
1262.000000	98.555525 
1261.000000	98.553948 
1260.000000	98.549500 
1259.000000	98.545449 
1258.000000	98.545167 
1257.000000	98.546578 
1256.000000	98.544113 
1255.000000	98.535710 
1254.000000	98.525200 
1253.000000	98.517267 
1252.000000	98.512039 
1251.000000	98.506182 
1250.000000	98.498216 
1249.000000	98.491080 
1248.000000	98.489010 
1247.000000	98.492163 
1246.000000	98.494985 
1245.000000	98.491073 
1244.000000	98.479240 
1243.000000	98.464327 
1242.000000	98.452964 
1241.000000	98.449009 
1240.000000	98.451356 
1239.000000	98.454102 
1238.000000	98.449935 
1237.000000	98.435798 
1236.000000	98.415194 
1235.000000	98.393743 
1234.000000	98.373354 
1233.000000	98.352368 
1232.000000	98.329955 
1231.000000	98.307223 
1230.000000	98.284632 
1229.000000	98.261483 
1228.000000	98.237599 
1227.000000	98.212438 
1226.000000	98.182797 
1225.000000	98.144572 
1224.000000	98.097340 
1223.000000	98.044614 
1222.000000	97.989217 
1221.000000	97.930857 
1220.000000	97.868742 
1219.000000	97.803741 
1218.000000	97.736744 
1217.000000	97.667014 
1216.000000	97.592833 
1215.000000	97.512256 
1214.000000	97.424011 
1213.000000	97.330421 
1212.000000	97.238295 
1211.000000	97.152512 
1210.000000	97.069083 
1209.000000	96.979487 
1208.000000	96.881981 
1207.000000	96.783583 
1206.000000	96.690087 
1205.000000	96.599289 
1204.000000	96.505994 
1203.000000	96.409015 
1202.000000	96.310888 
1201.000000	96.214233 
1200.000000	96.120475 
1199.000000	96.029306 
1198.000000	95.937800 
1197.000000	95.843017 
1196.000000	95.746199 
1195.000000	95.651323 
1194.000000	95.559335 
1193.000000	95.467139 
1192.000000	95.372476 
1191.000000	95.275750 
1190.000000	95.176771 
1189.000000	95.074076 
1188.000000	94.968284 
1187.000000	94.862077 
1186.000000	94.756049 
1185.000000	94.648281 
1184.000000	94.538066 
1183.000000	94.425930 
1182.000000	94.310274 
1181.000000	94.188670 
1180.000000	94.062342 
1179.000000	93.934389 
1178.000000	93.803474 
1177.000000	93.664792 
1176.000000	93.517661 
1175.000000	93.366658 
1174.000000	93.214956 
1173.000000	93.062392 
1172.000000	92.910564 
1171.000000	92.762888 
1170.000000	92.618385 
1169.000000	92.472597 
1168.000000	92.326749 
1167.000000	92.189822 
1166.000000	92.070702 
1165.000000	91.975732 
1164.000000	91.914741 
1163.000000	91.899512 
1162.000000	91.931437 
1161.000000	91.995928 
1160.000000	92.070866 
1159.000000	92.135372 
1158.000000	92.171079 
1157.000000	92.164711 
1156.000000	92.114102 
1155.000000	92.027513 
1154.000000	91.915415 
1153.000000	91.786728 
1152.000000	91.651954 
1151.000000	91.521417 
1150.000000	91.397620 
1149.000000	91.276046 
1148.000000	91.155289 
1147.000000	91.039109 
1146.000000	90.927074 
1145.000000	90.812052 
1144.000000	90.690386 
1143.000000	90.566989 
1142.000000	90.447032 
1141.000000	90.329666 
1140.000000	90.212949 
1139.000000	90.097542 
1138.000000	89.982404 
1137.000000	89.863950 
1136.000000	89.742414 
1135.000000	89.622190 
1134.000000	89.503654 
1133.000000	89.382068 
1132.000000	89.256641 
1131.000000	89.132619 
1130.000000	89.012069 
1129.000000	88.890760 
1128.000000	88.766522 
1127.000000	88.642215 
1126.000000	88.518021 
1125.000000	88.389687 
1124.000000	88.257223 
1123.000000	88.126686 
1122.000000	88.000558 
1121.000000	87.875001 
1120.000000	87.748755 
1119.000000	87.624966 
1118.000000	87.502090 
1117.000000	87.374092 
1116.000000	87.242554 
1115.000000	87.117386 
1114.000000	87.002168 
1113.000000	86.890121 
1112.000000	86.777776 
1111.000000	86.670050 
1110.000000	86.567824 
1109.000000	86.463341 
1108.000000	86.352290 
1107.000000	86.238951 
1106.000000	86.126412 
1105.000000	86.012909 
1104.000000	85.900298 
1103.000000	85.794556 
1102.000000	85.694366 
1101.000000	85.592073 
1100.000000	85.487956 
1099.000000	85.390171 
1098.000000	85.301499 
1097.000000	85.215716 
1096.000000	85.130377 
1095.000000	85.048616 
1094.000000	84.966976 
1093.000000	84.876401 
1092.000000	84.778952 
1091.000000	84.689316 
1090.000000	84.615800 
1089.000000	84.552692 
1088.000000	84.493595 
1087.000000	84.438290 
1086.000000	84.384248 
1085.000000	84.326442 
1084.000000	84.268735 
1083.000000	84.221174 
1082.000000	84.183377 
1081.000000	84.145110 
1080.000000	84.105156 
1079.000000	84.073681 
1078.000000	84.053220 
1077.000000	84.033444 
1076.000000	84.007862 
1075.000000	83.979239 
1074.000000	83.945340 
1073.000000	83.895795 
1072.000000	83.825979 
1071.000000	83.737038 
1070.000000	83.619456 
1069.000000	83.456085 
1068.000000	83.248290 
1067.000000	83.023211 
1066.000000	82.807519 
1065.000000	82.607092 
1064.000000	82.417701 
1063.000000	82.236931 
1062.000000	82.056654 
1061.000000	81.861727 
1060.000000	81.648651 
1059.000000	81.434047 
1058.000000	81.235907 
1057.000000	81.056819 
1056.000000	80.890800 
1055.000000	80.732973 
1054.000000	80.576357 
1053.000000	80.412962 
1052.000000	80.245241 
1051.000000	80.083827 
1050.000000	79.928417 
1049.000000	79.765823 
1048.000000	79.591173 
1047.000000	79.413806 
1046.000000	79.238990 
1045.000000	79.061577 
1044.000000	78.880283 
1043.000000	78.701072 
1042.000000	78.523337 
1041.000000	78.338981 
1040.000000	78.148980 
1039.000000	77.965903 
1038.000000	77.797414 
1037.000000	77.642418 
1036.000000	77.504184 
1035.000000	77.389723 
1034.000000	77.294528 
1033.000000	77.205277 
1032.000000	77.118612 
1031.000000	77.039832 
1030.000000	76.964895 
1029.000000	76.885460 
1028.000000	76.811615 
1027.000000	76.765413 
1026.000000	76.748528 
1025.000000	76.738234 
1024.000000	76.718897 
1023.000000	76.695387 
1022.000000	76.671740 
1021.000000	76.640569 
1020.000000	76.599866 
1019.000000	76.559031 
1018.000000	76.521854 
1017.000000	76.482476 
1016.000000	76.442360 
1015.000000	76.411562 
1014.000000	76.389308 
1013.000000	76.363317 
1012.000000	76.331935 
1011.000000	76.306857 
1010.000000	76.291077 
1009.000000	76.275300 
1008.000000	76.259433 
1007.000000	76.256073 
1006.000000	76.268763 
1005.000000	76.287881 
1004.000000	76.311334 
1003.000000	76.347424 
1002.000000	76.393449 
1001.000000	76.434311 
1000.000000	76.467781 
999.000000	 76.509200 
998.000000	 76.565406 
997.000000	 76.625367 
996.000000	 76.682383 
995.000000	 76.744723 
994.000000	 76.817815 
993.000000	 76.895817 
992.000000	 76.976767 
991.000000	 77.066852 
990.000000	 77.164507 
989.000000	 77.259500 
988.000000	 77.352710 
987.000000	 77.457683 
986.000000	 77.578452 
985.000000	 77.705635 
984.000000	 77.838173 
983.000000	 77.987793 
982.000000	 78.156844 
981.000000	 78.332401 
980.000000	 78.508110 
979.000000	 78.692114 
978.000000	 78.887387 
977.000000	 79.084653 
976.000000	 79.281747 
975.000000	 79.490638 
974.000000	 79.717341 
973.000000	 79.952221 
972.000000	 80.187227 
971.000000	 80.426395 
970.000000	 80.672597 
969.000000	 80.919577 
968.000000	 81.163558 
967.000000	 81.408611 
966.000000	 81.655630 
965.000000	 81.899794 
964.000000	 82.142392 
963.000000	 82.390537 
962.000000	 82.641930 
961.000000	 82.884744 
960.000000	 83.115687 
959.000000	 83.343196 
958.000000	 83.569893 
957.000000	 83.787372 
956.000000	 83.992259 
955.000000	 84.192543 
954.000000	 84.393792 
953.000000	 84.592564 
952.000000	 84.786690 
951.000000	 84.978151 
950.000000	 85.162963 
949.000000	 85.332681 
948.000000	 85.489228 
947.000000	 85.644313 
946.000000	 85.800806 
945.000000	 85.948542 
944.000000	 86.082091 
943.000000	 86.208905 
942.000000	 86.336261 
941.000000	 86.463420 
940.000000	 86.590692 
939.000000	 86.722761 
938.000000	 86.858398 
937.000000	 86.989278 
936.000000	 87.113454 
935.000000	 87.238885 
934.000000	 87.370417 
933.000000	 87.504546 
932.000000	 87.639490 
931.000000	 87.778201 
930.000000	 87.918400 
929.000000	 88.051570 
928.000000	 88.175402 
927.000000	 88.296709 
926.000000	 88.419317 
925.000000	 88.539018 
924.000000	 88.652238 
923.000000	 88.759584 
922.000000	 88.860025 
921.000000	 88.952398 
920.000000	 89.043216 
919.000000	 89.141400 
918.000000	 89.244003 
917.000000	 89.338263 
916.000000	 89.419375 
915.000000	 89.496186 
914.000000	 89.579018 
913.000000	 89.672399 
912.000000	 89.779533 
911.000000	 89.901983 
910.000000	 90.034256 
909.000000	 90.170118 
908.000000	 90.314275 
907.000000	 90.476645 
906.000000	 90.656437 
905.000000	 90.843500 
904.000000	 91.033230 
903.000000	 91.227154 
902.000000	 91.421258 
901.000000	 91.608711 
900.000000	 91.793415 
899.000000	 91.986412 
898.000000	 92.188516 
897.000000	 92.388930 
896.000000	 92.580258 
895.000000	 92.761512 
894.000000	 92.928322 
893.000000	 93.075574 
892.000000	 93.210107 
891.000000	 93.346102 
890.000000	 93.485497 
889.000000	 93.615219 
888.000000	 93.724604 
887.000000	 93.813419 
886.000000	 93.883880 
885.000000	 93.938546 
884.000000	 93.985853 
883.000000	 94.033379 
882.000000	 94.075754 
881.000000	 94.105082 
880.000000	 94.133517 
879.000000	 94.187037 
878.000000	 94.273871 
877.000000	 94.377424 
876.000000	 94.484112 
875.000000	 94.599682 
874.000000	 94.733261 
873.000000	 94.884884 
872.000000	 95.054977 
871.000000	 95.247059 
870.000000	 95.452636 
869.000000	 95.649469 
868.000000	 95.823212 
867.000000	 95.978500 
866.000000	 96.124242 
865.000000	 96.261650 
864.000000	 96.392423 
863.000000	 96.525131 
862.000000	 96.664894 
861.000000	 96.806075 
860.000000	 96.941560 
859.000000	 97.070797 
858.000000	 97.194671 
857.000000	 97.311594 
856.000000	 97.422391 
855.000000	 97.529945 
854.000000	 97.630866 
853.000000	 97.716965 
852.000000	 97.787868 
851.000000	 97.852986 
850.000000	 97.919082 
849.000000	 97.985566 
848.000000	 98.052726 
847.000000	 98.122573 
846.000000	 98.189797 
845.000000	 98.244615 
844.000000	 98.287402 
843.000000	 98.328290 
842.000000	 98.369521 
841.000000	 98.400773 
840.000000	 98.415216 
839.000000	 98.417261 
838.000000	 98.410962 
837.000000	 98.394548 
836.000000	 98.372102 
835.000000	 98.357506 
834.000000	 98.358788 
833.000000	 98.368782 
832.000000	 98.378134 
831.000000	 98.387450 
830.000000	 98.400011 
829.000000	 98.413182 
828.000000	 98.425694 
827.000000	 98.444543 
826.000000	 98.475818 
825.000000	 98.516000 
824.000000	 98.558532 
823.000000	 98.599643 
822.000000	 98.632817 
821.000000	 98.649187 
820.000000	 98.648359 
819.000000	 98.637543 
818.000000	 98.615688 
817.000000	 98.568763 
816.000000	 98.485197 
815.000000	 98.367160 
814.000000	 98.221628 
813.000000	 98.047234 
812.000000	 97.833506 
811.000000	 97.564843 
810.000000	 97.221119 
809.000000	 96.783959 
808.000000	 96.250649 
807.000000	 95.638550 
806.000000	 94.973405 
805.000000	 94.279982 
804.000000	 93.586042 
803.000000	 92.922911 
802.000000	 92.314712 
801.000000	 91.777400 
800.000000	 91.332640 
799.000000	 91.007456 
798.000000	 90.812750 
797.000000	 90.735066 
796.000000	 90.752973 
795.000000	 90.845620 
794.000000	 90.983682 
793.000000	 91.133074 
792.000000	 91.274510 
791.000000	 91.403843 
790.000000	 91.510636 
789.000000	 91.573968 
788.000000	 91.581890 
787.000000	 91.536435 
786.000000	 91.435850 
785.000000	 91.270686 
784.000000	 91.043711 
783.000000	 90.777540 
782.000000	 90.497997 
781.000000	 90.227601 
780.000000	 89.998707 
779.000000	 89.849541 
778.000000	 89.796578 
777.000000	 89.828552 
776.000000	 89.933755 
775.000000	 90.111621 
774.000000	 90.349848 
773.000000	 90.614173 
772.000000	 90.874088 
771.000000	 91.121637 
770.000000	 91.356319 
769.000000	 91.570804 
768.000000	 91.761460 
767.000000	 91.934640 
766.000000	 92.091499 
765.000000	 92.223178 
764.000000	 92.331822 
763.000000	 92.439966 
762.000000	 92.566738 
761.000000	 92.708027 
760.000000	 92.850397 
759.000000	 92.990502 
758.000000	 93.130337 
757.000000	 93.267826 
756.000000	 93.404664 
755.000000	 93.551658 
754.000000	 93.713325 
753.000000	 93.875190 
752.000000	 94.016305 
751.000000	 94.128095 
750.000000	 94.216825 
749.000000	 94.297320 
748.000000	 94.388235 
747.000000	 94.500942 
746.000000	 94.626425 
745.000000	 94.744084 
744.000000	 94.848719 
743.000000	 94.957060 
742.000000	 95.083377 
741.000000	 95.222652 
740.000000	 95.363773 
739.000000	 95.504499 
738.000000	 95.644856 
737.000000	 95.777833 
736.000000	 95.895595 
735.000000	 95.996356 
734.000000	 96.080121 
733.000000	 96.147209 
732.000000	 96.204168 
731.000000	 96.259980 
730.000000	 96.313065 
729.000000	 96.353319 
728.000000	 96.379907 
727.000000	 96.405975 
726.000000	 96.443875 
725.000000	 96.497183 
724.000000	 96.568054 
723.000000	 96.658147 
722.000000	 96.759070 
721.000000	 96.855367 
720.000000	 96.941171 
719.000000	 97.021542 
718.000000	 97.095371 
717.000000	 97.153478 
716.000000	 97.196603 
715.000000	 97.238565 
714.000000	 97.287662 
713.000000	 97.341044 
712.000000	 97.401338 
711.000000	 97.479262 
710.000000	 97.572246 
709.000000	 97.659055 
708.000000	 97.725019 
707.000000	 97.775706 
706.000000	 97.816427 
705.000000	 97.835332 
704.000000	 97.817721 
703.000000	 97.760849 
702.000000	 97.660367 
701.000000	 97.496390 
700.000000	 97.248999 
699.000000	 96.920912 
698.000000	 96.539875 
697.000000	 96.152085 
696.000000	 95.820240 
695.000000	 95.608205 
694.000000	 95.546965 
693.000000	 95.619211 
692.000000	 95.782422 
691.000000	 95.997887 
690.000000	 96.235719 
689.000000	 96.468546 
688.000000	 96.675604 
687.000000	 96.848761 
686.000000	 96.987495 
685.000000	 97.097520 
684.000000	 97.196086 
683.000000	 97.300892 
682.000000	 97.408537 
681.000000	 97.499617 
680.000000	 97.569022 
679.000000	 97.633588 
678.000000	 97.705046 
677.000000	 97.778737 
676.000000	 97.855427 
675.000000	 97.944448 
674.000000	 98.036309 
673.000000	 98.099351 
672.000000	 98.116255 
671.000000	 98.102648 
670.000000	 98.088379 
669.000000	 98.106862 
668.000000	 98.187809 
667.000000	 98.312973 
666.000000	 98.419235 
665.000000	 98.472003 
664.000000	 98.487325 
663.000000	 98.499622 
662.000000	 98.530905 
661.000000	 98.571526 
660.000000	 98.607410 
659.000000	 98.644332 
658.000000	 98.684363 
657.000000	 98.704446 
656.000000	 98.685124 
655.000000	 98.638870 
654.000000	 98.589863 
653.000000	 98.543897 
652.000000	 98.503515 
651.000000	 98.493312 
650.000000	 98.532355 

