4000.000000	98.591331 
3999.000000	98.591759 
3998.000000	98.591836 
3997.000000	98.591538 
3996.000000	98.591067 
3995.000000	98.590714 
3994.000000	98.590658 
3993.000000	98.590843 
3992.000000	98.590965 
3991.000000	98.590680 
3990.000000	98.589869 
3989.000000	98.588767 
3988.000000	98.587830 
3987.000000	98.587466 
3986.000000	98.587905 
3985.000000	98.589080 
3984.000000	98.590525 
3983.000000	98.591621 
3982.000000	98.592146 
3981.000000	98.592422 
3980.000000	98.592760 
3979.000000	98.592916 
3978.000000	98.592448 
3977.000000	98.591464 
3976.000000	98.590648 
3975.000000	98.590421 
3974.000000	98.590425 
3973.000000	98.589998 
3972.000000	98.588906 
3971.000000	98.587535 
3970.000000	98.586530 
3969.000000	98.586377 
3968.000000	98.587172 
3967.000000	98.588510 
3966.000000	98.589629 
3965.000000	98.589836 
3964.000000	98.588848 
3963.000000	98.586929 
3962.000000	98.584840 
3961.000000	98.583427 
3960.000000	98.583033 
3959.000000	98.583346 
3958.000000	98.583781 
3957.000000	98.584067 
3956.000000	98.584260 
3955.000000	98.584243 
3954.000000	98.583723 
3953.000000	98.582589 
3952.000000	98.581073 
3951.000000	98.579434 
3950.000000	98.577694 
3949.000000	98.575922 
3948.000000	98.574377 
3947.000000	98.573334 
3946.000000	98.572906 
3945.000000	98.573033 
3944.000000	98.573506 
3943.000000	98.574062 
3942.000000	98.574777 
3941.000000	98.575951 
3940.000000	98.577479 
3939.000000	98.578695 
3938.000000	98.578909 
3937.000000	98.578059 
3936.000000	98.576628 
3935.000000	98.574951 
3934.000000	98.573148 
3933.000000	98.571469 
3932.000000	98.570395 
3931.000000	98.569971 
3930.000000	98.569695 
3929.000000	98.569391 
3928.000000	98.569418 
3927.000000	98.569993 
3926.000000	98.570615 
3925.000000	98.570533 
3924.000000	98.569774 
3923.000000	98.568858 
3922.000000	98.567869 
3921.000000	98.566727 
3920.000000	98.565863 
3919.000000	98.565941 
3918.000000	98.566815 
3917.000000	98.567541 
3916.000000	98.567601 
3915.000000	98.567369 
3914.000000	98.567284 
3913.000000	98.567283 
3912.000000	98.567170 
3911.000000	98.567134 
3910.000000	98.567349 
3909.000000	98.567606 
3908.000000	98.567538 
3907.000000	98.566881 
3906.000000	98.565636 
3905.000000	98.563878 
3904.000000	98.561831 
3903.000000	98.560013 
3902.000000	98.558947 
3901.000000	98.558793 
3900.000000	98.559270 
3899.000000	98.559865 
3898.000000	98.560196 
3897.000000	98.560122 
3896.000000	98.559670 
3895.000000	98.559036 
3894.000000	98.558461 
3893.000000	98.558059 
3892.000000	98.557731 
3891.000000	98.557326 
3890.000000	98.556858 
3889.000000	98.556416 
3888.000000	98.556039 
3887.000000	98.555695 
3886.000000	98.555355 
3885.000000	98.555005 
3884.000000	98.554637 
3883.000000	98.554259 
3882.000000	98.553881 
3881.000000	98.553515 
3880.000000	98.553173 
3879.000000	98.552862 
3878.000000	98.552574 
3877.000000	98.552302 
3876.000000	98.552044 
3875.000000	98.551803 
3874.000000	98.551579 
3873.000000	98.551369 
3872.000000	98.551169 
3871.000000	98.550978 
3870.000000	98.550797 
3869.000000	98.550638 
3868.000000	98.550507 
3867.000000	98.550404 
3866.000000	98.550325 
3865.000000	98.550268 
3864.000000	98.550236 
3863.000000	98.550226 
3862.000000	98.550228 
3861.000000	98.550241 
3860.000000	98.550264 
3859.000000	98.550297 
3858.000000	98.550328 
3857.000000	98.550350 
3856.000000	98.550363 
3855.000000	98.550376 
3854.000000	98.550402 
3853.000000	98.550450 
3852.000000	98.550525 
3851.000000	98.550626 
3850.000000	98.550749 
3849.000000	98.550891 
3848.000000	98.551048 
3847.000000	98.551215 
3846.000000	98.551378 
3845.000000	98.551524 
3844.000000	98.551653 
3843.000000	98.551778 
3842.000000	98.551914 
3841.000000	98.552072 
3840.000000	98.552252 
3839.000000	98.552445 
3838.000000	98.552643 
3837.000000	98.552842 
3836.000000	98.553042 
3835.000000	98.553242 
3834.000000	98.553447 
3833.000000	98.553656 
3832.000000	98.553876 
3831.000000	98.554111 
3830.000000	98.554361 
3829.000000	98.554625 
3828.000000	98.554901 
3827.000000	98.555184 
3826.000000	98.555463 
3825.000000	98.555726 
3824.000000	98.555966 
3823.000000	98.556186 
3822.000000	98.556400 
3821.000000	98.556626 
3820.000000	98.556879 
3819.000000	98.557160 
3818.000000	98.557458 
3817.000000	98.557760 
3816.000000	98.558063 
3815.000000	98.558370 
3814.000000	98.558678 
3813.000000	98.558980 
3812.000000	98.559267 
3811.000000	98.559538 
3810.000000	98.559797 
3809.000000	98.560047 
3808.000000	98.560278 
3807.000000	98.560464 
3806.000000	98.560589 
3805.000000	98.560672 
3804.000000	98.560725 
3803.000000	98.560768 
3802.000000	98.560887 
3801.000000	98.561165 
3800.000000	98.561551 
3799.000000	98.561836 
3798.000000	98.561910 
3797.000000	98.561945 
3796.000000	98.562236 
3795.000000	98.562846 
3794.000000	98.563447 
3793.000000	98.563675 
3792.000000	98.563576 
3791.000000	98.563609 
3790.000000	98.563968 
3789.000000	98.564204 
3788.000000	98.563814 
3787.000000	98.562874 
3786.000000	98.561895 
3785.000000	98.561212 
3784.000000	98.560760 
3783.000000	98.560353 
3782.000000	98.559781 
3781.000000	98.558987 
3780.000000	98.558404 
3779.000000	98.558773 
3778.000000	98.560167 
3777.000000	98.561657 
3776.000000	98.562207 
3775.000000	98.561551 
3774.000000	98.560197 
3773.000000	98.558760 
3772.000000	98.557408 
3771.000000	98.556018 
3770.000000	98.554714 
3769.000000	98.553772 
3768.000000	98.552959 
3767.000000	98.551698 
3766.000000	98.549988 
3765.000000	98.548528 
3764.000000	98.548054 
3763.000000	98.548451 
3762.000000	98.548666 
3761.000000	98.547868 
3760.000000	98.546450 
3759.000000	98.545574 
3758.000000	98.544947 
3757.000000	98.543142 
3756.000000	98.540136 
3755.000000	98.537108 
3754.000000	98.534529 
3753.000000	98.531700 
3752.000000	98.528918 
3751.000000	98.527975 
3750.000000	98.528600 
3749.000000	98.528640 
3748.000000	98.527992 
3747.000000	98.528095 
3746.000000	98.529177 
3745.000000	98.530136 
3744.000000	98.532566 
3743.000000	98.536722 
3742.000000	98.537327 
3741.000000	98.530197 
3740.000000	98.518132 
3739.000000	98.509768 
3738.000000	98.510737 
3737.000000	98.516958 
3736.000000	98.520748 
3735.000000	98.520671 
3734.000000	98.520872 
3733.000000	98.523035 
3732.000000	98.525911 
3731.000000	98.529217 
3730.000000	98.532535 
3729.000000	98.533974 
3728.000000	98.532396 
3727.000000	98.529447 
3726.000000	98.528408 
3725.000000	98.529851 
3724.000000	98.531038 
3723.000000	98.530147 
3722.000000	98.528218 
3721.000000	98.526342 
3720.000000	98.522944 
3719.000000	98.517746 
3718.000000	98.513173 
3717.000000	98.511149 
3716.000000	98.510995 
3715.000000	98.509159 
3714.000000	98.503202 
3713.000000	98.495924 
3712.000000	98.493064 
3711.000000	98.496131 
3710.000000	98.499799 
3709.000000	98.498299 
3708.000000	98.489945 
3707.000000	98.475795 
3706.000000	98.458563 
3705.000000	98.441463 
3704.000000	98.426944 
3703.000000	98.415923 
3702.000000	98.407402 
3701.000000	98.399382 
3700.000000	98.390246 
3699.000000	98.379540 
3698.000000	98.367768 
3697.000000	98.355801 
3696.000000	98.345420 
3695.000000	98.337888 
3694.000000	98.331218 
3693.000000	98.321798 
3692.000000	98.308190 
3691.000000	98.292539 
3690.000000	98.278446 
3689.000000	98.269639 
3688.000000	98.268236 
3687.000000	98.272323 
3686.000000	98.277460 
3685.000000	98.280014 
3684.000000	98.279453 
3683.000000	98.278280 
3682.000000	98.278414 
3681.000000	98.277140 
3680.000000	98.269816 
3679.000000	98.255089 
3678.000000	98.236497 
3677.000000	98.218618 
3676.000000	98.204390 
3675.000000	98.196286 
3674.000000	98.193125 
3673.000000	98.190184 
3672.000000	98.184312 
3671.000000	98.178281 
3670.000000	98.177283 
3669.000000	98.180865 
3668.000000	98.182358 
3667.000000	98.177963 
3666.000000	98.171336 
3665.000000	98.167805 
3664.000000	98.168358 
3663.000000	98.170349 
3662.000000	98.170634 
3661.000000	98.167520 
3660.000000	98.161646 
3659.000000	98.154993 
3658.000000	98.150477 
3657.000000	98.149711 
3656.000000	98.151326 
3655.000000	98.152228 
3654.000000	98.149605 
3653.000000	98.142737 
3652.000000	98.132979 
3651.000000	98.123667 
3650.000000	98.118527 
3649.000000	98.118260 
3648.000000	98.121195 
3647.000000	98.127063 
3646.000000	98.137056 
3645.000000	98.151101 
3644.000000	98.167165 
3643.000000	98.182622 
3642.000000	98.194743 
3641.000000	98.201396 
3640.000000	98.202346 
3639.000000	98.199189 
3638.000000	98.194730 
3637.000000	98.191322 
3636.000000	98.189858 
3635.000000	98.189444 
3634.000000	98.188383 
3633.000000	98.185892 
3632.000000	98.182165 
3631.000000	98.177800 
3630.000000	98.173959 
3629.000000	98.172093 
3628.000000	98.171375 
3627.000000	98.169355 
3626.000000	98.165269 
3625.000000	98.161208 
3624.000000	98.159454 
3623.000000	98.159940 
3622.000000	98.160352 
3621.000000	98.158132 
3620.000000	98.152791 
3619.000000	98.146547 
3618.000000	98.142162 
3617.000000	98.141215 
3616.000000	98.144653 
3615.000000	98.152591 
3614.000000	98.163784 
3613.000000	98.176186 
3612.000000	98.187299 
3611.000000	98.194377 
3610.000000	98.196290 
3609.000000	98.194813 
3608.000000	98.193080 
3607.000000	98.192867 
3606.000000	98.193811 
3605.000000	98.195669 
3604.000000	98.199433 
3603.000000	98.205644 
3602.000000	98.212859 
3601.000000	98.218022 
3600.000000	98.218984 
3599.000000	98.216142 
3598.000000	98.211936 
3597.000000	98.209040 
3596.000000	98.209205 
3595.000000	98.211671 
3594.000000	98.213687 
3593.000000	98.213319 
3592.000000	98.210667 
3591.000000	98.206881 
3590.000000	98.203022 
3589.000000	98.199657 
3588.000000	98.197210 
3587.000000	98.196144 
3586.000000	98.196794 
3585.000000	98.199370 
3584.000000	98.203948 
3583.000000	98.209666 
3582.000000	98.214592 
3581.000000	98.216532 
3580.000000	98.214677 
3579.000000	98.210227 
3578.000000	98.205495 
3577.000000	98.202339 
3576.000000	98.201166 
3575.000000	98.201344 
3574.000000	98.201889 
3573.000000	98.202153 
3572.000000	98.201633 
3571.000000	98.199579 
3570.000000	98.195110 
3569.000000	98.188096 
3568.000000	98.180209 
3567.000000	98.174496 
3566.000000	98.172710 
3565.000000	98.173960 
3564.000000	98.176134 
3563.000000	98.177781 
3562.000000	98.178554 
3561.000000	98.178784 
3560.000000	98.178858 
3559.000000	98.178926 
3558.000000	98.178959 
3557.000000	98.178927 
3556.000000	98.178681 
3555.000000	98.177797 
3554.000000	98.175790 
3553.000000	98.172578 
3552.000000	98.168787 
3551.000000	98.165262 
3550.000000	98.162488 
3549.000000	98.160605 
3548.000000	98.159615 
3547.000000	98.159202 
3546.000000	98.158723 
3545.000000	98.157854 
3544.000000	98.157188 
3543.000000	98.157604 
3542.000000	98.159208 
3541.000000	98.161331 
3540.000000	98.163286 
3539.000000	98.164682 
3538.000000	98.165275 
3537.000000	98.164939 
3536.000000	98.163891 
3535.000000	98.162432 
3534.000000	98.160746 
3533.000000	98.159145 
3532.000000	98.158250 
3531.000000	98.158528 
3530.000000	98.159630 
3529.000000	98.160522 
3528.000000	98.160406 
3527.000000	98.159356 
3526.000000	98.158041 
3525.000000	98.157124 
3524.000000	98.156859 
3523.000000	98.157062 
3522.000000	98.157295 
3521.000000	98.157203 
3520.000000	98.156789 
3519.000000	98.156319 
3518.000000	98.155990 
3517.000000	98.155700 
3516.000000	98.155249 
3515.000000	98.154635 
3514.000000	98.154042 
3513.000000	98.153611 
3512.000000	98.153304 
3511.000000	98.152997 
3510.000000	98.152619 
3509.000000	98.152198 
3508.000000	98.151776 
3507.000000	98.151360 
3506.000000	98.150936 
3505.000000	98.150497 
3504.000000	98.150044 
3503.000000	98.149575 
3502.000000	98.149091 
3501.000000	98.148589 
3500.000000	98.148066 
3499.000000	98.147521 
3498.000000	98.146952 
3497.000000	98.146358 
3496.000000	98.145737 
3495.000000	98.145092 
3494.000000	98.144425 
3493.000000	98.143744 
3492.000000	98.143058 
3491.000000	98.142373 
3490.000000	98.141692 
3489.000000	98.141015 
3488.000000	98.140332 
3487.000000	98.139608 
3486.000000	98.138805 
3485.000000	98.137914 
3484.000000	98.136978 
3483.000000	98.136052 
3482.000000	98.135158 
3481.000000	98.134290 
3480.000000	98.133436 
3479.000000	98.132584 
3478.000000	98.131707 
3477.000000	98.130768 
3476.000000	98.129745 
3475.000000	98.128673 
3474.000000	98.127647 
3473.000000	98.126719 
3472.000000	98.125833 
3471.000000	98.124846 
3470.000000	98.123645 
3469.000000	98.122257 
3468.000000	98.120846 
3467.000000	98.119575 
3466.000000	98.118477 
3465.000000	98.117462 
3464.000000	98.116428 
3463.000000	98.115315 
3462.000000	98.114084 
3461.000000	98.112725 
3460.000000	98.111333 
3459.000000	98.110044 
3458.000000	98.108847 
3457.000000	98.107532 
3456.000000	98.105918 
3455.000000	98.104096 
3454.000000	98.102406 
3453.000000	98.101142 
3452.000000	98.100355 
3451.000000	98.099862 
3450.000000	98.099327 
3449.000000	98.098417 
3448.000000	98.096970 
3447.000000	98.095082 
3446.000000	98.093038 
3445.000000	98.091140 
3444.000000	98.089637 
3443.000000	98.088665 
3442.000000	98.088046 
3441.000000	98.087245 
3440.000000	98.085784 
3439.000000	98.083670 
3438.000000	98.081337 
3437.000000	98.079179 
3436.000000	98.077361 
3435.000000	98.076040 
3434.000000	98.075406 
3433.000000	98.075326 
3432.000000	98.075323 
3431.000000	98.075121 
3430.000000	98.074919 
3429.000000	98.074935 
3428.000000	98.074857 
3427.000000	98.074082 
3426.000000	98.072491 
3425.000000	98.070729 
3424.000000	98.069530 
3423.000000	98.068878 
3422.000000	98.068060 
3421.000000	98.066549 
3420.000000	98.064612 
3419.000000	98.062979 
3418.000000	98.062056 
3417.000000	98.061708 
3416.000000	98.061662 
3415.000000	98.061769 
3414.000000	98.061829 
3413.000000	98.061448 
3412.000000	98.060345 
3411.000000	98.058668 
3410.000000	98.056926 
3409.000000	98.055657 
3408.000000	98.055171 
3407.000000	98.055420 
3406.000000	98.055918 
3405.000000	98.055961 
3404.000000	98.055184 
3403.000000	98.053773 
3402.000000	98.052156 
3401.000000	98.050598 
3400.000000	98.049220 
3399.000000	98.048233 
3398.000000	98.047795 
3397.000000	98.047686 
3396.000000	98.047404 
3395.000000	98.046703 
3394.000000	98.045814 
3393.000000	98.045074 
3392.000000	98.044522 
3391.000000	98.043945 
3390.000000	98.043237 
3389.000000	98.042632 
3388.000000	98.042570 
3387.000000	98.043340 
3386.000000	98.044772 
3385.000000	98.046165 
3384.000000	98.046710 
3383.000000	98.046158 
3382.000000	98.045100 
3381.000000	98.044505 
3380.000000	98.044780 
3379.000000	98.045466 
3378.000000	98.045941 
3377.000000	98.046320 
3376.000000	98.047269 
3375.000000	98.048922 
3374.000000	98.050413 
3373.000000	98.050777 
3372.000000	98.050053 
3371.000000	98.049265 
3370.000000	98.049361 
3369.000000	98.050403 
3368.000000	98.051780 
3367.000000	98.052841 
3366.000000	98.053239 
3365.000000	98.052917 
3364.000000	98.052091 
3363.000000	98.051210 
3362.000000	98.050754 
3361.000000	98.050997 
3360.000000	98.051979 
3359.000000	98.053645 
3358.000000	98.055816 
3357.000000	98.058060 
3356.000000	98.059814 
3355.000000	98.060766 
3354.000000	98.061119 
3353.000000	98.061492 
3352.000000	98.062480 
3351.000000	98.064251 
3350.000000	98.066503 
3349.000000	98.068736 
3348.000000	98.070580 
3347.000000	98.071865 
3346.000000	98.072518 
3345.000000	98.072599 
3344.000000	98.072415 
3343.000000	98.072413 
3342.000000	98.072911 
3341.000000	98.073870 
3340.000000	98.074897 
3339.000000	98.075528 
3338.000000	98.075591 
3337.000000	98.075366 
3336.000000	98.075339 
3335.000000	98.075720 
3334.000000	98.076297 
3333.000000	98.076763 
3332.000000	98.077072 
3331.000000	98.077414 
3330.000000	98.077886 
3329.000000	98.078372 
3328.000000	98.078759 
3327.000000	98.079114 
3326.000000	98.079572 
3325.000000	98.080117 
3324.000000	98.080574 
3323.000000	98.080812 
3322.000000	98.080887 
3321.000000	98.080976 
3320.000000	98.081224 
3319.000000	98.081644 
3318.000000	98.082159 
3317.000000	98.082668 
3316.000000	98.083093 
3315.000000	98.083406 
3314.000000	98.083619 
3313.000000	98.083766 
3312.000000	98.083883 
3311.000000	98.083995 
3310.000000	98.084116 
3309.000000	98.084244 
3308.000000	98.084362 
3307.000000	98.084458 
3306.000000	98.084543 
3305.000000	98.084645 
3304.000000	98.084792 
3303.000000	98.084987 
3302.000000	98.085214 
3301.000000	98.085451 
3300.000000	98.085679 
3299.000000	98.085889 
3298.000000	98.086081 
3297.000000	98.086265 
3296.000000	98.086454 
3295.000000	98.086654 
3294.000000	98.086864 
3293.000000	98.087075 
3292.000000	98.087283 
3291.000000	98.087485 
3290.000000	98.087679 
3289.000000	98.087861 
3288.000000	98.088033 
3287.000000	98.088199 
3286.000000	98.088366 
3285.000000	98.088540 
3284.000000	98.088721 
3283.000000	98.088909 
3282.000000	98.089103 
3281.000000	98.089304 
3280.000000	98.089505 
3279.000000	98.089697 
3278.000000	98.089872 
3277.000000	98.090029 
3276.000000	98.090174 
3275.000000	98.090321 
3274.000000	98.090480 
3273.000000	98.090651 
3272.000000	98.090843 
3271.000000	98.091071 
3270.000000	98.091345 
3269.000000	98.091649 
3268.000000	98.091958 
3267.000000	98.092259 
3266.000000	98.092567 
3265.000000	98.092908 
3264.000000	98.093303 
3263.000000	98.093737 
3262.000000	98.094155 
3261.000000	98.094508 
3260.000000	98.094783 
3259.000000	98.095022 
3258.000000	98.095289 
3257.000000	98.095645 
3256.000000	98.096120 
3255.000000	98.096635 
3254.000000	98.097017 
3253.000000	98.097151 
3252.000000	98.097167 
3251.000000	98.097394 
3250.000000	98.098006 
3249.000000	98.098861 
3248.000000	98.099665 
3247.000000	98.100353 
3246.000000	98.101103 
3245.000000	98.102022 
3244.000000	98.102949 
3243.000000	98.103620 
3242.000000	98.103951 
3241.000000	98.104072 
3240.000000	98.104169 
3239.000000	98.104330 
3238.000000	98.104581 
3237.000000	98.104988 
3236.000000	98.105655 
3235.000000	98.106619 
3234.000000	98.107817 
3233.000000	98.109151 
3232.000000	98.110515 
3231.000000	98.111760 
3230.000000	98.112730 
3229.000000	98.113351 
3228.000000	98.113698 
3227.000000	98.114017 
3226.000000	98.114623 
3225.000000	98.115719 
3224.000000	98.117209 
3223.000000	98.118706 
3222.000000	98.119869 
3221.000000	98.120742 
3220.000000	98.121654 
3219.000000	98.122748 
3218.000000	98.123746 
3217.000000	98.124272 
3216.000000	98.124326 
3215.000000	98.124351 
3214.000000	98.124880 
3213.000000	98.126109 
3212.000000	98.127791 
3211.000000	98.129445 
3210.000000	98.130726 
3209.000000	98.131623 
3208.000000	98.132319 
3207.000000	98.132967 
3206.000000	98.133633 
3205.000000	98.134378 
3204.000000	98.135235 
3203.000000	98.136042 
3202.000000	98.136441 
3201.000000	98.136221 
3200.000000	98.135718 
3199.000000	98.135771 
3198.000000	98.137099 
3197.000000	98.139701 
3196.000000	98.142795 
3195.000000	98.145412 
3194.000000	98.147198 
3193.000000	98.148587 
3192.000000	98.150241 
3191.000000	98.152266 
3190.000000	98.153953 
3189.000000	98.154378 
3188.000000	98.153358 
3187.000000	98.151899 
3186.000000	98.151527 
3185.000000	98.152903 
3184.000000	98.155289 
3183.000000	98.157503 
3182.000000	98.159283 
3181.000000	98.161207 
3180.000000	98.163469 
3179.000000	98.165487 
3178.000000	98.166845 
3177.000000	98.167993 
3176.000000	98.169598 
3175.000000	98.171650 
3174.000000	98.173706 
3173.000000	98.175613 
3172.000000	98.177407 
3171.000000	98.178792 
3170.000000	98.179444 
3169.000000	98.179730 
3168.000000	98.180409 
3167.000000	98.181589 
3166.000000	98.182632 
3165.000000	98.183105 
3164.000000	98.183255 
3163.000000	98.183523 
3162.000000	98.184096 
3161.000000	98.185037 
3160.000000	98.186440 
3159.000000	98.188201 
3158.000000	98.189912 
3157.000000	98.191171 
3156.000000	98.191842 
3155.000000	98.192009 
3154.000000	98.191907 
3153.000000	98.191933 
3152.000000	98.192435 
3151.000000	98.193363 
3150.000000	98.194300 
3149.000000	98.194978 
3148.000000	98.195654 
3147.000000	98.196818 
3146.000000	98.198644 
3145.000000	98.200809 
3144.000000	98.202704 
3143.000000	98.203878 
3142.000000	98.204322 
3141.000000	98.204401 
3140.000000	98.204560 
3139.000000	98.204974 
3138.000000	98.205576 
3137.000000	98.206318 
3136.000000	98.207239 
3135.000000	98.208306 
3134.000000	98.209372 
3133.000000	98.210365 
3132.000000	98.211349 
3131.000000	98.212356 
3130.000000	98.213303 
3129.000000	98.214137 
3128.000000	98.214968 
3127.000000	98.215951 
3126.000000	98.217077 
3125.000000	98.218133 
3124.000000	98.218921 
3123.000000	98.219438 
3122.000000	98.219863 
3121.000000	98.220442 
3120.000000	98.221294 
3119.000000	98.222352 
3118.000000	98.223387 
3117.000000	98.224209 
3116.000000	98.224819 
3115.000000	98.225360 
3114.000000	98.225954 
3113.000000	98.226636 
3112.000000	98.227410 
3111.000000	98.228283 
3110.000000	98.229209 
3109.000000	98.230120 
3108.000000	98.231045 
3107.000000	98.232090 
3106.000000	98.233235 
3105.000000	98.234255 
3104.000000	98.234920 
3103.000000	98.235230 
3102.000000	98.235365 
3101.000000	98.235416 
3100.000000	98.235282 
3099.000000	98.234850 
3098.000000	98.234292 
3097.000000	98.234142 
3096.000000	98.234958 
3095.000000	98.236825 
3094.000000	98.239305 
3093.000000	98.241915 
3092.000000	98.244470 
3091.000000	98.246700 
3090.000000	98.247863 
3089.000000	98.247327 
3088.000000	98.245446 
3087.000000	98.243464 
3086.000000	98.242515 
3085.000000	98.243003 
3084.000000	98.244510 
3083.000000	98.245822 
3082.000000	98.245645 
3081.000000	98.244127 
3080.000000	98.243137 
3079.000000	98.244131 
3078.000000	98.246606 
3077.000000	98.249642 
3076.000000	98.253684 
3075.000000	98.258995 
3074.000000	98.263598 
3073.000000	98.265128 
3072.000000	98.263857 
3071.000000	98.261468 
3070.000000	98.257688 
3069.000000	98.251231 
3068.000000	98.243847 
3067.000000	98.239979 
3066.000000	98.241511 
3065.000000	98.245490 
3064.000000	98.247847 
3063.000000	98.247116 
3062.000000	98.243912 
3061.000000	98.239623 
3060.000000	98.236759 
3059.000000	98.238117 
3058.000000	98.244046 
3057.000000	98.251920 
3056.000000	98.258879 
3055.000000	98.263226 
3054.000000	98.263110 
3053.000000	98.257088 
3052.000000	98.247446 
3051.000000	98.240056 
3050.000000	98.238541 
3049.000000	98.240387 
3048.000000	98.240689 
3047.000000	98.237769 
3046.000000	98.233000 
3045.000000	98.227244 
3044.000000	98.220627 
3043.000000	98.214996 
3042.000000	98.213271 
3041.000000	98.215551 
3040.000000	98.217715 
3039.000000	98.215043 
3038.000000	98.206598 
3037.000000	98.195536 
3036.000000	98.185313 
3035.000000	98.175851 
3034.000000	98.163803 
3033.000000	98.146655 
3032.000000	98.125961 
3031.000000	98.106104 
3030.000000	98.090265 
3029.000000	98.078432 
3028.000000	98.068601 
3027.000000	98.058113 
3026.000000	98.044321 
3025.000000	98.026161 
3024.000000	98.005557 
3023.000000	97.985728 
3022.000000	97.967864 
3021.000000	97.951088 
3020.000000	97.935264 
3019.000000	97.921047 
3018.000000	97.906637 
3017.000000	97.887621 
3016.000000	97.861856 
3015.000000	97.832374 
3014.000000	97.804016 
3013.000000	97.779087 
3012.000000	97.757509 
3011.000000	97.738477 
3010.000000	97.719710 
3009.000000	97.697367 
3008.000000	97.669536 
3007.000000	97.638661 
3006.000000	97.608336 
3005.000000	97.579195 
3004.000000	97.550613 
3003.000000	97.524842 
3002.000000	97.505565 
3001.000000	97.492118 
3000.000000	97.478283 
2999.000000	97.458070 
2998.000000	97.431117 
2997.000000	97.402037 
2996.000000	97.375914 
2995.000000	97.354230 
2994.000000	97.333002 
2993.000000	97.304609 
2992.000000	97.264213 
2991.000000	97.216245 
2990.000000	97.173264 
2989.000000	97.146862 
2988.000000	97.140083 
2987.000000	97.147950 
2986.000000	97.162820 
2985.000000	97.178297 
2984.000000	97.189942 
2983.000000	97.195522 
2982.000000	97.195662 
2981.000000	97.192940 
2980.000000	97.189247 
2979.000000	97.184153 
2978.000000	97.176238 
2977.000000	97.165786 
2976.000000	97.155705 
2975.000000	97.149591 
2974.000000	97.149162 
2973.000000	97.153794 
2972.000000	97.162115 
2971.000000	97.173183 
2970.000000	97.185937 
2969.000000	97.198646 
2968.000000	97.210026 
2967.000000	97.220619 
2966.000000	97.232206 
2965.000000	97.245833 
2964.000000	97.260904 
2963.000000	97.275935 
2962.000000	97.289645 
2961.000000	97.301664 
2960.000000	97.313065 
2959.000000	97.326087 
2958.000000	97.342283 
2957.000000	97.360484 
2956.000000	97.377097 
2955.000000	97.388927 
2954.000000	97.396046 
2953.000000	97.402268 
2952.000000	97.412853 
2951.000000	97.430568 
2950.000000	97.452707 
2949.000000	97.472182 
2948.000000	97.482709 
2947.000000	97.483297 
2946.000000	97.477889 
2945.000000	97.471271 
2944.000000	97.465847 
2943.000000	97.461882 
2942.000000	97.458965 
2941.000000	97.456307 
2940.000000	97.452968 
2939.000000	97.449197 
2938.000000	97.447030 
2937.000000	97.448421 
2936.000000	97.452525 
2935.000000	97.455305 
2934.000000	97.452223 
2933.000000	97.441469 
2932.000000	97.425136 
2931.000000	97.407725 
2930.000000	97.393356 
2929.000000	97.383862 
2928.000000	97.378845 
2927.000000	97.376837 
2926.000000	97.376282 
2925.000000	97.376185 
2924.000000	97.376612 
2923.000000	97.378410 
2922.000000	97.381782 
2921.000000	97.385285 
2920.000000	97.387160 
2919.000000	97.387587 
2918.000000	97.388442 
2917.000000	97.390245 
2916.000000	97.390570 
2915.000000	97.386798 
2914.000000	97.380065 
2913.000000	97.374916 
2912.000000	97.374676 
2911.000000	97.378192 
2910.000000	97.381819 
2909.000000	97.383758 
2908.000000	97.385312 
2907.000000	97.387892 
2906.000000	97.389892 
2905.000000	97.387219 
2904.000000	97.377288 
2903.000000	97.362758 
2902.000000	97.351933 
2901.000000	97.353501 
2900.000000	97.370392 
2899.000000	97.397564 
2898.000000	97.425375 
2897.000000	97.446495 
2896.000000	97.459435 
2895.000000	97.466615 
2894.000000	97.471362 
2893.000000	97.477039 
2892.000000	97.486505 
2891.000000	97.499955 
2890.000000	97.513876 
2889.000000	97.524114 
2888.000000	97.529977 
2887.000000	97.533980 
2886.000000	97.538077 
2885.000000	97.542338 
2884.000000	97.547540 
2883.000000	97.556379 
2882.000000	97.570560 
2881.000000	97.588419 
2880.000000	97.607129 
2879.000000	97.626114 
2878.000000	97.646168 
2877.000000	97.666034 
2876.000000	97.682393 
2875.000000	97.693555 
2874.000000	97.701191 
2873.000000	97.707804 
2872.000000	97.714124 
2871.000000	97.719955 
2870.000000	97.726220 
2869.000000	97.734595 
2868.000000	97.745621 
2867.000000	97.758387 
2866.000000	97.771859 
2865.000000	97.785561 
2864.000000	97.799217 
2863.000000	97.812927 
2862.000000	97.827770 
2861.000000	97.844969 
2860.000000	97.863829 
2859.000000	97.881419 
2858.000000	97.895168 
2857.000000	97.905528 
2856.000000	97.915293 
2855.000000	97.926462 
2854.000000	97.938711 
2853.000000	97.950860 
2852.000000	97.962858 
2851.000000	97.975802 
2850.000000	97.990541 
2849.000000	98.007005 
2848.000000	98.024780 
2847.000000	98.043574 
2846.000000	98.062695 
2845.000000	98.080508 
2844.000000	98.095113 
2843.000000	98.105918 
2842.000000	98.114445 
2841.000000	98.123173 
2840.000000	98.133283 
2839.000000	98.143732 
2838.000000	98.152821 
2837.000000	98.160416 
2836.000000	98.168116 
2835.000000	98.177245 
2834.000000	98.187406 
2833.000000	98.197400 
2832.000000	98.206753 
2831.000000	98.215407 
2830.000000	98.222237 
2829.000000	98.225217 
2828.000000	98.223606 
2827.000000	98.219564 
2826.000000	98.217173 
2825.000000	98.219607 
2824.000000	98.226903 
2823.000000	98.235951 
2822.000000	98.242765 
2821.000000	98.245480 
2820.000000	98.245459 
2819.000000	98.245352 
2818.000000	98.246267 
2817.000000	98.247559 
2816.000000	98.249201 
2815.000000	98.252884 
2814.000000	98.259756 
2813.000000	98.267829 
2812.000000	98.273107 
2811.000000	98.273565 
2810.000000	98.271348 
2809.000000	98.270784 
2808.000000	98.274513 
2807.000000	98.281691 
2806.000000	98.289318 
2805.000000	98.294752 
2804.000000	98.297184 
2803.000000	98.297496 
2802.000000	98.297290 
2801.000000	98.297848 
2800.000000	98.299396 
2799.000000	98.301018 
2798.000000	98.301517 
2797.000000	98.300685 
2796.000000	98.299673 
2795.000000	98.299882 
2794.000000	98.301660 
2793.000000	98.304312 
2792.000000	98.307149 
2791.000000	98.310013 
2790.000000	98.312824 
2789.000000	98.315254 
2788.000000	98.317165 
2787.000000	98.318935 
2786.000000	98.321010 
2785.000000	98.323332 
2784.000000	98.325416 
2783.000000	98.326891 
2782.000000	98.327885 
2781.000000	98.328856 
2780.000000	98.330109 
2779.000000	98.331601 
2778.000000	98.333130 
2777.000000	98.334563 
2776.000000	98.335902 
2775.000000	98.337229 
2774.000000	98.338599 
2773.000000	98.339981 
2772.000000	98.341293 
2771.000000	98.342503 
2770.000000	98.343665 
2769.000000	98.344832 
2768.000000	98.346014 
2767.000000	98.347190 
2766.000000	98.348349 
2765.000000	98.349487 
2764.000000	98.350605 
2763.000000	98.351707 
2762.000000	98.352797 
2761.000000	98.353877 
2760.000000	98.354951 
2759.000000	98.356028 
2758.000000	98.357109 
2757.000000	98.358190 
2756.000000	98.359264 
2755.000000	98.360324 
2754.000000	98.361369 
2753.000000	98.362402 
2752.000000	98.363425 
2751.000000	98.364437 
2750.000000	98.365432 
2749.000000	98.366405 
2748.000000	98.367355 
2747.000000	98.368281 
2746.000000	98.369188 
2745.000000	98.370084 
2744.000000	98.370979 
2743.000000	98.371877 
2742.000000	98.372777 
2741.000000	98.373674 
2740.000000	98.374567 
2739.000000	98.375459 
2738.000000	98.376354 
2737.000000	98.377250 
2736.000000	98.378145 
2735.000000	98.379042 
2734.000000	98.379951 
2733.000000	98.380876 
2732.000000	98.381819 
2731.000000	98.382781 
2730.000000	98.383766 
2729.000000	98.384774 
2728.000000	98.385795 
2727.000000	98.386807 
2726.000000	98.387780 
2725.000000	98.388699 
2724.000000	98.389584 
2723.000000	98.390462 
2722.000000	98.391340 
2721.000000	98.392208 
2720.000000	98.393061 
2719.000000	98.393911 
2718.000000	98.394770 
2717.000000	98.395632 
2716.000000	98.396484 
2715.000000	98.397317 
2714.000000	98.398141 
2713.000000	98.398962 
2712.000000	98.399772 
2711.000000	98.400554 
2710.000000	98.401302 
2709.000000	98.402028 
2708.000000	98.402756 
2707.000000	98.403507 
2706.000000	98.404280 
2705.000000	98.405056 
2704.000000	98.405804 
2703.000000	98.406507 
2702.000000	98.407162 
2701.000000	98.407794 
2700.000000	98.408443 
2699.000000	98.409133 
2698.000000	98.409847 
2697.000000	98.410510 
2696.000000	98.411058 
2695.000000	98.411493 
2694.000000	98.411878 
2693.000000	98.412286 
2692.000000	98.412734 
2691.000000	98.413195 
2690.000000	98.413611 
2689.000000	98.413937 
2688.000000	98.414165 
2687.000000	98.414324 
2686.000000	98.414450 
2685.000000	98.414571 
2684.000000	98.414707 
2683.000000	98.414852 
2682.000000	98.414966 
2681.000000	98.415014 
2680.000000	98.415030 
2679.000000	98.415112 
2678.000000	98.415352 
2677.000000	98.415763 
2676.000000	98.416250 
2675.000000	98.416583 
2674.000000	98.416512 
2673.000000	98.416003 
2672.000000	98.415357 
2671.000000	98.414978 
2670.000000	98.414993 
2669.000000	98.415168 
2668.000000	98.415182 
2667.000000	98.414886 
2666.000000	98.414282 
2665.000000	98.413448 
2664.000000	98.412585 
2663.000000	98.412012 
2662.000000	98.411952 
2661.000000	98.412291 
2660.000000	98.412605 
2659.000000	98.412478 
2658.000000	98.411805 
2657.000000	98.410834 
2656.000000	98.409953 
2655.000000	98.409373 
2654.000000	98.408971 
2653.000000	98.408439 
2652.000000	98.407618 
2651.000000	98.406683 
2650.000000	98.406025 
2649.000000	98.405931 
2648.000000	98.406291 
2647.000000	98.406532 
2646.000000	98.405899 
2645.000000	98.404035 
2644.000000	98.401411 
2643.000000	98.399153 
2642.000000	98.398200 
2641.000000	98.398608 
2640.000000	98.399566 
2639.000000	98.400077 
2638.000000	98.399811 
2637.000000	98.399394 
2636.000000	98.399873 
2635.000000	98.401809 
2634.000000	98.404786 
2633.000000	98.407625 
2632.000000	98.409065 
2631.000000	98.408461 
2630.000000	98.406204 
2629.000000	98.403690 
2628.000000	98.402384 
2627.000000	98.402506 
2626.000000	98.402957 
2625.000000	98.402745 
2624.000000	98.402231 
2623.000000	98.402538 
2622.000000	98.403920 
2621.000000	98.405300 
2620.000000	98.405377 
2619.000000	98.403705 
2618.000000	98.400711 
2617.000000	98.397342 
2616.000000	98.394737 
2615.000000	98.393676 
2614.000000	98.394075 
2613.000000	98.395204 
2612.000000	98.396561 
2611.000000	98.398340 
2610.000000	98.400970 
2609.000000	98.404442 
2608.000000	98.408121 
2607.000000	98.411055 
2606.000000	98.412614 
2605.000000	98.412983 
2604.000000	98.412793 
2603.000000	98.412195 
2602.000000	98.410826 
2601.000000	98.408910 
2600.000000	98.407565 
2599.000000	98.407385 
2598.000000	98.407464 
2597.000000	98.406733 
2596.000000	98.405692 
2595.000000	98.405696 
2594.000000	98.407002 
2593.000000	98.408792 
2592.000000	98.410757 
2591.000000	98.413134 
2590.000000	98.415224 
2589.000000	98.415596 
2588.000000	98.414233 
2587.000000	98.412993 
2586.000000	98.413316 
2585.000000	98.414720 
2584.000000	98.416134 
2583.000000	98.417471 
2582.000000	98.418942 
2581.000000	98.420039 
2580.000000	98.420468 
2579.000000	98.421261 
2578.000000	98.423632 
2577.000000	98.427085 
2576.000000	98.429691 
2575.000000	98.430094 
2574.000000	98.428292 
2573.000000	98.425024 
2572.000000	98.421365 
2571.000000	98.418561 
2570.000000	98.417334 
2569.000000	98.417375 
2568.000000	98.418030 
2567.000000	98.419259 
2566.000000	98.421277 
2565.000000	98.423586 
2564.000000	98.425268 
2563.000000	98.426152 
2562.000000	98.426818 
2561.000000	98.427607 
2560.000000	98.428463 
2559.000000	98.429623 
2558.000000	98.431416 
2557.000000	98.433299 
2556.000000	98.434173 
2555.000000	98.433891 
2554.000000	98.433442 
2553.000000	98.433292 
2552.000000	98.432689 
2551.000000	98.431365 
2550.000000	98.430823 
2549.000000	98.432654 
2548.000000	98.435988 
2547.000000	98.437952 
2546.000000	98.437016 
2545.000000	98.434510 
2544.000000	98.432657 
2543.000000	98.431761 
2542.000000	98.430618 
2541.000000	98.428864 
2540.000000	98.427489 
2539.000000	98.427091 
2538.000000	98.426880 
2537.000000	98.425941 
2536.000000	98.424662 
2535.000000	98.424145 
2534.000000	98.424632 
2533.000000	98.425331 
2532.000000	98.425602 
2531.000000	98.425558 
2530.000000	98.425374 
2529.000000	98.424735 
2528.000000	98.423337 
2527.000000	98.421616 
2526.000000	98.420508 
2525.000000	98.420508 
2524.000000	98.421267 
2523.000000	98.421999 
2522.000000	98.422282 
2521.000000	98.422438 
2520.000000	98.423092 
2519.000000	98.424424 
2518.000000	98.425950 
2517.000000	98.426961 
2516.000000	98.427115 
2515.000000	98.426593 
2514.000000	98.425903 
2513.000000	98.425578 
2512.000000	98.425844 
2511.000000	98.426493 
2510.000000	98.427155 
2509.000000	98.427794 
2508.000000	98.428679 
2507.000000	98.429790 
2506.000000	98.430596 
2505.000000	98.430733 
2504.000000	98.430596 
2503.000000	98.430952 
2502.000000	98.431956 
2501.000000	98.432933 
2500.000000	98.433272 
2499.000000	98.433262 
2498.000000	98.433652 
2497.000000	98.434636 
2496.000000	98.435744 
2495.000000	98.436599 
2494.000000	98.437354 
2493.000000	98.438347 
2492.000000	98.439789 
2491.000000	98.441774 
2490.000000	98.444172 
2489.000000	98.446392 
2488.000000	98.447696 
2487.000000	98.447925 
2486.000000	98.447730 
2485.000000	98.448026 
2484.000000	98.449208 
2483.000000	98.450994 
2482.000000	98.452685 
2481.000000	98.453591 
2480.000000	98.453501 
2479.000000	98.452893 
2478.000000	98.452617 
2477.000000	98.453153 
2476.000000	98.454321 
2475.000000	98.455616 
2474.000000	98.456640 
2473.000000	98.457164 
2472.000000	98.457067 
2471.000000	98.456484 
2470.000000	98.455943 
2469.000000	98.456049 
2468.000000	98.456847 
2467.000000	98.457629 
2466.000000	98.457503 
2465.000000	98.456257 
2464.000000	98.454671 
2463.000000	98.453920 
2462.000000	98.454623 
2461.000000	98.456536 
2460.000000	98.459013 
2459.000000	98.461535 
2458.000000	98.463870 
2457.000000	98.465874 
2456.000000	98.467342 
2455.000000	98.468008 
2454.000000	98.467712 
2453.000000	98.466647 
2452.000000	98.465336 
2451.000000	98.464283 
2450.000000	98.463717 
2449.000000	98.463771 
2448.000000	98.464606 
2447.000000	98.466053 
2446.000000	98.467398 
2445.000000	98.467989 
2444.000000	98.467979 
2443.000000	98.468013 
2442.000000	98.468289 
2441.000000	98.468508 
2440.000000	98.468637 
2439.000000	98.469034 
2438.000000	98.469737 
2437.000000	98.470279 
2436.000000	98.470394 
2435.000000	98.470313 
2434.000000	98.470150 
2433.000000	98.469710 
2432.000000	98.469265 
2431.000000	98.469805 
2430.000000	98.471915 
2429.000000	98.474819 
2428.000000	98.476982 
2427.000000	98.477580 
2426.000000	98.476842 
2425.000000	98.475433 
2424.000000	98.473936 
2423.000000	98.472769 
2422.000000	98.472098 
2421.000000	98.471739 
2420.000000	98.471563 
2419.000000	98.472007 
2418.000000	98.473857 
2417.000000	98.477314 
2416.000000	98.481419 
2415.000000	98.484859 
2414.000000	98.486776 
2413.000000	98.487256 
2412.000000	98.487254 
2411.000000	98.487648 
2410.000000	98.488440 
2409.000000	98.489140 
2408.000000	98.489818 
2407.000000	98.491084 
2406.000000	98.492867 
2405.000000	98.494037 
2404.000000	98.493745 
2403.000000	98.492581 
2402.000000	98.491911 
2401.000000	98.492470 
2400.000000	98.494151 
2399.000000	98.496710 
2398.000000	98.499914 
2397.000000	98.503017 
2396.000000	98.504750 
2395.000000	98.504044 
2394.000000	98.500763 
2393.000000	98.496074 
2392.000000	98.492005 
2391.000000	98.490322 
2390.000000	98.491244 
2389.000000	98.493486 
2388.000000	98.495763 
2387.000000	98.497980 
2386.000000	98.500696 
2385.000000	98.503779 
2384.000000	98.506203 
2383.000000	98.507010 
2382.000000	98.505915 
2381.000000	98.503106 
2380.000000	98.498977 
2379.000000	98.494034 
2378.000000	98.488634 
2377.000000	98.483097 
2376.000000	98.478428 
2375.000000	98.476325 
2374.000000	98.477573 
2373.000000	98.480687 
2372.000000	98.482580 
2371.000000	98.481669 
2370.000000	98.479154 
2369.000000	98.477101 
2368.000000	98.475916 
2367.000000	98.474508 
2366.000000	98.472273 
2365.000000	98.469686 
2364.000000	98.467351 
2363.000000	98.465564 
2362.000000	98.464541 
2361.000000	98.464233 
2360.000000	98.464371 
2359.000000	98.464582 
2358.000000	98.464661 
2357.000000	98.464564 
2356.000000	98.464124 
2355.000000	98.463193 
2354.000000	98.461624 
2353.000000	98.459988 
2352.000000	98.459329 
2351.000000	98.459890 
2350.000000	98.460988 
2349.000000	98.461551 
2348.000000	98.461263 
2347.000000	98.460527 
2346.000000	98.460224 
2345.000000	98.461090 
2344.000000	98.462832 
2343.000000	98.464606 
2342.000000	98.465626 
2341.000000	98.466108 
2340.000000	98.466965 
2339.000000	98.468288 
2338.000000	98.468759 
2337.000000	98.467273 
2336.000000	98.465302 
2335.000000	98.465316 
2334.000000	98.467019 
2333.000000	98.468052 
2332.000000	98.468721 
2331.000000	98.471611 
2330.000000	98.477738 
2329.000000	98.483870 
2328.000000	98.487787 
2327.000000	98.489373 
2326.000000	98.489025 
2325.000000	98.487898 
2324.000000	98.487870 
2323.000000	98.491642 
2322.000000	98.497271 
2321.000000	98.500776 
2320.000000	98.501529 
2319.000000	98.503749 
2318.000000	98.510515 
2317.000000	98.518545 
2316.000000	98.522939 
2315.000000	98.522321 
2314.000000	98.520223 
2313.000000	98.520331 
2312.000000	98.524640 
2311.000000	98.532263 
2310.000000	98.539781 
2309.000000	98.543360 
2308.000000	98.542800 
2307.000000	98.541986 
2306.000000	98.543244 
2305.000000	98.544856 
2304.000000	98.544592 
2303.000000	98.544356 
2302.000000	98.547190 
2301.000000	98.551344 
2300.000000	98.550966 
2299.000000	98.542573 
2298.000000	98.528807 
2297.000000	98.514959 
2296.000000	98.504977 
2295.000000	98.499954 
2294.000000	98.498614 
2293.000000	98.498003 
2292.000000	98.495489 
2291.000000	98.491430 
2290.000000	98.488100 
2289.000000	98.486540 
2288.000000	98.484893 
2287.000000	98.481329 
2286.000000	98.476657 
2285.000000	98.473558 
2284.000000	98.473218 
2283.000000	98.474139 
2282.000000	98.473661 
2281.000000	98.470498 
2280.000000	98.465406 
2279.000000	98.459827 
2278.000000	98.454613 
2277.000000	98.450513 
2276.000000	98.449112 
2275.000000	98.451360 
2274.000000	98.455633 
2273.000000	98.458807 
2272.000000	98.459735 
2271.000000	98.459955 
2270.000000	98.460952 
2269.000000	98.462699 
2268.000000	98.465072 
2267.000000	98.468478 
2266.000000	98.472399 
2265.000000	98.475092 
2264.000000	98.475424 
2263.000000	98.473410 
2262.000000	98.468836 
2261.000000	98.461435 
2260.000000	98.452969 
2259.000000	98.447030 
2258.000000	98.445396 
2257.000000	98.446534 
2256.000000	98.448181 
2255.000000	98.450043 
2254.000000	98.452737 
2253.000000	98.455476 
2252.000000	98.456861 
2251.000000	98.456820 
2250.000000	98.455847 
2249.000000	98.453467 
2248.000000	98.449546 
2247.000000	98.445847 
2246.000000	98.444387 
2245.000000	98.444663 
2244.000000	98.444194 
2243.000000	98.441707 
2242.000000	98.438237 
2241.000000	98.435519 
2240.000000	98.434151 
2239.000000	98.433658 
2238.000000	98.433352 
2237.000000	98.432777 
2236.000000	98.431754 
2235.000000	98.430365 
2234.000000	98.428860 
2233.000000	98.427444 
2232.000000	98.426205 
2231.000000	98.425160 
2230.000000	98.424163 
2229.000000	98.422809 
2228.000000	98.420793 
2227.000000	98.418367 
2226.000000	98.416182 
2225.000000	98.414496 
2224.000000	98.412919 
2223.000000	98.411126 
2222.000000	98.409507 
2221.000000	98.408592 
2220.000000	98.408253 
2219.000000	98.407897 
2218.000000	98.407164 
2217.000000	98.406186 
2216.000000	98.405228 
2215.000000	98.404280 
2214.000000	98.403040 
2213.000000	98.401219 
2212.000000	98.398856 
2211.000000	98.396463 
2210.000000	98.394694 
2209.000000	98.393697 
2208.000000	98.393019 
2207.000000	98.392004 
2206.000000	98.390422 
2205.000000	98.388678 
2204.000000	98.387537 
2203.000000	98.387592 
2202.000000	98.388828 
2201.000000	98.390545 
2200.000000	98.391625 
2199.000000	98.391019 
2198.000000	98.388427 
2197.000000	98.384784 
2196.000000	98.381654 
2195.000000	98.379769 
2194.000000	98.378674 
2193.000000	98.377944 
2192.000000	98.378032 
2191.000000	98.379026 
2190.000000	98.379268 
2189.000000	98.376924 
2188.000000	98.373018 
2187.000000	98.371000 
2186.000000	98.372330 
2185.000000	98.374265 
2184.000000	98.373673 
2183.000000	98.371914 
2182.000000	98.373199 
2181.000000	98.378479 
2180.000000	98.383490 
2179.000000	98.383619 
2178.000000	98.378925 
2177.000000	98.373672 
2176.000000	98.372106 
2175.000000	98.375408 
2174.000000	98.381940 
2173.000000	98.389211 
2172.000000	98.395831 
2171.000000	98.401646 
2170.000000	98.405770 
2169.000000	98.405424 
2168.000000	98.398330 
2167.000000	98.386472 
2166.000000	98.375831 
2165.000000	98.370782 
2164.000000	98.370172 
2163.000000	98.370328 
2162.000000	98.371392 
2161.000000	98.378422 
2160.000000	98.395506 
2159.000000	98.420404 
2158.000000	98.445266 
2157.000000	98.462805 
2156.000000	98.470939 
2155.000000	98.471846 
2154.000000	98.469175 
2153.000000	98.466673 
2152.000000	98.466999 
2151.000000	98.469518 
2150.000000	98.470189 
2149.000000	98.466030 
2148.000000	98.459775 
2147.000000	98.457770 
2146.000000	98.462651 
2145.000000	98.470611 
2144.000000	98.476945 
2143.000000	98.481657 
2142.000000	98.487220 
2141.000000	98.493153 
2140.000000	98.496384 
2139.000000	98.496527 
2138.000000	98.497682 
2137.000000	98.503837 
2136.000000	98.513790 
2135.000000	98.521609 
2134.000000	98.522036 
2133.000000	98.515356 
2132.000000	98.507468 
2131.000000	98.504705 
2130.000000	98.508716 
2129.000000	98.516919 
2128.000000	98.526729 
2127.000000	98.537413 
2126.000000	98.547546 
2125.000000	98.553461 
2124.000000	98.552330 
2123.000000	98.545096 
2122.000000	98.534900 
2121.000000	98.523723 
2120.000000	98.511977 
2119.000000	98.500594 
2118.000000	98.491590 
2117.000000	98.486470 
2116.000000	98.484773 
2115.000000	98.484051 
2114.000000	98.481089 
2113.000000	98.474570 
2112.000000	98.467460 
2111.000000	98.465042 
2110.000000	98.469278 
2109.000000	98.476412 
2108.000000	98.481179 
2107.000000	98.482097 
2106.000000	98.480951 
2105.000000	98.479166 
2104.000000	98.477288 
2103.000000	98.476388 
2102.000000	98.476745 
2101.000000	98.475846 
2100.000000	98.470959 
2099.000000	98.463946 
2098.000000	98.460636 
2097.000000	98.464412 
2096.000000	98.472786 
2095.000000	98.480343 
2094.000000	98.483779 
2093.000000	98.483161 
2092.000000	98.479892 
2091.000000	98.475483 
2090.000000	98.471619 
2089.000000	98.469683 
2088.000000	98.469604 
2087.000000	98.469693 
2086.000000	98.468069 
2085.000000	98.464310 
2084.000000	98.459660 
2083.000000	98.455725 
2082.000000	98.453055 
2081.000000	98.451145 
2080.000000	98.449531 
2079.000000	98.448412 
2078.000000	98.448005 
2077.000000	98.447746 
2076.000000	98.446820 
2075.000000	98.445276 
2074.000000	98.443830 
2073.000000	98.442478 
2072.000000	98.440155 
2071.000000	98.436320 
2070.000000	98.432040 
2069.000000	98.428899 
2068.000000	98.427364 
2067.000000	98.426561 
2066.000000	98.425247 
2065.000000	98.422760 
2064.000000	98.419249 
2063.000000	98.415458 
2062.000000	98.412513 
2061.000000	98.411414 
2060.000000	98.412299 
2059.000000	98.414270 
2058.000000	98.415743 
2057.000000	98.415516 
2056.000000	98.413479 
2055.000000	98.410200 
2054.000000	98.406548 
2053.000000	98.403289 
2052.000000	98.400853 
2051.000000	98.399149 
2050.000000	98.397706 
2049.000000	98.396268 
2048.000000	98.395124 
2047.000000	98.394632 
2046.000000	98.394649 
2045.000000	98.394690 
2044.000000	98.394511 
2043.000000	98.394227 
2042.000000	98.393936 
2041.000000	98.393488 
2040.000000	98.392813 
2039.000000	98.392311 
2038.000000	98.392559 
2037.000000	98.393613 
2036.000000	98.394733 
2035.000000	98.394999 
2034.000000	98.394275 
2033.000000	98.393596 
2032.000000	98.394265 
2031.000000	98.396187 
2030.000000	98.397345 
2029.000000	98.395642 
2028.000000	98.391042 
2027.000000	98.385720 
2026.000000	98.381986 
2025.000000	98.380694 
2024.000000	98.381866 
2023.000000	98.385617 
2022.000000	98.391701 
2021.000000	98.398528 
2020.000000	98.403435 
2019.000000	98.404078 
2018.000000	98.399602 
2017.000000	98.391769 
2016.000000	98.384983 
2015.000000	98.382849 
2014.000000	98.384548 
2013.000000	98.385246 
2012.000000	98.381464 
2011.000000	98.375441 
2010.000000	98.372624 
2009.000000	98.375681 
2008.000000	98.382739 
2007.000000	98.390326 
2006.000000	98.396492 
2005.000000	98.401020 
2004.000000	98.404675 
2003.000000	98.408304 
2002.000000	98.411288 
2001.000000	98.411242 
2000.000000	98.406629 
1999.000000	98.398696 
1998.000000	98.389429 
1997.000000	98.379285 
1996.000000	98.368900 
1995.000000	98.361237 
1994.000000	98.359275 
1993.000000	98.362186 
1992.000000	98.365988 
1991.000000	98.368435 
1990.000000	98.370823 
1989.000000	98.374310 
1988.000000	98.377379 
1987.000000	98.377696 
1986.000000	98.374761 
1985.000000	98.370159 
1984.000000	98.366181 
1983.000000	98.364408 
1982.000000	98.364703 
1981.000000	98.365511 
1980.000000	98.366087 
1979.000000	98.367607 
1978.000000	98.370703 
1977.000000	98.373258 
1976.000000	98.372987 
1975.000000	98.371417 
1974.000000	98.372504 
1973.000000	98.377870 
1972.000000	98.385251 
1971.000000	98.391086 
1970.000000	98.393211 
1969.000000	98.391155 
1968.000000	98.386082 
1967.000000	98.380804 
1966.000000	98.378411 
1965.000000	98.379895 
1964.000000	98.384158 
1963.000000	98.389596 
1962.000000	98.394961 
1961.000000	98.399096 
1960.000000	98.401076 
1959.000000	98.401069 
1958.000000	98.400566 
1957.000000	98.401307 
1956.000000	98.403767 
1955.000000	98.406931 
1954.000000	98.409329 
1953.000000	98.410313 
1952.000000	98.410311 
1951.000000	98.410274 
1950.000000	98.411093 
1949.000000	98.413208 
1948.000000	98.416404 
1947.000000	98.419893 
1946.000000	98.422770 
1945.000000	98.424481 
1944.000000	98.424817 
1943.000000	98.423649 
1942.000000	98.421035 
1941.000000	98.417641 
1940.000000	98.414694 
1939.000000	98.413315 
1938.000000	98.414012 
1937.000000	98.416771 
1936.000000	98.421273 
1935.000000	98.426649 
1934.000000	98.431398 
1933.000000	98.434607 
1932.000000	98.436903 
1931.000000	98.439457 
1930.000000	98.442405 
1929.000000	98.444776 
1928.000000	98.446412 
1927.000000	98.448401 
1926.000000	98.451186 
1925.000000	98.453545 
1924.000000	98.453970 
1923.000000	98.452748 
1922.000000	98.451412 
1921.000000	98.450561 
1920.000000	98.449957 
1919.000000	98.449756 
1918.000000	98.450153 
1917.000000	98.450474 
1916.000000	98.450086 
1915.000000	98.449846 
1914.000000	98.450803 
1913.000000	98.452410 
1912.000000	98.453155 
1911.000000	98.452462 
1910.000000	98.451210 
1909.000000	98.450542 
1908.000000	98.451122 
1907.000000	98.452788 
1906.000000	98.454362 
1905.000000	98.454353 
1904.000000	98.452471 
1903.000000	98.450325 
1902.000000	98.449721 
1901.000000	98.450589 
1900.000000	98.451621 
1899.000000	98.452157 
1898.000000	98.452588 
1897.000000	98.453167 
1896.000000	98.453327 
1895.000000	98.452490 
1894.000000	98.450858 
1893.000000	98.449312 
1892.000000	98.448701 
1891.000000	98.449328 
1890.000000	98.450918 
1889.000000	98.452850 
1888.000000	98.454607 
1887.000000	98.456029 
1886.000000	98.457090 
1885.000000	98.457715 
1884.000000	98.457936 
1883.000000	98.458058 
1882.000000	98.458471 
1881.000000	98.459301 
1880.000000	98.460387 
1879.000000	98.461447 
1878.000000	98.462287 
1877.000000	98.462944 
1876.000000	98.463706 
1875.000000	98.464873 
1874.000000	98.466492 
1873.000000	98.468352 
1872.000000	98.470124 
1871.000000	98.471659 
1870.000000	98.473003 
1869.000000	98.474329 
1868.000000	98.475782 
1867.000000	98.477377 
1866.000000	98.479006 
1865.000000	98.480520 
1864.000000	98.481930 
1863.000000	98.483534 
1862.000000	98.485623 
1861.000000	98.488048 
1860.000000	98.490352 
1859.000000	98.492414 
1858.000000	98.494523 
1857.000000	98.496780 
1856.000000	98.498911 
1855.000000	98.500765 
1854.000000	98.502523 
1853.000000	98.504332 
1852.000000	98.506312 
1851.000000	98.508831 
1850.000000	98.512049 
1849.000000	98.515381 
1848.000000	98.517900 
1847.000000	98.519575 
1846.000000	98.521387 
1845.000000	98.523892 
1844.000000	98.526346 
1843.000000	98.528150 
1842.000000	98.529871 
1841.000000	98.532021 
1840.000000	98.534603 
1839.000000	98.537443 
1838.000000	98.540166 
1837.000000	98.541854 
1836.000000	98.541889 
1835.000000	98.541794 
1834.000000	98.543819 
1833.000000	98.547901 
1832.000000	98.551967 
1831.000000	98.553841 
1830.000000	98.552915 
1829.000000	98.551162 
1828.000000	98.551034 
1827.000000	98.552931 
1826.000000	98.555330 
1825.000000	98.556499 
1824.000000	98.556157 
1823.000000	98.555041 
1822.000000	98.553511 
1821.000000	98.550826 
1820.000000	98.546423 
1819.000000	98.541675 
1818.000000	98.539744 
1817.000000	98.542176 
1816.000000	98.546481 
1815.000000	98.550050 
1814.000000	98.553422 
1813.000000	98.558173 
1812.000000	98.562858 
1811.000000	98.563284 
1810.000000	98.558362 
1809.000000	98.551037 
1808.000000	98.543892 
1807.000000	98.538069 
1806.000000	98.534919 
1805.000000	98.534991 
1804.000000	98.536058 
1803.000000	98.535127 
1802.000000	98.531575 
1801.000000	98.527731 
1800.000000	98.525577 
1799.000000	98.524761 
1798.000000	98.525064 
1797.000000	98.525906 
1796.000000	98.525700 
1795.000000	98.524657 
1794.000000	98.525199 
1793.000000	98.528440 
1792.000000	98.531282 
1791.000000	98.530487 
1790.000000	98.528158 
1789.000000	98.528075 
1788.000000	98.530997 
1787.000000	98.535151 
1786.000000	98.538915 
1785.000000	98.541659 
1784.000000	98.542964 
1783.000000	98.543409 
1782.000000	98.543680 
1781.000000	98.543958 
1780.000000	98.544830 
1779.000000	98.547232 
1778.000000	98.552148 
1777.000000	98.558405 
1776.000000	98.563028 
1775.000000	98.564127 
1774.000000	98.561893 
1773.000000	98.558662 
1772.000000	98.557376 
1771.000000	98.558029 
1770.000000	98.558594 
1769.000000	98.558671 
1768.000000	98.559361 
1767.000000	98.561398 
1766.000000	98.564411 
1765.000000	98.568165 
1764.000000	98.572845 
1763.000000	98.577388 
1762.000000	98.579788 
1761.000000	98.580128 
1760.000000	98.580259 
1759.000000	98.580836 
1758.000000	98.580987 
1757.000000	98.579673 
1756.000000	98.577987 
1755.000000	98.576728 
1754.000000	98.574569 
1753.000000	98.570573 
1752.000000	98.566813 
1751.000000	98.567085 
1750.000000	98.571873 
1749.000000	98.577009 
1748.000000	98.578855 
1747.000000	98.578074 
1746.000000	98.576559 
1745.000000	98.575461 
1744.000000	98.575224 
1743.000000	98.575309 
1742.000000	98.574937 
1741.000000	98.574567 
1740.000000	98.575263 
1739.000000	98.576932 
1738.000000	98.577908 
1737.000000	98.577422 
1736.000000	98.576290 
1735.000000	98.575352 
1734.000000	98.574604 
1733.000000	98.573586 
1732.000000	98.572748 
1731.000000	98.573763 
1730.000000	98.577569 
1729.000000	98.582029 
1728.000000	98.585146 
1727.000000	98.586820 
1726.000000	98.587791 
1725.000000	98.588340 
1724.000000	98.588452 
1723.000000	98.588325 
1722.000000	98.589019 
1721.000000	98.590864 
1720.000000	98.593418 
1719.000000	98.595496 
1718.000000	98.596391 
1717.000000	98.596897 
1716.000000	98.595666 
1715.000000	98.591760 
1714.000000	98.588581 
1713.000000	98.588222 
1712.000000	98.588781 
1711.000000	98.588759 
1710.000000	98.588683 
1709.000000	98.588612 
1708.000000	98.588067 
1707.000000	98.587699 
1706.000000	98.588988 
1705.000000	98.591327 
1704.000000	98.590649 
1703.000000	98.585601 
1702.000000	98.578725 
1701.000000	98.574773 
1700.000000	98.574746 
1699.000000	98.573898 
1698.000000	98.571905 
1697.000000	98.571654 
1696.000000	98.572918 
1695.000000	98.573936 
1694.000000	98.573907 
1693.000000	98.573159 
1692.000000	98.572576 
1691.000000	98.572574 
1690.000000	98.572867 
1689.000000	98.572176 
1688.000000	98.569941 
1687.000000	98.567168 
1686.000000	98.565479 
1685.000000	98.565471 
1684.000000	98.564828 
1683.000000	98.562683 
1682.000000	98.560231 
1681.000000	98.557582 
1680.000000	98.555228 
1679.000000	98.553327 
1678.000000	98.551631 
1677.000000	98.549644 
1676.000000	98.547557 
1675.000000	98.545880 
1674.000000	98.544395 
1673.000000	98.542553 
1672.000000	98.540368 
1671.000000	98.538174 
1670.000000	98.536200 
1669.000000	98.534347 
1668.000000	98.532832 
1667.000000	98.531871 
1666.000000	98.531107 
1665.000000	98.530236 
1664.000000	98.529239 
1663.000000	98.528165 
1662.000000	98.526819 
1661.000000	98.524851 
1660.000000	98.522779 
1659.000000	98.521375 
1658.000000	98.520797 
1657.000000	98.520145 
1656.000000	98.519053 
1655.000000	98.517505 
1654.000000	98.515269 
1653.000000	98.512484 
1652.000000	98.510292 
1651.000000	98.509000 
1650.000000	98.507538 
1649.000000	98.506435 
1648.000000	98.505597 
1647.000000	98.505306 
1646.000000	98.505162 
1645.000000	98.504871 
1644.000000	98.503035 
1643.000000	98.500011 
1642.000000	98.497035 
1641.000000	98.494919 
1640.000000	98.493628 
1639.000000	98.492342 
1638.000000	98.490746 
1637.000000	98.488932 
1636.000000	98.486991 
1635.000000	98.486320 
1634.000000	98.487263 
1633.000000	98.488021 
1632.000000	98.487597 
1631.000000	98.487098 
1630.000000	98.487897 
1629.000000	98.489108 
1628.000000	98.489140 
1627.000000	98.488751 
1626.000000	98.489177 
1625.000000	98.489975 
1624.000000	98.490593 
1623.000000	98.491670 
1622.000000	98.493289 
1621.000000	98.493311 
1620.000000	98.491504 
1619.000000	98.490300 
1618.000000	98.491215 
1617.000000	98.491749 
1616.000000	98.489697 
1615.000000	98.487969 
1614.000000	98.487537 
1613.000000	98.485582 
1612.000000	98.481032 
1611.000000	98.477226 
1610.000000	98.477017 
1609.000000	98.479256 
1608.000000	98.482687 
1607.000000	98.488136 
1606.000000	98.494032 
1605.000000	98.496846 
1604.000000	98.497731 
1603.000000	98.500555 
1602.000000	98.505391 
1601.000000	98.508509 
1600.000000	98.508803 
1599.000000	98.509235 
1598.000000	98.511272 
1597.000000	98.513457 
1596.000000	98.515102 
1595.000000	98.517865 
1594.000000	98.522458 
1593.000000	98.526733 
1592.000000	98.529345 
1591.000000	98.531854 
1590.000000	98.535414 
1589.000000	98.538891 
1588.000000	98.542395 
1587.000000	98.547837 
1586.000000	98.554059 
1585.000000	98.555845 
1584.000000	98.552590 
1583.000000	98.550262 
1582.000000	98.551561 
1581.000000	98.553586 
1580.000000	98.555133 
1579.000000	98.559685 
1578.000000	98.569141 
1577.000000	98.579980 
1576.000000	98.586847 
1575.000000	98.590180 
1574.000000	98.591164 
1573.000000	98.589452 
1572.000000	98.589115 
1571.000000	98.594671 
1570.000000	98.602430 
1569.000000	98.601015 
1568.000000	98.592122 
1567.000000	98.586029 
1566.000000	98.585405 
1565.000000	98.585390 
1564.000000	98.585018 
1563.000000	98.585033 
1562.000000	98.585295 
1561.000000	98.582299 
1560.000000	98.578991 
1559.000000	98.573732 
1558.000000	98.566345 
1557.000000	98.564390 
1556.000000	98.561125 
1555.000000	98.557566 
1554.000000	98.548941 
1553.000000	98.539400 
1552.000000	98.530865 
1551.000000	98.521093 
1550.000000	98.505277 
1549.000000	98.486832 
1548.000000	98.473237 
1547.000000	98.466925 
1546.000000	98.461129 
1545.000000	98.447477 
1544.000000	98.426389 
1543.000000	98.405561 
1542.000000	98.390941 
1541.000000	98.378928 
1540.000000	98.354800 
1539.000000	98.321203 
1538.000000	98.292874 
1537.000000	98.269652 
1536.000000	98.248245 
1535.000000	98.228552 
1534.000000	98.211297 
1533.000000	98.195548 
1532.000000	98.180525 
1531.000000	98.164231 
1530.000000	98.147058 
1529.000000	98.129074 
1528.000000	98.106975 
1527.000000	98.078897 
1526.000000	98.048383 
1525.000000	98.021930 
1524.000000	98.002298 
1523.000000	97.985716 
1522.000000	97.964456 
1521.000000	97.935532 
1520.000000	97.905252 
1519.000000	97.878087 
1518.000000	97.850863 
1517.000000	97.819507 
1516.000000	97.785744 
1515.000000	97.756203 
1514.000000	97.732726 
1513.000000	97.712494 
1512.000000	97.691536 
1511.000000	97.666898 
1510.000000	97.638757 
1509.000000	97.607953 
1508.000000	97.571749 
1507.000000	97.525447 
1506.000000	97.480468 
1505.000000	97.449577 
1504.000000	97.426776 
1503.000000	97.404679 
1502.000000	97.379239 
1501.000000	97.350897 
1500.000000	97.322151 
1499.000000	97.293802 
1498.000000	97.262766 
1497.000000	97.228457 
1496.000000	97.195161 
1495.000000	97.166628 
1494.000000	97.143132 
1493.000000	97.123486 
1492.000000	97.106033 
1491.000000	97.086764 
1490.000000	97.060854 
1489.000000	97.028951 
1488.000000	96.994727 
1487.000000	96.959867 
1486.000000	96.927012 
1485.000000	96.896709 
1484.000000	96.868349 
1483.000000	96.841329 
1482.000000	96.813430 
1481.000000	96.783990 
1480.000000	96.754649 
1479.000000	96.727286 
1478.000000	96.701491 
1477.000000	96.676186 
1476.000000	96.650076 
1475.000000	96.621461 
1474.000000	96.587769 
1473.000000	96.548978 
1472.000000	96.512879 
1471.000000	96.485977 
1470.000000	96.466128 
1469.000000	96.448675 
1468.000000	96.430467 
1467.000000	96.408654 
1466.000000	96.381578 
1465.000000	96.351382 
1464.000000	96.325499 
1463.000000	96.307078 
1462.000000	96.292834 
1461.000000	96.281096 
1460.000000	96.272767 
1459.000000	96.264365 
1458.000000	96.238430 
1457.000000	96.184941 
1456.000000	96.129445 
1455.000000	96.094399 
1454.000000	96.072474 
1453.000000	96.056281 
1452.000000	96.046335 
1451.000000	96.045083 
1450.000000	96.049893 
1449.000000	96.055969 
1448.000000	96.058945 
1447.000000	96.057226 
1446.000000	96.051879 
1445.000000	96.045574 
1444.000000	96.041528 
1443.000000	96.038317 
1442.000000	96.033424 
1441.000000	96.028316 
1440.000000	96.026847 
1439.000000	96.027101 
1438.000000	96.019416 
1437.000000	95.999242 
1436.000000	95.980162 
1435.000000	95.976048 
1434.000000	95.982538 
1433.000000	95.991504 
1432.000000	95.999621 
1431.000000	96.005859 
1430.000000	96.008124 
1429.000000	96.006618 
1428.000000	96.005349 
1427.000000	96.008383 
1426.000000	96.014963 
1425.000000	96.020472 
1424.000000	96.024796 
1423.000000	96.030413 
1422.000000	96.037689 
1421.000000	96.045470 
1420.000000	96.051230 
1419.000000	96.048100 
1418.000000	96.033907 
1417.000000	96.020487 
1416.000000	96.019422 
1415.000000	96.030355 
1414.000000	96.042990 
1413.000000	96.049302 
1412.000000	96.051866 
1411.000000	96.057567 
1410.000000	96.068313 
1409.000000	96.083391 
1408.000000	96.102967 
1407.000000	96.126929 
1406.000000	96.153346 
1405.000000	96.181699 
1404.000000	96.216251 
1403.000000	96.257409 
1402.000000	96.300012 
1401.000000	96.342468 
1400.000000	96.388189 
1399.000000	96.436451 
1398.000000	96.476089 
1397.000000	96.495040 
1396.000000	96.493322 
1395.000000	96.488780 
1394.000000	96.506157 
1393.000000	96.556051 
1392.000000	96.629740 
1391.000000	96.709089 
1390.000000	96.778633 
1389.000000	96.831312 
1388.000000	96.867137 
1387.000000	96.890319 
1386.000000	96.908200 
1385.000000	96.929057 
1384.000000	96.958727 
1383.000000	96.997076 
1382.000000	97.038950 
1381.000000	97.079881 
1380.000000	97.119026 
1379.000000	97.158511 
1378.000000	97.200469 
1377.000000	97.244972 
1376.000000	97.289961 
1375.000000	97.332880 
1374.000000	97.372702 
1373.000000	97.411262 
1372.000000	97.450684 
1371.000000	97.491427 
1370.000000	97.532590 
1369.000000	97.571708 
1368.000000	97.608194 
1367.000000	97.643831 
1366.000000	97.681235 
1365.000000	97.721783 
1364.000000	97.762600 
1363.000000	97.797422 
1362.000000	97.824107 
1361.000000	97.847794 
1360.000000	97.874320 
1359.000000	97.905230 
1358.000000	97.938565 
1357.000000	97.971261 
1356.000000	98.001093 
1355.000000	98.027553 
1354.000000	98.052335 
1353.000000	98.078416 
1352.000000	98.105639 
1351.000000	98.131243 
1350.000000	98.153934 
1349.000000	98.173170 
1348.000000	98.189513 
1347.000000	98.204892 
1346.000000	98.222920 
1345.000000	98.245604 
1344.000000	98.271204 
1343.000000	98.296229 
1342.000000	98.318512 
1341.000000	98.336305 
1340.000000	98.347504 
1339.000000	98.352919 
1338.000000	98.357224 
1337.000000	98.363931 
1336.000000	98.372017 
1335.000000	98.379220 
1334.000000	98.386597 
1333.000000	98.397093 
1332.000000	98.410583 
1331.000000	98.424022 
1330.000000	98.435528 
1329.000000	98.445233 
1328.000000	98.453095 
1327.000000	98.459546 
1326.000000	98.466835 
1325.000000	98.476119 
1324.000000	98.485723 
1323.000000	98.492754 
1322.000000	98.496773 
1321.000000	98.499820 
1320.000000	98.503338 
1319.000000	98.507154 
1318.000000	98.511766 
1317.000000	98.518758 
1316.000000	98.527519 
1315.000000	98.534262 
1314.000000	98.536239 
1313.000000	98.535848 
1312.000000	98.538222 
1311.000000	98.545378 
1310.000000	98.554533 
1309.000000	98.562038 
1308.000000	98.567087 
1307.000000	98.571978 
1306.000000	98.579282 
1305.000000	98.588339 
1304.000000	98.595737 
1303.000000	98.598237 
1302.000000	98.595828 
1301.000000	98.591455 
1300.000000	98.588472 
1299.000000	98.588512 
1298.000000	98.591235 
1297.000000	98.594698 
1296.000000	98.596305 
1295.000000	98.595172 
1294.000000	98.593145 
1293.000000	98.592543 
1292.000000	98.593246 
1291.000000	98.593589 
1290.000000	98.593686 
1289.000000	98.595330 
1288.000000	98.598349 
1287.000000	98.599808 
1286.000000	98.597864 
1285.000000	98.594264 
1284.000000	98.591919 
1283.000000	98.591345 
1282.000000	98.590608 
1281.000000	98.587638 
1280.000000	98.582158 
1279.000000	98.576223 
1278.000000	98.572883 
1277.000000	98.573446 
1276.000000	98.575733 
1275.000000	98.576444 
1274.000000	98.574856 
1273.000000	98.572624 
1272.000000	98.570063 
1271.000000	98.565023 
1270.000000	98.556171 
1269.000000	98.545121 
1268.000000	98.534233 
1267.000000	98.523919 
1266.000000	98.513434 
1265.000000	98.503273 
1264.000000	98.494825 
1263.000000	98.488088 
1262.000000	98.481487 
1261.000000	98.473917 
1260.000000	98.466156 
1259.000000	98.460057 
1258.000000	98.456200 
1257.000000	98.452488 
1256.000000	98.445170 
1255.000000	98.432321 
1254.000000	98.416419 
1253.000000	98.402225 
1252.000000	98.391893 
1251.000000	98.384014 
1250.000000	98.377683 
1249.000000	98.375252 
1248.000000	98.379417 
1247.000000	98.388424 
1246.000000	98.395392 
1245.000000	98.392782 
1244.000000	98.378048 
1243.000000	98.357062 
1242.000000	98.342291 
1241.000000	98.344019 
1240.000000	98.360468 
1239.000000	98.377652 
1238.000000	98.381353 
1237.000000	98.368587 
1236.000000	98.346463 
1235.000000	98.322707 
1234.000000	98.300162 
1233.000000	98.278646 
1232.000000	98.257795 
1231.000000	98.237282 
1230.000000	98.217264 
1229.000000	98.199515 
1228.000000	98.185663 
1227.000000	98.173428 
1226.000000	98.156826 
1225.000000	98.131401 
1224.000000	98.098093 
1223.000000	98.061434 
1222.000000	98.025092 
1221.000000	97.989575 
1220.000000	97.953093 
1219.000000	97.913787 
1218.000000	97.871309 
1217.000000	97.826324 
1216.000000	97.778155 
1215.000000	97.724244 
1214.000000	97.663910 
1213.000000	97.602005 
1212.000000	97.545453 
1211.000000	97.494607 
1210.000000	97.440964 
1209.000000	97.376111 
1208.000000	97.301301 
1207.000000	97.225771 
1206.000000	97.156324 
1205.000000	97.090999 
1204.000000	97.023222 
1203.000000	96.949634 
1202.000000	96.872755 
1201.000000	96.797518 
1200.000000	96.726469 
1199.000000	96.658110 
1198.000000	96.589195 
1197.000000	96.518549 
1196.000000	96.448100 
1195.000000	96.379987 
1194.000000	96.313498 
1193.000000	96.245593 
1192.000000	96.174020 
1191.000000	96.098969 
1190.000000	96.021954 
1189.000000	95.943790 
1188.000000	95.863630 
1187.000000	95.779744 
1186.000000	95.691823 
1185.000000	95.602421 
1184.000000	95.514587 
1183.000000	95.427795 
1182.000000	95.338352 
1181.000000	95.244680 
1180.000000	95.149488 
1179.000000	95.054752 
1178.000000	94.957147 
1177.000000	94.851644 
1176.000000	94.737826 
1175.000000	94.619292 
1174.000000	94.498322 
1173.000000	94.374901 
1172.000000	94.250241 
1171.000000	94.126870 
1170.000000	94.005209 
1169.000000	93.884207 
1168.000000	93.765781 
1167.000000	93.655013 
1166.000000	93.556333 
1165.000000	93.474330 
1164.000000	93.418375 
1163.000000	93.400008 
1162.000000	93.422356 
1161.000000	93.474493 
1160.000000	93.537114 
1159.000000	93.591667 
1158.000000	93.624899 
1157.000000	93.629664 
1156.000000	93.604218 
1155.000000	93.550176 
1154.000000	93.471382 
1153.000000	93.375514 
1152.000000	93.274202 
1151.000000	93.177094 
1150.000000	93.085494 
1149.000000	92.994980 
1148.000000	92.903521 
1147.000000	92.812994 
1146.000000	92.723620 
1145.000000	92.632452 
1144.000000	92.538359 
1143.000000	92.443939 
1142.000000	92.351083 
1141.000000	92.258446 
1140.000000	92.164361 
1139.000000	92.068906 
1138.000000	91.972776 
1137.000000	91.877441 
1136.000000	91.785753 
1135.000000	91.698078 
1134.000000	91.608634 
1133.000000	91.510955 
1132.000000	91.406702 
1131.000000	91.303724 
1130.000000	91.205706 
1129.000000	91.109457 
1128.000000	91.012019 
1127.000000	90.913554 
1126.000000	90.812811 
1125.000000	90.707046 
1124.000000	90.598096 
1123.000000	90.492111 
1122.000000	90.391406 
1121.000000	90.292434 
1120.000000	90.192788 
1119.000000	90.093415 
1118.000000	89.992892 
1117.000000	89.887345 
1116.000000	89.777971 
1115.000000	89.671135 
1114.000000	89.568855 
1113.000000	89.466768 
1112.000000	89.363629 
1111.000000	89.264470 
1110.000000	89.171595 
1109.000000	89.080661 
1108.000000	88.987755 
1107.000000	88.893074 
1106.000000	88.796274 
1105.000000	88.695541 
1104.000000	88.593346 
1103.000000	88.495991 
1102.000000	88.404871 
1101.000000	88.315697 
1100.000000	88.227447 
1099.000000	88.143947 
1098.000000	88.066897 
1097.000000	87.993066 
1096.000000	87.920430 
1095.000000	87.848565 
1094.000000	87.772141 
1093.000000	87.683254 
1092.000000	87.583481 
1091.000000	87.485678 
1090.000000	87.400384 
1089.000000	87.326936 
1088.000000	87.259718 
1087.000000	87.195340 
1086.000000	87.131310 
1085.000000	87.065485 
1084.000000	87.000024 
1083.000000	86.939705 
1082.000000	86.884721 
1081.000000	86.831712 
1080.000000	86.782422 
1079.000000	86.743217 
1078.000000	86.714896 
1077.000000	86.691226 
1076.000000	86.668599 
1075.000000	86.648419 
1074.000000	86.629098 
1073.000000	86.604704 
1072.000000	86.571388 
1071.000000	86.524188 
1070.000000	86.447422 
1069.000000	86.323266 
1068.000000	86.156204 
1067.000000	85.979511 
1066.000000	85.829223 
1065.000000	85.716289 
1064.000000	85.628038 
1063.000000	85.545051 
1062.000000	85.448959 
1061.000000	85.325009 
1060.000000	85.170980 
1059.000000	85.003522 
1058.000000	84.848239 
1057.000000	84.721504 
1056.000000	84.622331 
1055.000000	84.537315 
1054.000000	84.451337 
1053.000000	84.358409 
1052.000000	84.264732 
1051.000000	84.178528 
1050.000000	84.098466 
1049.000000	84.017688 
1048.000000	83.935692 
1047.000000	83.857082 
1046.000000	83.781480 
1045.000000	83.704544 
1044.000000	83.626830 
1043.000000	83.552235 
1042.000000	83.479056 
1041.000000	83.401647 
1040.000000	83.320575 
1039.000000	83.243365 
1038.000000	83.176409 
1037.000000	83.123441 
1036.000000	83.088673 
1035.000000	83.072112 
1034.000000	83.064441 
1033.000000	83.055085 
1032.000000	83.041054 
1031.000000	83.019597 
1030.000000	82.981643 
1029.000000	82.927536 
1028.000000	82.882049 
1027.000000	82.874592 
1026.000000	82.905614 
1025.000000	82.947537 
1024.000000	82.977426 
1023.000000	82.992802 
1022.000000	82.997244 
1021.000000	82.990593 
1020.000000	82.976626 
1019.000000	82.964087 
1018.000000	82.955725 
1017.000000	82.948413 
1016.000000	82.944855 
1015.000000	82.951513 
1014.000000	82.964475 
1013.000000	82.972046 
1012.000000	82.972589 
1011.000000	82.975723 
1010.000000	82.985414 
1009.000000	82.996711 
1008.000000	83.009730 
1007.000000	83.031246 
1006.000000	83.060972 
1005.000000	83.091485 
1004.000000	83.123312 
1003.000000	83.164394 
1002.000000	83.212693 
1001.000000	83.255701 
1000.000000	83.290794 
999.000000	 83.330430 
998.000000	 83.382580 
997.000000	 83.440518 
996.000000	 83.496517 
995.000000	 83.552341 
994.000000	 83.611638 
993.000000	 83.674334 
992.000000	 83.742207 
991.000000	 83.817805 
990.000000	 83.895090 
989.000000	 83.963911 
988.000000	 84.026557 
987.000000	 84.096772 
986.000000	 84.180177 
985.000000	 84.269829 
984.000000	 84.363115 
983.000000	 84.467068 
982.000000	 84.582802 
981.000000	 84.699937 
980.000000	 84.812720 
979.000000	 84.928568 
978.000000	 85.053787 
977.000000	 85.183689 
976.000000	 85.313905 
975.000000	 85.449642 
974.000000	 85.595552 
973.000000	 85.746093 
972.000000	 85.893790 
971.000000	 86.039834 
970.000000	 86.190080 
969.000000	 86.346653 
968.000000	 86.508073 
967.000000	 86.671815 
966.000000	 86.833583 
965.000000	 86.990160 
964.000000	 87.145074 
963.000000	 87.305048 
962.000000	 87.469558 
961.000000	 87.630961 
960.000000	 87.785820 
959.000000	 87.937957 
958.000000	 88.088939 
957.000000	 88.234122 
956.000000	 88.370883 
955.000000	 88.503325 
954.000000	 88.635958 
953.000000	 88.768662 
952.000000	 88.899695 
951.000000	 89.027559 
950.000000	 89.148921 
949.000000	 89.261313 
948.000000	 89.368886 
947.000000	 89.478883 
946.000000	 89.591231 
945.000000	 89.698283 
944.000000	 89.795812 
943.000000	 89.887798 
942.000000	 89.979676 
941.000000	 90.073421 
940.000000	 90.170307 
939.000000	 90.271453 
938.000000	 90.373731 
937.000000	 90.471246 
936.000000	 90.562620 
935.000000	 90.651789 
934.000000	 90.741302 
933.000000	 90.830684 
932.000000	 90.921513 
931.000000	 91.017359 
930.000000	 91.117295 
929.000000	 91.215439 
928.000000	 91.308644 
927.000000	 91.399367 
926.000000	 91.489796 
925.000000	 91.577775 
924.000000	 91.659650 
923.000000	 91.733835 
922.000000	 91.801632 
921.000000	 91.867787 
920.000000	 91.938868 
919.000000	 92.016587 
918.000000	 92.093672 
917.000000	 92.160870 
916.000000	 92.217477 
915.000000	 92.271132 
914.000000	 92.328664 
913.000000	 92.391631 
912.000000	 92.459579 
911.000000	 92.532655 
910.000000	 92.611322 
909.000000	 92.697179 
908.000000	 92.792754 
907.000000	 92.897318 
906.000000	 93.005763 
905.000000	 93.115395 
904.000000	 93.230164 
903.000000	 93.353673 
902.000000	 93.482122 
901.000000	 93.609310 
900.000000	 93.734460 
899.000000	 93.859845 
898.000000	 93.985033 
897.000000	 94.108405 
896.000000	 94.229313 
895.000000	 94.343543 
894.000000	 94.443338 
893.000000	 94.528941 
892.000000	 94.613597 
891.000000	 94.708088 
890.000000	 94.803751 
889.000000	 94.877565 
888.000000	 94.909398 
887.000000	 94.889307 
886.000000	 94.817897 
885.000000	 94.710364 
884.000000	 94.592971 
883.000000	 94.482049 
882.000000	 94.370013 
881.000000	 94.244693 
880.000000	 94.118066 
879.000000	 94.019972 
878.000000	 93.965703 
877.000000	 93.947902 
876.000000	 93.960950 
875.000000	 94.014338 
874.000000	 94.117847 
873.000000	 94.270956 
872.000000	 94.471541 
871.000000	 94.718257 
870.000000	 94.997452 
869.000000	 95.281057 
868.000000	 95.544656 
867.000000	 95.779828 
866.000000	 95.987619 
865.000000	 96.171129 
864.000000	 96.337872 
863.000000	 96.498868 
862.000000	 96.658719 
861.000000	 96.812052 
860.000000	 96.953217 
859.000000	 97.083590 
858.000000	 97.206558 
857.000000	 97.321625 
856.000000	 97.427203 
855.000000	 97.524267 
854.000000	 97.613647 
853.000000	 97.693371 
852.000000	 97.761546 
851.000000	 97.819606 
850.000000	 97.871904 
849.000000	 97.924575 
848.000000	 97.983980 
847.000000	 98.052007 
846.000000	 98.123285 
845.000000	 98.191193 
844.000000	 98.255188 
843.000000	 98.317362 
842.000000	 98.374076 
841.000000	 98.417659 
840.000000	 98.445228 
839.000000	 98.459388 
838.000000	 98.462053 
837.000000	 98.455414 
836.000000	 98.448265 
835.000000	 98.452438 
834.000000	 98.470644 
833.000000	 98.494407 
832.000000	 98.515291 
831.000000	 98.531277 
830.000000	 98.541553 
829.000000	 98.544278 
828.000000	 98.543377 
827.000000	 98.549699 
826.000000	 98.569460 
825.000000	 98.596476 
824.000000	 98.619540 
823.000000	 98.631834 
822.000000	 98.631129 
821.000000	 98.618325 
820.000000	 98.598624 
819.000000	 98.577006 
818.000000	 98.549168 
817.000000	 98.502145 
816.000000	 98.426283 
815.000000	 98.322351 
814.000000	 98.195116 
813.000000	 98.044214 
812.000000	 97.863140 
811.000000	 97.642170 
810.000000	 97.369500 
809.000000	 97.034714 
808.000000	 96.636161 
807.000000	 96.183814 
806.000000	 95.693812 
805.000000	 95.183426 
804.000000	 94.671669 
803.000000	 94.177546 
802.000000	 93.714527 
801.000000	 93.294302 
800.000000	 92.938292 
799.000000	 92.674202 
798.000000	 92.514461 
797.000000	 92.445652 
796.000000	 92.442550 
795.000000	 92.483695 
794.000000	 92.551823 
793.000000	 92.631745 
792.000000	 92.713784 
791.000000	 92.792082 
790.000000	 92.857316 
789.000000	 92.897911 
788.000000	 92.907722 
787.000000	 92.883912 
786.000000	 92.818704 
785.000000	 92.703459 
784.000000	 92.541228 
783.000000	 92.346563 
782.000000	 92.135288 
781.000000	 91.926065 
780.000000	 91.748831 
779.000000	 91.634423 
778.000000	 91.592717 
777.000000	 91.614402 
776.000000	 91.694091 
775.000000	 91.834146 
774.000000	 92.024228 
773.000000	 92.237430 
772.000000	 92.453445 
771.000000	 92.669458 
770.000000	 92.883220 
769.000000	 93.082592 
768.000000	 93.258719 
767.000000	 93.414068 
766.000000	 93.550235 
765.000000	 93.662890 
764.000000	 93.757335 
763.000000	 93.854777 
762.000000	 93.972189 
761.000000	 94.105917 
760.000000	 94.242945 
759.000000	 94.376793 
758.000000	 94.504421 
757.000000	 94.621144 
756.000000	 94.730879 
755.000000	 94.850939 
754.000000	 94.992226 
753.000000	 95.139858 
752.000000	 95.264992 
751.000000	 95.353029 
750.000000	 95.413950 
749.000000	 95.470254 
748.000000	 95.541435 
747.000000	 95.633931 
746.000000	 95.736893 
745.000000	 95.831205 
744.000000	 95.909847 
743.000000	 95.986428 
742.000000	 96.078685 
741.000000	 96.188467 
740.000000	 96.303573 
739.000000	 96.413401 
738.000000	 96.514835 
737.000000	 96.606105 
736.000000	 96.683506 
735.000000	 96.745209 
734.000000	 96.794328 
733.000000	 96.837663 
732.000000	 96.881758 
731.000000	 96.927483 
730.000000	 96.968529 
729.000000	 96.999577 
728.000000	 97.024036 
727.000000	 97.050423 
726.000000	 97.084780 
725.000000	 97.129702 
724.000000	 97.187088 
723.000000	 97.254913 
722.000000	 97.322210 
721.000000	 97.374564 
720.000000	 97.406084 
719.000000	 97.420522 
718.000000	 97.419941 
717.000000	 97.400801 
716.000000	 97.365392 
715.000000	 97.329315 
714.000000	 97.312802 
713.000000	 97.329579 
712.000000	 97.384889 
711.000000	 97.475590 
710.000000	 97.586840 
709.000000	 97.697559 
708.000000	 97.791769 
707.000000	 97.861606 
706.000000	 97.904445 
705.000000	 97.919830 
704.000000	 97.907932 
703.000000	 97.867338 
702.000000	 97.790118 
701.000000	 97.663816 
700.000000	 97.483142 
699.000000	 97.255951 
698.000000	 97.002045 
697.000000	 96.751828 
696.000000	 96.544475 
695.000000	 96.418946 
694.000000	 96.394731 
693.000000	 96.462017 
692.000000	 96.591546 
691.000000	 96.749462 
690.000000	 96.910337 
689.000000	 97.062110 
688.000000	 97.200419 
687.000000	 97.320146 
686.000000	 97.413966 
685.000000	 97.483665 
684.000000	 97.545634 
683.000000	 97.613639 
682.000000	 97.683009 
681.000000	 97.741583 
680.000000	 97.790811 
679.000000	 97.842598 
678.000000	 97.901076 
677.000000	 97.965018 
676.000000	 98.034410 
675.000000	 98.107711 
674.000000	 98.171260 
673.000000	 98.203302 
672.000000	 98.191370 
671.000000	 98.133077 
670.000000	 98.027705 
669.000000	 97.894947 
668.000000	 97.841741 
667.000000	 97.973088 
666.000000	 98.184867 
665.000000	 98.343167 
664.000000	 98.428288 
663.000000	 98.463411 
662.000000	 98.479750 
661.000000	 98.501522 
660.000000	 98.535874 
659.000000	 98.576907 
658.000000	 98.612146 
657.000000	 98.632232 
656.000000	 98.633516 
655.000000	 98.621026 
654.000000	 98.604373 
653.000000	 98.587739 
652.000000	 98.570512 
651.000000	 98.559988 
650.000000	 98.570305 

