4000.000000	97.704960 
3999.000000	97.704290 
3998.000000	97.702777 
3997.000000	97.700916 
3996.000000	97.699359 
3995.000000	97.698534 
3994.000000	97.698621 
3993.000000	97.699420 
3992.000000	97.700312 
3991.000000	97.700590 
3990.000000	97.699981 
3989.000000	97.698847 
3988.000000	97.697843 
3987.000000	97.697420 
3986.000000	97.697713 
3985.000000	97.698630 
3984.000000	97.699814 
3983.000000	97.700807 
3982.000000	97.701464 
3981.000000	97.702000 
3980.000000	97.702411 
3979.000000	97.702195 
3978.000000	97.701035 
3977.000000	97.699468 
3976.000000	97.698437 
3975.000000	97.698154 
3974.000000	97.697875 
3973.000000	97.696821 
3972.000000	97.694961 
3971.000000	97.692913 
3970.000000	97.691338 
3969.000000	97.690586 
3968.000000	97.690740 
3967.000000	97.691598 
3966.000000	97.692712 
3965.000000	97.693559 
3964.000000	97.693679 
3963.000000	97.692884 
3962.000000	97.691454 
3961.000000	97.690007 
3960.000000	97.688994 
3959.000000	97.688450 
3958.000000	97.688199 
3957.000000	97.688141 
3956.000000	97.688135 
3955.000000	97.687702 
3954.000000	97.686412 
3953.000000	97.684397 
3952.000000	97.682371 
3951.000000	97.680990 
3950.000000	97.680224 
3949.000000	97.679544 
3948.000000	97.678504 
3947.000000	97.677291 
3946.000000	97.676624 
3945.000000	97.677052 
3944.000000	97.678328 
3943.000000	97.679394 
3942.000000	97.679525 
3941.000000	97.679018 
3940.000000	97.678581 
3939.000000	97.678478 
3938.000000	97.678352 
3937.000000	97.677795 
3936.000000	97.676797 
3935.000000	97.675573 
3934.000000	97.674364 
3933.000000	97.673384 
3932.000000	97.672785 
3931.000000	97.672487 
3930.000000	97.672291 
3929.000000	97.672228 
3928.000000	97.672462 
3927.000000	97.672927 
3926.000000	97.673224 
3925.000000	97.672969 
3924.000000	97.672216 
3923.000000	97.671327 
3922.000000	97.670551 
3921.000000	97.669926 
3920.000000	97.669455 
3919.000000	97.669176 
3918.000000	97.669026 
3917.000000	97.668837 
3916.000000	97.668526 
3915.000000	97.668172 
3914.000000	97.667868 
3913.000000	97.667599 
3912.000000	97.667282 
3911.000000	97.666891 
3910.000000	97.666449 
3909.000000	97.665993 
3908.000000	97.665555 
3907.000000	97.665118 
3906.000000	97.664630 
3905.000000	97.664032 
3904.000000	97.663334 
3903.000000	97.662614 
3902.000000	97.661969 
3901.000000	97.661435 
3900.000000	97.660989 
3899.000000	97.660569 
3898.000000	97.660134 
3897.000000	97.659684 
3896.000000	97.659224 
3895.000000	97.658760 
3894.000000	97.658290 
3893.000000	97.657810 
3892.000000	97.657305 
3891.000000	97.656762 
3890.000000	97.656180 
3889.000000	97.655573 
3888.000000	97.654964 
3887.000000	97.654368 
3886.000000	97.653789 
3885.000000	97.653220 
3884.000000	97.652650 
3883.000000	97.652074 
3882.000000	97.651492 
3881.000000	97.650914 
3880.000000	97.650358 
3879.000000	97.649832 
3878.000000	97.649324 
3877.000000	97.648827 
3876.000000	97.648354 
3875.000000	97.647907 
3874.000000	97.647449 
3873.000000	97.646949 
3872.000000	97.646426 
3871.000000	97.645906 
3870.000000	97.645387 
3869.000000	97.644903 
3868.000000	97.644527 
3867.000000	97.644236 
3866.000000	97.643921 
3865.000000	97.643555 
3864.000000	97.643293 
3863.000000	97.643223 
3862.000000	97.643107 
3861.000000	97.642790 
3860.000000	97.642504 
3859.000000	97.642481 
3858.000000	97.642555 
3857.000000	97.642353 
3856.000000	97.641863 
3855.000000	97.641327 
3854.000000	97.640491 
3853.000000	97.639154 
3852.000000	97.638044 
3851.000000	97.637877 
3850.000000	97.638414 
3849.000000	97.639202 
3848.000000	97.640139 
3847.000000	97.641296 
3846.000000	97.642289 
3845.000000	97.642526 
3844.000000	97.641906 
3843.000000	97.640752 
3842.000000	97.639361 
3841.000000	97.638193 
3840.000000	97.637741 
3839.000000	97.638303 
3838.000000	97.639742 
3837.000000	97.641235 
3836.000000	97.642115 
3835.000000	97.642419 
3834.000000	97.642644 
3833.000000	97.643256 
3832.000000	97.644159 
3831.000000	97.644886 
3830.000000	97.645249 
3829.000000	97.645484 
3828.000000	97.646146 
3827.000000	97.647496 
3826.000000	97.648835 
3825.000000	97.649267 
3824.000000	97.648592 
3823.000000	97.647509 
3822.000000	97.646908 
3821.000000	97.646707 
3820.000000	97.646277 
3819.000000	97.645364 
3818.000000	97.644391 
3817.000000	97.644349 
3816.000000	97.646093 
3815.000000	97.649458 
3814.000000	97.653068 
3813.000000	97.655350 
3812.000000	97.655907 
3811.000000	97.656025 
3810.000000	97.657010 
3809.000000	97.658466 
3808.000000	97.658755 
3807.000000	97.656977 
3806.000000	97.653912 
3805.000000	97.650802 
3804.000000	97.647940 
3803.000000	97.646242 
3802.000000	97.646954 
3801.000000	97.649554 
3800.000000	97.652347 
3799.000000	97.653730 
3798.000000	97.653665 
3797.000000	97.654338 
3796.000000	97.657745 
3795.000000	97.663012 
3794.000000	97.667121 
3793.000000	97.668350 
3792.000000	97.667901 
3791.000000	97.668381 
3790.000000	97.670283 
3789.000000	97.671429 
3788.000000	97.670325 
3787.000000	97.668118 
3786.000000	97.666934 
3785.000000	97.667268 
3784.000000	97.667726 
3783.000000	97.667012 
3782.000000	97.664903 
3781.000000	97.662296 
3780.000000	97.661082 
3779.000000	97.663111 
3778.000000	97.668007 
3777.000000	97.673036 
3776.000000	97.675345 
3775.000000	97.674152 
3774.000000	97.671041 
3773.000000	97.668263 
3772.000000	97.666913 
3771.000000	97.666098 
3770.000000	97.664379 
3769.000000	97.662167 
3768.000000	97.661067 
3767.000000	97.661338 
3766.000000	97.661946 
3765.000000	97.661764 
3764.000000	97.660951 
3763.000000	97.660146 
3762.000000	97.659015 
3761.000000	97.657080 
3760.000000	97.654759 
3759.000000	97.653330 
3758.000000	97.651376 
3757.000000	97.645461 
3756.000000	97.635066 
3755.000000	97.621945 
3754.000000	97.607567 
3753.000000	97.593114 
3752.000000	97.582269 
3751.000000	97.578981 
3750.000000	97.580039 
3749.000000	97.579314 
3748.000000	97.577330 
3747.000000	97.579807 
3746.000000	97.591276 
3745.000000	97.606827 
3744.000000	97.618593 
3743.000000	97.624529 
3742.000000	97.622661 
3741.000000	97.610072 
3740.000000	97.591040 
3739.000000	97.577911 
3738.000000	97.579062 
3737.000000	97.588131 
3736.000000	97.594500 
3735.000000	97.597104 
3734.000000	97.601305 
3733.000000	97.607234 
3732.000000	97.611374 
3731.000000	97.614296 
3730.000000	97.617537 
3729.000000	97.619417 
3728.000000	97.618452 
3727.000000	97.616097 
3726.000000	97.615285 
3725.000000	97.616487 
3724.000000	97.617514 
3723.000000	97.616776 
3722.000000	97.614684 
3721.000000	97.612315 
3720.000000	97.607932 
3719.000000	97.600587 
3718.000000	97.591985 
3717.000000	97.582874 
3716.000000	97.572419 
3715.000000	97.558110 
3714.000000	97.539395 
3713.000000	97.520640 
3712.000000	97.506817 
3711.000000	97.497385 
3710.000000	97.486138 
3709.000000	97.468824 
3708.000000	97.446628 
3707.000000	97.421963 
3706.000000	97.396264 
3705.000000	97.370350 
3704.000000	97.344393 
3703.000000	97.317586 
3702.000000	97.287478 
3701.000000	97.252866 
3700.000000	97.216283 
3699.000000	97.182769 
3698.000000	97.156708 
3697.000000	97.138671 
3696.000000	97.126770 
3695.000000	97.118630 
3694.000000	97.111345 
3693.000000	97.102476 
3692.000000	97.091624 
3691.000000	97.080051 
3690.000000	97.067757 
3689.000000	97.054744 
3688.000000	97.044516 
3687.000000	97.040338 
3686.000000	97.040048 
3685.000000	97.038500 
3684.000000	97.033333 
3683.000000	97.027104 
3682.000000	97.022113 
3681.000000	97.014047 
3680.000000	96.995338 
3679.000000	96.962959 
3678.000000	96.922667 
3677.000000	96.884113 
3676.000000	96.851585 
3675.000000	96.824450 
3674.000000	96.800334 
3673.000000	96.776144 
3672.000000	96.749808 
3671.000000	96.724211 
3670.000000	96.703181 
3669.000000	96.686248 
3668.000000	96.669532 
3667.000000	96.649993 
3666.000000	96.628769 
3665.000000	96.608397 
3664.000000	96.588557 
3663.000000	96.567263 
3662.000000	96.542882 
3661.000000	96.514703 
3660.000000	96.484216 
3659.000000	96.454021 
3658.000000	96.426470 
3657.000000	96.400642 
3656.000000	96.373542 
3655.000000	96.345729 
3654.000000	96.319533 
3653.000000	96.294777 
3652.000000	96.267977 
3651.000000	96.235736 
3650.000000	96.199120 
3649.000000	96.164606 
3648.000000	96.138907 
3647.000000	96.123169 
3646.000000	96.114383 
3645.000000	96.109306 
3644.000000	96.105997 
3643.000000	96.103475 
3642.000000	96.099822 
3641.000000	96.091457 
3640.000000	96.075927 
3639.000000	96.053740 
3638.000000	96.028397 
3637.000000	96.003235 
3636.000000	95.978560 
3635.000000	95.951804 
3634.000000	95.921061 
3633.000000	95.888490 
3632.000000	95.857780 
3631.000000	95.830007 
3630.000000	95.802770 
3629.000000	95.774083 
3628.000000	95.746587 
3627.000000	95.725299 
3626.000000	95.710566 
3625.000000	95.700005 
3624.000000	95.692556 
3623.000000	95.687852 
3622.000000	95.684857 
3621.000000	95.682491 
3620.000000	95.680304 
3619.000000	95.678832 
3618.000000	95.679692 
3617.000000	95.686128 
3616.000000	95.703096 
3615.000000	95.733653 
3614.000000	95.774116 
3613.000000	95.814875 
3612.000000	95.847098 
3611.000000	95.868041 
3610.000000	95.881325 
3609.000000	95.892949 
3608.000000	95.905890 
3607.000000	95.919614 
3606.000000	95.933402 
3605.000000	95.949161 
3604.000000	95.969675 
3603.000000	95.994124 
3602.000000	96.017367 
3601.000000	96.033963 
3600.000000	96.042871 
3599.000000	96.048153 
3598.000000	96.055679 
3597.000000	96.068628 
3596.000000	96.086733 
3595.000000	96.105519 
3594.000000	96.118293 
3593.000000	96.121910 
3592.000000	96.118552 
3591.000000	96.112808 
3590.000000	96.109058 
3589.000000	96.109978 
3588.000000	96.115573 
3587.000000	96.123286 
3586.000000	96.130555 
3585.000000	96.137220 
3584.000000	96.144940 
3583.000000	96.154330 
3582.000000	96.164510 
3581.000000	96.173525 
3580.000000	96.179592 
3579.000000	96.181790 
3578.000000	96.180540 
3577.000000	96.177753 
3576.000000	96.175714 
3575.000000	96.175531 
3574.000000	96.175700 
3573.000000	96.173398 
3572.000000	96.166869 
3571.000000	96.156479 
3570.000000	96.144240 
3569.000000	96.133090 
3568.000000	96.126202 
3567.000000	96.125322 
3566.000000	96.129002 
3565.000000	96.133679 
3564.000000	96.136506 
3563.000000	96.137107 
3562.000000	96.137033 
3561.000000	96.138082 
3560.000000	96.140341 
3559.000000	96.141892 
3558.000000	96.140903 
3557.000000	96.137731 
3556.000000	96.134422 
3555.000000	96.132686 
3554.000000	96.132707 
3553.000000	96.133130 
3552.000000	96.132156 
3551.000000	96.128634 
3550.000000	96.123031 
3549.000000	96.117603 
3548.000000	96.114971 
3547.000000	96.115603 
3546.000000	96.117275 
3545.000000	96.117670 
3544.000000	96.117254 
3543.000000	96.118241 
3542.000000	96.121442 
3541.000000	96.125542 
3540.000000	96.128844 
3539.000000	96.130472 
3538.000000	96.130207 
3537.000000	96.128067 
3536.000000	96.124626 
3535.000000	96.120911 
3534.000000	96.117894 
3533.000000	96.116172 
3532.000000	96.115919 
3531.000000	96.116872 
3530.000000	96.118135 
3529.000000	96.118515 
3528.000000	96.117389 
3527.000000	96.115209 
3526.000000	96.113067 
3525.000000	96.111907 
3524.000000	96.112149 
3523.000000	96.113682 
3522.000000	96.115976 
3521.000000	96.118393 
3520.000000	96.120674 
3519.000000	96.122768 
3518.000000	96.124265 
3517.000000	96.124240 
3516.000000	96.122141 
3515.000000	96.118691 
3514.000000	96.115632 
3513.000000	96.114298 
3512.000000	96.114470 
3511.000000	96.114702 
3510.000000	96.113793 
3509.000000	96.111899 
3508.000000	96.110163 
3507.000000	96.109404 
3506.000000	96.109351 
3505.000000	96.108981 
3504.000000	96.107462 
3503.000000	96.104722 
3502.000000	96.101404 
3501.000000	96.098476 
3500.000000	96.096781 
3499.000000	96.096699 
3498.000000	96.097926 
3497.000000	96.099608 
3496.000000	96.100733 
3495.000000	96.100697 
3494.000000	96.099592 
3493.000000	96.097859 
3492.000000	96.095583 
3491.000000	96.092355 
3490.000000	96.088175 
3489.000000	96.084049 
3488.000000	96.080968 
3487.000000	96.078569 
3486.000000	96.075649 
3485.000000	96.071995 
3484.000000	96.068830 
3483.000000	96.067225 
3482.000000	96.066788 
3481.000000	96.066362 
3480.000000	96.065392 
3479.000000	96.063928 
3478.000000	96.061726 
3477.000000	96.058231 
3476.000000	96.053373 
3475.000000	96.047966 
3474.000000	96.043192 
3473.000000	96.039778 
3472.000000	96.037573 
3471.000000	96.035659 
3470.000000	96.032949 
3469.000000	96.029030 
3468.000000	96.024407 
3467.000000	96.020021 
3466.000000	96.016579 
3465.000000	96.014120 
3464.000000	96.011920 
3463.000000	96.008866 
3462.000000	96.004386 
3461.000000	95.999144 
3460.000000	95.994468 
3459.000000	95.990851 
3458.000000	95.987384 
3457.000000	95.982828 
3456.000000	95.977066 
3455.000000	95.971182 
3454.000000	95.966381 
3453.000000	95.963069 
3452.000000	95.960892 
3451.000000	95.959240 
3450.000000	95.957469 
3449.000000	95.954914 
3448.000000	95.951028 
3447.000000	95.945793 
3446.000000	95.939970 
3445.000000	95.934711 
3444.000000	95.930668 
3443.000000	95.927415 
3442.000000	95.923776 
3441.000000	95.918903 
3440.000000	95.913108 
3439.000000	95.907530 
3438.000000	95.903014 
3437.000000	95.899446 
3436.000000	95.896267 
3435.000000	95.893348 
3434.000000	95.891126 
3433.000000	95.889847 
3432.000000	95.888921 
3431.000000	95.887348 
3430.000000	95.884514 
3429.000000	95.880544 
3428.000000	95.875881 
3427.000000	95.870874 
3426.000000	95.866024 
3425.000000	95.862296 
3424.000000	95.860588 
3423.000000	95.860480 
3422.000000	95.860101 
3421.000000	95.857989 
3420.000000	95.854753 
3419.000000	95.852146 
3418.000000	95.850767 
3417.000000	95.849617 
3416.000000	95.847825 
3415.000000	95.845742 
3414.000000	95.843952 
3413.000000	95.841978 
3412.000000	95.838763 
3411.000000	95.834147 
3410.000000	95.829350 
3409.000000	95.826084 
3408.000000	95.825326 
3407.000000	95.826642 
3406.000000	95.828437 
3405.000000	95.829100 
3404.000000	95.828257 
3403.000000	95.826687 
3402.000000	95.825208 
3401.000000	95.824001 
3400.000000	95.822906 
3399.000000	95.821814 
3398.000000	95.820608 
3397.000000	95.819308 
3396.000000	95.818402 
3395.000000	95.818599 
3394.000000	95.819981 
3393.000000	95.821758 
3392.000000	95.823007 
3391.000000	95.823471 
3390.000000	95.823565 
3389.000000	95.823998 
3388.000000	95.825546 
3387.000000	95.828657 
3386.000000	95.832747 
3385.000000	95.836004 
3384.000000	95.836657 
3383.000000	95.834787 
3382.000000	95.832732 
3381.000000	95.833153 
3380.000000	95.836520 
3379.000000	95.840803 
3378.000000	95.843756 
3377.000000	95.845411 
3376.000000	95.847554 
3375.000000	95.850985 
3374.000000	95.854303 
3373.000000	95.855749 
3372.000000	95.855582 
3371.000000	95.855914 
3370.000000	95.858376 
3369.000000	95.862563 
3368.000000	95.866714 
3367.000000	95.869431 
3366.000000	95.870615 
3365.000000	95.871136 
3364.000000	95.871999 
3363.000000	95.873708 
3362.000000	95.876162 
3361.000000	95.878990 
3360.000000	95.881980 
3359.000000	95.885168 
3358.000000	95.888567 
3357.000000	95.891995 
3356.000000	95.895230 
3355.000000	95.898269 
3354.000000	95.901350 
3353.000000	95.904730 
3352.000000	95.908476 
3351.000000	95.912419 
3350.000000	95.916253 
3349.000000	95.919686 
3348.000000	95.922618 
3347.000000	95.925230 
3346.000000	95.927875 
3345.000000	95.930787 
3344.000000	95.933862 
3343.000000	95.936783 
3342.000000	95.939401 
3341.000000	95.941961 
3340.000000	95.944810 
3339.000000	95.947914 
3338.000000	95.950881 
3337.000000	95.953435 
3336.000000	95.955716 
3335.000000	95.958115 
3334.000000	95.960900 
3333.000000	95.963997 
3332.000000	95.967119 
3331.000000	95.970027 
3330.000000	95.972721 
3329.000000	95.975407 
3328.000000	95.978317 
3327.000000	95.981531 
3326.000000	95.984935 
3325.000000	95.988314 
3324.000000	95.991483 
3323.000000	95.994393 
3322.000000	95.997144 
3321.000000	95.999906 
3320.000000	96.002793 
3319.000000	96.005793 
3318.000000	96.008840 
3317.000000	96.011891 
3316.000000	96.014935 
3315.000000	96.017950 
3314.000000	96.020908 
3313.000000	96.023830 
3312.000000	96.026788 
3311.000000	96.029847 
3310.000000	96.033009 
3309.000000	96.036239 
3308.000000	96.039483 
3307.000000	96.042633 
3306.000000	96.045558 
3305.000000	96.048225 
3304.000000	96.050786 
3303.000000	96.053512 
3302.000000	96.056568 
3301.000000	96.059894 
3300.000000	96.063220 
3299.000000	96.066273 
3298.000000	96.068970 
3297.000000	96.071461 
3296.000000	96.074016 
3295.000000	96.076839 
3294.000000	96.080009 
3293.000000	96.083522 
3292.000000	96.087301 
3291.000000	96.091173 
3290.000000	96.094895 
3289.000000	96.098282 
3288.000000	96.101278 
3287.000000	96.103936 
3286.000000	96.106346 
3285.000000	96.108616 
3284.000000	96.110911 
3283.000000	96.113434 
3282.000000	96.116352 
3281.000000	96.119661 
3280.000000	96.123087 
3279.000000	96.126238 
3278.000000	96.129009 
3277.000000	96.131749 
3276.000000	96.134881 
3275.000000	96.138365 
3274.000000	96.141739 
3273.000000	96.144748 
3272.000000	96.147705 
3271.000000	96.151079 
3270.000000	96.154943 
3269.000000	96.158944 
3268.000000	96.162668 
3267.000000	96.166002 
3266.000000	96.169147 
3265.000000	96.172402 
3264.000000	96.175893 
3263.000000	96.179495 
3262.000000	96.183011 
3261.000000	96.186407 
3260.000000	96.189784 
3259.000000	96.193181 
3258.000000	96.196538 
3257.000000	96.199865 
3256.000000	96.203285 
3255.000000	96.206845 
3254.000000	96.210417 
3253.000000	96.213878 
3252.000000	96.217280 
3251.000000	96.220759 
3250.000000	96.224354 
3249.000000	96.227993 
3248.000000	96.231613 
3247.000000	96.235238 
3246.000000	96.238911 
3245.000000	96.242638 
3244.000000	96.246399 
3243.000000	96.250172 
3242.000000	96.253953 
3241.000000	96.257748 
3240.000000	96.261564 
3239.000000	96.265404 
3238.000000	96.269266 
3237.000000	96.273153 
3236.000000	96.277063 
3235.000000	96.280994 
3234.000000	96.284938 
3233.000000	96.288888 
3232.000000	96.292846 
3231.000000	96.296815 
3230.000000	96.300804 
3229.000000	96.304816 
3228.000000	96.308851 
3227.000000	96.312911 
3226.000000	96.316996 
3225.000000	96.321110 
3224.000000	96.325255 
3223.000000	96.329423 
3222.000000	96.333607 
3221.000000	96.337810 
3220.000000	96.342039 
3219.000000	96.346299 
3218.000000	96.350588 
3217.000000	96.354902 
3216.000000	96.359244 
3215.000000	96.363624 
3214.000000	96.368047 
3213.000000	96.372511 
3212.000000	96.377004 
3211.000000	96.381501 
3210.000000	96.385979 
3209.000000	96.390451 
3208.000000	96.394955 
3207.000000	96.399513 
3206.000000	96.404087 
3205.000000	96.408624 
3204.000000	96.413127 
3203.000000	96.417674 
3202.000000	96.422333 
3201.000000	96.427097 
3200.000000	96.431884 
3199.000000	96.436609 
3198.000000	96.441248 
3197.000000	96.445835 
3196.000000	96.450429 
3195.000000	96.455080 
3194.000000	96.459833 
3193.000000	96.464731 
3192.000000	96.469765 
3191.000000	96.474822 
3190.000000	96.479725 
3189.000000	96.484378 
3188.000000	96.488847 
3187.000000	96.493305 
3186.000000	96.497908 
3185.000000	96.502692 
3184.000000	96.507548 
3183.000000	96.512332 
3182.000000	96.517055 
3181.000000	96.521875 
3180.000000	96.526847 
3179.000000	96.531792 
3178.000000	96.536521 
3177.000000	96.541091 
3176.000000	96.545719 
3175.000000	96.550505 
3174.000000	96.555416 
3173.000000	96.560436 
3172.000000	96.565522 
3171.000000	96.570424 
3170.000000	96.574849 
3169.000000	96.578827 
3168.000000	96.582738 
3167.000000	96.586912 
3166.000000	96.591341 
3165.000000	96.595878 
3164.000000	96.600429 
3163.000000	96.604916 
3162.000000	96.609225 
3161.000000	96.613318 
3160.000000	96.617319 
3159.000000	96.621413 
3158.000000	96.625701 
3157.000000	96.630185 
3156.000000	96.634800 
3155.000000	96.639421 
3154.000000	96.643917 
3153.000000	96.648277 
3152.000000	96.652617 
3151.000000	96.657010 
3150.000000	96.661353 
3149.000000	96.665482 
3148.000000	96.669369 
3147.000000	96.673181 
3146.000000	96.677171 
3145.000000	96.681471 
3144.000000	96.685982 
3143.000000	96.690406 
3142.000000	96.694494 
3141.000000	96.698242 
3140.000000	96.701885 
3139.000000	96.705692 
3138.000000	96.709754 
3137.000000	96.713971 
3136.000000	96.718151 
3135.000000	96.722123 
3134.000000	96.725852 
3133.000000	96.729464 
3132.000000	96.733104 
3131.000000	96.736755 
3130.000000	96.740332 
3129.000000	96.743944 
3128.000000	96.747879 
3127.000000	96.752277 
3126.000000	96.756982 
3125.000000	96.761756 
3124.000000	96.766441 
3123.000000	96.770855 
3122.000000	96.774776 
3121.000000	96.778197 
3120.000000	96.781484 
3119.000000	96.785071 
3118.000000	96.789062 
3117.000000	96.793217 
3116.000000	96.797200 
3115.000000	96.800769 
3114.000000	96.803899 
3113.000000	96.806909 
3112.000000	96.810412 
3111.000000	96.814937 
3110.000000	96.820497 
3109.000000	96.826419 
3108.000000	96.831704 
3107.000000	96.835713 
3106.000000	96.838573 
3105.000000	96.840945 
3104.000000	96.843270 
3103.000000	96.845372 
3102.000000	96.846912 
3101.000000	96.847955 
3100.000000	96.848951 
3099.000000	96.850443 
3098.000000	96.853098 
3097.000000	96.857707 
3096.000000	96.864430 
3095.000000	96.871954 
3094.000000	96.878215 
3093.000000	96.882286 
3092.000000	96.885007 
3091.000000	96.887613 
3090.000000	96.890316 
3089.000000	96.892597 
3088.000000	96.894323 
3087.000000	96.896073 
3086.000000	96.898683 
3085.000000	96.902672 
3084.000000	96.907552 
3083.000000	96.911656 
3082.000000	96.913617 
3081.000000	96.914370 
3080.000000	96.916478 
3079.000000	96.920844 
3078.000000	96.925555 
3077.000000	96.928882 
3076.000000	96.931811 
3075.000000	96.935992 
3074.000000	96.940599 
3073.000000	96.943289 
3072.000000	96.943632 
3071.000000	96.943615 
3070.000000	96.944894 
3069.000000	96.947363 
3068.000000	96.950463 
3067.000000	96.954088 
3066.000000	96.957725 
3065.000000	96.960114 
3064.000000	96.960434 
3063.000000	96.959003 
3062.000000	96.956553 
3061.000000	96.953681 
3060.000000	96.951212 
3059.000000	96.950297 
3058.000000	96.951898 
3057.000000	96.956327 
3056.000000	96.962749 
3055.000000	96.968558 
3054.000000	96.970351 
3053.000000	96.967195 
3052.000000	96.962666 
3051.000000	96.961924 
3050.000000	96.966255 
3049.000000	96.971758 
3048.000000	96.973745 
3047.000000	96.970996 
3046.000000	96.965266 
3045.000000	96.958544 
3044.000000	96.952212 
3043.000000	96.947938 
3042.000000	96.947195 
3041.000000	96.949168 
3040.000000	96.950159 
3039.000000	96.946267 
3038.000000	96.936854 
3037.000000	96.924895 
3036.000000	96.913618 
3035.000000	96.903256 
3034.000000	96.891782 
3033.000000	96.878269 
3032.000000	96.864195 
3031.000000	96.851532 
3030.000000	96.840715 
3029.000000	96.830854 
3028.000000	96.820674 
3027.000000	96.808559 
3026.000000	96.792930 
3025.000000	96.773815 
3024.000000	96.753431 
3023.000000	96.734158 
3022.000000	96.716417 
3021.000000	96.699489 
3020.000000	96.683418 
3019.000000	96.668440 
3018.000000	96.652837 
3017.000000	96.633272 
3016.000000	96.608020 
3015.000000	96.579013 
3014.000000	96.550434 
3013.000000	96.525721 
3012.000000	96.505446 
3011.000000	96.486871 
3010.000000	96.465574 
3009.000000	96.438907 
3008.000000	96.408390 
3007.000000	96.378187 
3006.000000	96.351087 
3005.000000	96.326614 
3004.000000	96.302748 
3003.000000	96.278236 
3002.000000	96.253083 
3001.000000	96.228137 
3000.000000	96.204716 
2999.000000	96.183589 
2998.000000	96.163808 
2997.000000	96.143597 
2996.000000	96.122724 
2995.000000	96.102266 
2994.000000	96.080834 
2993.000000	96.052747 
2992.000000	96.012909 
2991.000000	95.964172 
2990.000000	95.918085 
2989.000000	95.886898 
2988.000000	95.875187 
2987.000000	95.879114 
2986.000000	95.891927 
2985.000000	95.908838 
2984.000000	95.927013 
2983.000000	95.943349 
2982.000000	95.954514 
2981.000000	95.959109 
2980.000000	95.958459 
2979.000000	95.954764 
2978.000000	95.949240 
2977.000000	95.942357 
2976.000000	95.934951 
2975.000000	95.928338 
2974.000000	95.923947 
2973.000000	95.923586 
2972.000000	95.929301 
2971.000000	95.941584 
2970.000000	95.957915 
2969.000000	95.974566 
2968.000000	95.990297 
2967.000000	96.007231 
2966.000000	96.027546 
2965.000000	96.050409 
2964.000000	96.072878 
2963.000000	96.092818 
2962.000000	96.109850 
2961.000000	96.124165 
2960.000000	96.136130 
2959.000000	96.147413 
2958.000000	96.161136 
2957.000000	96.179582 
2956.000000	96.201573 
2955.000000	96.222777 
2954.000000	96.239297 
2953.000000	96.251306 
2952.000000	96.262969 
2951.000000	96.278282 
2950.000000	96.296699 
2949.000000	96.313200 
2948.000000	96.322983 
2947.000000	96.325651 
2946.000000	96.324913 
2945.000000	96.324926 
2944.000000	96.327349 
2943.000000	96.331501 
2942.000000	96.336002 
2941.000000	96.339597 
2940.000000	96.341545 
2939.000000	96.342211 
2938.000000	96.342763 
2937.000000	96.343688 
2936.000000	96.343911 
2935.000000	96.341839 
2934.000000	96.336990 
2933.000000	96.330184 
2932.000000	96.322683 
2931.000000	96.315896 
2930.000000	96.311506 
2929.000000	96.310624 
2928.000000	96.312377 
2927.000000	96.314104 
2926.000000	96.313658 
2925.000000	96.311427 
2924.000000	96.309791 
2923.000000	96.310757 
2922.000000	96.314287 
2921.000000	96.318717 
2920.000000	96.322555 
2919.000000	96.325788 
2918.000000	96.329145 
2917.000000	96.331878 
2916.000000	96.330979 
2915.000000	96.323853 
2914.000000	96.312053 
2913.000000	96.301120 
2912.000000	96.295701 
2911.000000	96.295219 
2910.000000	96.295208 
2909.000000	96.292561 
2908.000000	96.288473 
2907.000000	96.285830 
2906.000000	96.284455 
2905.000000	96.279835 
2904.000000	96.267530 
2903.000000	96.249305 
2902.000000	96.235210 
2901.000000	96.236490 
2900.000000	96.256609 
2899.000000	96.288556 
2898.000000	96.320355 
2897.000000	96.344127 
2896.000000	96.359047 
2895.000000	96.367686 
2894.000000	96.372830 
2893.000000	96.377714 
2892.000000	96.385822 
2891.000000	96.398026 
2890.000000	96.411189 
2889.000000	96.421572 
2888.000000	96.428940 
2887.000000	96.435679 
2886.000000	96.442797 
2885.000000	96.449360 
2884.000000	96.456030 
2883.000000	96.466367 
2882.000000	96.482959 
2881.000000	96.503896 
2880.000000	96.524938 
2879.000000	96.544433 
2878.000000	96.563952 
2877.000000	96.584334 
2876.000000	96.603435 
2875.000000	96.618724 
2874.000000	96.630440 
2873.000000	96.640822 
2872.000000	96.651270 
2871.000000	96.661718 
2870.000000	96.672302 
2869.000000	96.683901 
2868.000000	96.696868 
2867.000000	96.710536 
2866.000000	96.724386 
2865.000000	96.738724 
2864.000000	96.753937 
2863.000000	96.770211 
2862.000000	96.788263 
2861.000000	96.808902 
2860.000000	96.830999 
2859.000000	96.851352 
2858.000000	96.868042 
2857.000000	96.883156 
2856.000000	96.900390 
2855.000000	96.920331 
2854.000000	96.939896 
2853.000000	96.956243 
2852.000000	96.969546 
2851.000000	96.981988 
2850.000000	96.995516 
2849.000000	97.010833 
2848.000000	97.027225 
2847.000000	97.042727 
2846.000000	97.055385 
2845.000000	97.065014 
2844.000000	97.073322 
2843.000000	97.082161 
2842.000000	97.092157 
2841.000000	97.102935 
2840.000000	97.113733 
2839.000000	97.123559 
2838.000000	97.131637 
2837.000000	97.138159 
2836.000000	97.144217 
2835.000000	97.150907 
2834.000000	97.158974 
2833.000000	97.169116 
2832.000000	97.181397 
2831.000000	97.194023 
2830.000000	97.203831 
2829.000000	97.208837 
2828.000000	97.210015 
2827.000000	97.210357 
2826.000000	97.212631 
2825.000000	97.217925 
2824.000000	97.225330 
2823.000000	97.232420 
2822.000000	97.236900 
2821.000000	97.238634 
2820.000000	97.239693 
2819.000000	97.241974 
2818.000000	97.245304 
2817.000000	97.248432 
2816.000000	97.251096 
2815.000000	97.254194 
2814.000000	97.258181 
2813.000000	97.262132 
2812.000000	97.264498 
2811.000000	97.264505 
2810.000000	97.263032 
2809.000000	97.262391 
2808.000000	97.264819 
2807.000000	97.270649 
2806.000000	97.278032 
2805.000000	97.284630 
2804.000000	97.289346 
2803.000000	97.292305 
2802.000000	97.293995 
2801.000000	97.295131 
2800.000000	97.296848 
2799.000000	97.299982 
2798.000000	97.303990 
2797.000000	97.307236 
2796.000000	97.308672 
2795.000000	97.308934 
2794.000000	97.309624 
2793.000000	97.311777 
2792.000000	97.315161 
2791.000000	97.318826 
2790.000000	97.321968 
2789.000000	97.324275 
2788.000000	97.325802 
2787.000000	97.326905 
2786.000000	97.328200 
2785.000000	97.330242 
2784.000000	97.332982 
2783.000000	97.335786 
2782.000000	97.338096 
2781.000000	97.339974 
2780.000000	97.341840 
2779.000000	97.343907 
2778.000000	97.346076 
2777.000000	97.348191 
2776.000000	97.350211 
2775.000000	97.352181 
2774.000000	97.354133 
2773.000000	97.356070 
2772.000000	97.357989 
2771.000000	97.359905 
2770.000000	97.361838 
2769.000000	97.363793 
2768.000000	97.365759 
2767.000000	97.367709 
2766.000000	97.369610 
2765.000000	97.371448 
2764.000000	97.373239 
2763.000000	97.375003 
2762.000000	97.376746 
2761.000000	97.378470 
2760.000000	97.380179 
2759.000000	97.381874 
2758.000000	97.383559 
2757.000000	97.385230 
2756.000000	97.386886 
2755.000000	97.388526 
2754.000000	97.390154 
2753.000000	97.391772 
2752.000000	97.393377 
2751.000000	97.394962 
2750.000000	97.396523 
2749.000000	97.398059 
2748.000000	97.399574 
2747.000000	97.401066 
2746.000000	97.402534 
2745.000000	97.403982 
2744.000000	97.405419 
2743.000000	97.406853 
2742.000000	97.408287 
2741.000000	97.409718 
2740.000000	97.411147 
2739.000000	97.412576 
2738.000000	97.414002 
2737.000000	97.415423 
2736.000000	97.416834 
2735.000000	97.418241 
2734.000000	97.419649 
2733.000000	97.421062 
2732.000000	97.422479 
2731.000000	97.423896 
2730.000000	97.425309 
2729.000000	97.426713 
2728.000000	97.428102 
2727.000000	97.429466 
2726.000000	97.430804 
2725.000000	97.432120 
2724.000000	97.433427 
2723.000000	97.434738 
2722.000000	97.436058 
2721.000000	97.437387 
2720.000000	97.438719 
2719.000000	97.440052 
2718.000000	97.441386 
2717.000000	97.442717 
2716.000000	97.444033 
2715.000000	97.445319 
2714.000000	97.446574 
2713.000000	97.447824 
2712.000000	97.449086 
2711.000000	97.450342 
2710.000000	97.451557 
2709.000000	97.452721 
2708.000000	97.453876 
2707.000000	97.455075 
2706.000000	97.456350 
2705.000000	97.457697 
2704.000000	97.459068 
2703.000000	97.460364 
2702.000000	97.461500 
2701.000000	97.462540 
2700.000000	97.463719 
2699.000000	97.465224 
2698.000000	97.466955 
2697.000000	97.468539 
2696.000000	97.469663 
2695.000000	97.470333 
2694.000000	97.470828 
2693.000000	97.471409 
2692.000000	97.472127 
2691.000000	97.472916 
2690.000000	97.473749 
2689.000000	97.474622 
2688.000000	97.475413 
2687.000000	97.475954 
2686.000000	97.476308 
2685.000000	97.476826 
2684.000000	97.477802 
2683.000000	97.479124 
2682.000000	97.480371 
2681.000000	97.481219 
2680.000000	97.481602 
2679.000000	97.481619 
2678.000000	97.481538 
2677.000000	97.481802 
2676.000000	97.482655 
2675.000000	97.483671 
2674.000000	97.484083 
2673.000000	97.483764 
2672.000000	97.483503 
2671.000000	97.483993 
2670.000000	97.484898 
2669.000000	97.485355 
2668.000000	97.485143 
2667.000000	97.484804 
2666.000000	97.484770 
2665.000000	97.484891 
2664.000000	97.484951 
2663.000000	97.485118 
2662.000000	97.485607 
2661.000000	97.486139 
2660.000000	97.486075 
2659.000000	97.485075 
2658.000000	97.483493 
2657.000000	97.482092 
2656.000000	97.481387 
2655.000000	97.481229 
2654.000000	97.481001 
2653.000000	97.480270 
2652.000000	97.479260 
2651.000000	97.478663 
2650.000000	97.478964 
2649.000000	97.480012 
2648.000000	97.481150 
2647.000000	97.481708 
2646.000000	97.481367 
2645.000000	97.480170 
2644.000000	97.478446 
2643.000000	97.476771 
2642.000000	97.475763 
2641.000000	97.475669 
2640.000000	97.476172 
2639.000000	97.476693 
2638.000000	97.477014 
2637.000000	97.477367 
2636.000000	97.477956 
2635.000000	97.478672 
2634.000000	97.479306 
2633.000000	97.479778 
2632.000000	97.480044 
2631.000000	97.480019 
2630.000000	97.479780 
2629.000000	97.479627 
2628.000000	97.479751 
2627.000000	97.479992 
2626.000000	97.480088 
2625.000000	97.480039 
2624.000000	97.480056 
2623.000000	97.480246 
2622.000000	97.480495 
2621.000000	97.480636 
2620.000000	97.480625 
2619.000000	97.480543 
2618.000000	97.480508 
2617.000000	97.480601 
2616.000000	97.480816 
2615.000000	97.481089 
2614.000000	97.481357 
2613.000000	97.481600 
2612.000000	97.481834 
2611.000000	97.482070 
2610.000000	97.482308 
2609.000000	97.482545 
2608.000000	97.482778 
2607.000000	97.483002 
2606.000000	97.483215 
2605.000000	97.483419 
2604.000000	97.483620 
2603.000000	97.483825 
2602.000000	97.484036 
2601.000000	97.484255 
2600.000000	97.484481 
2599.000000	97.484713 
2598.000000	97.484944 
2597.000000	97.485172 
2596.000000	97.485397 
2595.000000	97.485620 
2594.000000	97.485838 
2593.000000	97.486031 
2592.000000	97.486198 
2591.000000	97.486431 
2590.000000	97.486828 
2589.000000	97.487318 
2588.000000	97.487697 
2587.000000	97.487914 
2586.000000	97.488148 
2585.000000	97.488549 
2584.000000	97.489067 
2583.000000	97.489576 
2582.000000	97.490029 
2581.000000	97.490441 
2580.000000	97.490851 
2579.000000	97.491338 
2578.000000	97.492021 
2577.000000	97.492953 
2576.000000	97.493999 
2575.000000	97.494800 
2574.000000	97.494971 
2573.000000	97.494478 
2572.000000	97.493774 
2571.000000	97.493367 
2570.000000	97.493327 
2569.000000	97.493456 
2568.000000	97.493788 
2567.000000	97.494493 
2566.000000	97.495322 
2565.000000	97.495696 
2564.000000	97.495492 
2563.000000	97.495320 
2562.000000	97.495745 
2561.000000	97.496699 
2560.000000	97.497915 
2559.000000	97.499498 
2558.000000	97.501575 
2557.000000	97.503658 
2556.000000	97.504965 
2555.000000	97.505292 
2554.000000	97.505149 
2553.000000	97.505093 
2552.000000	97.505186 
2551.000000	97.505364 
2550.000000	97.505816 
2549.000000	97.506627 
2548.000000	97.507345 
2547.000000	97.507418 
2546.000000	97.506975 
2545.000000	97.506688 
2544.000000	97.506890 
2543.000000	97.507284 
2542.000000	97.507526 
2541.000000	97.507679 
2540.000000	97.507964 
2539.000000	97.508379 
2538.000000	97.508760 
2537.000000	97.509039 
2536.000000	97.509280 
2535.000000	97.509539 
2534.000000	97.509812 
2533.000000	97.510082 
2532.000000	97.510352 
2531.000000	97.510627 
2530.000000	97.510907 
2529.000000	97.511190 
2528.000000	97.511472 
2527.000000	97.511753 
2526.000000	97.512036 
2525.000000	97.512329 
2524.000000	97.512631 
2523.000000	97.512938 
2522.000000	97.513238 
2521.000000	97.513526 
2520.000000	97.513801 
2519.000000	97.514071 
2518.000000	97.514342 
2517.000000	97.514616 
2516.000000	97.514891 
2515.000000	97.515167 
2514.000000	97.515453 
2513.000000	97.515765 
2512.000000	97.516113 
2511.000000	97.516496 
2510.000000	97.516909 
2509.000000	97.517338 
2508.000000	97.517775 
2507.000000	97.518214 
2506.000000	97.518657 
2505.000000	97.519115 
2504.000000	97.519595 
2503.000000	97.520091 
2502.000000	97.520582 
2501.000000	97.521057 
2500.000000	97.521517 
2499.000000	97.521979 
2498.000000	97.522455 
2497.000000	97.522947 
2496.000000	97.523446 
2495.000000	97.523948 
2494.000000	97.524450 
2493.000000	97.524949 
2492.000000	97.525445 
2491.000000	97.525936 
2490.000000	97.526425 
2489.000000	97.526914 
2488.000000	97.527396 
2487.000000	97.527868 
2486.000000	97.528329 
2485.000000	97.528785 
2484.000000	97.529240 
2483.000000	97.529691 
2482.000000	97.530128 
2481.000000	97.530545 
2480.000000	97.530944 
2479.000000	97.531337 
2478.000000	97.531734 
2477.000000	97.532140 
2476.000000	97.532548 
2475.000000	97.532955 
2474.000000	97.533358 
2473.000000	97.533732 
2472.000000	97.534067 
2471.000000	97.534372 
2470.000000	97.534666 
2469.000000	97.534997 
2468.000000	97.535438 
2467.000000	97.535978 
2466.000000	97.536476 
2465.000000	97.536787 
2464.000000	97.536959 
2463.000000	97.537238 
2462.000000	97.537891 
2461.000000	97.539028 
2460.000000	97.540485 
2459.000000	97.541837 
2458.000000	97.542610 
2457.000000	97.542712 
2456.000000	97.542385 
2455.000000	97.541836 
2454.000000	97.541128 
2453.000000	97.540334 
2452.000000	97.539655 
2451.000000	97.539318 
2450.000000	97.539491 
2449.000000	97.540267 
2448.000000	97.541509 
2447.000000	97.542749 
2446.000000	97.543537 
2445.000000	97.543864 
2444.000000	97.544033 
2443.000000	97.544196 
2442.000000	97.544304 
2441.000000	97.544434 
2440.000000	97.544795 
2439.000000	97.545479 
2438.000000	97.546559 
2437.000000	97.548242 
2436.000000	97.550489 
2435.000000	97.552581 
2434.000000	97.553643 
2433.000000	97.553615 
2432.000000	97.553299 
2431.000000	97.553489 
2430.000000	97.554340 
2429.000000	97.555666 
2428.000000	97.557216 
2427.000000	97.558500 
2426.000000	97.558922 
2425.000000	97.558405 
2424.000000	97.557680 
2423.000000	97.557637 
2422.000000	97.558504 
2421.000000	97.559977 
2420.000000	97.561762 
2419.000000	97.563689 
2418.000000	97.565532 
2417.000000	97.567152 
2416.000000	97.568636 
2415.000000	97.570058 
2414.000000	97.571300 
2413.000000	97.572354 
2412.000000	97.573527 
2411.000000	97.575055 
2410.000000	97.576681 
2409.000000	97.577984 
2408.000000	97.578988 
2407.000000	97.580030 
2406.000000	97.581174 
2405.000000	97.582190 
2404.000000	97.582992 
2403.000000	97.583661 
2402.000000	97.584200 
2401.000000	97.584738 
2400.000000	97.585843 
2399.000000	97.588092 
2398.000000	97.591432 
2397.000000	97.595212 
2396.000000	97.598696 
2395.000000	97.601261 
2394.000000	97.602335 
2393.000000	97.602087 
2392.000000	97.601658 
2391.000000	97.602373 
2390.000000	97.604278 
2389.000000	97.606502 
2388.000000	97.608554 
2387.000000	97.610504 
2386.000000	97.612496 
2385.000000	97.614481 
2384.000000	97.616346 
2383.000000	97.617999 
2382.000000	97.619370 
2381.000000	97.620521 
2380.000000	97.621653 
2379.000000	97.622913 
2378.000000	97.624232 
2377.000000	97.625457 
2376.000000	97.626556 
2375.000000	97.627622 
2374.000000	97.628703 
2373.000000	97.629747 
2372.000000	97.630691 
2371.000000	97.631537 
2370.000000	97.632314 
2369.000000	97.633029 
2368.000000	97.633676 
2367.000000	97.634252 
2366.000000	97.634760 
2365.000000	97.635215 
2364.000000	97.635637 
2363.000000	97.636038 
2362.000000	97.636416 
2361.000000	97.636759 
2360.000000	97.637048 
2359.000000	97.637265 
2358.000000	97.637394 
2357.000000	97.637424 
2356.000000	97.637356 
2355.000000	97.637197 
2354.000000	97.636961 
2353.000000	97.636674 
2352.000000	97.636368 
2351.000000	97.636055 
2350.000000	97.635708 
2349.000000	97.635290 
2348.000000	97.634787 
2347.000000	97.634230 
2346.000000	97.633668 
2345.000000	97.633128 
2344.000000	97.632608 
2343.000000	97.632084 
2342.000000	97.631542 
2341.000000	97.630985 
2340.000000	97.630414 
2339.000000	97.629821 
2338.000000	97.629190 
2337.000000	97.628506 
2336.000000	97.627768 
2335.000000	97.626984 
2334.000000	97.626161 
2333.000000	97.625306 
2332.000000	97.624424 
2331.000000	97.623520 
2330.000000	97.622591 
2329.000000	97.621635 
2328.000000	97.620655 
2327.000000	97.619659 
2326.000000	97.618659 
2325.000000	97.617654 
2324.000000	97.616633 
2323.000000	97.615652 
2322.000000	97.614772 
2321.000000	97.613911 
2320.000000	97.612910 
2319.000000	97.611803 
2318.000000	97.610766 
2317.000000	97.609760 
2316.000000	97.608454 
2315.000000	97.606863 
2314.000000	97.605501 
2313.000000	97.604926 
2312.000000	97.605205 
2311.000000	97.606022 
2310.000000	97.606697 
2309.000000	97.606301 
2308.000000	97.604527 
2307.000000	97.602266 
2306.000000	97.600575 
2305.000000	97.599358 
2304.000000	97.598022 
2303.000000	97.596839 
2302.000000	97.596941 
2301.000000	97.598611 
2300.000000	97.600319 
2299.000000	97.599832 
2298.000000	97.595838 
2297.000000	97.588727 
2296.000000	97.580628 
2295.000000	97.574182 
2294.000000	97.570747 
2293.000000	97.569314 
2292.000000	97.567752 
2291.000000	97.564933 
2290.000000	97.561827 
2289.000000	97.560195 
2288.000000	97.560637 
2287.000000	97.561797 
2286.000000	97.561765 
2285.000000	97.560145 
2284.000000	97.558618 
2283.000000	97.558906 
2282.000000	97.560615 
2281.000000	97.561654 
2280.000000	97.560518 
2279.000000	97.557465 
2278.000000	97.553760 
2277.000000	97.550833 
2276.000000	97.549878 
2275.000000	97.551192 
2274.000000	97.553499 
2273.000000	97.554954 
2272.000000	97.555030 
2271.000000	97.554603 
2270.000000	97.554409 
2269.000000	97.554470 
2268.000000	97.554989 
2267.000000	97.556460 
2266.000000	97.558585 
2265.000000	97.560120 
2264.000000	97.560186 
2263.000000	97.558971 
2262.000000	97.557057 
2261.000000	97.554895 
2260.000000	97.553099 
2259.000000	97.552225 
2258.000000	97.552039 
2257.000000	97.551841 
2256.000000	97.551806 
2255.000000	97.553102 
2254.000000	97.556170 
2253.000000	97.559532 
2252.000000	97.561020 
2251.000000	97.559809 
2250.000000	97.556501 
2249.000000	97.552227 
2248.000000	97.548307 
2247.000000	97.546019 
2246.000000	97.545780 
2245.000000	97.546658 
2244.000000	97.547039 
2243.000000	97.546216 
2242.000000	97.544832 
2241.000000	97.543946 
2240.000000	97.544091 
2239.000000	97.545184 
2238.000000	97.546671 
2237.000000	97.547727 
2236.000000	97.547881 
2235.000000	97.547376 
2234.000000	97.546850 
2233.000000	97.546730 
2232.000000	97.547063 
2231.000000	97.547690 
2230.000000	97.548274 
2229.000000	97.548372 
2228.000000	97.547845 
2227.000000	97.547156 
2226.000000	97.546908 
2225.000000	97.547084 
2224.000000	97.547092 
2223.000000	97.546596 
2222.000000	97.545912 
2221.000000	97.545572 
2220.000000	97.545668 
2219.000000	97.545924 
2218.000000	97.546129 
2217.000000	97.546318 
2216.000000	97.546588 
2215.000000	97.546923 
2214.000000	97.547258 
2213.000000	97.547600 
2212.000000	97.548002 
2211.000000	97.548474 
2210.000000	97.549002 
2209.000000	97.549597 
2208.000000	97.550226 
2207.000000	97.550848 
2206.000000	97.551429 
2205.000000	97.551940 
2204.000000	97.552363 
2203.000000	97.552704 
2202.000000	97.552994 
2201.000000	97.553263 
2200.000000	97.553529 
2199.000000	97.553802 
2198.000000	97.554076 
2197.000000	97.554330 
2196.000000	97.554600 
2195.000000	97.555015 
2194.000000	97.555654 
2193.000000	97.556375 
2192.000000	97.557007 
2191.000000	97.557573 
2190.000000	97.558159 
2189.000000	97.558761 
2188.000000	97.559473 
2187.000000	97.560490 
2186.000000	97.561610 
2185.000000	97.562108 
2184.000000	97.561691 
2183.000000	97.561431 
2182.000000	97.562866 
2181.000000	97.566139 
2180.000000	97.569374 
2179.000000	97.570557 
2178.000000	97.569567 
2177.000000	97.568224 
2176.000000	97.568550 
2175.000000	97.571041 
2174.000000	97.574534 
2173.000000	97.577530 
2172.000000	97.579748 
2171.000000	97.582008 
2170.000000	97.584474 
2169.000000	97.585664 
2168.000000	97.584008 
2167.000000	97.580101 
2166.000000	97.576334 
2165.000000	97.574034 
2164.000000	97.572202 
2163.000000	97.569888 
2162.000000	97.569030 
2161.000000	97.573382 
2160.000000	97.584658 
2159.000000	97.600381 
2158.000000	97.615480 
2157.000000	97.626201 
2156.000000	97.631705 
2155.000000	97.632877 
2154.000000	97.631440 
2153.000000	97.629941 
2152.000000	97.630461 
2151.000000	97.632129 
2150.000000	97.631639 
2149.000000	97.627781 
2148.000000	97.624136 
2147.000000	97.625212 
2146.000000	97.630793 
2145.000000	97.636516 
2144.000000	97.639878 
2143.000000	97.642775 
2142.000000	97.647149 
2141.000000	97.651104 
2140.000000	97.651618 
2139.000000	97.649414 
2138.000000	97.648755 
2137.000000	97.652494 
2136.000000	97.658837 
2135.000000	97.663026 
2134.000000	97.661620 
2133.000000	97.655277 
2132.000000	97.648315 
2131.000000	97.644810 
2130.000000	97.645036 
2129.000000	97.646223 
2128.000000	97.646232 
2127.000000	97.645619 
2126.000000	97.646022 
2125.000000	97.647774 
2124.000000	97.649757 
2123.000000	97.650710 
2122.000000	97.649958 
2121.000000	97.647480 
2120.000000	97.644017 
2119.000000	97.640793 
2118.000000	97.638693 
2117.000000	97.637737 
2116.000000	97.637329 
2115.000000	97.636700 
2114.000000	97.635074 
2113.000000	97.632217 
2112.000000	97.629212 
2111.000000	97.627976 
2110.000000	97.629380 
2109.000000	97.632244 
2108.000000	97.634469 
2107.000000	97.635002 
2106.000000	97.634266 
2105.000000	97.633347 
2104.000000	97.633256 
2103.000000	97.634312 
2102.000000	97.635713 
2101.000000	97.636044 
2100.000000	97.634759 
2099.000000	97.632983 
2098.000000	97.632479 
2097.000000	97.633944 
2096.000000	97.636706 
2095.000000	97.639545 
2094.000000	97.641427 
2093.000000	97.641880 
2092.000000	97.641079 
2091.000000	97.639854 
2090.000000	97.639265 
2089.000000	97.639737 
2088.000000	97.640758 
2087.000000	97.641361 
2086.000000	97.640943 
2085.000000	97.639673 
2084.000000	97.638369 
2083.000000	97.637869 
2082.000000	97.638363 
2081.000000	97.639371 
2080.000000	97.640430 
2079.000000	97.641619 
2078.000000	97.643068 
2077.000000	97.644346 
2076.000000	97.644941 
2075.000000	97.645163 
2074.000000	97.645798 
2073.000000	97.646773 
2072.000000	97.646995 
2071.000000	97.645770 
2070.000000	97.643771 
2069.000000	97.642302 
2068.000000	97.642049 
2067.000000	97.642872 
2066.000000	97.644202 
2065.000000	97.645055 
2064.000000	97.644368 
2063.000000	97.642207 
2062.000000	97.640423 
2061.000000	97.641157 
2060.000000	97.644849 
2059.000000	97.650240 
2058.000000	97.655614 
2057.000000	97.659703 
2056.000000	97.661488 
2055.000000	97.660095 
2054.000000	97.655894 
2053.000000	97.651332 
2052.000000	97.649398 
2051.000000	97.650815 
2050.000000	97.653488 
2049.000000	97.654912 
2048.000000	97.655063 
2047.000000	97.655919 
2046.000000	97.658557 
2045.000000	97.662046 
2044.000000	97.665018 
2043.000000	97.667089 
2042.000000	97.668553 
2041.000000	97.669824 
2040.000000	97.671609 
2039.000000	97.674831 
2038.000000	97.679632 
2037.000000	97.684801 
2036.000000	97.688780 
2035.000000	97.691080 
2034.000000	97.692536 
2033.000000	97.694433 
2032.000000	97.697389 
2031.000000	97.700646 
2030.000000	97.702439 
2029.000000	97.701608 
2028.000000	97.698993 
2027.000000	97.696606 
2026.000000	97.695411 
2025.000000	97.695080 
2024.000000	97.695675 
2023.000000	97.698212 
2022.000000	97.703046 
2021.000000	97.708300 
2020.000000	97.710964 
2019.000000	97.709696 
2018.000000	97.705507 
2017.000000	97.700723 
2016.000000	97.697306 
2015.000000	97.695904 
2014.000000	97.695900 
2013.000000	97.695881 
2012.000000	97.694962 
2011.000000	97.693920 
2010.000000	97.694309 
2009.000000	97.696397 
2008.000000	97.698592 
2007.000000	97.699183 
2006.000000	97.698150 
2005.000000	97.696785 
2004.000000	97.696176 
2003.000000	97.696529 
2002.000000	97.697528 
2001.000000	97.698469 
2000.000000	97.698261 
1999.000000	97.696067 
1998.000000	97.692100 
1997.000000	97.687697 
1996.000000	97.684367 
1995.000000	97.682723 
1994.000000	97.682359 
1993.000000	97.682322 
1992.000000	97.681804 
1991.000000	97.680749 
1990.000000	97.679897 
1989.000000	97.680060 
1988.000000	97.681207 
1987.000000	97.682184 
1986.000000	97.681638 
1985.000000	97.679256 
1984.000000	97.676080 
1983.000000	97.673627 
1982.000000	97.672486 
1981.000000	97.672209 
1980.000000	97.672225 
1979.000000	97.672456 
1978.000000	97.672897 
1977.000000	97.673296 
1976.000000	97.673521 
1975.000000	97.673796 
1974.000000	97.674320 
1973.000000	97.675005 
1972.000000	97.675781 
1971.000000	97.676702 
1970.000000	97.677450 
1969.000000	97.677203 
1968.000000	97.675422 
1967.000000	97.672560 
1966.000000	97.669878 
1965.000000	97.668380 
1964.000000	97.668230 
1963.000000	97.669058 
1962.000000	97.670364 
1961.000000	97.671533 
1960.000000	97.671787 
1959.000000	97.670630 
1958.000000	97.668391 
1957.000000	97.666219 
1956.000000	97.665112 
1955.000000	97.664961 
1954.000000	97.664790 
1953.000000	97.663866 
1952.000000	97.662323 
1951.000000	97.660688 
1950.000000	97.659297 
1949.000000	97.658338 
1948.000000	97.657966 
1947.000000	97.658056 
1946.000000	97.657997 
1945.000000	97.657173 
1944.000000	97.655536 
1943.000000	97.653458 
1942.000000	97.651273 
1941.000000	97.649146 
1940.000000	97.647294 
1939.000000	97.645858 
1938.000000	97.644721 
1937.000000	97.643852 
1936.000000	97.643420 
1935.000000	97.643278 
1934.000000	97.642747 
1933.000000	97.641480 
1932.000000	97.640105 
1931.000000	97.639455 
1930.000000	97.639453 
1929.000000	97.639146 
1928.000000	97.637951 
1927.000000	97.636184 
1926.000000	97.634413 
1925.000000	97.632826 
1924.000000	97.631411 
1923.000000	97.630321 
1922.000000	97.629530 
1921.000000	97.628503 
1920.000000	97.626906 
1919.000000	97.625163 
1918.000000	97.623745 
1917.000000	97.622317 
1916.000000	97.620340 
1915.000000	97.618232 
1914.000000	97.616834 
1913.000000	97.616130 
1912.000000	97.615335 
1911.000000	97.614291 
1910.000000	97.613695 
1909.000000	97.613811 
1908.000000	97.614098 
1907.000000	97.614033 
1906.000000	97.613427 
1905.000000	97.611973 
1904.000000	97.609383 
1903.000000	97.606289 
1902.000000	97.603900 
1901.000000	97.602492 
1900.000000	97.601394 
1899.000000	97.600264 
1898.000000	97.599446 
1897.000000	97.599061 
1896.000000	97.598457 
1895.000000	97.596979 
1894.000000	97.594699 
1893.000000	97.592062 
1892.000000	97.589476 
1891.000000	97.587461 
1890.000000	97.586543 
1889.000000	97.586491 
1888.000000	97.586447 
1887.000000	97.586196 
1886.000000	97.586324 
1885.000000	97.586829 
1884.000000	97.586644 
1883.000000	97.585031 
1882.000000	97.582728 
1881.000000	97.581214 
1880.000000	97.581120 
1879.000000	97.581760 
1878.000000	97.581908 
1877.000000	97.581174 
1876.000000	97.580362 
1875.000000	97.580559 
1874.000000	97.582081 
1873.000000	97.584170 
1872.000000	97.585679 
1871.000000	97.586032 
1870.000000	97.585434 
1869.000000	97.584583 
1868.000000	97.584278 
1867.000000	97.585152 
1866.000000	97.587099 
1865.000000	97.588812 
1864.000000	97.589043 
1863.000000	97.588310 
1862.000000	97.588481 
1861.000000	97.590565 
1860.000000	97.593707 
1859.000000	97.596544 
1858.000000	97.598746 
1857.000000	97.600594 
1856.000000	97.602203 
1855.000000	97.603639 
1854.000000	97.604813 
1853.000000	97.605205 
1852.000000	97.605066 
1851.000000	97.606145 
1850.000000	97.609682 
1849.000000	97.614668 
1848.000000	97.618778 
1847.000000	97.621200 
1846.000000	97.623103 
1845.000000	97.625576 
1844.000000	97.628216 
1843.000000	97.630385 
1842.000000	97.632433 
1841.000000	97.634711 
1840.000000	97.637382 
1839.000000	97.640590 
1838.000000	97.643693 
1837.000000	97.645140 
1836.000000	97.644245 
1835.000000	97.642810 
1834.000000	97.643138 
1833.000000	97.645167 
1832.000000	97.647402 
1831.000000	97.648876 
1830.000000	97.649345 
1829.000000	97.649097 
1828.000000	97.649010 
1827.000000	97.650054 
1826.000000	97.652521 
1825.000000	97.655432 
1824.000000	97.657031 
1823.000000	97.656727 
1822.000000	97.655736 
1821.000000	97.655167 
1820.000000	97.654803 
1819.000000	97.654215 
1818.000000	97.654472 
1817.000000	97.656723 
1816.000000	97.659383 
1815.000000	97.660225 
1814.000000	97.659704 
1813.000000	97.659988 
1812.000000	97.661129 
1811.000000	97.660302 
1810.000000	97.657106 
1809.000000	97.655025 
1808.000000	97.655871 
1807.000000	97.658039 
1806.000000	97.660023 
1805.000000	97.661615 
1804.000000	97.661928 
1803.000000	97.659597 
1802.000000	97.655012 
1801.000000	97.650955 
1800.000000	97.648988 
1799.000000	97.647719 
1798.000000	97.646636 
1797.000000	97.646350 
1796.000000	97.646026 
1795.000000	97.644891 
1794.000000	97.644524 
1793.000000	97.647494 
1792.000000	97.652646 
1791.000000	97.655748 
1790.000000	97.656463 
1789.000000	97.657654 
1788.000000	97.660276 
1787.000000	97.663025 
1786.000000	97.664879 
1785.000000	97.665840 
1784.000000	97.665860 
1783.000000	97.665518 
1782.000000	97.665854 
1781.000000	97.667491 
1780.000000	97.670253 
1779.000000	97.673256 
1778.000000	97.676377 
1777.000000	97.679544 
1776.000000	97.682096 
1775.000000	97.683777 
1774.000000	97.684951 
1773.000000	97.686614 
1772.000000	97.688819 
1771.000000	97.689709 
1770.000000	97.688538 
1769.000000	97.687118 
1768.000000	97.687659 
1767.000000	97.690234 
1766.000000	97.692964 
1765.000000	97.694746 
1764.000000	97.696151 
1763.000000	97.697842 
1762.000000	97.699390 
1761.000000	97.700304 
1760.000000	97.700887 
1759.000000	97.701388 
1758.000000	97.701713 
1757.000000	97.701795 
1756.000000	97.702245 
1755.000000	97.702851 
1754.000000	97.701971 
1753.000000	97.698665 
1752.000000	97.694817 
1751.000000	97.693996 
1750.000000	97.696975 
1749.000000	97.700914 
1748.000000	97.703526 
1747.000000	97.705044 
1746.000000	97.705538 
1745.000000	97.704951 
1744.000000	97.704503 
1743.000000	97.704764 
1742.000000	97.704499 
1741.000000	97.703400 
1740.000000	97.703494 
1739.000000	97.706002 
1738.000000	97.708370 
1737.000000	97.707792 
1736.000000	97.703726 
1735.000000	97.698199 
1734.000000	97.693797 
1733.000000	97.690658 
1732.000000	97.689521 
1731.000000	97.692481 
1730.000000	97.699263 
1729.000000	97.705132 
1728.000000	97.706741 
1727.000000	97.705344 
1726.000000	97.703678 
1725.000000	97.702756 
1724.000000	97.702235 
1723.000000	97.701579 
1722.000000	97.700938 
1721.000000	97.699733 
1720.000000	97.697097 
1719.000000	97.692840 
1718.000000	97.688273 
1717.000000	97.685398 
1716.000000	97.681711 
1715.000000	97.674622 
1714.000000	97.667709 
1713.000000	97.663512 
1712.000000	97.659894 
1711.000000	97.655843 
1710.000000	97.652781 
1709.000000	97.650398 
1708.000000	97.646859 
1707.000000	97.642496 
1706.000000	97.639772 
1705.000000	97.638051 
1704.000000	97.631189 
1703.000000	97.616637 
1702.000000	97.597780 
1701.000000	97.584423 
1700.000000	97.580621 
1699.000000	97.576422 
1698.000000	97.569117 
1697.000000	97.563678 
1696.000000	97.560111 
1695.000000	97.555030 
1694.000000	97.547915 
1693.000000	97.540331 
1692.000000	97.532242 
1691.000000	97.523061 
1690.000000	97.513368 
1689.000000	97.503950 
1688.000000	97.494890 
1687.000000	97.485917 
1686.000000	97.477210 
1685.000000	97.470954 
1684.000000	97.464441 
1683.000000	97.454116 
1682.000000	97.443482 
1681.000000	97.434152 
1680.000000	97.426963 
1679.000000	97.420962 
1678.000000	97.413237 
1677.000000	97.401293 
1676.000000	97.387740 
1675.000000	97.377448 
1674.000000	97.368480 
1673.000000	97.356405 
1672.000000	97.342621 
1671.000000	97.332108 
1670.000000	97.327022 
1669.000000	97.322552 
1668.000000	97.316938 
1667.000000	97.313279 
1666.000000	97.309868 
1665.000000	97.303458 
1664.000000	97.294808 
1663.000000	97.287009 
1662.000000	97.278760 
1661.000000	97.265244 
1660.000000	97.249073 
1659.000000	97.236749 
1658.000000	97.230738 
1657.000000	97.225136 
1656.000000	97.216768 
1655.000000	97.205559 
1654.000000	97.196655 
1653.000000	97.185940 
1652.000000	97.167612 
1651.000000	97.151856 
1650.000000	97.137796 
1649.000000	97.124920 
1648.000000	97.113421 
1647.000000	97.106104 
1646.000000	97.102782 
1645.000000	97.102064 
1644.000000	97.099356 
1643.000000	97.094770 
1642.000000	97.091398 
1641.000000	97.090417 
1640.000000	97.089557 
1639.000000	97.085907 
1638.000000	97.079690 
1637.000000	97.074228 
1636.000000	97.072146 
1635.000000	97.074456 
1634.000000	97.079970 
1633.000000	97.084404 
1632.000000	97.084757 
1631.000000	97.083921 
1630.000000	97.087337 
1629.000000	97.095475 
1628.000000	97.104751 
1627.000000	97.113991 
1626.000000	97.123799 
1625.000000	97.133097 
1624.000000	97.142228 
1623.000000	97.154329 
1622.000000	97.169457 
1621.000000	97.181691 
1620.000000	97.188614 
1619.000000	97.194602 
1618.000000	97.205105 
1617.000000	97.217859 
1616.000000	97.225806 
1615.000000	97.231892 
1614.000000	97.240852 
1613.000000	97.249383 
1612.000000	97.253979 
1611.000000	97.258073 
1610.000000	97.267040 
1609.000000	97.280378 
1608.000000	97.294560 
1607.000000	97.308522 
1606.000000	97.320703 
1605.000000	97.328961 
1604.000000	97.335917 
1603.000000	97.345893 
1602.000000	97.358288 
1601.000000	97.369022 
1600.000000	97.377593 
1599.000000	97.387139 
1598.000000	97.397773 
1597.000000	97.406583 
1596.000000	97.413403 
1595.000000	97.422051 
1594.000000	97.434588 
1593.000000	97.447772 
1592.000000	97.458176 
1591.000000	97.466898 
1590.000000	97.476227 
1589.000000	97.485400 
1588.000000	97.493481 
1587.000000	97.502519 
1586.000000	97.513488 
1585.000000	97.522772 
1584.000000	97.528681 
1583.000000	97.535242 
1582.000000	97.545027 
1581.000000	97.555615 
1580.000000	97.565230 
1579.000000	97.576389 
1578.000000	97.591414 
1577.000000	97.608389 
1576.000000	97.622016 
1575.000000	97.631643 
1574.000000	97.639357 
1573.000000	97.644810 
1572.000000	97.649906 
1571.000000	97.658425 
1570.000000	97.669027 
1569.000000	97.672333 
1568.000000	97.669115 
1567.000000	97.668646 
1566.000000	97.673542 
1565.000000	97.679676 
1564.000000	97.686951 
1563.000000	97.694594 
1562.000000	97.700428 
1561.000000	97.697974 
1560.000000	97.696894 
1559.000000	97.705329 
1558.000000	97.708197 
1557.000000	97.706089 
1556.000000	97.703253 
1555.000000	97.704798 
1554.000000	97.706067 
1553.000000	97.705948 
1552.000000	97.704159 
1551.000000	97.701472 
1550.000000	97.696276 
1549.000000	97.689695 
1548.000000	97.684990 
1547.000000	97.684248 
1546.000000	97.685201 
1545.000000	97.684896 
1544.000000	97.683025 
1543.000000	97.681140 
1542.000000	97.681551 
1541.000000	97.684408 
1540.000000	97.677710 
1539.000000	97.658366 
1538.000000	97.639671 
1537.000000	97.624743 
1536.000000	97.611292 
1535.000000	97.600362 
1534.000000	97.594889 
1533.000000	97.593095 
1532.000000	97.589763 
1531.000000	97.581538 
1530.000000	97.570423 
1529.000000	97.559683 
1528.000000	97.549722 
1527.000000	97.539940 
1526.000000	97.530868 
1525.000000	97.523824 
1524.000000	97.519155 
1523.000000	97.515708 
1522.000000	97.511399 
1521.000000	97.502632 
1520.000000	97.487671 
1519.000000	97.469086 
1518.000000	97.450568 
1517.000000	97.435150 
1516.000000	97.423641 
1515.000000	97.415243 
1514.000000	97.408249 
1513.000000	97.401398 
1512.000000	97.393436 
1511.000000	97.382052 
1510.000000	97.367374 
1509.000000	97.352893 
1508.000000	97.343472 
1507.000000	97.335811 
1506.000000	97.323818 
1505.000000	97.310140 
1504.000000	97.296720 
1503.000000	97.283419 
1502.000000	97.269879 
1501.000000	97.257156 
1500.000000	97.246247 
1499.000000	97.236343 
1498.000000	97.224498 
1497.000000	97.210760 
1496.000000	97.198146 
1495.000000	97.187841 
1494.000000	97.178765 
1493.000000	97.170048 
1492.000000	97.161794 
1491.000000	97.154193 
1490.000000	97.146298 
1489.000000	97.137389 
1488.000000	97.126557 
1487.000000	97.112692 
1486.000000	97.097514 
1485.000000	97.081535 
1484.000000	97.064724 
1483.000000	97.049205 
1482.000000	97.036535 
1481.000000	97.025892 
1480.000000	97.014395 
1479.000000	97.000690 
1478.000000	96.986172 
1477.000000	96.972900 
1476.000000	96.959849 
1475.000000	96.944284 
1474.000000	96.927014 
1473.000000	96.912953 
1472.000000	96.904806 
1471.000000	96.898559 
1470.000000	96.890280 
1469.000000	96.879874 
1468.000000	96.867994 
1467.000000	96.854700 
1466.000000	96.841389 
1465.000000	96.830676 
1464.000000	96.823216 
1463.000000	96.815145 
1462.000000	96.803232 
1461.000000	96.789309 
1460.000000	96.777256 
1459.000000	96.767698 
1458.000000	96.753114 
1457.000000	96.728104 
1456.000000	96.702622 
1455.000000	96.684412 
1454.000000	96.668746 
1453.000000	96.654787 
1452.000000	96.645175 
1451.000000	96.640713 
1450.000000	96.639512 
1449.000000	96.642354 
1448.000000	96.649783 
1447.000000	96.656853 
1446.000000	96.656949 
1445.000000	96.650383 
1444.000000	96.643258 
1443.000000	96.637471 
1442.000000	96.630330 
1441.000000	96.620466 
1440.000000	96.610064 
1439.000000	96.599977 
1438.000000	96.587755 
1437.000000	96.574671 
1436.000000	96.566835 
1435.000000	96.564042 
1434.000000	96.560530 
1433.000000	96.556102 
1432.000000	96.553830 
1431.000000	96.554316 
1430.000000	96.553622 
1429.000000	96.549483 
1428.000000	96.544050 
1427.000000	96.539840 
1426.000000	96.536707 
1425.000000	96.533570 
1424.000000	96.532243 
1423.000000	96.531705 
1422.000000	96.526973 
1421.000000	96.516714 
1420.000000	96.506670 
1419.000000	96.499415 
1418.000000	96.488335 
1417.000000	96.473723 
1416.000000	96.463885 
1415.000000	96.460764 
1414.000000	96.457180 
1413.000000	96.447375 
1412.000000	96.434794 
1411.000000	96.425840 
1410.000000	96.420936 
1409.000000	96.418722 
1408.000000	96.420780 
1407.000000	96.428647 
1406.000000	96.440465 
1405.000000	96.454564 
1404.000000	96.474024 
1403.000000	96.498849 
1402.000000	96.523366 
1401.000000	96.545789 
1400.000000	96.570727 
1399.000000	96.598715 
1398.000000	96.618391 
1397.000000	96.618163 
1396.000000	96.600707 
1395.000000	96.584758 
1394.000000	96.590000 
1393.000000	96.620454 
1392.000000	96.666468 
1391.000000	96.713795 
1390.000000	96.751058 
1389.000000	96.774000 
1388.000000	96.784999 
1387.000000	96.789360 
1386.000000	96.791877 
1385.000000	96.796500 
1384.000000	96.806649 
1383.000000	96.822540 
1382.000000	96.840493 
1381.000000	96.857386 
1380.000000	96.873765 
1379.000000	96.892638 
1378.000000	96.915499 
1377.000000	96.940832 
1376.000000	96.966264 
1375.000000	96.990729 
1374.000000	97.014248 
1373.000000	97.037777 
1372.000000	97.062483 
1371.000000	97.088692 
1370.000000	97.115460 
1369.000000	97.140348 
1368.000000	97.162759 
1367.000000	97.184125 
1366.000000	97.205724 
1365.000000	97.228310 
1364.000000	97.251579 
1363.000000	97.273444 
1362.000000	97.292435 
1361.000000	97.310327 
1360.000000	97.330175 
1359.000000	97.352916 
1358.000000	97.376574 
1357.000000	97.398505 
1356.000000	97.418214 
1355.000000	97.436665 
1354.000000	97.454021 
1353.000000	97.470429 
1352.000000	97.486008 
1351.000000	97.501430 
1350.000000	97.518000 
1349.000000	97.533800 
1348.000000	97.546083 
1347.000000	97.555165 
1346.000000	97.564575 
1345.000000	97.576384 
1344.000000	97.589081 
1343.000000	97.600386 
1342.000000	97.610099 
1341.000000	97.618580 
1340.000000	97.624676 
1339.000000	97.627511 
1338.000000	97.628692 
1337.000000	97.631075 
1336.000000	97.635892 
1335.000000	97.641976 
1334.000000	97.647972 
1333.000000	97.654073 
1332.000000	97.660757 
1331.000000	97.667627 
1330.000000	97.674058 
1329.000000	97.680010 
1328.000000	97.685441 
1327.000000	97.689718 
1326.000000	97.691738 
1325.000000	97.690391 
1324.000000	97.686799 
1323.000000	97.683240 
1322.000000	97.680487 
1321.000000	97.678095 
1320.000000	97.677031 
1319.000000	97.679356 
1318.000000	97.684953 
1317.000000	97.690810 
1316.000000	97.693840 
1315.000000	97.693136 
1314.000000	97.689897 
1313.000000	97.687031 
1312.000000	97.687738 
1311.000000	97.692531 
1310.000000	97.698001 
1309.000000	97.700380 
1308.000000	97.699716 
1307.000000	97.699510 
1306.000000	97.702551 
1305.000000	97.708035 
1304.000000	97.713683 
1303.000000	97.717235 
1302.000000	97.716630 
1301.000000	97.711371 
1300.000000	97.704631 
1299.000000	97.701430 
1298.000000	97.703470 
1297.000000	97.707237 
1296.000000	97.708161 
1295.000000	97.705703 
1294.000000	97.703079 
1293.000000	97.703337 
1292.000000	97.706612 
1291.000000	97.710472 
1290.000000	97.712362 
1289.000000	97.711836 
1288.000000	97.710430 
1287.000000	97.709451 
1286.000000	97.708503 
1285.000000	97.706911 
1284.000000	97.705568 
1283.000000	97.705559 
1282.000000	97.705648 
1281.000000	97.703290 
1280.000000	97.698538 
1279.000000	97.695007 
1278.000000	97.695835 
1277.000000	97.700391 
1276.000000	97.705495 
1275.000000	97.708973 
1274.000000	97.710942 
1273.000000	97.712497 
1272.000000	97.714047 
1271.000000	97.714666 
1270.000000	97.712876 
1269.000000	97.708489 
1268.000000	97.703618 
1267.000000	97.700575 
1266.000000	97.698740 
1265.000000	97.695697 
1264.000000	97.691412 
1263.000000	97.688627 
1262.000000	97.688490 
1261.000000	97.688393 
1260.000000	97.686059 
1259.000000	97.683441 
1258.000000	97.683438 
1257.000000	97.684714 
1256.000000	97.682960 
1255.000000	97.677089 
1254.000000	97.671230 
1253.000000	97.669505 
1252.000000	97.670884 
1251.000000	97.671298 
1250.000000	97.669892 
1249.000000	97.671035 
1248.000000	97.679553 
1247.000000	97.694614 
1246.000000	97.708587 
1245.000000	97.712302 
1244.000000	97.702191 
1243.000000	97.684375 
1242.000000	97.672464 
1241.000000	97.678359 
1240.000000	97.701620 
1239.000000	97.727895 
1238.000000	97.740816 
1237.000000	97.735997 
1236.000000	97.721381 
1235.000000	97.705289 
1234.000000	97.688628 
1233.000000	97.669658 
1232.000000	97.650876 
1231.000000	97.636788 
1230.000000	97.627816 
1229.000000	97.620761 
1228.000000	97.613373 
1227.000000	97.604511 
1226.000000	97.591410 
1225.000000	97.571101 
1224.000000	97.544347 
1223.000000	97.514842 
1222.000000	97.484465 
1221.000000	97.451865 
1220.000000	97.415446 
1219.000000	97.375129 
1218.000000	97.331260 
1217.000000	97.284079 
1216.000000	97.233648 
1215.000000	97.178279 
1214.000000	97.114667 
1213.000000	97.042724 
1212.000000	96.968538 
1211.000000	96.898014 
1210.000000	96.828502 
1209.000000	96.751694 
1208.000000	96.664621 
1207.000000	96.572841 
1206.000000	96.482371 
1205.000000	96.393156 
1204.000000	96.301756 
1203.000000	96.206293 
1202.000000	96.107142 
1201.000000	96.005828 
1200.000000	95.904505 
1199.000000	95.804185 
1198.000000	95.703039 
1197.000000	95.599177 
1196.000000	95.494347 
1195.000000	95.391242 
1194.000000	95.287865 
1193.000000	95.178900 
1192.000000	95.062840 
1191.000000	94.943446 
1190.000000	94.823827 
1189.000000	94.703254 
1188.000000	94.580295 
1187.000000	94.454905 
1186.000000	94.326931 
1185.000000	94.196368 
1184.000000	94.064937 
1183.000000	93.933587 
1182.000000	93.799332 
1181.000000	93.658994 
1180.000000	93.514758 
1179.000000	93.370565 
1178.000000	93.224213 
1177.000000	93.069615 
1176.000000	92.906254 
1175.000000	92.739402 
1174.000000	92.571148 
1173.000000	92.398783 
1172.000000	92.222768 
1171.000000	92.048096 
1170.000000	91.876129 
1169.000000	91.703296 
1168.000000	91.530560 
1167.000000	91.367317 
1166.000000	91.224395 
1165.000000	91.110921 
1164.000000	91.039018 
1163.000000	91.021102 
1162.000000	91.057175 
1161.000000	91.129962 
1160.000000	91.214199 
1159.000000	91.285496 
1158.000000	91.322243 
1157.000000	91.310218 
1156.000000	91.249556 
1155.000000	91.151574 
1154.000000	91.027077 
1153.000000	90.882823 
1152.000000	90.728396 
1151.000000	90.576327 
1150.000000	90.431866 
1149.000000	90.290577 
1148.000000	90.148978 
1147.000000	90.009515 
1146.000000	89.872669 
1145.000000	89.733266 
1144.000000	89.588713 
1143.000000	89.443216 
1142.000000	89.300131 
1141.000000	89.157275 
1140.000000	89.012763 
1139.000000	88.868118 
1138.000000	88.723047 
1137.000000	88.574661 
1136.000000	88.423890 
1135.000000	88.274803 
1134.000000	88.126032 
1133.000000	87.971420 
1132.000000	87.810554 
1131.000000	87.649243 
1130.000000	87.488144 
1129.000000	87.321198 
1128.000000	87.147448 
1127.000000	86.973689 
1126.000000	86.802493 
1125.000000	86.628049 
1124.000000	86.447076 
1123.000000	86.263715 
1122.000000	86.080678 
1121.000000	85.895870 
1120.000000	85.710546 
1119.000000	85.529909 
1118.000000	85.353328 
1117.000000	85.175902 
1116.000000	85.001677 
1115.000000	84.841959 
1114.000000	84.697532 
1113.000000	84.556203 
1112.000000	84.411154 
1111.000000	84.267165 
1110.000000	84.125760 
1109.000000	83.979980 
1108.000000	83.827753 
1107.000000	83.675531 
1106.000000	83.525028 
1105.000000	83.370369 
1104.000000	83.211307 
1103.000000	83.055121 
1102.000000	82.902411 
1101.000000	82.746812 
1100.000000	82.590492 
1099.000000	82.442874 
1098.000000	82.303976 
1097.000000	82.163302 
1096.000000	82.018557 
1095.000000	81.876725 
1094.000000	81.734380 
1093.000000	81.576577 
1092.000000	81.400740 
1091.000000	81.223613 
1090.000000	81.058899 
1089.000000	80.904477 
1088.000000	80.755546 
1087.000000	80.612020 
1086.000000	80.468431 
1085.000000	80.315279 
1084.000000	80.155637 
1083.000000	80.002912 
1082.000000	79.858324 
1081.000000	79.709250 
1080.000000	79.553327 
1079.000000	79.403619 
1078.000000	79.264815 
1077.000000	79.124575 
1076.000000	78.974008 
1075.000000	78.816546 
1074.000000	78.651520 
1073.000000	78.469208 
1072.000000	78.265990 
1071.000000	78.042260 
1070.000000	77.781486 
1069.000000	77.457936 
1068.000000	77.075673 
1067.000000	76.678919 
1066.000000	76.311831 
1065.000000	75.983764 
1064.000000	75.680907 
1063.000000	75.387026 
1062.000000	75.080737 
1061.000000	74.737257 
1060.000000	74.351965 
1059.000000	73.949777 
1058.000000	73.559773 
1057.000000	73.191458 
1056.000000	72.839980 
1055.000000	72.495724 
1054.000000	72.141991 
1053.000000	71.763401 
1052.000000	71.365978 
1051.000000	70.971219 
1050.000000	70.584243 
1049.000000	70.189977 
1048.000000	69.784390 
1047.000000	69.381494 
1046.000000	68.985625 
1045.000000	68.585745 
1044.000000	68.181312 
1043.000000	67.786273 
1042.000000	67.402050 
1041.000000	67.012595 
1040.000000	66.613292 
1039.000000	66.220879 
1038.000000	65.848843 
1037.000000	65.496809 
1036.000000	65.167763 
1035.000000	64.869388 
1034.000000	64.594020 
1033.000000	64.323212 
1032.000000	64.054883 
1031.000000	63.800029 
1030.000000	63.554724 
1029.000000	63.308023 
1028.000000	63.077152 
1027.000000	62.897138 
1026.000000	62.769923 
1025.000000	62.658055 
1024.000000	62.534798 
1023.000000	62.406252 
1022.000000	62.278325 
1021.000000	62.140276 
1020.000000	61.990755 
1019.000000	61.845182 
1018.000000	61.706634 
1017.000000	61.561040 
1016.000000	61.409086 
1015.000000	61.269929 
1014.000000	61.145596 
1013.000000	61.015446 
1012.000000	60.874115 
1011.000000	60.741293 
1010.000000	60.625423 
1009.000000	60.511760 
1008.000000	60.395677 
1007.000000	60.294484 
1006.000000	60.216492 
1005.000000	60.150392 
1004.000000	60.093448 
1003.000000	60.057918 
1002.000000	60.041836 
1001.000000	60.026607 
1000.000000	60.011595 
999.000000	 60.017788 
998.000000	 60.049265 
997.000000	 60.084612 
996.000000	 60.114544 
995.000000	 60.154498 
994.000000	 60.211273 
993.000000	 60.271082 
992.000000	 60.329631 
991.000000	 60.400794 
990.000000	 60.486293 
989.000000	 60.569600 
988.000000	 60.648879 
987.000000	 60.743471 
986.000000	 60.859370 
985.000000	 60.981351 
984.000000	 61.107209 
983.000000	 61.255661 
982.000000	 61.431257 
981.000000	 61.615191 
980.000000	 61.800661 
979.000000	 62.004592 
978.000000	 62.234071 
977.000000	 62.474318 
976.000000	 62.720469 
975.000000	 62.988759 
974.000000	 63.284288 
973.000000	 63.588572 
972.000000	 63.891046 
971.000000	 64.204217 
970.000000	 64.536376 
969.000000	 64.877093 
968.000000	 65.219742 
967.000000	 65.571471 
966.000000	 65.931615 
965.000000	 66.286767 
964.000000	 66.635739 
963.000000	 66.993555 
962.000000	 67.363108 
961.000000	 67.728331 
960.000000	 68.081904 
959.000000	 68.433794 
958.000000	 68.786248 
957.000000	 69.126735 
956.000000	 69.452526 
955.000000	 69.776739 
954.000000	 70.103321 
953.000000	 70.420275 
952.000000	 70.722810 
951.000000	 71.018352 
950.000000	 71.304573 
949.000000	 71.568331 
948.000000	 71.810784 
947.000000	 72.047435 
946.000000	 72.278584 
945.000000	 72.486344 
944.000000	 72.666312 
943.000000	 72.835678 
942.000000	 73.004108 
941.000000	 73.163042 
940.000000	 73.311035 
939.000000	 73.462723 
938.000000	 73.623776 
937.000000	 73.781932 
936.000000	 73.931852 
935.000000	 74.085120 
934.000000	 74.247670 
933.000000	 74.410749 
932.000000	 74.571740 
931.000000	 74.740370 
930.000000	 74.916853 
929.000000	 75.087015 
928.000000	 75.246300 
927.000000	 75.405858 
926.000000	 75.568162 
925.000000	 75.719316 
924.000000	 75.852216 
923.000000	 75.975053 
922.000000	 76.090862 
921.000000	 76.191494 
920.000000	 76.278138 
919.000000	 76.364737 
918.000000	 76.453839 
917.000000	 76.531297 
916.000000	 76.592459 
915.000000	 76.653212 
914.000000	 76.729269 
913.000000	 76.825279 
912.000000	 76.948744 
911.000000	 77.111926 
910.000000	 77.314392 
909.000000	 77.545107 
908.000000	 77.805217 
907.000000	 78.106371 
906.000000	 78.445093 
905.000000	 78.803645 
904.000000	 79.177789 
903.000000	 79.577444 
902.000000	 79.997993 
901.000000	 80.418563 
900.000000	 80.832466 
899.000000	 81.252750 
898.000000	 81.683341 
897.000000	 82.109590 
896.000000	 82.520868 
895.000000	 82.918245 
894.000000	 83.297761 
893.000000	 83.651414 
892.000000	 83.987847 
891.000000	 84.327309 
890.000000	 84.671396 
889.000000	 84.999872 
888.000000	 85.300050 
887.000000	 85.577184 
886.000000	 85.835598 
885.000000	 86.073962 
884.000000	 86.300295 
883.000000	 86.525678 
882.000000	 86.741156 
881.000000	 86.928767 
880.000000	 87.098527 
879.000000	 87.284474 
878.000000	 87.497643 
877.000000	 87.713547 
876.000000	 87.914657 
875.000000	 88.114639 
874.000000	 88.331324 
873.000000	 88.566311 
872.000000	 88.822225 
871.000000	 89.110189 
870.000000	 89.426714 
869.000000	 89.748066 
868.000000	 90.059082 
867.000000	 90.366232 
866.000000	 90.675087 
865.000000	 90.978035 
864.000000	 91.272923 
863.000000	 91.571806 
862.000000	 91.880826 
861.000000	 92.189661 
860.000000	 92.489246 
859.000000	 92.782201 
858.000000	 93.068959 
857.000000	 93.341576 
856.000000	 93.598260 
855.000000	 93.846405 
854.000000	 94.084364 
853.000000	 94.297538 
852.000000	 94.480169 
851.000000	 94.645391 
850.000000	 94.806917 
849.000000	 94.964959 
848.000000	 95.115002 
847.000000	 95.254670 
846.000000	 95.377161 
845.000000	 95.474069 
844.000000	 95.549338 
843.000000	 95.614878 
842.000000	 95.669105 
841.000000	 95.696798 
840.000000	 95.693222 
839.000000	 95.669974 
838.000000	 95.633478 
837.000000	 95.577959 
836.000000	 95.506290 
835.000000	 95.438005 
834.000000	 95.387115 
833.000000	 95.348958 
832.000000	 95.317767 
831.000000	 95.299761 
830.000000	 95.299486 
829.000000	 95.311087 
828.000000	 95.334770 
827.000000	 95.385042 
826.000000	 95.469631 
825.000000	 95.575263 
824.000000	 95.685115 
823.000000	 95.793958 
822.000000	 95.898186 
821.000000	 95.990628 
820.000000	 96.072729 
819.000000	 96.152462 
818.000000	 96.223637 
817.000000	 96.264063 
816.000000	 96.259467 
815.000000	 96.214034 
814.000000	 96.132257 
813.000000	 96.004857 
812.000000	 95.818000 
811.000000	 95.561321 
810.000000	 95.220457 
809.000000	 94.776814 
808.000000	 94.224293 
807.000000	 93.576620 
806.000000	 92.854223 
805.000000	 92.077448 
804.000000	 91.277448 
803.000000	 90.496184 
802.000000	 89.766994 
801.000000	 89.111504 
800.000000	 88.559961 
799.000000	 88.149841 
798.000000	 87.893491 
797.000000	 87.768205 
796.000000	 87.745344 
795.000000	 87.806104 
794.000000	 87.924429 
793.000000	 88.064385 
792.000000	 88.205661 
791.000000	 88.347957 
790.000000	 88.482320 
789.000000	 88.581463 
788.000000	 88.624827 
787.000000	 88.609606 
786.000000	 88.531628 
785.000000	 88.380396 
784.000000	 88.161111 
783.000000	 87.898736 
782.000000	 87.613969 
781.000000	 87.320110 
780.000000	 87.049309 
779.000000	 86.851382 
778.000000	 86.753748 
777.000000	 86.747510 
776.000000	 86.821170 
775.000000	 86.977850 
774.000000	 87.207235 
773.000000	 87.471326 
772.000000	 87.735211 
771.000000	 87.988948 
770.000000	 88.227737 
769.000000	 88.436503 
768.000000	 88.607682 
767.000000	 88.750643 
766.000000	 88.870454 
765.000000	 88.959753 
764.000000	 89.023690 
763.000000	 89.088982 
762.000000	 89.173343 
761.000000	 89.266662 
760.000000	 89.355548 
759.000000	 89.445400 
758.000000	 89.545170 
757.000000	 89.652045 
756.000000	 89.765595 
755.000000	 89.896464 
754.000000	 90.045690 
753.000000	 90.193324 
752.000000	 90.321723 
751.000000	 90.435093 
750.000000	 90.546243 
749.000000	 90.660649 
748.000000	 90.782600 
747.000000	 90.918833 
746.000000	 91.065967 
745.000000	 91.211706 
744.000000	 91.357882 
743.000000	 91.524638 
742.000000	 91.722903 
741.000000	 91.940581 
740.000000	 92.163137 
739.000000	 92.388695 
738.000000	 92.615565 
737.000000	 92.834350 
736.000000	 93.041034 
735.000000	 93.240420 
734.000000	 93.430380 
733.000000	 93.600540 
732.000000	 93.750671 
731.000000	 93.890533 
730.000000	 94.017598 
729.000000	 94.116650 
728.000000	 94.186548 
727.000000	 94.247185 
726.000000	 94.316059 
725.000000	 94.397407 
724.000000	 94.496672 
723.000000	 94.621753 
722.000000	 94.763815 
721.000000	 94.899246 
720.000000	 95.018811 
719.000000	 95.134806 
718.000000	 95.253293 
717.000000	 95.363631 
716.000000	 95.461277 
715.000000	 95.554933 
714.000000	 95.644843 
713.000000	 95.719609 
712.000000	 95.782333 
711.000000	 95.853647 
710.000000	 95.938137 
709.000000	 96.012840 
708.000000	 96.059369 
707.000000	 96.082980 
706.000000	 96.089799 
705.000000	 96.069379 
704.000000	 96.011940 
703.000000	 95.919590 
702.000000	 95.784632 
701.000000	 95.578486 
700.000000	 95.278647 
699.000000	 94.891115 
698.000000	 94.443507 
697.000000	 93.980579 
696.000000	 93.572753 
695.000000	 93.297385 
694.000000	 93.189759 
693.000000	 93.228968 
692.000000	 93.376487 
691.000000	 93.602168 
690.000000	 93.869328 
689.000000	 94.129162 
688.000000	 94.352096 
687.000000	 94.543925 
686.000000	 94.714442 
685.000000	 94.858608 
684.000000	 94.981128 
683.000000	 95.104591 
682.000000	 95.238618 
681.000000	 95.369029 
680.000000	 95.488808 
679.000000	 95.610893 
678.000000	 95.739363 
677.000000	 95.862573 
676.000000	 95.983915 
675.000000	 96.122117 
674.000000	 96.269811 
673.000000	 96.387242 
672.000000	 96.450616 
671.000000	 96.474201 
670.000000	 96.484778 
669.000000	 96.509087 
668.000000	 96.598371 
667.000000	 96.787925 
666.000000	 97.000237 
665.000000	 97.151969 
664.000000	 97.247040 
663.000000	 97.324696 
662.000000	 97.409715 
661.000000	 97.490197 
660.000000	 97.556627 
659.000000	 97.628996 
658.000000	 97.717651 
657.000000	 97.793324 
656.000000	 97.825430 
655.000000	 97.818830 
654.000000	 97.789432 
653.000000	 97.734522 
652.000000	 97.660490 
651.000000	 97.613683 
650.000000	 97.634080 

