4000.000000	96.467332 
3999.000000	96.466766 
3998.000000	96.465512 
3997.000000	96.463643 
3996.000000	96.462108 
3995.000000	96.461536 
3994.000000	96.461828 
3993.000000	96.462228 
3992.000000	96.462032 
3991.000000	96.461224 
3990.000000	96.460249 
3989.000000	96.459525 
3988.000000	96.459056 
3987.000000	96.458577 
3986.000000	96.458067 
3985.000000	96.457889 
3984.000000	96.458281 
3983.000000	96.458866 
3982.000000	96.458957 
3981.000000	96.458340 
3980.000000	96.457419 
3979.000000	96.456697 
3978.000000	96.456261 
3977.000000	96.455893 
3976.000000	96.455449 
3975.000000	96.454976 
3974.000000	96.454551 
3973.000000	96.454082 
3972.000000	96.453271 
3971.000000	96.451854 
3970.000000	96.449958 
3969.000000	96.448273 
3968.000000	96.447535 
3967.000000	96.447851 
3966.000000	96.448584 
3965.000000	96.448894 
3964.000000	96.448445 
3963.000000	96.447479 
3962.000000	96.446437 
3961.000000	96.445520 
3960.000000	96.444597 
3959.000000	96.443560 
3958.000000	96.442634 
3957.000000	96.442231 
3956.000000	96.442385 
3955.000000	96.442402 
3954.000000	96.441533 
3953.000000	96.439743 
3952.000000	96.437731 
3951.000000	96.436138 
3950.000000	96.434866 
3949.000000	96.433446 
3948.000000	96.431806 
3947.000000	96.430567 
3946.000000	96.430425 
3945.000000	96.431356 
3944.000000	96.432380 
3943.000000	96.432377 
3942.000000	96.431399 
3941.000000	96.430656 
3940.000000	96.431022 
3939.000000	96.432040 
3938.000000	96.432500 
3937.000000	96.431965 
3936.000000	96.431050 
3935.000000	96.430119 
3934.000000	96.428745 
3933.000000	96.426560 
3932.000000	96.424302 
3931.000000	96.423006 
3930.000000	96.422854 
3929.000000	96.423630 
3928.000000	96.425247 
3927.000000	96.427485 
3926.000000	96.429401 
3925.000000	96.429813 
3924.000000	96.428610 
3923.000000	96.426368 
3922.000000	96.423123 
3921.000000	96.419135 
3920.000000	96.415920 
3919.000000	96.415280 
3918.000000	96.416893 
3917.000000	96.418414 
3916.000000	96.418517 
3915.000000	96.418300 
3914.000000	96.419154 
3913.000000	96.420841 
3912.000000	96.422185 
3911.000000	96.422986 
3910.000000	96.423690 
3909.000000	96.424471 
3908.000000	96.424936 
3907.000000	96.424042 
3906.000000	96.420857 
3905.000000	96.414822 
3904.000000	96.406867 
3903.000000	96.399687 
3902.000000	96.395527 
3901.000000	96.394687 
3900.000000	96.396089 
3899.000000	96.398485 
3898.000000	96.401349 
3897.000000	96.403926 
3896.000000	96.404976 
3895.000000	96.404423 
3894.000000	96.403647 
3893.000000	96.404100 
3892.000000	96.405070 
3891.000000	96.404251 
3890.000000	96.401025 
3889.000000	96.397045 
3888.000000	96.394351 
3887.000000	96.393350 
3886.000000	96.393230 
3885.000000	96.393219 
3884.000000	96.392850 
3883.000000	96.391588 
3882.000000	96.389566 
3881.000000	96.388019 
3880.000000	96.388014 
3879.000000	96.388807 
3878.000000	96.389061 
3877.000000	96.388782 
3876.000000	96.388916 
3875.000000	96.389300 
3874.000000	96.388729 
3873.000000	96.387011 
3872.000000	96.385309 
3871.000000	96.384025 
3870.000000	96.382438 
3869.000000	96.380930 
3868.000000	96.380416 
3867.000000	96.380495 
3866.000000	96.380020 
3865.000000	96.379036 
3864.000000	96.378961 
3863.000000	96.380060 
3862.000000	96.380788 
3861.000000	96.381116 
3860.000000	96.382590 
3859.000000	96.385446 
3858.000000	96.387750 
3857.000000	96.387726 
3856.000000	96.385568 
3855.000000	96.382363 
3854.000000	96.378202 
3853.000000	96.374038 
3852.000000	96.371697 
3851.000000	96.371542 
3850.000000	96.372450 
3849.000000	96.373950 
3848.000000	96.376301 
3847.000000	96.379400 
3846.000000	96.381720 
3845.000000	96.382035 
3844.000000	96.381036 
3843.000000	96.380053 
3842.000000	96.379267 
3841.000000	96.378364 
3840.000000	96.377050 
3839.000000	96.375848 
3838.000000	96.375673 
3837.000000	96.376153 
3836.000000	96.376362 
3835.000000	96.376167 
3834.000000	96.376363 
3833.000000	96.377740 
3832.000000	96.380048 
3831.000000	96.382271 
3830.000000	96.383532 
3829.000000	96.383732 
3828.000000	96.383806 
3827.000000	96.384716 
3826.000000	96.386101 
3825.000000	96.387003 
3824.000000	96.386893 
3823.000000	96.386166 
3822.000000	96.385549 
3821.000000	96.385123 
3820.000000	96.384486 
3819.000000	96.383146 
3818.000000	96.381279 
3817.000000	96.380154 
3816.000000	96.381444 
3815.000000	96.385518 
3814.000000	96.390581 
3813.000000	96.394306 
3812.000000	96.396188 
3811.000000	96.397586 
3810.000000	96.399433 
3809.000000	96.400825 
3808.000000	96.400412 
3807.000000	96.398595 
3806.000000	96.397072 
3805.000000	96.396347 
3804.000000	96.395321 
3803.000000	96.394012 
3802.000000	96.394001 
3801.000000	96.396311 
3800.000000	96.399570 
3799.000000	96.400791 
3798.000000	96.399171 
3797.000000	96.397630 
3796.000000	96.399691 
3795.000000	96.405496 
3794.000000	96.411600 
3793.000000	96.414862 
3792.000000	96.415622 
3791.000000	96.416682 
3790.000000	96.419403 
3789.000000	96.422021 
3788.000000	96.422358 
3787.000000	96.420498 
3786.000000	96.418510 
3785.000000	96.418130 
3784.000000	96.419156 
3783.000000	96.419948 
3782.000000	96.418647 
3781.000000	96.414971 
3780.000000	96.411396 
3779.000000	96.411418 
3778.000000	96.415169 
3777.000000	96.418907 
3776.000000	96.419175 
3775.000000	96.416340 
3774.000000	96.413783 
3773.000000	96.413920 
3772.000000	96.415428 
3771.000000	96.414496 
3770.000000	96.409627 
3769.000000	96.403971 
3768.000000	96.400771 
3767.000000	96.399392 
3766.000000	96.397724 
3765.000000	96.395636 
3764.000000	96.395561 
3763.000000	96.398667 
3762.000000	96.402058 
3761.000000	96.401781 
3760.000000	96.397447 
3759.000000	96.393162 
3758.000000	96.390027 
3757.000000	96.384860 
3756.000000	96.376520 
3755.000000	96.365958 
3754.000000	96.353278 
3753.000000	96.338390 
3752.000000	96.325878 
3751.000000	96.321412 
3750.000000	96.320436 
3749.000000	96.314413 
3748.000000	96.305742 
3747.000000	96.303472 
3746.000000	96.310288 
3745.000000	96.317505 
3744.000000	96.322772 
3743.000000	96.330758 
3742.000000	96.336766 
3741.000000	96.332717 
3740.000000	96.320655 
3739.000000	96.312928 
3738.000000	96.316507 
3737.000000	96.322900 
3736.000000	96.323621 
3735.000000	96.322531 
3734.000000	96.325757 
3733.000000	96.329971 
3732.000000	96.331941 
3731.000000	96.336005 
3730.000000	96.343784 
3729.000000	96.349159 
3728.000000	96.347019 
3727.000000	96.340467 
3726.000000	96.338054 
3725.000000	96.342571 
3724.000000	96.348187 
3723.000000	96.349527 
3722.000000	96.348279 
3721.000000	96.349223 
3720.000000	96.351721 
3719.000000	96.353091 
3718.000000	96.351781 
3717.000000	96.346829 
3716.000000	96.338986 
3715.000000	96.328106 
3714.000000	96.313581 
3713.000000	96.297172 
3712.000000	96.282097 
3711.000000	96.270464 
3710.000000	96.261287 
3709.000000	96.253552 
3708.000000	96.247104 
3707.000000	96.239941 
3706.000000	96.230378 
3705.000000	96.219090 
3704.000000	96.207916 
3703.000000	96.196751 
3702.000000	96.181538 
3701.000000	96.158713 
3700.000000	96.130431 
3699.000000	96.103875 
3698.000000	96.085276 
3697.000000	96.074416 
3696.000000	96.067384 
3695.000000	96.060724 
3694.000000	96.052109 
3693.000000	96.041667 
3692.000000	96.031748 
3691.000000	96.024066 
3690.000000	96.016235 
3689.000000	96.007030 
3688.000000	96.000548 
3687.000000	95.998926 
3686.000000	95.998260 
3685.000000	95.993277 
3684.000000	95.983822 
3683.000000	95.976092 
3682.000000	95.974715 
3681.000000	95.973544 
3680.000000	95.961019 
3679.000000	95.932292 
3678.000000	95.894449 
3677.000000	95.857941 
3676.000000	95.826992 
3675.000000	95.802513 
3674.000000	95.780846 
3673.000000	95.756054 
3672.000000	95.727455 
3671.000000	95.703533 
3670.000000	95.692176 
3669.000000	95.688936 
3668.000000	95.680933 
3667.000000	95.662739 
3666.000000	95.641813 
3665.000000	95.626730 
3664.000000	95.616713 
3663.000000	95.605391 
3662.000000	95.587864 
3661.000000	95.562897 
3660.000000	95.532249 
3659.000000	95.497829 
3658.000000	95.462602 
3657.000000	95.429047 
3656.000000	95.398068 
3655.000000	95.368754 
3654.000000	95.337315 
3653.000000	95.300821 
3652.000000	95.260128 
3651.000000	95.220239 
3650.000000	95.187001 
3649.000000	95.161839 
3648.000000	95.142382 
3647.000000	95.127360 
3646.000000	95.117585 
3645.000000	95.112759 
3644.000000	95.110892 
3643.000000	95.110379 
3642.000000	95.109122 
3641.000000	95.103581 
3640.000000	95.090369 
3639.000000	95.067632 
3638.000000	95.037169 
3637.000000	95.003777 
3636.000000	94.972561 
3635.000000	94.944728 
3634.000000	94.916687 
3633.000000	94.884476 
3632.000000	94.848193 
3631.000000	94.813440 
3630.000000	94.788096 
3629.000000	94.774842 
3628.000000	94.765013 
3627.000000	94.748388 
3626.000000	94.725931 
3625.000000	94.708783 
3624.000000	94.705198 
3623.000000	94.711576 
3622.000000	94.716817 
3621.000000	94.714225 
3620.000000	94.707625 
3619.000000	94.704204 
3618.000000	94.703140 
3617.000000	94.699492 
3616.000000	94.697421 
3615.000000	94.708809 
3614.000000	94.739703 
3613.000000	94.781839 
3612.000000	94.817945 
3611.000000	94.836380 
3610.000000	94.841693 
3609.000000	94.849183 
3608.000000	94.867570 
3607.000000	94.890374 
3606.000000	94.906180 
3605.000000	94.914497 
3604.000000	94.925950 
3603.000000	94.948427 
3602.000000	94.977116 
3601.000000	94.998173 
3600.000000	95.002929 
3599.000000	94.996078 
3598.000000	94.989952 
3597.000000	94.992806 
3596.000000	95.004943 
3595.000000	95.019829 
3594.000000	95.030832 
3593.000000	95.037100 
3592.000000	95.040914 
3591.000000	95.043134 
3590.000000	95.043343 
3589.000000	95.042613 
3588.000000	95.044651 
3587.000000	95.052067 
3586.000000	95.062523 
3585.000000	95.071811 
3584.000000	95.080046 
3583.000000	95.090573 
3582.000000	95.105012 
3581.000000	95.119420 
3580.000000	95.127426 
3579.000000	95.126472 
3578.000000	95.120239 
3577.000000	95.115101 
3576.000000	95.114335 
3575.000000	95.116753 
3574.000000	95.118802 
3573.000000	95.118115 
3572.000000	95.114001 
3571.000000	95.106496 
3570.000000	95.095989 
3569.000000	95.084130 
3568.000000	95.074852 
3567.000000	95.072692 
3566.000000	95.078075 
3565.000000	95.086221 
3564.000000	95.091903 
3563.000000	95.094104 
3562.000000	95.095373 
3561.000000	95.098241 
3560.000000	95.102095 
3559.000000	95.103917 
3558.000000	95.101932 
3557.000000	95.098007 
3556.000000	95.095831 
3555.000000	95.097344 
3554.000000	95.100977 
3553.000000	95.102913 
3552.000000	95.100443 
3551.000000	95.093919 
3550.000000	95.086266 
3549.000000	95.080936 
3548.000000	95.079638 
3547.000000	95.081151 
3546.000000	95.082663 
3545.000000	95.082794 
3544.000000	95.082811 
3543.000000	95.084227 
3542.000000	95.086518 
3541.000000	95.088191 
3540.000000	95.088883 
3539.000000	95.089254 
3538.000000	95.089551 
3537.000000	95.089281 
3536.000000	95.088235 
3535.000000	95.086653 
3534.000000	95.084806 
3533.000000	95.082943 
3532.000000	95.081480 
3531.000000	95.080774 
3530.000000	95.080649 
3529.000000	95.080412 
3528.000000	95.079444 
3527.000000	95.077791 
3526.000000	95.076084 
3525.000000	95.074960 
3524.000000	95.074646 
3523.000000	95.074896 
3522.000000	95.075152 
3521.000000	95.074943 
3520.000000	95.074366 
3519.000000	95.073966 
3518.000000	95.074034 
3517.000000	95.074043 
3516.000000	95.073204 
3515.000000	95.071425 
3514.000000	95.069515 
3513.000000	95.068264 
3512.000000	95.067553 
3511.000000	95.066600 
3510.000000	95.064930 
3509.000000	95.062867 
3508.000000	95.061092 
3507.000000	95.059925 
3506.000000	95.059185 
3505.000000	95.058427 
3504.000000	95.057289 
3503.000000	95.055653 
3502.000000	95.053651 
3501.000000	95.051527 
3500.000000	95.049504 
3499.000000	95.047775 
3498.000000	95.046502 
3497.000000	95.045699 
3496.000000	95.044971 
3495.000000	95.043634 
3494.000000	95.041336 
3493.000000	95.038512 
3492.000000	95.035980 
3491.000000	95.034061 
3490.000000	95.032458 
3489.000000	95.030909 
3488.000000	95.029420 
3487.000000	95.027792 
3486.000000	95.025539 
3485.000000	95.022602 
3484.000000	95.019647 
3483.000000	95.017242 
3482.000000	95.015130 
3481.000000	95.012780 
3480.000000	95.010318 
3479.000000	95.008323 
3478.000000	95.006811 
3477.000000	95.004948 
3476.000000	95.001866 
3475.000000	94.997554 
3474.000000	94.992932 
3473.000000	94.989124 
3472.000000	94.986553 
3471.000000	94.984617 
3470.000000	94.982296 
3469.000000	94.979291 
3468.000000	94.976377 
3467.000000	94.974499 
3466.000000	94.973599 
3465.000000	94.972490 
3464.000000	94.969873 
3463.000000	94.965384 
3462.000000	94.959777 
3461.000000	94.954263 
3460.000000	94.949505 
3459.000000	94.945195 
3458.000000	94.940691 
3457.000000	94.935922 
3456.000000	94.931663 
3455.000000	94.928664 
3454.000000	94.926832 
3453.000000	94.925257 
3452.000000	94.923157 
3451.000000	94.920710 
3450.000000	94.918654 
3449.000000	94.917132 
3448.000000	94.915089 
3447.000000	94.911216 
3446.000000	94.905467 
3445.000000	94.899442 
3444.000000	94.895003 
3443.000000	94.892520 
3442.000000	94.890647 
3441.000000	94.887816 
3440.000000	94.883944 
3439.000000	94.880241 
3438.000000	94.877542 
3437.000000	94.875363 
3436.000000	94.872951 
3435.000000	94.870598 
3434.000000	94.869292 
3433.000000	94.869122 
3432.000000	94.868852 
3431.000000	94.867392 
3430.000000	94.865046 
3429.000000	94.862961 
3428.000000	94.861529 
3427.000000	94.859889 
3426.000000	94.857179 
3425.000000	94.853932 
3424.000000	94.851710 
3423.000000	94.851192 
3422.000000	94.851188 
3421.000000	94.849975 
3420.000000	94.847451 
3419.000000	94.845160 
3418.000000	94.844209 
3417.000000	94.843993 
3416.000000	94.843229 
3415.000000	94.841614 
3414.000000	94.839900 
3413.000000	94.838719 
3412.000000	94.837917 
3411.000000	94.836992 
3410.000000	94.835808 
3409.000000	94.834926 
3408.000000	94.835278 
3407.000000	94.837208 
3406.000000	94.839634 
3405.000000	94.840635 
3404.000000	94.839407 
3403.000000	94.837273 
3402.000000	94.836417 
3401.000000	94.837596 
3400.000000	94.839510 
3399.000000	94.840295 
3398.000000	94.839324 
3397.000000	94.837556 
3396.000000	94.836508 
3395.000000	94.837006 
3394.000000	94.838668 
3393.000000	94.840257 
3392.000000	94.840721 
3391.000000	94.840247 
3390.000000	94.840191 
3389.000000	94.841683 
3388.000000	94.844510 
3387.000000	94.847485 
3386.000000	94.849899 
3385.000000	94.852055 
3384.000000	94.854250 
3383.000000	94.855945 
3382.000000	94.856510 
3381.000000	94.856370 
3380.000000	94.856762 
3379.000000	94.858443 
3378.000000	94.861188 
3377.000000	94.864454 
3376.000000	94.867889 
3375.000000	94.871168 
3374.000000	94.873967 
3373.000000	94.876358 
3372.000000	94.878725 
3371.000000	94.881101 
3370.000000	94.883070 
3369.000000	94.884605 
3368.000000	94.886531 
3367.000000	94.889655 
3366.000000	94.893679 
3365.000000	94.897367 
3364.000000	94.899847 
3363.000000	94.901517 
3362.000000	94.903588 
3361.000000	94.906835 
3360.000000	94.910901 
3359.000000	94.914785 
3358.000000	94.917961 
3357.000000	94.920948 
3356.000000	94.924612 
3355.000000	94.929039 
3354.000000	94.933417 
3353.000000	94.937052 
3352.000000	94.940150 
3351.000000	94.943408 
3350.000000	94.947073 
3349.000000	94.950680 
3348.000000	94.953761 
3347.000000	94.956458 
3346.000000	94.959297 
3345.000000	94.962581 
3344.000000	94.966134 
3343.000000	94.969586 
3342.000000	94.972773 
3341.000000	94.975831 
3340.000000	94.978979 
3339.000000	94.982275 
3338.000000	94.985632 
3337.000000	94.988978 
3336.000000	94.992313 
3335.000000	94.995649 
3334.000000	94.998984 
3333.000000	95.002314 
3332.000000	95.005647 
3331.000000	95.008985 
3330.000000	95.012329 
3329.000000	95.015678 
3328.000000	95.019031 
3327.000000	95.022387 
3326.000000	95.025744 
3325.000000	95.029097 
3324.000000	95.032441 
3323.000000	95.035769 
3322.000000	95.039082 
3321.000000	95.042382 
3320.000000	95.045675 
3319.000000	95.048961 
3318.000000	95.052239 
3317.000000	95.055509 
3316.000000	95.058772 
3315.000000	95.062027 
3314.000000	95.065276 
3313.000000	95.068518 
3312.000000	95.071754 
3311.000000	95.074989 
3310.000000	95.078224 
3309.000000	95.081460 
3308.000000	95.084693 
3307.000000	95.087919 
3306.000000	95.091138 
3305.000000	95.094356 
3304.000000	95.097584 
3303.000000	95.100828 
3302.000000	95.104091 
3301.000000	95.107368 
3300.000000	95.110651 
3299.000000	95.113931 
3298.000000	95.117203 
3297.000000	95.120466 
3296.000000	95.123734 
3295.000000	95.127035 
3294.000000	95.130383 
3293.000000	95.133765 
3292.000000	95.137164 
3291.000000	95.140560 
3290.000000	95.143925 
3289.000000	95.147232 
3288.000000	95.150486 
3287.000000	95.153727 
3286.000000	95.156988 
3285.000000	95.160270 
3284.000000	95.163550 
3283.000000	95.166814 
3282.000000	95.170073 
3281.000000	95.173348 
3280.000000	95.176645 
3279.000000	95.179945 
3278.000000	95.183236 
3277.000000	95.186549 
3276.000000	95.189924 
3275.000000	95.193357 
3274.000000	95.196809 
3273.000000	95.200264 
3272.000000	95.203722 
3271.000000	95.207186 
3270.000000	95.210654 
3269.000000	95.214118 
3268.000000	95.217571 
3267.000000	95.221018 
3266.000000	95.224474 
3265.000000	95.227953 
3264.000000	95.231459 
3263.000000	95.234981 
3262.000000	95.238501 
3261.000000	95.242009 
3260.000000	95.245509 
3259.000000	95.249008 
3258.000000	95.252512 
3257.000000	95.256027 
3256.000000	95.259561 
3255.000000	95.263121 
3254.000000	95.266704 
3253.000000	95.270298 
3252.000000	95.273884 
3251.000000	95.277457 
3250.000000	95.281021 
3249.000000	95.284593 
3248.000000	95.288186 
3247.000000	95.291802 
3246.000000	95.295435 
3245.000000	95.299081 
3244.000000	95.302739 
3243.000000	95.306413 
3242.000000	95.310104 
3241.000000	95.313806 
3240.000000	95.317514 
3239.000000	95.321232 
3238.000000	95.324975 
3237.000000	95.328757 
3236.000000	95.332575 
3235.000000	95.336408 
3234.000000	95.340229 
3233.000000	95.344023 
3232.000000	95.347794 
3231.000000	95.351554 
3230.000000	95.355313 
3229.000000	95.359072 
3228.000000	95.362834 
3227.000000	95.366610 
3226.000000	95.370415 
3225.000000	95.374257 
3224.000000	95.378122 
3223.000000	95.381988 
3222.000000	95.385841 
3221.000000	95.389684 
3220.000000	95.393534 
3219.000000	95.397406 
3218.000000	95.401298 
3217.000000	95.405203 
3216.000000	95.409120 
3215.000000	95.413055 
3214.000000	95.417011 
3213.000000	95.420980 
3212.000000	95.424947 
3211.000000	95.428902 
3210.000000	95.432852 
3209.000000	95.436816 
3208.000000	95.440809 
3207.000000	95.444830 
3206.000000	95.448872 
3205.000000	95.452931 
3204.000000	95.457007 
3203.000000	95.461104 
3202.000000	95.465215 
3201.000000	95.469327 
3200.000000	95.473426 
3199.000000	95.477514 
3198.000000	95.481601 
3197.000000	95.485696 
3196.000000	95.489793 
3195.000000	95.493878 
3194.000000	95.497943 
3193.000000	95.501995 
3192.000000	95.506048 
3191.000000	95.510111 
3190.000000	95.514182 
3189.000000	95.518256 
3188.000000	95.522333 
3187.000000	95.526422 
3186.000000	95.530528 
3185.000000	95.534649 
3184.000000	95.538774 
3183.000000	95.542891 
3182.000000	95.546994 
3181.000000	95.551089 
3180.000000	95.555184 
3179.000000	95.559282 
3178.000000	95.563382 
3177.000000	95.567480 
3176.000000	95.571573 
3175.000000	95.575654 
3174.000000	95.579714 
3173.000000	95.583744 
3172.000000	95.587740 
3171.000000	95.591705 
3170.000000	95.595644 
3169.000000	95.599565 
3168.000000	95.603473 
3167.000000	95.607373 
3166.000000	95.611258 
3165.000000	95.615121 
3164.000000	95.618950 
3163.000000	95.622736 
3162.000000	95.626479 
3161.000000	95.630193 
3160.000000	95.633892 
3159.000000	95.637588 
3158.000000	95.641283 
3157.000000	95.644977 
3156.000000	95.648663 
3155.000000	95.652337 
3154.000000	95.655991 
3153.000000	95.659623 
3152.000000	95.663233 
3151.000000	95.666822 
3150.000000	95.670392 
3149.000000	95.673949 
3148.000000	95.677502 
3147.000000	95.681055 
3146.000000	95.684604 
3145.000000	95.688137 
3144.000000	95.691643 
3143.000000	95.695115 
3142.000000	95.698549 
3141.000000	95.701946 
3140.000000	95.705307 
3139.000000	95.708638 
3138.000000	95.711947 
3137.000000	95.715240 
3136.000000	95.718518 
3135.000000	95.721774 
3134.000000	95.725005 
3133.000000	95.728215 
3132.000000	95.731420 
3131.000000	95.734628 
3130.000000	95.737841 
3129.000000	95.741050 
3128.000000	95.744248 
3127.000000	95.747435 
3126.000000	95.750614 
3125.000000	95.753780 
3124.000000	95.756927 
3123.000000	95.760045 
3122.000000	95.763134 
3121.000000	95.766204 
3120.000000	95.769267 
3119.000000	95.772325 
3118.000000	95.775371 
3117.000000	95.778396 
3116.000000	95.781396 
3115.000000	95.784374 
3114.000000	95.787332 
3113.000000	95.790268 
3112.000000	95.793183 
3111.000000	95.796077 
3110.000000	95.798955 
3109.000000	95.801865 
3108.000000	95.804853 
3107.000000	95.807854 
3106.000000	95.810732 
3105.000000	95.813419 
3104.000000	95.815963 
3103.000000	95.818418 
3102.000000	95.820777 
3101.000000	95.823034 
3100.000000	95.825233 
3099.000000	95.827458 
3098.000000	95.829841 
3097.000000	95.832561 
3096.000000	95.835676 
3095.000000	95.838931 
3094.000000	95.841902 
3093.000000	95.844422 
3092.000000	95.846746 
3091.000000	95.849176 
3090.000000	95.851695 
3089.000000	95.854085 
3088.000000	95.856229 
3087.000000	95.858219 
3086.000000	95.860307 
3085.000000	95.862776 
3084.000000	95.865558 
3083.000000	95.867988 
3082.000000	95.869382 
3081.000000	95.870027 
3080.000000	95.871191 
3079.000000	95.873761 
3078.000000	95.877304 
3077.000000	95.880820 
3076.000000	95.883954 
3075.000000	95.886800 
3074.000000	95.889098 
3073.000000	95.890537 
3072.000000	95.891487 
3071.000000	95.892548 
3070.000000	95.893621 
3069.000000	95.894317 
3068.000000	95.895023 
3067.000000	95.896506 
3066.000000	95.898559 
3065.000000	95.900109 
3064.000000	95.900659 
3063.000000	95.900641 
3062.000000	95.900356 
3061.000000	95.899714 
3060.000000	95.899170 
3059.000000	95.899854 
3058.000000	95.902480 
3057.000000	95.906763 
3056.000000	95.911853 
3055.000000	95.916382 
3054.000000	95.918332 
3053.000000	95.916455 
3052.000000	95.912468 
3051.000000	95.910585 
3050.000000	95.913517 
3049.000000	95.919559 
3048.000000	95.924340 
3047.000000	95.924932 
3046.000000	95.921514 
3045.000000	95.916200 
3044.000000	95.911661 
3043.000000	95.910352 
3042.000000	95.913188 
3041.000000	95.918203 
3040.000000	95.921587 
3039.000000	95.921058 
3038.000000	95.917779 
3037.000000	95.914394 
3036.000000	95.911651 
3035.000000	95.908004 
3034.000000	95.902403 
3033.000000	95.896152 
3032.000000	95.891347 
3031.000000	95.888464 
3030.000000	95.886483 
3029.000000	95.884656 
3028.000000	95.882744 
3027.000000	95.879752 
3026.000000	95.873986 
3025.000000	95.865063 
3024.000000	95.855032 
3023.000000	95.846658 
3022.000000	95.840971 
3021.000000	95.837199 
3020.000000	95.834515 
3019.000000	95.832720 
3018.000000	95.831072 
3017.000000	95.827605 
3016.000000	95.820612 
3015.000000	95.810685 
3014.000000	95.800808 
3013.000000	95.793991 
3012.000000	95.790590 
3011.000000	95.787926 
3010.000000	95.782620 
3009.000000	95.773383 
3008.000000	95.761580 
3007.000000	95.749464 
3006.000000	95.738122 
3005.000000	95.727132 
3004.000000	95.715922 
3003.000000	95.705201 
3002.000000	95.696838 
3001.000000	95.691983 
3000.000000	95.689176 
2999.000000	95.684892 
2998.000000	95.676729 
2997.000000	95.665898 
2996.000000	95.655895 
2995.000000	95.648732 
2994.000000	95.643040 
2993.000000	95.635662 
2992.000000	95.624477 
2991.000000	95.610103 
2990.000000	95.595814 
2989.000000	95.585699 
2988.000000	95.581905 
2987.000000	95.583499 
2986.000000	95.588291 
2985.000000	95.595082 
2984.000000	95.602965 
2983.000000	95.609508 
2982.000000	95.612236 
2981.000000	95.611884 
2980.000000	95.611518 
2979.000000	95.611704 
2978.000000	95.609281 
2977.000000	95.602345 
2976.000000	95.594093 
2975.000000	95.589571 
2974.000000	95.590368 
2973.000000	95.594661 
2972.000000	95.600672 
2971.000000	95.607418 
2970.000000	95.613156 
2969.000000	95.616382 
2968.000000	95.618392 
2967.000000	95.622213 
2966.000000	95.628689 
2965.000000	95.635807 
2964.000000	95.642002 
2963.000000	95.647835 
2962.000000	95.653934 
2961.000000	95.659486 
2960.000000	95.663752 
2959.000000	95.667460 
2958.000000	95.671969 
2957.000000	95.678326 
2956.000000	95.687331 
2955.000000	95.698603 
2954.000000	95.709169 
2953.000000	95.715399 
2952.000000	95.717472 
2951.000000	95.719949 
2950.000000	95.726264 
2949.000000	95.734211 
2948.000000	95.738924 
2947.000000	95.738813 
2946.000000	95.736524 
2945.000000	95.735026 
2944.000000	95.734824 
2943.000000	95.734674 
2942.000000	95.732988 
2941.000000	95.728574 
2940.000000	95.721950 
2939.000000	95.716135 
2938.000000	95.714200 
2937.000000	95.715642 
2936.000000	95.716885 
2935.000000	95.715644 
2934.000000	95.712888 
2933.000000	95.709877 
2932.000000	95.705478 
2931.000000	95.698180 
2930.000000	95.689434 
2929.000000	95.682950 
2928.000000	95.680905 
2927.000000	95.682236 
2926.000000	95.684532 
2925.000000	95.686576 
2924.000000	95.688949 
2923.000000	95.692892 
2922.000000	95.698652 
2921.000000	95.704684 
2920.000000	95.709017 
2919.000000	95.711921 
2918.000000	95.716164 
2917.000000	95.723317 
2916.000000	95.730712 
2915.000000	95.733992 
2914.000000	95.732577 
2913.000000	95.730517 
2912.000000	95.731488 
2911.000000	95.734737 
2910.000000	95.737231 
2909.000000	95.738182 
2908.000000	95.739645 
2907.000000	95.743206 
2906.000000	95.747914 
2905.000000	95.751466 
2904.000000	95.752386 
2903.000000	95.750843 
2902.000000	95.749289 
2901.000000	95.751013 
2900.000000	95.757735 
2899.000000	95.768152 
2898.000000	95.779057 
2897.000000	95.788548 
2896.000000	95.796706 
2895.000000	95.803446 
2894.000000	95.807744 
2893.000000	95.809740 
2892.000000	95.811808 
2891.000000	95.816065 
2890.000000	95.821932 
2889.000000	95.827543 
2888.000000	95.832578 
2887.000000	95.838031 
2886.000000	95.843873 
2885.000000	95.848959 
2884.000000	95.853249 
2883.000000	95.858207 
2882.000000	95.864474 
2881.000000	95.870701 
2880.000000	95.875628 
2879.000000	95.880286 
2878.000000	95.886822 
2877.000000	95.895606 
2876.000000	95.904621 
2875.000000	95.911815 
2874.000000	95.917030 
2873.000000	95.921312 
2872.000000	95.925323 
2871.000000	95.929005 
2870.000000	95.932373 
2869.000000	95.935920 
2868.000000	95.940332 
2867.000000	95.946052 
2866.000000	95.952833 
2865.000000	95.959472 
2864.000000	95.964586 
2863.000000	95.968241 
2862.000000	95.972356 
2861.000000	95.978570 
2860.000000	95.986029 
2859.000000	95.992307 
2858.000000	95.996707 
2857.000000	96.001367 
2856.000000	96.008467 
2855.000000	96.017315 
2854.000000	96.024972 
2853.000000	96.029640 
2852.000000	96.032505 
2851.000000	96.036291 
2850.000000	96.042593 
2849.000000	96.050870 
2848.000000	96.059515 
2847.000000	96.067501 
2846.000000	96.075071 
2845.000000	96.082870 
2844.000000	96.090577 
2843.000000	96.096913 
2842.000000	96.101325 
2841.000000	96.105153 
2840.000000	96.110304 
2839.000000	96.116837 
2838.000000	96.122810 
2837.000000	96.126804 
2836.000000	96.129825 
2835.000000	96.134164 
2834.000000	96.140719 
2833.000000	96.148074 
2832.000000	96.154152 
2831.000000	96.158200 
2830.000000	96.160916 
2829.000000	96.163188 
2828.000000	96.165342 
2827.000000	96.167609 
2826.000000	96.170658 
2825.000000	96.175100 
2824.000000	96.180520 
2823.000000	96.185484 
2822.000000	96.188661 
2821.000000	96.189814 
2820.000000	96.189849 
2819.000000	96.190029 
2818.000000	96.191171 
2817.000000	96.193301 
2816.000000	96.195967 
2815.000000	96.199003 
2814.000000	96.202670 
2813.000000	96.206698 
2812.000000	96.209658 
2811.000000	96.210211 
2810.000000	96.209021 
2809.000000	96.208587 
2808.000000	96.210676 
2807.000000	96.214811 
2806.000000	96.219390 
2805.000000	96.223410 
2804.000000	96.226620 
2803.000000	96.228763 
2802.000000	96.229757 
2801.000000	96.230285 
2800.000000	96.231303 
2799.000000	96.232987 
2798.000000	96.234784 
2797.000000	96.236359 
2796.000000	96.237890 
2795.000000	96.239546 
2794.000000	96.241226 
2793.000000	96.242830 
2792.000000	96.244397 
2791.000000	96.245965 
2790.000000	96.247521 
2789.000000	96.249072 
2788.000000	96.250621 
2787.000000	96.252171 
2786.000000	96.253726 
2785.000000	96.255287 
2784.000000	96.256847 
2783.000000	96.258397 
2782.000000	96.259922 
2781.000000	96.261416 
2780.000000	96.262883 
2779.000000	96.264335 
2778.000000	96.265781 
2777.000000	96.267221 
2776.000000	96.268647 
2775.000000	96.270053 
2774.000000	96.271438 
2773.000000	96.272802 
2772.000000	96.274144 
2771.000000	96.275466 
2770.000000	96.276771 
2769.000000	96.278068 
2768.000000	96.279368 
2767.000000	96.280670 
2766.000000	96.281965 
2765.000000	96.283238 
2764.000000	96.284475 
2763.000000	96.285675 
2762.000000	96.286843 
2761.000000	96.287986 
2760.000000	96.289112 
2759.000000	96.290230 
2758.000000	96.291346 
2757.000000	96.292465 
2756.000000	96.293583 
2755.000000	96.294697 
2754.000000	96.295804 
2753.000000	96.296904 
2752.000000	96.297991 
2751.000000	96.299058 
2750.000000	96.300102 
2749.000000	96.301125 
2748.000000	96.302132 
2747.000000	96.303125 
2746.000000	96.304101 
2745.000000	96.305057 
2744.000000	96.305993 
2743.000000	96.306906 
2742.000000	96.307793 
2741.000000	96.308653 
2740.000000	96.309492 
2739.000000	96.310325 
2738.000000	96.311164 
2737.000000	96.312017 
2736.000000	96.312881 
2735.000000	96.313746 
2734.000000	96.314603 
2733.000000	96.315450 
2732.000000	96.316290 
2731.000000	96.317123 
2730.000000	96.317945 
2729.000000	96.318749 
2728.000000	96.319534 
2727.000000	96.320303 
2726.000000	96.321057 
2725.000000	96.321793 
2724.000000	96.322510 
2723.000000	96.323206 
2722.000000	96.323891 
2721.000000	96.324575 
2720.000000	96.325267 
2719.000000	96.325971 
2718.000000	96.326685 
2717.000000	96.327406 
2716.000000	96.328131 
2715.000000	96.328861 
2714.000000	96.329592 
2713.000000	96.330315 
2712.000000	96.331023 
2711.000000	96.331712 
2710.000000	96.332387 
2709.000000	96.333055 
2708.000000	96.333725 
2707.000000	96.334399 
2706.000000	96.335082 
2705.000000	96.335774 
2704.000000	96.336471 
2703.000000	96.337166 
2702.000000	96.337852 
2701.000000	96.338531 
2700.000000	96.339207 
2699.000000	96.339890 
2698.000000	96.340582 
2697.000000	96.341275 
2696.000000	96.341962 
2695.000000	96.342633 
2694.000000	96.343285 
2693.000000	96.343918 
2692.000000	96.344528 
2691.000000	96.345115 
2690.000000	96.345683 
2689.000000	96.346242 
2688.000000	96.346807 
2687.000000	96.347387 
2686.000000	96.347983 
2685.000000	96.348590 
2684.000000	96.349204 
2683.000000	96.349815 
2682.000000	96.350419 
2681.000000	96.351011 
2680.000000	96.351589 
2679.000000	96.352151 
2678.000000	96.352699 
2677.000000	96.353237 
2676.000000	96.353769 
2675.000000	96.354288 
2674.000000	96.354784 
2673.000000	96.355248 
2672.000000	96.355681 
2671.000000	96.356092 
2670.000000	96.356484 
2669.000000	96.356855 
2668.000000	96.357203 
2667.000000	96.357537 
2666.000000	96.357874 
2665.000000	96.358223 
2664.000000	96.358574 
2663.000000	96.358908 
2662.000000	96.359213 
2661.000000	96.359493 
2660.000000	96.359760 
2659.000000	96.360014 
2658.000000	96.360243 
2657.000000	96.360440 
2656.000000	96.360616 
2655.000000	96.360797 
2654.000000	96.360994 
2653.000000	96.361194 
2652.000000	96.361370 
2651.000000	96.361512 
2650.000000	96.361637 
2649.000000	96.361771 
2648.000000	96.361921 
2647.000000	96.362068 
2646.000000	96.362188 
2645.000000	96.362276 
2644.000000	96.362347 
2643.000000	96.362413 
2642.000000	96.362467 
2641.000000	96.362490 
2640.000000	96.362474 
2639.000000	96.362435 
2638.000000	96.362402 
2637.000000	96.362390 
2636.000000	96.362396 
2635.000000	96.362402 
2634.000000	96.362395 
2633.000000	96.362371 
2632.000000	96.362333 
2631.000000	96.362273 
2630.000000	96.362180 
2629.000000	96.362051 
2628.000000	96.361901 
2627.000000	96.361763 
2626.000000	96.361664 
2625.000000	96.361606 
2624.000000	96.361559 
2623.000000	96.361489 
2622.000000	96.361377 
2621.000000	96.361231 
2620.000000	96.361066 
2619.000000	96.360898 
2618.000000	96.360741 
2617.000000	96.360613 
2616.000000	96.360535 
2615.000000	96.360517 
2614.000000	96.360545 
2613.000000	96.360573 
2612.000000	96.360552 
2611.000000	96.360468 
2610.000000	96.360348 
2609.000000	96.360231 
2608.000000	96.360136 
2607.000000	96.360054 
2606.000000	96.359977 
2605.000000	96.359908 
2604.000000	96.359851 
2603.000000	96.359794 
2602.000000	96.359706 
2601.000000	96.359569 
2600.000000	96.359396 
2599.000000	96.359226 
2598.000000	96.359100 
2597.000000	96.359032 
2596.000000	96.359006 
2595.000000	96.358992 
2594.000000	96.358972 
2593.000000	96.358942 
2592.000000	96.358902 
2591.000000	96.358855 
2590.000000	96.358818 
2589.000000	96.358826 
2588.000000	96.358911 
2587.000000	96.359084 
2586.000000	96.359325 
2585.000000	96.359596 
2584.000000	96.359863 
2583.000000	96.360099 
2582.000000	96.360297 
2581.000000	96.360462 
2580.000000	96.360618 
2579.000000	96.360792 
2578.000000	96.361004 
2577.000000	96.361254 
2576.000000	96.361515 
2575.000000	96.361744 
2574.000000	96.361904 
2573.000000	96.361988 
2572.000000	96.362017 
2571.000000	96.362023 
2570.000000	96.362038 
2569.000000	96.362088 
2568.000000	96.362197 
2567.000000	96.362373 
2566.000000	96.362601 
2565.000000	96.362846 
2564.000000	96.363077 
2563.000000	96.363284 
2562.000000	96.363480 
2561.000000	96.363697 
2560.000000	96.363963 
2559.000000	96.364295 
2558.000000	96.364683 
2557.000000	96.365101 
2556.000000	96.365514 
2555.000000	96.365891 
2554.000000	96.366207 
2553.000000	96.366458 
2552.000000	96.366661 
2551.000000	96.366850 
2550.000000	96.367056 
2549.000000	96.367295 
2548.000000	96.367557 
2547.000000	96.367813 
2546.000000	96.368034 
2545.000000	96.368209 
2544.000000	96.368340 
2543.000000	96.368441 
2542.000000	96.368528 
2541.000000	96.368621 
2540.000000	96.368741 
2539.000000	96.368904 
2538.000000	96.369106 
2537.000000	96.369331 
2536.000000	96.369558 
2535.000000	96.369767 
2534.000000	96.369955 
2533.000000	96.370133 
2532.000000	96.370328 
2531.000000	96.370566 
2530.000000	96.370854 
2529.000000	96.371179 
2528.000000	96.371520 
2527.000000	96.371865 
2526.000000	96.372206 
2525.000000	96.372534 
2524.000000	96.372833 
2523.000000	96.373098 
2522.000000	96.373344 
2521.000000	96.373597 
2520.000000	96.373873 
2519.000000	96.374167 
2518.000000	96.374460 
2517.000000	96.374738 
2516.000000	96.374994 
2515.000000	96.375235 
2514.000000	96.375471 
2513.000000	96.375721 
2512.000000	96.376001 
2511.000000	96.376328 
2510.000000	96.376702 
2509.000000	96.377110 
2508.000000	96.377527 
2507.000000	96.377926 
2506.000000	96.378294 
2505.000000	96.378634 
2504.000000	96.378957 
2503.000000	96.379281 
2502.000000	96.379619 
2501.000000	96.379981 
2500.000000	96.380370 
2499.000000	96.380778 
2498.000000	96.381189 
2497.000000	96.381591 
2496.000000	96.381983 
2495.000000	96.382368 
2494.000000	96.382746 
2493.000000	96.383116 
2492.000000	96.383485 
2491.000000	96.383867 
2490.000000	96.384272 
2489.000000	96.384688 
2488.000000	96.385086 
2487.000000	96.385443 
2486.000000	96.385762 
2485.000000	96.386061 
2484.000000	96.386350 
2483.000000	96.386624 
2482.000000	96.386875 
2481.000000	96.387110 
2480.000000	96.387343 
2479.000000	96.387581 
2478.000000	96.387812 
2477.000000	96.388018 
2476.000000	96.388194 
2475.000000	96.388348 
2474.000000	96.388497 
2473.000000	96.388650 
2472.000000	96.388806 
2471.000000	96.388964 
2470.000000	96.389124 
2469.000000	96.389291 
2468.000000	96.389470 
2467.000000	96.389650 
2466.000000	96.389821 
2465.000000	96.389987 
2464.000000	96.390162 
2463.000000	96.390362 
2462.000000	96.390590 
2461.000000	96.390833 
2460.000000	96.391069 
2459.000000	96.391281 
2458.000000	96.391458 
2457.000000	96.391617 
2456.000000	96.391759 
2455.000000	96.391861 
2454.000000	96.391922 
2453.000000	96.391962 
2452.000000	96.392041 
2451.000000	96.392211 
2450.000000	96.392411 
2449.000000	96.392504 
2448.000000	96.392486 
2447.000000	96.392512 
2446.000000	96.392574 
2445.000000	96.392436 
2444.000000	96.392029 
2443.000000	96.391632 
2442.000000	96.391572 
2441.000000	96.391905 
2440.000000	96.392466 
2439.000000	96.393156 
2438.000000	96.393898 
2437.000000	96.394641 
2436.000000	96.395461 
2435.000000	96.396462 
2434.000000	96.397510 
2433.000000	96.398210 
2432.000000	96.398396 
2431.000000	96.398457 
2430.000000	96.399030 
2429.000000	96.400297 
2428.000000	96.401703 
2427.000000	96.402446 
2426.000000	96.402286 
2425.000000	96.401700 
2424.000000	96.401409 
2423.000000	96.401707 
2422.000000	96.402421 
2421.000000	96.403272 
2420.000000	96.404161 
2419.000000	96.405106 
2418.000000	96.406143 
2417.000000	96.407333 
2416.000000	96.408636 
2415.000000	96.409801 
2414.000000	96.410670 
2413.000000	96.411569 
2412.000000	96.412994 
2411.000000	96.414718 
2410.000000	96.415794 
2409.000000	96.415831 
2408.000000	96.415710 
2407.000000	96.416459 
2406.000000	96.417888 
2405.000000	96.418932 
2404.000000	96.419051 
2403.000000	96.418707 
2402.000000	96.418696 
2401.000000	96.419551 
2400.000000	96.421386 
2399.000000	96.423773 
2398.000000	96.425942 
2397.000000	96.427642 
2396.000000	96.429357 
2395.000000	96.431268 
2394.000000	96.432562 
2393.000000	96.432569 
2392.000000	96.432176 
2391.000000	96.433077 
2390.000000	96.435598 
2389.000000	96.438193 
2388.000000	96.439343 
2387.000000	96.439163 
2386.000000	96.438839 
2385.000000	96.439207 
2384.000000	96.440330 
2383.000000	96.441935 
2382.000000	96.443690 
2381.000000	96.445474 
2380.000000	96.447740 
2379.000000	96.451098 
2378.000000	96.454836 
2377.000000	96.456627 
2376.000000	96.454876 
2375.000000	96.450749 
2374.000000	96.447278 
2373.000000	96.445804 
2372.000000	96.445003 
2371.000000	96.443624 
2370.000000	96.442514 
2369.000000	96.442964 
2368.000000	96.444176 
2367.000000	96.443998 
2366.000000	96.441881 
2365.000000	96.439537 
2364.000000	96.438564 
2363.000000	96.438738 
2362.000000	96.439086 
2361.000000	96.439198 
2360.000000	96.438902 
2359.000000	96.437594 
2358.000000	96.435406 
2357.000000	96.434012 
2356.000000	96.434634 
2355.000000	96.435777 
2354.000000	96.434603 
2353.000000	96.430971 
2352.000000	96.427379 
2351.000000	96.425168 
2350.000000	96.423488 
2349.000000	96.421436 
2348.000000	96.418697 
2347.000000	96.414376 
2346.000000	96.408800 
2345.000000	96.404769 
2344.000000	96.403868 
2343.000000	96.404688 
2342.000000	96.405514 
2341.000000	96.406591 
2340.000000	96.408526 
2339.000000	96.410377 
2338.000000	96.410017 
2337.000000	96.406952 
2336.000000	96.403399 
2335.000000	96.401717 
2334.000000	96.400680 
2333.000000	96.397165 
2332.000000	96.390485 
2331.000000	96.383341 
2330.000000	96.378243 
2329.000000	96.374842 
2328.000000	96.372131 
2327.000000	96.369715 
2326.000000	96.367055 
2325.000000	96.363333 
2324.000000	96.359281 
2323.000000	96.356957 
2322.000000	96.356044 
2321.000000	96.353766 
2320.000000	96.349540 
2319.000000	96.347334 
2318.000000	96.350147 
2317.000000	96.355263 
2316.000000	96.356937 
2315.000000	96.352999 
2314.000000	96.346344 
2313.000000	96.341000 
2312.000000	96.338370 
2311.000000	96.337315 
2310.000000	96.335999 
2309.000000	96.333106 
2308.000000	96.329083 
2307.000000	96.326314 
2306.000000	96.326833 
2305.000000	96.329860 
2304.000000	96.332734 
2303.000000	96.334453 
2302.000000	96.336568 
2301.000000	96.340309 
2300.000000	96.344366 
2299.000000	96.346316 
2298.000000	96.345253 
2297.000000	96.342236 
2296.000000	96.339188 
2295.000000	96.337707 
2294.000000	96.338585 
2293.000000	96.341356 
2292.000000	96.344691 
2291.000000	96.347497 
2290.000000	96.349820 
2289.000000	96.352263 
2288.000000	96.354795 
2287.000000	96.356585 
2286.000000	96.357137 
2285.000000	96.357205 
2284.000000	96.358063 
2283.000000	96.360055 
2282.000000	96.362241 
2281.000000	96.363483 
2280.000000	96.363263 
2279.000000	96.361488 
2278.000000	96.358292 
2277.000000	96.354657 
2276.000000	96.352416 
2275.000000	96.352738 
2274.000000	96.354994 
2273.000000	96.357787 
2272.000000	96.360498 
2271.000000	96.363051 
2270.000000	96.364776 
2269.000000	96.364931 
2268.000000	96.364054 
2267.000000	96.363465 
2266.000000	96.363463 
2265.000000	96.363363 
2264.000000	96.363002 
2263.000000	96.362814 
2262.000000	96.362620 
2261.000000	96.361628 
2260.000000	96.359801 
2259.000000	96.358072 
2258.000000	96.357020 
2257.000000	96.356355 
2256.000000	96.355913 
2255.000000	96.356106 
2254.000000	96.356946 
2253.000000	96.357456 
2252.000000	96.356738 
2251.000000	96.354941 
2250.000000	96.352730 
2249.000000	96.350495 
2248.000000	96.348465 
2247.000000	96.346986 
2246.000000	96.346134 
2245.000000	96.345537 
2244.000000	96.344739 
2243.000000	96.343687 
2242.000000	96.342598 
2241.000000	96.341596 
2240.000000	96.340662 
2239.000000	96.339776 
2238.000000	96.338947 
2237.000000	96.338148 
2236.000000	96.337339 
2235.000000	96.336509 
2234.000000	96.335658 
2233.000000	96.334782 
2232.000000	96.333876 
2231.000000	96.332947 
2230.000000	96.331998 
2229.000000	96.331033 
2228.000000	96.330061 
2227.000000	96.329100 
2226.000000	96.328165 
2225.000000	96.327250 
2224.000000	96.326332 
2223.000000	96.325404 
2222.000000	96.324475 
2221.000000	96.323564 
2220.000000	96.322671 
2219.000000	96.321777 
2218.000000	96.320861 
2217.000000	96.319917 
2216.000000	96.318952 
2215.000000	96.317977 
2214.000000	96.316991 
2213.000000	96.315988 
2212.000000	96.314982 
2211.000000	96.314004 
2210.000000	96.313094 
2209.000000	96.312263 
2208.000000	96.311489 
2207.000000	96.310738 
2206.000000	96.309979 
2205.000000	96.309189 
2204.000000	96.308349 
2203.000000	96.307445 
2202.000000	96.306477 
2201.000000	96.305457 
2200.000000	96.304402 
2199.000000	96.303330 
2198.000000	96.302251 
2197.000000	96.301174 
2196.000000	96.300103 
2195.000000	96.299042 
2194.000000	96.298016 
2193.000000	96.297031 
2192.000000	96.296075 
2191.000000	96.295179 
2190.000000	96.294386 
2189.000000	96.293666 
2188.000000	96.292952 
2187.000000	96.292254 
2186.000000	96.291584 
2185.000000	96.290802 
2184.000000	96.289798 
2183.000000	96.288871 
2182.000000	96.288490 
2181.000000	96.288729 
2180.000000	96.289071 
2179.000000	96.289030 
2178.000000	96.288659 
2177.000000	96.288286 
2176.000000	96.288056 
2175.000000	96.288054 
2174.000000	96.288546 
2173.000000	96.289545 
2172.000000	96.290601 
2171.000000	96.291550 
2170.000000	96.292876 
2169.000000	96.294724 
2168.000000	96.296160 
2167.000000	96.296232 
2166.000000	96.295276 
2165.000000	96.294500 
2164.000000	96.294324 
2163.000000	96.294269 
2162.000000	96.294452 
2161.000000	96.295867 
2160.000000	96.298923 
2159.000000	96.302970 
2158.000000	96.307260 
2157.000000	96.311252 
2156.000000	96.314191 
2155.000000	96.315626 
2154.000000	96.316346 
2153.000000	96.318023 
2152.000000	96.321375 
2151.000000	96.325319 
2150.000000	96.328148 
2149.000000	96.329466 
2148.000000	96.330410 
2147.000000	96.332166 
2146.000000	96.334638 
2145.000000	96.336947 
2144.000000	96.338847 
2143.000000	96.341128 
2142.000000	96.344526 
2141.000000	96.348750 
2140.000000	96.352797 
2139.000000	96.356055 
2138.000000	96.358806 
2137.000000	96.361552 
2136.000000	96.364169 
2135.000000	96.365970 
2134.000000	96.366530 
2133.000000	96.366411 
2132.000000	96.366961 
2131.000000	96.369086 
2130.000000	96.372415 
2129.000000	96.375623 
2128.000000	96.377725 
2127.000000	96.378895 
2126.000000	96.379980 
2125.000000	96.381490 
2124.000000	96.383314 
2123.000000	96.385166 
2122.000000	96.386858 
2121.000000	96.388228 
2120.000000	96.389182 
2119.000000	96.389814 
2118.000000	96.390360 
2117.000000	96.391022 
2116.000000	96.391855 
2115.000000	96.392689 
2114.000000	96.393145 
2113.000000	96.392956 
2112.000000	96.392516 
2111.000000	96.392778 
2110.000000	96.394299 
2109.000000	96.396580 
2108.000000	96.398516 
2107.000000	96.399577 
2106.000000	96.400024 
2105.000000	96.400323 
2104.000000	96.400775 
2103.000000	96.401530 
2102.000000	96.402486 
2101.000000	96.403147 
2100.000000	96.403051 
2099.000000	96.402443 
2098.000000	96.402263 
2097.000000	96.403109 
2096.000000	96.404673 
2095.000000	96.406099 
2094.000000	96.406850 
2093.000000	96.406964 
2092.000000	96.406754 
2091.000000	96.406627 
2090.000000	96.406968 
2089.000000	96.407875 
2088.000000	96.408938 
2087.000000	96.409546 
2086.000000	96.409405 
2085.000000	96.408635 
2084.000000	96.407595 
2083.000000	96.406671 
2082.000000	96.406170 
2081.000000	96.406226 
2080.000000	96.406831 
2079.000000	96.407908 
2078.000000	96.409096 
2077.000000	96.409659 
2076.000000	96.409149 
2075.000000	96.408122 
2074.000000	96.407571 
2073.000000	96.407319 
2072.000000	96.406038 
2071.000000	96.403225 
2070.000000	96.400178 
2069.000000	96.398541 
2068.000000	96.398638 
2067.000000	96.399500 
2066.000000	96.399961 
2065.000000	96.399437 
2064.000000	96.398115 
2063.000000	96.396896 
2062.000000	96.396852 
2061.000000	96.398231 
2060.000000	96.400357 
2059.000000	96.402536 
2058.000000	96.404413 
2057.000000	96.405598 
2056.000000	96.405640 
2055.000000	96.404590 
2054.000000	96.403302 
2053.000000	96.402737 
2052.000000	96.403077 
2051.000000	96.403730 
2050.000000	96.404071 
2049.000000	96.404035 
2048.000000	96.403996 
2047.000000	96.404264 
2046.000000	96.404839 
2045.000000	96.405560 
2044.000000	96.406358 
2043.000000	96.407290 
2042.000000	96.408410 
2041.000000	96.409700 
2040.000000	96.411124 
2039.000000	96.412714 
2038.000000	96.414469 
2037.000000	96.416183 
2036.000000	96.417515 
2035.000000	96.418277 
2034.000000	96.418644 
2033.000000	96.419106 
2032.000000	96.420065 
2031.000000	96.421488 
2030.000000	96.422847 
2029.000000	96.423576 
2028.000000	96.423639 
2027.000000	96.423531 
2026.000000	96.423694 
2025.000000	96.424109 
2024.000000	96.424614 
2023.000000	96.425313 
2022.000000	96.426434 
2021.000000	96.427854 
2020.000000	96.428968 
2019.000000	96.429236 
2018.000000	96.428621 
2017.000000	96.427606 
2016.000000	96.426847 
2015.000000	96.426698 
2014.000000	96.426978 
2013.000000	96.427044 
2012.000000	96.426461 
2011.000000	96.425713 
2010.000000	96.425809 
2009.000000	96.427065 
2008.000000	96.428693 
2007.000000	96.429769 
2006.000000	96.430297 
2005.000000	96.430748 
2004.000000	96.431146 
2003.000000	96.431201 
2002.000000	96.431015 
2001.000000	96.430834 
2000.000000	96.430289 
1999.000000	96.428640 
1998.000000	96.425719 
1997.000000	96.422280 
1996.000000	96.419494 
1995.000000	96.418064 
1994.000000	96.417842 
1993.000000	96.417984 
1992.000000	96.417586 
1991.000000	96.416546 
1990.000000	96.415601 
1989.000000	96.415430 
1988.000000	96.415872 
1987.000000	96.416106 
1986.000000	96.415523 
1985.000000	96.414261 
1984.000000	96.412973 
1983.000000	96.412167 
1982.000000	96.411775 
1981.000000	96.411451 
1980.000000	96.411096 
1979.000000	96.410891 
1978.000000	96.410855 
1977.000000	96.410747 
1976.000000	96.410441 
1975.000000	96.410106 
1974.000000	96.409940 
1973.000000	96.409929 
1972.000000	96.409940 
1971.000000	96.409875 
1970.000000	96.409701 
1969.000000	96.409431 
1968.000000	96.409120 
1967.000000	96.408828 
1966.000000	96.408593 
1965.000000	96.408425 
1964.000000	96.408336 
1963.000000	96.408314 
1962.000000	96.408344 
1961.000000	96.408412 
1960.000000	96.408511 
1959.000000	96.408634 
1958.000000	96.408789 
1957.000000	96.408992 
1956.000000	96.409260 
1955.000000	96.409581 
1954.000000	96.409916 
1953.000000	96.410213 
1952.000000	96.410449 
1951.000000	96.410634 
1950.000000	96.410809 
1949.000000	96.411008 
1948.000000	96.411242 
1947.000000	96.411482 
1946.000000	96.411684 
1945.000000	96.411812 
1944.000000	96.411868 
1943.000000	96.411875 
1942.000000	96.411857 
1941.000000	96.411828 
1940.000000	96.411799 
1939.000000	96.411787 
1938.000000	96.411808 
1937.000000	96.411857 
1936.000000	96.411915 
1935.000000	96.411959 
1934.000000	96.411967 
1933.000000	96.411926 
1932.000000	96.411838 
1931.000000	96.411709 
1930.000000	96.411551 
1929.000000	96.411362 
1928.000000	96.411146 
1927.000000	96.410932 
1926.000000	96.410746 
1925.000000	96.410538 
1924.000000	96.410215 
1923.000000	96.409746 
1922.000000	96.409185 
1921.000000	96.408592 
1920.000000	96.407982 
1919.000000	96.407364 
1918.000000	96.406735 
1917.000000	96.406067 
1916.000000	96.405337 
1915.000000	96.404583 
1914.000000	96.403858 
1913.000000	96.403112 
1912.000000	96.402244 
1911.000000	96.401264 
1910.000000	96.400321 
1909.000000	96.399510 
1908.000000	96.398764 
1907.000000	96.397989 
1906.000000	96.397150 
1905.000000	96.396192 
1904.000000	96.395015 
1903.000000	96.393653 
1902.000000	96.392310 
1901.000000	96.391128 
1900.000000	96.390089 
1899.000000	96.389184 
1898.000000	96.388453 
1897.000000	96.387815 
1896.000000	96.386998 
1895.000000	96.385821 
1894.000000	96.384396 
1893.000000	96.382915 
1892.000000	96.381341 
1891.000000	96.379653 
1890.000000	96.378198 
1889.000000	96.377373 
1888.000000	96.377158 
1887.000000	96.377281 
1886.000000	96.377536 
1885.000000	96.377550 
1884.000000	96.376819 
1883.000000	96.375274 
1882.000000	96.373590 
1881.000000	96.372535 
1880.000000	96.372211 
1879.000000	96.372186 
1878.000000	96.372057 
1877.000000	96.371816 
1876.000000	96.371634 
1875.000000	96.371611 
1874.000000	96.371810 
1873.000000	96.372173 
1872.000000	96.372551 
1871.000000	96.372948 
1870.000000	96.373462 
1869.000000	96.373940 
1868.000000	96.374080 
1867.000000	96.374138 
1866.000000	96.374639 
1865.000000	96.375190 
1864.000000	96.374929 
1863.000000	96.374176 
1862.000000	96.374413 
1861.000000	96.376326 
1860.000000	96.379034 
1859.000000	96.381587 
1858.000000	96.384029 
1857.000000	96.386307 
1856.000000	96.387820 
1855.000000	96.388536 
1854.000000	96.389231 
1853.000000	96.390196 
1852.000000	96.391199 
1851.000000	96.392502 
1850.000000	96.394549 
1849.000000	96.397117 
1848.000000	96.399396 
1847.000000	96.401087 
1846.000000	96.402504 
1845.000000	96.403716 
1844.000000	96.404502 
1843.000000	96.405205 
1842.000000	96.406473 
1841.000000	96.408359 
1840.000000	96.410668 
1839.000000	96.413305 
1838.000000	96.416019 
1837.000000	96.418111 
1836.000000	96.419045 
1835.000000	96.419215 
1834.000000	96.419545 
1833.000000	96.420439 
1832.000000	96.421723 
1831.000000	96.422940 
1830.000000	96.423674 
1829.000000	96.424071 
1828.000000	96.424634 
1827.000000	96.425640 
1826.000000	96.426911 
1825.000000	96.427905 
1824.000000	96.428246 
1823.000000	96.428146 
1822.000000	96.428275 
1821.000000	96.428996 
1820.000000	96.429972 
1819.000000	96.430615 
1818.000000	96.430921 
1817.000000	96.431353 
1816.000000	96.431844 
1815.000000	96.431997 
1814.000000	96.431914 
1813.000000	96.432144 
1812.000000	96.432733 
1811.000000	96.432976 
1810.000000	96.432826 
1809.000000	96.433001 
1808.000000	96.433496 
1807.000000	96.433769 
1806.000000	96.433964 
1805.000000	96.434514 
1804.000000	96.434833 
1803.000000	96.433850 
1802.000000	96.431510 
1801.000000	96.429416 
1800.000000	96.428924 
1799.000000	96.429627 
1798.000000	96.430749 
1797.000000	96.431779 
1796.000000	96.431884 
1795.000000	96.430780 
1794.000000	96.429424 
1793.000000	96.429106 
1792.000000	96.429560 
1791.000000	96.429723 
1790.000000	96.430372 
1789.000000	96.432660 
1788.000000	96.435862 
1787.000000	96.438100 
1786.000000	96.438665 
1785.000000	96.438359 
1784.000000	96.437916 
1783.000000	96.437773 
1782.000000	96.438027 
1781.000000	96.438643 
1780.000000	96.439802 
1779.000000	96.441471 
1778.000000	96.443630 
1777.000000	96.445611 
1776.000000	96.446509 
1775.000000	96.446450 
1774.000000	96.446144 
1773.000000	96.446266 
1772.000000	96.447095 
1771.000000	96.447795 
1770.000000	96.447641 
1769.000000	96.447435 
1768.000000	96.448134 
1767.000000	96.449388 
1766.000000	96.450187 
1765.000000	96.450486 
1764.000000	96.451100 
1763.000000	96.452145 
1762.000000	96.452908 
1761.000000	96.453383 
1760.000000	96.453991 
1759.000000	96.454433 
1758.000000	96.454161 
1757.000000	96.453023 
1756.000000	96.452095 
1755.000000	96.451652 
1754.000000	96.450481 
1753.000000	96.447972 
1752.000000	96.445394 
1751.000000	96.444783 
1750.000000	96.446334 
1749.000000	96.448003 
1748.000000	96.448126 
1747.000000	96.447105 
1746.000000	96.445729 
1745.000000	96.444790 
1744.000000	96.445108 
1743.000000	96.446095 
1742.000000	96.446220 
1741.000000	96.445524 
1740.000000	96.445643 
1739.000000	96.447012 
1738.000000	96.447433 
1737.000000	96.445407 
1736.000000	96.441562 
1735.000000	96.437210 
1734.000000	96.433973 
1733.000000	96.432606 
1732.000000	96.432218 
1731.000000	96.432504 
1730.000000	96.433771 
1729.000000	96.434590 
1728.000000	96.434164 
1727.000000	96.432647 
1726.000000	96.430156 
1725.000000	96.426745 
1724.000000	96.423463 
1723.000000	96.421702 
1722.000000	96.421986 
1721.000000	96.422677 
1720.000000	96.421544 
1719.000000	96.416916 
1718.000000	96.409540 
1717.000000	96.403271 
1716.000000	96.398175 
1715.000000	96.392177 
1714.000000	96.387423 
1713.000000	96.385318 
1712.000000	96.383570 
1711.000000	96.380373 
1710.000000	96.376114 
1709.000000	96.371175 
1708.000000	96.365618 
1707.000000	96.360410 
1706.000000	96.356943 
1705.000000	96.354262 
1704.000000	96.348226 
1703.000000	96.338132 
1702.000000	96.327506 
1701.000000	96.320502 
1700.000000	96.315583 
1699.000000	96.307069 
1698.000000	96.296176 
1697.000000	96.287649 
1696.000000	96.282179 
1695.000000	96.277237 
1694.000000	96.270954 
1693.000000	96.263428 
1692.000000	96.255328 
1691.000000	96.246871 
1690.000000	96.238274 
1689.000000	96.229426 
1688.000000	96.220034 
1687.000000	96.210278 
1686.000000	96.201101 
1685.000000	96.193508 
1684.000000	96.186063 
1683.000000	96.177157 
1682.000000	96.166596 
1681.000000	96.154501 
1680.000000	96.143504 
1679.000000	96.134891 
1678.000000	96.127740 
1677.000000	96.119396 
1676.000000	96.109500 
1675.000000	96.099528 
1674.000000	96.088554 
1673.000000	96.075332 
1672.000000	96.062868 
1671.000000	96.054343 
1670.000000	96.048166 
1669.000000	96.039335 
1668.000000	96.029191 
1667.000000	96.021985 
1666.000000	96.015727 
1665.000000	96.007513 
1664.000000	95.997664 
1663.000000	95.988310 
1662.000000	95.977813 
1661.000000	95.960187 
1660.000000	95.939029 
1659.000000	95.923721 
1658.000000	95.918198 
1657.000000	95.914101 
1656.000000	95.907982 
1655.000000	95.901569 
1654.000000	95.892602 
1653.000000	95.876857 
1652.000000	95.858437 
1651.000000	95.840730 
1650.000000	95.821660 
1649.000000	95.808718 
1648.000000	95.798222 
1647.000000	95.789985 
1646.000000	95.783758 
1645.000000	95.779965 
1644.000000	95.770556 
1643.000000	95.757318 
1642.000000	95.746898 
1641.000000	95.743185 
1640.000000	95.743429 
1639.000000	95.741462 
1638.000000	95.736406 
1637.000000	95.731335 
1636.000000	95.729268 
1635.000000	95.734301 
1634.000000	95.742027 
1633.000000	95.743344 
1632.000000	95.737615 
1631.000000	95.732258 
1630.000000	95.735131 
1629.000000	95.744622 
1628.000000	95.752770 
1627.000000	95.757367 
1626.000000	95.762161 
1625.000000	95.769913 
1624.000000	95.780987 
1623.000000	95.794446 
1622.000000	95.806045 
1621.000000	95.808751 
1620.000000	95.804825 
1619.000000	95.805301 
1618.000000	95.817782 
1617.000000	95.834704 
1616.000000	95.843044 
1615.000000	95.845892 
1614.000000	95.851306 
1613.000000	95.859284 
1612.000000	95.866105 
1611.000000	95.871639 
1610.000000	95.877456 
1609.000000	95.883437 
1608.000000	95.891579 
1607.000000	95.905860 
1606.000000	95.923473 
1605.000000	95.936524 
1604.000000	95.944133 
1603.000000	95.951364 
1602.000000	95.960439 
1601.000000	95.968880 
1600.000000	95.975459 
1599.000000	95.981911 
1598.000000	95.988612 
1597.000000	95.994886 
1596.000000	96.001859 
1595.000000	96.011377 
1594.000000	96.022159 
1593.000000	96.030277 
1592.000000	96.034970 
1591.000000	96.039957 
1590.000000	96.047585 
1589.000000	96.055508 
1588.000000	96.061746 
1587.000000	96.068439 
1586.000000	96.077571 
1585.000000	96.086630 
1584.000000	96.093695 
1583.000000	96.101001 
1582.000000	96.109351 
1581.000000	96.116104 
1580.000000	96.120469 
1579.000000	96.126335 
1578.000000	96.136921 
1577.000000	96.149787 
1576.000000	96.160383 
1575.000000	96.170405 
1574.000000	96.180900 
1573.000000	96.189526 
1572.000000	96.197546 
1571.000000	96.206000 
1570.000000	96.211701 
1569.000000	96.209839 
1568.000000	96.206213 
1567.000000	96.208767 
1566.000000	96.216657 
1565.000000	96.223041 
1564.000000	96.226750 
1563.000000	96.229824 
1562.000000	96.233846 
1561.000000	96.236467 
1560.000000	96.236596 
1559.000000	96.234467 
1558.000000	96.238244 
1557.000000	96.248732 
1556.000000	96.255102 
1555.000000	96.263033 
1554.000000	96.266327 
1553.000000	96.266531 
1552.000000	96.265726 
1551.000000	96.266290 
1550.000000	96.265231 
1549.000000	96.261844 
1548.000000	96.258999 
1547.000000	96.260766 
1546.000000	96.266854 
1545.000000	96.273130 
1544.000000	96.275989 
1543.000000	96.274899 
1542.000000	96.273317 
1541.000000	96.275152 
1540.000000	96.275769 
1539.000000	96.273667 
1538.000000	96.270533 
1537.000000	96.264467 
1536.000000	96.258662 
1535.000000	96.257046 
1534.000000	96.259403 
1533.000000	96.259975 
1532.000000	96.255501 
1531.000000	96.247139 
1530.000000	96.240383 
1529.000000	96.237983 
1528.000000	96.236531 
1527.000000	96.232424 
1526.000000	96.226382 
1525.000000	96.221620 
1524.000000	96.219585 
1523.000000	96.218909 
1522.000000	96.216726 
1521.000000	96.211152 
1520.000000	96.202975 
1519.000000	96.194241 
1518.000000	96.186666 
1517.000000	96.180504 
1516.000000	96.174583 
1515.000000	96.169195 
1514.000000	96.165416 
1513.000000	96.163963 
1512.000000	96.162364 
1511.000000	96.155972 
1510.000000	96.144355 
1509.000000	96.132664 
1508.000000	96.126030 
1507.000000	96.121862 
1506.000000	96.118512 
1505.000000	96.115571 
1504.000000	96.109287 
1503.000000	96.101210 
1502.000000	96.093029 
1501.000000	96.086554 
1500.000000	96.081397 
1499.000000	96.075105 
1498.000000	96.065327 
1497.000000	96.056130 
1496.000000	96.052298 
1495.000000	96.051158 
1494.000000	96.048503 
1493.000000	96.044992 
1492.000000	96.043323 
1491.000000	96.043555 
1490.000000	96.042931 
1489.000000	96.040287 
1488.000000	96.034081 
1487.000000	96.023146 
1486.000000	96.012240 
1485.000000	96.002918 
1484.000000	95.993318 
1483.000000	95.983552 
1482.000000	95.974401 
1481.000000	95.966242 
1480.000000	95.957652 
1479.000000	95.948125 
1478.000000	95.938859 
1477.000000	95.930388 
1476.000000	95.919404 
1475.000000	95.903683 
1474.000000	95.887051 
1473.000000	95.875840 
1472.000000	95.871723 
1471.000000	95.868606 
1470.000000	95.862560 
1469.000000	95.855654 
1468.000000	95.849388 
1467.000000	95.842574 
1466.000000	95.835112 
1465.000000	95.828574 
1464.000000	95.823848 
1463.000000	95.817234 
1462.000000	95.806415 
1461.000000	95.794601 
1460.000000	95.785600 
1459.000000	95.779173 
1458.000000	95.766966 
1457.000000	95.747568 
1456.000000	95.733888 
1455.000000	95.727122 
1454.000000	95.718568 
1453.000000	95.711180 
1452.000000	95.708950 
1451.000000	95.710920 
1450.000000	95.712861 
1449.000000	95.715783 
1448.000000	95.720633 
1447.000000	95.723823 
1446.000000	95.721397 
1445.000000	95.715244 
1444.000000	95.710781 
1443.000000	95.707259 
1442.000000	95.701452 
1441.000000	95.693349 
1440.000000	95.685073 
1439.000000	95.675722 
1438.000000	95.662626 
1437.000000	95.649877 
1436.000000	95.645899 
1435.000000	95.647148 
1434.000000	95.644039 
1433.000000	95.638969 
1432.000000	95.637704 
1431.000000	95.639666 
1430.000000	95.639188 
1429.000000	95.635756 
1428.000000	95.632657 
1427.000000	95.631023 
1426.000000	95.630273 
1425.000000	95.631006 
1424.000000	95.636606 
1423.000000	95.643051 
1422.000000	95.642655 
1421.000000	95.637776 
1420.000000	95.638466 
1419.000000	95.642854 
1418.000000	95.638346 
1417.000000	95.629175 
1416.000000	95.629901 
1415.000000	95.642578 
1414.000000	95.655119 
1413.000000	95.658825 
1412.000000	95.657764 
1411.000000	95.657929 
1410.000000	95.657995 
1409.000000	95.658084 
1408.000000	95.662353 
1407.000000	95.672155 
1406.000000	95.683928 
1405.000000	95.696163 
1404.000000	95.713807 
1403.000000	95.734789 
1402.000000	95.750091 
1401.000000	95.759292 
1400.000000	95.771553 
1399.000000	95.791697 
1398.000000	95.811991 
1397.000000	95.824579 
1396.000000	95.832015 
1395.000000	95.842223 
1394.000000	95.857443 
1393.000000	95.875856 
1392.000000	95.898536 
1391.000000	95.923895 
1390.000000	95.945897 
1389.000000	95.960235 
1388.000000	95.968104 
1387.000000	95.973915 
1386.000000	95.980954 
1385.000000	95.990654 
1384.000000	96.004409 
1383.000000	96.020787 
1382.000000	96.035197 
1381.000000	96.045195 
1380.000000	96.052095 
1379.000000	96.059487 
1378.000000	96.070536 
1377.000000	96.086550 
1376.000000	96.106230 
1375.000000	96.125597 
1374.000000	96.140131 
1373.000000	96.150045 
1372.000000	96.159785 
1371.000000	96.172649 
1370.000000	96.187803 
1369.000000	96.201110 
1368.000000	96.212040 
1367.000000	96.223354 
1366.000000	96.236757 
1365.000000	96.251858 
1364.000000	96.265907 
1363.000000	96.274677 
1362.000000	96.277777 
1361.000000	96.280689 
1360.000000	96.289103 
1359.000000	96.303947 
1358.000000	96.321173 
1357.000000	96.335628 
1356.000000	96.345908 
1355.000000	96.354276 
1354.000000	96.363156 
1353.000000	96.373541 
1352.000000	96.383639 
1351.000000	96.391975 
1350.000000	96.400140 
1349.000000	96.408969 
1348.000000	96.418397 
1347.000000	96.427219 
1346.000000	96.434133 
1345.000000	96.438461 
1344.000000	96.441315 
1343.000000	96.444878 
1342.000000	96.450128 
1341.000000	96.454755 
1340.000000	96.455476 
1339.000000	96.453015 
1338.000000	96.451764 
1337.000000	96.454425 
1336.000000	96.459313 
1335.000000	96.462488 
1334.000000	96.462153 
1333.000000	96.460565 
1332.000000	96.461052 
1331.000000	96.464424 
1330.000000	96.468504 
1329.000000	96.470744 
1328.000000	96.470731 
1327.000000	96.470430 
1326.000000	96.471341 
1325.000000	96.471753 
1324.000000	96.469821 
1323.000000	96.465834 
1322.000000	96.461909 
1321.000000	96.460532 
1320.000000	96.463050 
1319.000000	96.467779 
1318.000000	96.470632 
1317.000000	96.469366 
1316.000000	96.465783 
1315.000000	96.462658 
1314.000000	96.460327 
1313.000000	96.458347 
1312.000000	96.458060 
1311.000000	96.460977 
1310.000000	96.465784 
1309.000000	96.469571 
1308.000000	96.470720 
1307.000000	96.469450 
1306.000000	96.466652 
1305.000000	96.463710 
1304.000000	96.463581 
1303.000000	96.467685 
1302.000000	96.472993 
1301.000000	96.474917 
1300.000000	96.473120 
1299.000000	96.471363 
1298.000000	96.471862 
1297.000000	96.472359 
1296.000000	96.469667 
1295.000000	96.464304 
1294.000000	96.460118 
1293.000000	96.460647 
1292.000000	96.466196 
1291.000000	96.473396 
1290.000000	96.477604 
1289.000000	96.476678 
1288.000000	96.472339 
1287.000000	96.467565 
1286.000000	96.463375 
1285.000000	96.459537 
1284.000000	96.457275 
1283.000000	96.458489 
1282.000000	96.462647 
1281.000000	96.466528 
1280.000000	96.467578 
1279.000000	96.466146 
1278.000000	96.463992 
1277.000000	96.462433 
1276.000000	96.462116 
1275.000000	96.463335 
1274.000000	96.465494 
1273.000000	96.467576 
1272.000000	96.469597 
1271.000000	96.472335 
1270.000000	96.475153 
1269.000000	96.475601 
1268.000000	96.472135 
1267.000000	96.465731 
1266.000000	96.458370 
1265.000000	96.452183 
1264.000000	96.449993 
1263.000000	96.453843 
1262.000000	96.461913 
1261.000000	96.468942 
1260.000000	96.471681 
1259.000000	96.472457 
1258.000000	96.474925 
1257.000000	96.478161 
1256.000000	96.477279 
1255.000000	96.470113 
1254.000000	96.461237 
1253.000000	96.457765 
1252.000000	96.461418 
1251.000000	96.466759 
1250.000000	96.467900 
1249.000000	96.465458 
1248.000000	96.465037 
1247.000000	96.469271 
1246.000000	96.473857 
1245.000000	96.473004 
1244.000000	96.466452 
1243.000000	96.459608 
1242.000000	96.458434 
1241.000000	96.465255 
1240.000000	96.477298 
1239.000000	96.487397 
1238.000000	96.488257 
1237.000000	96.478566 
1236.000000	96.463984 
1235.000000	96.450846 
1234.000000	96.440570 
1233.000000	96.431681 
1232.000000	96.424431 
1231.000000	96.419901 
1230.000000	96.416313 
1229.000000	96.410068 
1228.000000	96.399528 
1227.000000	96.384795 
1226.000000	96.364938 
1225.000000	96.338791 
1224.000000	96.308165 
1223.000000	96.277057 
1222.000000	96.247165 
1221.000000	96.216345 
1220.000000	96.181545 
1219.000000	96.140961 
1218.000000	96.093257 
1217.000000	96.037366 
1216.000000	95.973803 
1215.000000	95.904925 
1214.000000	95.834098 
1213.000000	95.765700 
1212.000000	95.703920 
1211.000000	95.647994 
1210.000000	95.589817 
1209.000000	95.520404 
1208.000000	95.439088 
1207.000000	95.353468 
1206.000000	95.270288 
1205.000000	95.189443 
1204.000000	95.107458 
1203.000000	95.023394 
1202.000000	94.939674 
1201.000000	94.858764 
1200.000000	94.779974 
1199.000000	94.698792 
1198.000000	94.610028 
1197.000000	94.513435 
1196.000000	94.415042 
1195.000000	94.320807 
1194.000000	94.230206 
1193.000000	94.138416 
1192.000000	94.043249 
1191.000000	93.946503 
1190.000000	93.849522 
1189.000000	93.751117 
1188.000000	93.649523 
1187.000000	93.543444 
1186.000000	93.432119 
1185.000000	93.317378 
1184.000000	93.204083 
1183.000000	93.095039 
1182.000000	92.987080 
1181.000000	92.875919 
1180.000000	92.762664 
1179.000000	92.650639 
1178.000000	92.537465 
1177.000000	92.416223 
1176.000000	92.283830 
1175.000000	92.143117 
1174.000000	91.997785 
1173.000000	91.850923 
1172.000000	91.707403 
1171.000000	91.570437 
1170.000000	91.435449 
1169.000000	91.294559 
1168.000000	91.148334 
1167.000000	91.007153 
1166.000000	90.881371 
1165.000000	90.778211 
1164.000000	90.708583 
1163.000000	90.686467 
1162.000000	90.716136 
1161.000000	90.784143 
1160.000000	90.865350 
1159.000000	90.932937 
1158.000000	90.964726 
1157.000000	90.949138 
1156.000000	90.888914 
1155.000000	90.795691 
1154.000000	90.680317 
1153.000000	90.551607 
1152.000000	90.421295 
1151.000000	90.300408 
1150.000000	90.188804 
1149.000000	90.076361 
1148.000000	89.956776 
1147.000000	89.833066 
1146.000000	89.708380 
1145.000000	89.580216 
1144.000000	89.447012 
1143.000000	89.312805 
1142.000000	89.181372 
1141.000000	89.051978 
1140.000000	88.923670 
1139.000000	88.797141 
1138.000000	88.669713 
1137.000000	88.535266 
1136.000000	88.392104 
1135.000000	88.245186 
1134.000000	88.098828 
1133.000000	87.953097 
1132.000000	87.807976 
1131.000000	87.663656 
1130.000000	87.515985 
1129.000000	87.359825 
1128.000000	87.197863 
1127.000000	87.037299 
1126.000000	86.876668 
1125.000000	86.705915 
1124.000000	86.522071 
1123.000000	86.335518 
1122.000000	86.157484 
1121.000000	85.989678 
1120.000000	85.828555 
1119.000000	85.670439 
1118.000000	85.510302 
1117.000000	85.345533 
1116.000000	85.183311 
1115.000000	85.034415 
1114.000000	84.898188 
1113.000000	84.764381 
1112.000000	84.630758 
1111.000000	84.505756 
1110.000000	84.391364 
1109.000000	84.277051 
1108.000000	84.154049 
1107.000000	84.023124 
1106.000000	83.886240 
1105.000000	83.743075 
1104.000000	83.598251 
1103.000000	83.459669 
1102.000000	83.326305 
1101.000000	83.190836 
1100.000000	83.055174 
1099.000000	82.928142 
1098.000000	82.809090 
1097.000000	82.685878 
1096.000000	82.553770 
1095.000000	82.420583 
1094.000000	82.290545 
1093.000000	82.158324 
1092.000000	82.023329 
1091.000000	81.895040 
1090.000000	81.779257 
1089.000000	81.671880 
1088.000000	81.568735 
1087.000000	81.467706 
1086.000000	81.360296 
1085.000000	81.237790 
1084.000000	81.108357 
1083.000000	80.991357 
1082.000000	80.891046 
1081.000000	80.792174 
1080.000000	80.684766 
1079.000000	80.575512 
1078.000000	80.470345 
1077.000000	80.362763 
1076.000000	80.244721 
1075.000000	80.113327 
1074.000000	79.963008 
1073.000000	79.787240 
1072.000000	79.590892 
1071.000000	79.383468 
1070.000000	79.156697 
1069.000000	78.888360 
1068.000000	78.574279 
1067.000000	78.239060 
1066.000000	77.908977 
1065.000000	77.590257 
1064.000000	77.279842 
1063.000000	76.977109 
1062.000000	76.675355 
1061.000000	76.360287 
1060.000000	76.028221 
1059.000000	75.691992 
1058.000000	75.361361 
1057.000000	75.031705 
1056.000000	74.697365 
1055.000000	74.359386 
1054.000000	74.013846 
1053.000000	73.650314 
1052.000000	73.270405 
1051.000000	72.891171 
1050.000000	72.521375 
1049.000000	72.151721 
1048.000000	71.775176 
1047.000000	71.396912 
1046.000000	71.019177 
1045.000000	70.636689 
1044.000000	70.250561 
1043.000000	69.867733 
1042.000000	69.484941 
1041.000000	69.093405 
1040.000000	68.701498 
1039.000000	68.331212 
1038.000000	67.988905 
1037.000000	67.660776 
1036.000000	67.339460 
1035.000000	67.032768 
1034.000000	66.744148 
1033.000000	66.468283 
1032.000000	66.207909 
1031.000000	65.970963 
1030.000000	65.750365 
1029.000000	65.532570 
1028.000000	65.326711 
1027.000000	65.156381 
1026.000000	65.020334 
1025.000000	64.890148 
1024.000000	64.750141 
1023.000000	64.610408 
1022.000000	64.476545 
1021.000000	64.337858 
1020.000000	64.192139 
1019.000000	64.053030 
1018.000000	63.925118 
1017.000000	63.797763 
1016.000000	63.668480 
1015.000000	63.545862 
1014.000000	63.425929 
1013.000000	63.294080 
1012.000000	63.154653 
1011.000000	63.029634 
1010.000000	62.923757 
1009.000000	62.820269 
1008.000000	62.715939 
1007.000000	62.629922 
1006.000000	62.571098 
1005.000000	62.525700 
1004.000000	62.483817 
1003.000000	62.450645 
1002.000000	62.426308 
1001.000000	62.403201 
1000.000000	62.388807 
999.000000	 62.402232 
998.000000	 62.442140 
997.000000	 62.485714 
996.000000	 62.524522 
995.000000	 62.573061 
994.000000	 62.636798 
993.000000	 62.701466 
992.000000	 62.760724 
991.000000	 62.826644 
990.000000	 62.906196 
989.000000	 62.993866 
988.000000	 63.092313 
987.000000	 63.212812 
986.000000	 63.350575 
985.000000	 63.487298 
984.000000	 63.622822 
983.000000	 63.776346 
982.000000	 63.952516 
981.000000	 64.135734 
980.000000	 64.323191 
979.000000	 64.533960 
978.000000	 64.777523 
977.000000	 65.040601 
976.000000	 65.312157 
975.000000	 65.595952 
974.000000	 65.892426 
973.000000	 66.193690 
972.000000	 66.502116 
971.000000	 66.829492 
970.000000	 67.173487 
969.000000	 67.519288 
968.000000	 67.867583 
967.000000	 68.234841 
966.000000	 68.621401 
965.000000	 69.004561 
964.000000	 69.368871 
963.000000	 69.720670 
962.000000	 70.069184 
961.000000	 70.415810 
960.000000	 70.764484 
959.000000	 71.119727 
958.000000	 71.471737 
957.000000	 71.805451 
956.000000	 72.125282 
955.000000	 72.448039 
954.000000	 72.770970 
953.000000	 73.071820 
952.000000	 73.342577 
951.000000	 73.598743 
950.000000	 73.853053 
949.000000	 74.103523 
948.000000	 74.349594 
947.000000	 74.594796 
946.000000	 74.829226 
945.000000	 75.033604 
944.000000	 75.205960 
943.000000	 75.363381 
942.000000	 75.514743 
941.000000	 75.654507 
940.000000	 75.786606 
939.000000	 75.928999 
938.000000	 76.087388 
937.000000	 76.247078 
936.000000	 76.398383 
935.000000	 76.548871 
934.000000	 76.703567 
933.000000	 76.853914 
932.000000	 76.994700 
931.000000	 77.134143 
930.000000	 77.280586 
929.000000	 77.434773 
928.000000	 77.598308 
927.000000	 77.771805 
926.000000	 77.941558 
925.000000	 78.086499 
924.000000	 78.202124 
923.000000	 78.301542 
922.000000	 78.392658 
921.000000	 78.472964 
920.000000	 78.546969 
919.000000	 78.627356 
918.000000	 78.715623 
917.000000	 78.800945 
916.000000	 78.880599 
915.000000	 78.962649 
914.000000	 79.048511 
913.000000	 79.135282 
912.000000	 79.237148 
911.000000	 79.380756 
910.000000	 79.574975 
909.000000	 79.806398 
908.000000	 80.067109 
907.000000	 80.363762 
906.000000	 80.695546 
905.000000	 81.047132 
904.000000	 81.408765 
903.000000	 81.782156 
902.000000	 82.163123 
901.000000	 82.540757 
900.000000	 82.917932 
899.000000	 83.311043 
898.000000	 83.724079 
897.000000	 84.140601 
896.000000	 84.543927 
895.000000	 84.927068 
894.000000	 85.282933 
893.000000	 85.606155 
892.000000	 85.907585 
891.000000	 86.207442 
890.000000	 86.509555 
889.000000	 86.798438 
888.000000	 87.063502 
887.000000	 87.309443 
886.000000	 87.542532 
885.000000	 87.764315 
884.000000	 87.978826 
883.000000	 88.187551 
882.000000	 88.378471 
881.000000	 88.541860 
880.000000	 88.697121 
879.000000	 88.879952 
878.000000	 89.098935 
877.000000	 89.328314 
876.000000	 89.547597 
875.000000	 89.763072 
874.000000	 89.985697 
873.000000	 90.214910 
872.000000	 90.453075 
871.000000	 90.711026 
870.000000	 90.987909 
869.000000	 91.265272 
868.000000	 91.530458 
867.000000	 91.788666 
866.000000	 92.045489 
865.000000	 92.295620 
864.000000	 92.536968 
863.000000	 92.778828 
862.000000	 93.025276 
861.000000	 93.263474 
860.000000	 93.478946 
859.000000	 93.672891 
858.000000	 93.856676 
857.000000	 94.037059 
856.000000	 94.212480 
855.000000	 94.376373 
854.000000	 94.519784 
853.000000	 94.638380 
852.000000	 94.740205 
851.000000	 94.839016 
850.000000	 94.937728 
849.000000	 95.026499 
848.000000	 95.098559 
847.000000	 95.159060 
846.000000	 95.216661 
845.000000	 95.274238 
844.000000	 95.328150 
843.000000	 95.368457 
842.000000	 95.381561 
841.000000	 95.363032 
840.000000	 95.325906 
839.000000	 95.284482 
838.000000	 95.232345 
837.000000	 95.151814 
836.000000	 95.046087 
835.000000	 94.945799 
834.000000	 94.877818 
833.000000	 94.839627 
832.000000	 94.809696 
831.000000	 94.771484 
830.000000	 94.723588 
829.000000	 94.680303 
828.000000	 94.668898 
827.000000	 94.712755 
826.000000	 94.807054 
825.000000	 94.920545 
824.000000	 95.027778 
823.000000	 95.128544 
822.000000	 95.231741 
821.000000	 95.334516 
820.000000	 95.423703 
819.000000	 95.486598 
818.000000	 95.516171 
817.000000	 95.514278 
816.000000	 95.491023 
815.000000	 95.453132 
814.000000	 95.391970 
813.000000	 95.289305 
812.000000	 95.132740 
811.000000	 94.916343 
810.000000	 94.627957 
809.000000	 94.248357 
808.000000	 93.767604 
807.000000	 93.196792 
806.000000	 92.563534 
805.000000	 91.902068 
804.000000	 91.245721 
803.000000	 90.617866 
802.000000	 90.029307 
801.000000	 89.495376 
800.000000	 89.052627 
799.000000	 88.741269 
798.000000	 88.570278 
797.000000	 88.516229 
796.000000	 88.554549 
795.000000	 88.671184 
794.000000	 88.844738 
793.000000	 89.041542 
792.000000	 89.233335 
791.000000	 89.403318 
790.000000	 89.536089 
789.000000	 89.620381 
788.000000	 89.659796 
787.000000	 89.660892 
786.000000	 89.611519 
785.000000	 89.490264 
784.000000	 89.297393 
783.000000	 89.058360 
782.000000	 88.799423 
781.000000	 88.542116 
780.000000	 88.320238 
779.000000	 88.174465 
778.000000	 88.123076 
777.000000	 88.159214 
776.000000	 88.278869 
775.000000	 88.485169 
774.000000	 88.759179 
773.000000	 89.053285 
772.000000	 89.325501 
771.000000	 89.563091 
770.000000	 89.768548 
769.000000	 89.943778 
768.000000	 90.093535 
767.000000	 90.222929 
766.000000	 90.323404 
765.000000	 90.380052 
764.000000	 90.400869 
763.000000	 90.420762 
762.000000	 90.466881 
761.000000	 90.533783 
760.000000	 90.599576 
759.000000	 90.652879 
758.000000	 90.699371 
757.000000	 90.756585 
756.000000	 90.846246 
755.000000	 90.976170 
754.000000	 91.124853 
753.000000	 91.257946 
752.000000	 91.363529 
751.000000	 91.458116 
750.000000	 91.559146 
749.000000	 91.668914 
748.000000	 91.785719 
747.000000	 91.911048 
746.000000	 92.041732 
745.000000	 92.172170 
744.000000	 92.307046 
743.000000	 92.455529 
742.000000	 92.613331 
741.000000	 92.769699 
740.000000	 92.930824 
739.000000	 93.112982 
738.000000	 93.310638 
737.000000	 93.495564 
736.000000	 93.653726 
735.000000	 93.799264 
734.000000	 93.943951 
733.000000	 94.075748 
732.000000	 94.178748 
731.000000	 94.256951 
730.000000	 94.327128 
729.000000	 94.400769 
728.000000	 94.479749 
727.000000	 94.556438 
726.000000	 94.616324 
725.000000	 94.656712 
724.000000	 94.701263 
723.000000	 94.776600 
722.000000	 94.874972 
721.000000	 94.961999 
720.000000	 95.025086 
719.000000	 95.090348 
718.000000	 95.183831 
717.000000	 95.299491 
716.000000	 95.410277 
715.000000	 95.488934 
714.000000	 95.519737 
713.000000	 95.515650 
712.000000	 95.523323 
711.000000	 95.581355 
710.000000	 95.670330 
709.000000	 95.734294 
708.000000	 95.755978 
707.000000	 95.774374 
706.000000	 95.814485 
705.000000	 95.837714 
704.000000	 95.786762 
703.000000	 95.650963 
702.000000	 95.462840 
701.000000	 95.251914 
700.000000	 95.024377 
699.000000	 94.769746 
698.000000	 94.468435 
697.000000	 94.118489 
696.000000	 93.776031 
695.000000	 93.539992 
694.000000	 93.467152 
693.000000	 93.518597 
692.000000	 93.612520 
691.000000	 93.719295 
690.000000	 93.875533 
689.000000	 94.109910 
688.000000	 94.384751 
687.000000	 94.617916 
686.000000	 94.750889 
685.000000	 94.791469 
684.000000	 94.800873 
683.000000	 94.838909 
682.000000	 94.913997 
681.000000	 94.992685 
680.000000	 95.060783 
679.000000	 95.156502 
678.000000	 95.322104 
677.000000	 95.537848 
676.000000	 95.725962 
675.000000	 95.815577 
674.000000	 95.799142 
673.000000	 95.737354 
672.000000	 95.717701 
671.000000	 95.794416 
670.000000	 95.969664 
669.000000	 96.180835 
668.000000	 96.331041 
667.000000	 96.400672 
666.000000	 96.426849 
665.000000	 96.399456 
664.000000	 96.297599 
663.000000	 96.141594 
662.000000	 96.012016 
661.000000	 95.986892 
660.000000	 96.086952 
659.000000	 96.274748 
658.000000	 96.469814 
657.000000	 96.591879 
656.000000	 96.623584 
655.000000	 96.610366 
654.000000	 96.590808 
653.000000	 96.545582 
652.000000	 96.450225 
651.000000	 96.358855 
650.000000	 96.379560 

