4000.000000	98.477818 
3999.000000	98.476841 
3998.000000	98.475040 
3997.000000	98.473096 
3996.000000	98.471813 
3995.000000	98.471558 
3994.000000	98.472213 
3993.000000	98.473313 
3992.000000	98.474320 
3991.000000	98.474816 
3990.000000	98.474659 
3989.000000	98.474052 
3988.000000	98.473393 
3987.000000	98.473032 
3986.000000	98.473160 
3985.000000	98.473776 
3984.000000	98.474612 
3983.000000	98.475264 
3982.000000	98.475592 
3981.000000	98.475842 
3980.000000	98.476071 
3979.000000	98.475773 
3978.000000	98.474531 
3977.000000	98.472834 
3976.000000	98.471743 
3975.000000	98.471643 
3974.000000	98.471793 
3973.000000	98.471217 
3972.000000	98.469653 
3971.000000	98.467578 
3970.000000	98.465687 
3969.000000	98.464574 
3968.000000	98.464667 
3967.000000	98.465970 
3966.000000	98.467907 
3965.000000	98.469561 
3964.000000	98.470102 
3963.000000	98.469184 
3962.000000	98.467231 
3961.000000	98.465273 
3960.000000	98.464125 
3959.000000	98.463831 
3958.000000	98.463942 
3957.000000	98.464152 
3956.000000	98.464368 
3955.000000	98.464197 
3954.000000	98.463107 
3953.000000	98.461018 
3952.000000	98.458510 
3951.000000	98.456271 
3950.000000	98.454414 
3949.000000	98.452629 
3948.000000	98.450636 
3947.000000	98.448576 
3946.000000	98.447127 
3945.000000	98.447115 
3944.000000	98.448701 
3943.000000	98.450800 
3942.000000	98.452202 
3941.000000	98.452871 
3940.000000	98.453436 
3939.000000	98.454042 
3938.000000	98.454121 
3937.000000	98.453225 
3936.000000	98.451626 
3935.000000	98.449765 
3934.000000	98.447929 
3933.000000	98.446362 
3932.000000	98.445420 
3931.000000	98.445084 
3930.000000	98.444919 
3929.000000	98.445016 
3928.000000	98.445966 
3927.000000	98.447832 
3926.000000	98.449504 
3925.000000	98.449477 
3924.000000	98.447498 
3923.000000	98.444608 
3922.000000	98.441711 
3921.000000	98.439272 
3920.000000	98.437893 
3919.000000	98.438237 
3918.000000	98.439992 
3917.000000	98.441771 
3916.000000	98.442597 
3915.000000	98.442749 
3914.000000	98.442957 
3913.000000	98.443406 
3912.000000	98.443792 
3911.000000	98.444027 
3910.000000	98.444093 
3909.000000	98.443824 
3908.000000	98.443183 
3907.000000	98.442041 
3906.000000	98.440139 
3905.000000	98.436810 
3904.000000	98.431746 
3903.000000	98.426173 
3902.000000	98.422269 
3901.000000	98.421356 
3900.000000	98.423073 
3899.000000	98.425849 
3898.000000	98.428404 
3897.000000	98.430245 
3896.000000	98.431164 
3895.000000	98.431389 
3894.000000	98.431572 
3893.000000	98.432213 
3892.000000	98.432744 
3891.000000	98.431865 
3890.000000	98.429306 
3889.000000	98.425998 
3888.000000	98.423257 
3887.000000	98.421908 
3886.000000	98.421956 
3885.000000	98.422610 
3884.000000	98.422793 
3883.000000	98.421815 
3882.000000	98.419996 
3881.000000	98.418547 
3880.000000	98.418371 
3879.000000	98.419004 
3878.000000	98.419398 
3877.000000	98.419281 
3876.000000	98.419305 
3875.000000	98.419811 
3874.000000	98.420218 
3873.000000	98.419869 
3872.000000	98.418879 
3871.000000	98.417747 
3870.000000	98.416819 
3869.000000	98.416458 
3868.000000	98.416758 
3867.000000	98.417214 
3866.000000	98.417319 
3865.000000	98.417227 
3864.000000	98.417509 
3863.000000	98.418203 
3862.000000	98.418614 
3861.000000	98.418562 
3860.000000	98.418684 
3859.000000	98.419412 
3858.000000	98.420404 
3857.000000	98.420983 
3856.000000	98.420918 
3855.000000	98.420401 
3854.000000	98.419266 
3853.000000	98.417523 
3852.000000	98.416143 
3851.000000	98.415809 
3850.000000	98.416189 
3849.000000	98.416879 
3848.000000	98.417814 
3847.000000	98.419062 
3846.000000	98.420273 
3845.000000	98.420906 
3844.000000	98.420879 
3843.000000	98.420513 
3842.000000	98.420064 
3841.000000	98.419804 
3840.000000	98.419925 
3839.000000	98.420475 
3838.000000	98.421399 
3837.000000	98.422344 
3836.000000	98.423006 
3835.000000	98.423341 
3834.000000	98.423492 
3833.000000	98.423719 
3832.000000	98.424172 
3831.000000	98.424844 
3830.000000	98.425674 
3829.000000	98.426570 
3828.000000	98.427679 
3827.000000	98.429186 
3826.000000	98.430632 
3825.000000	98.431202 
3824.000000	98.430449 
3823.000000	98.428924 
3822.000000	98.427893 
3821.000000	98.427859 
3820.000000	98.428378 
3819.000000	98.428692 
3818.000000	98.428423 
3817.000000	98.428356 
3816.000000	98.429924 
3815.000000	98.433492 
3814.000000	98.437546 
3813.000000	98.440100 
3812.000000	98.440732 
3811.000000	98.441000 
3810.000000	98.442347 
3809.000000	98.444177 
3808.000000	98.444635 
3807.000000	98.442946 
3806.000000	98.440129 
3805.000000	98.437315 
3804.000000	98.434398 
3803.000000	98.432047 
3802.000000	98.431716 
3801.000000	98.433439 
3800.000000	98.435763 
3799.000000	98.436689 
3798.000000	98.435796 
3797.000000	98.435362 
3796.000000	98.437828 
3795.000000	98.442844 
3794.000000	98.447593 
3793.000000	98.450100 
3792.000000	98.451064 
3791.000000	98.452481 
3790.000000	98.454555 
3789.000000	98.455369 
3788.000000	98.453785 
3787.000000	98.451008 
3786.000000	98.449111 
3785.000000	98.448826 
3784.000000	98.449269 
3783.000000	98.449315 
3782.000000	98.448371 
3781.000000	98.446733 
3780.000000	98.445827 
3779.000000	98.447387 
3778.000000	98.451393 
3777.000000	98.455572 
3776.000000	98.457353 
3775.000000	98.456034 
3774.000000	98.452818 
3773.000000	98.449193 
3772.000000	98.445965 
3771.000000	98.443133 
3770.000000	98.440518 
3769.000000	98.438495 
3768.000000	98.437240 
3767.000000	98.436004 
3766.000000	98.434537 
3765.000000	98.433548 
3764.000000	98.433909 
3763.000000	98.435238 
3762.000000	98.435991 
3761.000000	98.435520 
3760.000000	98.434662 
3759.000000	98.434655 
3758.000000	98.434125 
3757.000000	98.430157 
3756.000000	98.422565 
3755.000000	98.413426 
3754.000000	98.404545 
3753.000000	98.396554 
3752.000000	98.390391 
3751.000000	98.386966 
3750.000000	98.384731 
3749.000000	98.381704 
3748.000000	98.378533 
3747.000000	98.377480 
3746.000000	98.380940 
3745.000000	98.387743 
3744.000000	98.395982 
3743.000000	98.404035 
3742.000000	98.406631 
3741.000000	98.399305 
3740.000000	98.385402 
3739.000000	98.374731 
3738.000000	98.373946 
3737.000000	98.379035 
3736.000000	98.382560 
3735.000000	98.383462 
3734.000000	98.385537 
3733.000000	98.389487 
3732.000000	98.393704 
3731.000000	98.398973 
3730.000000	98.405474 
3729.000000	98.410441 
3728.000000	98.412257 
3727.000000	98.412821 
3726.000000	98.415084 
3725.000000	98.418752 
3724.000000	98.420734 
3723.000000	98.419348 
3722.000000	98.415945 
3721.000000	98.412908 
3720.000000	98.409798 
3719.000000	98.406085 
3718.000000	98.403049 
3717.000000	98.400960 
3716.000000	98.398406 
3715.000000	98.392897 
3714.000000	98.384437 
3713.000000	98.377408 
3712.000000	98.375268 
3711.000000	98.375699 
3710.000000	98.373234 
3709.000000	98.365720 
3708.000000	98.355279 
3707.000000	98.344041 
3706.000000	98.332873 
3705.000000	98.322291 
3704.000000	98.312857 
3703.000000	98.304476 
3702.000000	98.294979 
3701.000000	98.282050 
3700.000000	98.265901 
3699.000000	98.249301 
3698.000000	98.235755 
3697.000000	98.226806 
3696.000000	98.221637 
3695.000000	98.217984 
3694.000000	98.212912 
3693.000000	98.204657 
3692.000000	98.193655 
3691.000000	98.181484 
3690.000000	98.168735 
3689.000000	98.156642 
3688.000000	98.148609 
3687.000000	98.145819 
3686.000000	98.145208 
3685.000000	98.143393 
3684.000000	98.140141 
3683.000000	98.138000 
3682.000000	98.138353 
3681.000000	98.137928 
3680.000000	98.131378 
3679.000000	98.116047 
3678.000000	98.094648 
3677.000000	98.073633 
3676.000000	98.057668 
3675.000000	98.048121 
3674.000000	98.043229 
3673.000000	98.038536 
3672.000000	98.030726 
3671.000000	98.022653 
3670.000000	98.018864 
3669.000000	98.019454 
3668.000000	98.020519 
3667.000000	98.018634 
3666.000000	98.014494 
3665.000000	98.010927 
3664.000000	98.008945 
3663.000000	98.007609 
3662.000000	98.005305 
3661.000000	98.000545 
3660.000000	97.993217 
3659.000000	97.984551 
3658.000000	97.976999 
3657.000000	97.972049 
3656.000000	97.968964 
3655.000000	97.966527 
3654.000000	97.963045 
3653.000000	97.956655 
3652.000000	97.946418 
3651.000000	97.933451 
3650.000000	97.920230 
3649.000000	97.909678 
3648.000000	97.904937 
3647.000000	97.907614 
3646.000000	97.916845 
3645.000000	97.929975 
3644.000000	97.943806 
3643.000000	97.955979 
3642.000000	97.965060 
3641.000000	97.969991 
3640.000000	97.970690 
3639.000000	97.967999 
3638.000000	97.963561 
3637.000000	97.958820 
3636.000000	97.954314 
3635.000000	97.949706 
3634.000000	97.944442 
3633.000000	97.938622 
3632.000000	97.932240 
3631.000000	97.924745 
3630.000000	97.915695 
3629.000000	97.905339 
3628.000000	97.896200 
3627.000000	97.891858 
3626.000000	97.892515 
3625.000000	97.897033 
3624.000000	97.904917 
3623.000000	97.914374 
3622.000000	97.921582 
3621.000000	97.922818 
3620.000000	97.916929 
3619.000000	97.906577 
3618.000000	97.896960 
3617.000000	97.892491 
3616.000000	97.895357 
3615.000000	97.905612 
3614.000000	97.920472 
3613.000000	97.935164 
3612.000000	97.945795 
3611.000000	97.951067 
3610.000000	97.952510 
3609.000000	97.953284 
3608.000000	97.955435 
3607.000000	97.959077 
3606.000000	97.963727 
3605.000000	97.970014 
3604.000000	97.979370 
3603.000000	97.991558 
3602.000000	98.003527 
3601.000000	98.011361 
3600.000000	98.013517 
3599.000000	98.012028 
3598.000000	98.010607 
3597.000000	98.011386 
3596.000000	98.014268 
3595.000000	98.017083 
3594.000000	98.017102 
3593.000000	98.013871 
3592.000000	98.008917 
3591.000000	98.003682 
3590.000000	97.999168 
3589.000000	97.996265 
3588.000000	97.995243 
3587.000000	97.995507 
3586.000000	97.996789 
3585.000000	97.999540 
3584.000000	98.004606 
3583.000000	98.012270 
3582.000000	98.021787 
3581.000000	98.030923 
3580.000000	98.036951 
3579.000000	98.038316 
3578.000000	98.035586 
3577.000000	98.031130 
3576.000000	98.027363 
3575.000000	98.025413 
3574.000000	98.024508 
3573.000000	98.022994 
3572.000000	98.019488 
3571.000000	98.013354 
3570.000000	98.004958 
3569.000000	97.996058 
3568.000000	97.989337 
3567.000000	97.986626 
3566.000000	97.987628 
3565.000000	97.990392 
3564.000000	97.992903 
3563.000000	97.994699 
3562.000000	97.996667 
3561.000000	97.999673 
3560.000000	98.003418 
3559.000000	98.006568 
3558.000000	98.007981 
3557.000000	98.007695 
3556.000000	98.006659 
3555.000000	98.005825 
3554.000000	98.005531 
3553.000000	98.005273 
3552.000000	98.004310 
3551.000000	98.002334 
3550.000000	97.999734 
3549.000000	97.997380 
3548.000000	97.995958 
3547.000000	97.995083 
3546.000000	97.993634 
3545.000000	97.991326 
3544.000000	97.989575 
3543.000000	97.990015 
3542.000000	97.992628 
3541.000000	97.995992 
3540.000000	97.998884 
3539.000000	98.000990 
3538.000000	98.002320 
3537.000000	98.002635 
3536.000000	98.001865 
3535.000000	98.000412 
3534.000000	97.998910 
3533.000000	97.997910 
3532.000000	97.997775 
3531.000000	97.998559 
3530.000000	97.999679 
3529.000000	98.000097 
3528.000000	97.999180 
3527.000000	97.997268 
3526.000000	97.995370 
3525.000000	97.994323 
3524.000000	97.994302 
3523.000000	97.995010 
3522.000000	97.996011 
3521.000000	97.996953 
3520.000000	97.997683 
3519.000000	97.998160 
3518.000000	97.998316 
3517.000000	97.998015 
3516.000000	97.997215 
3515.000000	97.996140 
3514.000000	97.995208 
3513.000000	97.994730 
3512.000000	97.994687 
3511.000000	97.994784 
3510.000000	97.994710 
3509.000000	97.994410 
3508.000000	97.994069 
3507.000000	97.993866 
3506.000000	97.993757 
3505.000000	97.993511 
3504.000000	97.992949 
3503.000000	97.992121 
3502.000000	97.991268 
3501.000000	97.990620 
3500.000000	97.990246 
3499.000000	97.990081 
3498.000000	97.989998 
3497.000000	97.989867 
3496.000000	97.989579 
3495.000000	97.989092 
3494.000000	97.988487 
3493.000000	97.987932 
3492.000000	97.987533 
3491.000000	97.987230 
3490.000000	97.986873 
3489.000000	97.986393 
3488.000000	97.985821 
3487.000000	97.985173 
3486.000000	97.984449 
3485.000000	97.983784 
3484.000000	97.983389 
3483.000000	97.983246 
3482.000000	97.983012 
3481.000000	97.982402 
3480.000000	97.981525 
3479.000000	97.980676 
3478.000000	97.979920 
3477.000000	97.979064 
3476.000000	97.977955 
3475.000000	97.976670 
3474.000000	97.975411 
3473.000000	97.974336 
3472.000000	97.973482 
3471.000000	97.972792 
3470.000000	97.972141 
3469.000000	97.971416 
3468.000000	97.970607 
3467.000000	97.969809 
3466.000000	97.969143 
3465.000000	97.968631 
3464.000000	97.968106 
3463.000000	97.967273 
3462.000000	97.965940 
3461.000000	97.964232 
3460.000000	97.962534 
3459.000000	97.961118 
3458.000000	97.959891 
3457.000000	97.958540 
3456.000000	97.956925 
3455.000000	97.955273 
3454.000000	97.953992 
3453.000000	97.953280 
3452.000000	97.952998 
3451.000000	97.952782 
3450.000000	97.952271 
3449.000000	97.951263 
3448.000000	97.949748 
3447.000000	97.947907 
3446.000000	97.946020 
3445.000000	97.944318 
3444.000000	97.942899 
3443.000000	97.941751 
3442.000000	97.940769 
3441.000000	97.939778 
3440.000000	97.938622 
3439.000000	97.937258 
3438.000000	97.935749 
3437.000000	97.934197 
3436.000000	97.932703 
3435.000000	97.931366 
3434.000000	97.930250 
3433.000000	97.929314 
3432.000000	97.928398 
3431.000000	97.927376 
3430.000000	97.926255 
3429.000000	97.925124 
3428.000000	97.924006 
3427.000000	97.922835 
3426.000000	97.921605 
3425.000000	97.920451 
3424.000000	97.919512 
3423.000000	97.918745 
3422.000000	97.917935 
3421.000000	97.916918 
3420.000000	97.915749 
3419.000000	97.914658 
3418.000000	97.913811 
3417.000000	97.913159 
3416.000000	97.912540 
3415.000000	97.911849 
3414.000000	97.911052 
3413.000000	97.910063 
3412.000000	97.908813 
3411.000000	97.907420 
3410.000000	97.906218 
3409.000000	97.905489 
3408.000000	97.905241 
3407.000000	97.905203 
3406.000000	97.905029 
3405.000000	97.904536 
3404.000000	97.903773 
3403.000000	97.902913 
3402.000000	97.902074 
3401.000000	97.901279 
3400.000000	97.900562 
3399.000000	97.900022 
3398.000000	97.899704 
3397.000000	97.899531 
3396.000000	97.899438 
3395.000000	97.899475 
3394.000000	97.899660 
3393.000000	97.899810 
3392.000000	97.899665 
3391.000000	97.899191 
3390.000000	97.898705 
3389.000000	97.898644 
3388.000000	97.899231 
3387.000000	97.900345 
3386.000000	97.901580 
3385.000000	97.902412 
3384.000000	97.902466 
3383.000000	97.901761 
3382.000000	97.900825 
3381.000000	97.900372 
3380.000000	97.900668 
3379.000000	97.901359 
3378.000000	97.902020 
3377.000000	97.902822 
3376.000000	97.904291 
3375.000000	97.906425 
3374.000000	97.908398 
3373.000000	97.909382 
3372.000000	97.909411 
3371.000000	97.909298 
3370.000000	97.909769 
3369.000000	97.910774 
3368.000000	97.911771 
3367.000000	97.912392 
3366.000000	97.912694 
3365.000000	97.912913 
3364.000000	97.913196 
3363.000000	97.913575 
3362.000000	97.914053 
3361.000000	97.914671 
3360.000000	97.915561 
3359.000000	97.916880 
3358.000000	97.918594 
3357.000000	97.920350 
3356.000000	97.921692 
3355.000000	97.922492 
3354.000000	97.923088 
3353.000000	97.923985 
3352.000000	97.925448 
3351.000000	97.927387 
3350.000000	97.929497 
3349.000000	97.931393 
3348.000000	97.932773 
3347.000000	97.933618 
3346.000000	97.934254 
3345.000000	97.935042 
3344.000000	97.935922 
3343.000000	97.936446 
3342.000000	97.936380 
3341.000000	97.936137 
3340.000000	97.936336 
3339.000000	97.937049 
3338.000000	97.937862 
3337.000000	97.938491 
3336.000000	97.939073 
3335.000000	97.939856 
3334.000000	97.940830 
3333.000000	97.941758 
3332.000000	97.942481 
3331.000000	97.943071 
3330.000000	97.943664 
3329.000000	97.944271 
3328.000000	97.944821 
3327.000000	97.945338 
3326.000000	97.945977 
3325.000000	97.946836 
3324.000000	97.947800 
3323.000000	97.948631 
3322.000000	97.949237 
3321.000000	97.949752 
3320.000000	97.950374 
3319.000000	97.951165 
3318.000000	97.952048 
3317.000000	97.952932 
3316.000000	97.953771 
3315.000000	97.954539 
3314.000000	97.955195 
3313.000000	97.955720 
3312.000000	97.956162 
3311.000000	97.956612 
3310.000000	97.957161 
3309.000000	97.957848 
3308.000000	97.958632 
3307.000000	97.959392 
3306.000000	97.960017 
3305.000000	97.960507 
3304.000000	97.960982 
3303.000000	97.961580 
3302.000000	97.962349 
3301.000000	97.963217 
3300.000000	97.964038 
3299.000000	97.964664 
3298.000000	97.965004 
3297.000000	97.965109 
3296.000000	97.965246 
3295.000000	97.965726 
3294.000000	97.966654 
3293.000000	97.967890 
3292.000000	97.969195 
3291.000000	97.970431 
3290.000000	97.971550 
3289.000000	97.972513 
3288.000000	97.973300 
3287.000000	97.973935 
3286.000000	97.974451 
3285.000000	97.974855 
3284.000000	97.975185 
3283.000000	97.975560 
3282.000000	97.976115 
3281.000000	97.976863 
3280.000000	97.977662 
3279.000000	97.978345 
3278.000000	97.978886 
3277.000000	97.979402 
3276.000000	97.980017 
3275.000000	97.980727 
3274.000000	97.981444 
3273.000000	97.982117 
3272.000000	97.982792 
3271.000000	97.983534 
3270.000000	97.984340 
3269.000000	97.985142 
3268.000000	97.985870 
3267.000000	97.986512 
3266.000000	97.987125 
3265.000000	97.987791 
3264.000000	97.988541 
3263.000000	97.989328 
3262.000000	97.990074 
3261.000000	97.990744 
3260.000000	97.991372 
3259.000000	97.992013 
3258.000000	97.992696 
3257.000000	97.993431 
3256.000000	97.994228 
3255.000000	97.995067 
3254.000000	97.995889 
3253.000000	97.996651 
3252.000000	97.997364 
3251.000000	97.998077 
3250.000000	97.998830 
3249.000000	97.999612 
3248.000000	98.000375 
3247.000000	98.001102 
3246.000000	98.001832 
3245.000000	98.002612 
3244.000000	98.003441 
3243.000000	98.004275 
3242.000000	98.005076 
3241.000000	98.005849 
3240.000000	98.006645 
3239.000000	98.007539 
3238.000000	98.008602 
3237.000000	98.009857 
3236.000000	98.011233 
3235.000000	98.012557 
3234.000000	98.013638 
3233.000000	98.014373 
3232.000000	98.014819 
3231.000000	98.015200 
3230.000000	98.015741 
3229.000000	98.016501 
3228.000000	98.017402 
3227.000000	98.018421 
3226.000000	98.019678 
3225.000000	98.021235 
3224.000000	98.022898 
3223.000000	98.024364 
3222.000000	98.025530 
3221.000000	98.026542 
3220.000000	98.027567 
3219.000000	98.028597 
3218.000000	98.029539 
3217.000000	98.030404 
3216.000000	98.031325 
3215.000000	98.032447 
3214.000000	98.033825 
3213.000000	98.035411 
3212.000000	98.037037 
3211.000000	98.038498 
3210.000000	98.039690 
3209.000000	98.040693 
3208.000000	98.041665 
3207.000000	98.042666 
3206.000000	98.043662 
3205.000000	98.044680 
3204.000000	98.045870 
3203.000000	98.047360 
3202.000000	98.049071 
3201.000000	98.050717 
3200.000000	98.052042 
3199.000000	98.053088 
3198.000000	98.054184 
3197.000000	98.055610 
3196.000000	98.057298 
3195.000000	98.058949 
3194.000000	98.060431 
3193.000000	98.061923 
3192.000000	98.063623 
3191.000000	98.065462 
3190.000000	98.067170 
3189.000000	98.068547 
3188.000000	98.069603 
3187.000000	98.070573 
3186.000000	98.071791 
3185.000000	98.073438 
3184.000000	98.075309 
3183.000000	98.076968 
3182.000000	98.078208 
3181.000000	98.079185 
3180.000000	98.080095 
3179.000000	98.080949 
3178.000000	98.081810 
3177.000000	98.082990 
3176.000000	98.084725 
3175.000000	98.086881 
3174.000000	98.089143 
3173.000000	98.091360 
3172.000000	98.093471 
3171.000000	98.095229 
3170.000000	98.096378 
3169.000000	98.097045 
3168.000000	98.097687 
3167.000000	98.098606 
3166.000000	98.099735 
3165.000000	98.100903 
3164.000000	98.102059 
3163.000000	98.103197 
3162.000000	98.104280 
3161.000000	98.105295 
3160.000000	98.106308 
3159.000000	98.107399 
3158.000000	98.108603 
3157.000000	98.109894 
3156.000000	98.111197 
3155.000000	98.112410 
3154.000000	98.113471 
3153.000000	98.114417 
3152.000000	98.115347 
3151.000000	98.116317 
3150.000000	98.117294 
3149.000000	98.118236 
3148.000000	98.119157 
3147.000000	98.120125 
3146.000000	98.121195 
3145.000000	98.122365 
3144.000000	98.123571 
3143.000000	98.124711 
3142.000000	98.125730 
3141.000000	98.126640 
3140.000000	98.127514 
3139.000000	98.128437 
3138.000000	98.129451 
3137.000000	98.130546 
3136.000000	98.131663 
3135.000000	98.132722 
3134.000000	98.133671 
3133.000000	98.134529 
3132.000000	98.135386 
3131.000000	98.136298 
3130.000000	98.137237 
3129.000000	98.138182 
3128.000000	98.139222 
3127.000000	98.140476 
3126.000000	98.141929 
3125.000000	98.143370 
3124.000000	98.144542 
3123.000000	98.145320 
3122.000000	98.145749 
3121.000000	98.146013 
3120.000000	98.146347 
3119.000000	98.146932 
3118.000000	98.147833 
3117.000000	98.149017 
3116.000000	98.150412 
3115.000000	98.151886 
3114.000000	98.153262 
3113.000000	98.154454 
3112.000000	98.155618 
3111.000000	98.157057 
3110.000000	98.158930 
3109.000000	98.161048 
3108.000000	98.163033 
3107.000000	98.164679 
3106.000000	98.166010 
3105.000000	98.166972 
3104.000000	98.167243 
3103.000000	98.166607 
3102.000000	98.165502 
3101.000000	98.164823 
3100.000000	98.165054 
3099.000000	98.165871 
3098.000000	98.166835 
3097.000000	98.168213 
3096.000000	98.170608 
3095.000000	98.173832 
3094.000000	98.176708 
3093.000000	98.178216 
3092.000000	98.178426 
3091.000000	98.178009 
3090.000000	98.177329 
3089.000000	98.176403 
3088.000000	98.175396 
3087.000000	98.174802 
3086.000000	98.175194 
3085.000000	98.176758 
3084.000000	98.178798 
3083.000000	98.179885 
3082.000000	98.179116 
3081.000000	98.177350 
3080.000000	98.176416 
3079.000000	98.176914 
3078.000000	98.177893 
3077.000000	98.179002 
3076.000000	98.181459 
3075.000000	98.185824 
3074.000000	98.190240 
3073.000000	98.192424 
3072.000000	98.192438 
3071.000000	98.191845 
3070.000000	98.190890 
3069.000000	98.188598 
3068.000000	98.185433 
3067.000000	98.183616 
3066.000000	98.184301 
3065.000000	98.186127 
3064.000000	98.187134 
3063.000000	98.186638 
3062.000000	98.184749 
3061.000000	98.181696 
3060.000000	98.178489 
3059.000000	98.177008 
3058.000000	98.178459 
3057.000000	98.182200 
3056.000000	98.186224 
3055.000000	98.187983 
3054.000000	98.185039 
3053.000000	98.176906 
3052.000000	98.167053 
3051.000000	98.161291 
3050.000000	98.162458 
3049.000000	98.167392 
3048.000000	98.170183 
3047.000000	98.167638 
3046.000000	98.160693 
3045.000000	98.152044 
3044.000000	98.144384 
3043.000000	98.140324 
3042.000000	98.141476 
3041.000000	98.146299 
3040.000000	98.149987 
3039.000000	98.147905 
3038.000000	98.139261 
3037.000000	98.127050 
3036.000000	98.114647 
3035.000000	98.103023 
3034.000000	98.091393 
3033.000000	98.079502 
3032.000000	98.068140 
3031.000000	98.057784 
3030.000000	98.047990 
3029.000000	98.038312 
3028.000000	98.028545 
3027.000000	98.017547 
3026.000000	98.003224 
3025.000000	97.984963 
3024.000000	97.965239 
3023.000000	97.947294 
3022.000000	97.931621 
3021.000000	97.916290 
3020.000000	97.900263 
3019.000000	97.884341 
3018.000000	97.868600 
3017.000000	97.851023 
3016.000000	97.829886 
3015.000000	97.806215 
3014.000000	97.782922 
3013.000000	97.762270 
3012.000000	97.744546 
3011.000000	97.728001 
3010.000000	97.709471 
3009.000000	97.686440 
3008.000000	97.659557 
3007.000000	97.632374 
3006.000000	97.607799 
3005.000000	97.585548 
3004.000000	97.563675 
3003.000000	97.541401 
3002.000000	97.519394 
3001.000000	97.498272 
3000.000000	97.478116 
2999.000000	97.458890 
2998.000000	97.440299 
2997.000000	97.421808 
2996.000000	97.403513 
2995.000000	97.385861 
2994.000000	97.367166 
2993.000000	97.342597 
2992.000000	97.308295 
2991.000000	97.267164 
2990.000000	97.228994 
2989.000000	97.203779 
2988.000000	97.195282 
2987.000000	97.200394 
2986.000000	97.212711 
2985.000000	97.226286 
2984.000000	97.237381 
2983.000000	97.244617 
2982.000000	97.248268 
2981.000000	97.249194 
2980.000000	97.247986 
2979.000000	97.244700 
2978.000000	97.239164 
2977.000000	97.231675 
2976.000000	97.223532 
2975.000000	97.216727 
2974.000000	97.212900 
2973.000000	97.212798 
2972.000000	97.216639 
2971.000000	97.224263 
2970.000000	97.234582 
2969.000000	97.245779 
2968.000000	97.256996 
2967.000000	97.269332 
2966.000000	97.284196 
2965.000000	97.300954 
2964.000000	97.317159 
2963.000000	97.330978 
2962.000000	97.342504 
2961.000000	97.352809 
2960.000000	97.362963 
2959.000000	97.374332 
2958.000000	97.388657 
2957.000000	97.406610 
2956.000000	97.426215 
2955.000000	97.443414 
2954.000000	97.455012 
2953.000000	97.461716 
2952.000000	97.468180 
2951.000000	97.479143 
2950.000000	97.494718 
2949.000000	97.509904 
2948.000000	97.519377 
2947.000000	97.522169 
2946.000000	97.521417 
2945.000000	97.520764 
2944.000000	97.522158 
2943.000000	97.526265 
2942.000000	97.532548 
2941.000000	97.538326 
2940.000000	97.539958 
2939.000000	97.536504 
2938.000000	97.531210 
2937.000000	97.528253 
2936.000000	97.528574 
2935.000000	97.529656 
2934.000000	97.528626 
2933.000000	97.524438 
2932.000000	97.517760 
2931.000000	97.510179 
2930.000000	97.503662 
2929.000000	97.499691 
2928.000000	97.498189 
2927.000000	97.497479 
2926.000000	97.495635 
2925.000000	97.492149 
2924.000000	97.488440 
2923.000000	97.486610 
2922.000000	97.487311 
2921.000000	97.488925 
2920.000000	97.489438 
2919.000000	97.489018 
2918.000000	97.489653 
2917.000000	97.491682 
2916.000000	97.491822 
2915.000000	97.486132 
2914.000000	97.474930 
2913.000000	97.463562 
2912.000000	97.457692 
2911.000000	97.458177 
2910.000000	97.460863 
2909.000000	97.461006 
2908.000000	97.457537 
2907.000000	97.452871 
2906.000000	97.448870 
2905.000000	97.443688 
2904.000000	97.433848 
2903.000000	97.419757 
2902.000000	97.408904 
2901.000000	97.410347 
2900.000000	97.426818 
2899.000000	97.452365 
2898.000000	97.477215 
2897.000000	97.495314 
2896.000000	97.506349 
2895.000000	97.512548 
2894.000000	97.516215 
2893.000000	97.520046 
2892.000000	97.526839 
2891.000000	97.537039 
2890.000000	97.547713 
2889.000000	97.555634 
2888.000000	97.560802 
2887.000000	97.565492 
2886.000000	97.570585 
2885.000000	97.575094 
2884.000000	97.579507 
2883.000000	97.587106 
2882.000000	97.600410 
2881.000000	97.617794 
2880.000000	97.635382 
2879.000000	97.651524 
2878.000000	97.667388 
2877.000000	97.683488 
2876.000000	97.697948 
2875.000000	97.708921 
2874.000000	97.717074 
2873.000000	97.724562 
2872.000000	97.732573 
2871.000000	97.740938 
2870.000000	97.749447 
2869.000000	97.758341 
2868.000000	97.767778 
2867.000000	97.777746 
2866.000000	97.788411 
2865.000000	97.799850 
2864.000000	97.811713 
2863.000000	97.823977 
2862.000000	97.837740 
2861.000000	97.854094 
2860.000000	97.872115 
2859.000000	97.889111 
2858.000000	97.903486 
2857.000000	97.916641 
2856.000000	97.931198 
2855.000000	97.947634 
2854.000000	97.963542 
2853.000000	97.976127 
2852.000000	97.984720 
2851.000000	97.991058 
2850.000000	97.997809 
2849.000000	98.006873 
2848.000000	98.018456 
2847.000000	98.031161 
2846.000000	98.042980 
2845.000000	98.052635 
2844.000000	98.060376 
2843.000000	98.067588 
2842.000000	98.075548 
2841.000000	98.084318 
2840.000000	98.092705 
2839.000000	98.099341 
2838.000000	98.103971 
2837.000000	98.107782 
2836.000000	98.112532 
2835.000000	98.119287 
2834.000000	98.127908 
2833.000000	98.137570 
2832.000000	98.147383 
2831.000000	98.156314 
2830.000000	98.162927 
2829.000000	98.166078 
2828.000000	98.166395 
2827.000000	98.166720 
2826.000000	98.170221 
2825.000000	98.177520 
2824.000000	98.185911 
2823.000000	98.191727 
2822.000000	98.193495 
2821.000000	98.192785 
2820.000000	98.192261 
2819.000000	98.193216 
2818.000000	98.195091 
2817.000000	98.197045 
2816.000000	98.199310 
2815.000000	98.202672 
2814.000000	98.206883 
2813.000000	98.210181 
2812.000000	98.210751 
2811.000000	98.208504 
2810.000000	98.205268 
2809.000000	98.203348 
2808.000000	98.204052 
2807.000000	98.207417 
2806.000000	98.212691 
2805.000000	98.218735 
2804.000000	98.224250 
2803.000000	98.228208 
2802.000000	98.230405 
2801.000000	98.231594 
2800.000000	98.232879 
2799.000000	98.234737 
2798.000000	98.236595 
2797.000000	98.237525 
2796.000000	98.237422 
2795.000000	98.237301 
2794.000000	98.238283 
2793.000000	98.240420 
2792.000000	98.242792 
2791.000000	98.244562 
2790.000000	98.245606 
2789.000000	98.246167 
2788.000000	98.246486 
2787.000000	98.246948 
2786.000000	98.248153 
2785.000000	98.250414 
2784.000000	98.253306 
2783.000000	98.255939 
2782.000000	98.257704 
2781.000000	98.258701 
2780.000000	98.259434 
2779.000000	98.260342 
2778.000000	98.261558 
2777.000000	98.262953 
2776.000000	98.264323 
2775.000000	98.265555 
2774.000000	98.266668 
2773.000000	98.267727 
2772.000000	98.268751 
2771.000000	98.269726 
2770.000000	98.270681 
2769.000000	98.271702 
2768.000000	98.272843 
2767.000000	98.274076 
2766.000000	98.275323 
2765.000000	98.276544 
2764.000000	98.277733 
2763.000000	98.278858 
2762.000000	98.279851 
2761.000000	98.280681 
2760.000000	98.281429 
2759.000000	98.282243 
2758.000000	98.283201 
2757.000000	98.284234 
2756.000000	98.285192 
2755.000000	98.286012 
2754.000000	98.286793 
2753.000000	98.287662 
2752.000000	98.288595 
2751.000000	98.289461 
2750.000000	98.290231 
2749.000000	98.291038 
2748.000000	98.291975 
2747.000000	98.292921 
2746.000000	98.293669 
2745.000000	98.294192 
2744.000000	98.294685 
2743.000000	98.295344 
2742.000000	98.296170 
2741.000000	98.297025 
2740.000000	98.297803 
2739.000000	98.298492 
2738.000000	98.299089 
2737.000000	98.299591 
2736.000000	98.300074 
2735.000000	98.300709 
2734.000000	98.301605 
2733.000000	98.302707 
2732.000000	98.303861 
2731.000000	98.304930 
2730.000000	98.305871 
2729.000000	98.306730 
2728.000000	98.307577 
2727.000000	98.308433 
2726.000000	98.309250 
2725.000000	98.309999 
2724.000000	98.310725 
2723.000000	98.311494 
2722.000000	98.312310 
2721.000000	98.313134 
2720.000000	98.313947 
2719.000000	98.314767 
2718.000000	98.315604 
2717.000000	98.316437 
2716.000000	98.317236 
2715.000000	98.318004 
2714.000000	98.318771 
2713.000000	98.319554 
2712.000000	98.320341 
2711.000000	98.321117 
2710.000000	98.321878 
2709.000000	98.322634 
2708.000000	98.323398 
2707.000000	98.324176 
2706.000000	98.324964 
2705.000000	98.325753 
2704.000000	98.326536 
2703.000000	98.327308 
2702.000000	98.328068 
2701.000000	98.328817 
2700.000000	98.329556 
2699.000000	98.330285 
2698.000000	98.330999 
2697.000000	98.331692 
2696.000000	98.332353 
2695.000000	98.332979 
2694.000000	98.333572 
2693.000000	98.334137 
2692.000000	98.334676 
2691.000000	98.335192 
2690.000000	98.335686 
2689.000000	98.336163 
2688.000000	98.336625 
2687.000000	98.337076 
2686.000000	98.337514 
2685.000000	98.337936 
2684.000000	98.338336 
2683.000000	98.338712 
2682.000000	98.339062 
2681.000000	98.339388 
2680.000000	98.339693 
2679.000000	98.339982 
2678.000000	98.340264 
2677.000000	98.340541 
2676.000000	98.340804 
2675.000000	98.341039 
2674.000000	98.341233 
2673.000000	98.341397 
2672.000000	98.341582 
2671.000000	98.341830 
2670.000000	98.342108 
2669.000000	98.342326 
2668.000000	98.342476 
2667.000000	98.342661 
2666.000000	98.342934 
2665.000000	98.343173 
2664.000000	98.343223 
2663.000000	98.343121 
2662.000000	98.343096 
2661.000000	98.343295 
2660.000000	98.343624 
2659.000000	98.343870 
2658.000000	98.343936 
2657.000000	98.343862 
2656.000000	98.343746 
2655.000000	98.343678 
2654.000000	98.343683 
2653.000000	98.343697 
2652.000000	98.343691 
2651.000000	98.343811 
2650.000000	98.344263 
2649.000000	98.345025 
2648.000000	98.345815 
2647.000000	98.346316 
2646.000000	98.346304 
2645.000000	98.345613 
2644.000000	98.344255 
2643.000000	98.342693 
2642.000000	98.341723 
2641.000000	98.341827 
2640.000000	98.342848 
2639.000000	98.344244 
2638.000000	98.345569 
2637.000000	98.346574 
2636.000000	98.347151 
2635.000000	98.347487 
2634.000000	98.348043 
2633.000000	98.349019 
2632.000000	98.349918 
2631.000000	98.350042 
2630.000000	98.349349 
2629.000000	98.348523 
2628.000000	98.348187 
2627.000000	98.348342 
2626.000000	98.348724 
2625.000000	98.349310 
2624.000000	98.350194 
2623.000000	98.351175 
2622.000000	98.351780 
2621.000000	98.351679 
2620.000000	98.350910 
2619.000000	98.349771 
2618.000000	98.348667 
2617.000000	98.347967 
2616.000000	98.347796 
2615.000000	98.347938 
2614.000000	98.348086 
2613.000000	98.348222 
2612.000000	98.348623 
2611.000000	98.349442 
2610.000000	98.350453 
2609.000000	98.351202 
2608.000000	98.351394 
2607.000000	98.351093 
2606.000000	98.350661 
2605.000000	98.350447 
2604.000000	98.350496 
2603.000000	98.350601 
2602.000000	98.350616 
2601.000000	98.350664 
2600.000000	98.350919 
2599.000000	98.351287 
2598.000000	98.351465 
2597.000000	98.351306 
2596.000000	98.350949 
2595.000000	98.350632 
2594.000000	98.350454 
2593.000000	98.350399 
2592.000000	98.350507 
2591.000000	98.350816 
2590.000000	98.351180 
2589.000000	98.351347 
2588.000000	98.351262 
2587.000000	98.351191 
2586.000000	98.351418 
2585.000000	98.351946 
2584.000000	98.352578 
2583.000000	98.353149 
2582.000000	98.353561 
2581.000000	98.353727 
2580.000000	98.353671 
2579.000000	98.353613 
2578.000000	98.353811 
2577.000000	98.354278 
2576.000000	98.354754 
2575.000000	98.354976 
2574.000000	98.354916 
2573.000000	98.354765 
2572.000000	98.354700 
2571.000000	98.354681 
2570.000000	98.354505 
2569.000000	98.354128 
2568.000000	98.353884 
2567.000000	98.354158 
2566.000000	98.354826 
2565.000000	98.355259 
2564.000000	98.355054 
2563.000000	98.354545 
2562.000000	98.354363 
2561.000000	98.354742 
2560.000000	98.355539 
2559.000000	98.356656 
2558.000000	98.357986 
2557.000000	98.359084 
2556.000000	98.359489 
2555.000000	98.359318 
2554.000000	98.359207 
2553.000000	98.359498 
2552.000000	98.359860 
2551.000000	98.359963 
2550.000000	98.360029 
2549.000000	98.360372 
2548.000000	98.360714 
2547.000000	98.360501 
2546.000000	98.359750 
2545.000000	98.359070 
2544.000000	98.358872 
2543.000000	98.358939 
2542.000000	98.358870 
2541.000000	98.358623 
2540.000000	98.358485 
2539.000000	98.358620 
2538.000000	98.358881 
2537.000000	98.359027 
2536.000000	98.359005 
2535.000000	98.358933 
2534.000000	98.358898 
2533.000000	98.358866 
2532.000000	98.358794 
2531.000000	98.358724 
2530.000000	98.358718 
2529.000000	98.358757 
2528.000000	98.358775 
2527.000000	98.358759 
2526.000000	98.358764 
2525.000000	98.358829 
2524.000000	98.358926 
2523.000000	98.359007 
2522.000000	98.359054 
2521.000000	98.359084 
2520.000000	98.359119 
2519.000000	98.359168 
2518.000000	98.359228 
2517.000000	98.359290 
2516.000000	98.359344 
2515.000000	98.359389 
2514.000000	98.359435 
2513.000000	98.359508 
2512.000000	98.359625 
2511.000000	98.359782 
2510.000000	98.359961 
2509.000000	98.360146 
2508.000000	98.360332 
2507.000000	98.360513 
2506.000000	98.360688 
2505.000000	98.360870 
2504.000000	98.361085 
2503.000000	98.361349 
2502.000000	98.361631 
2501.000000	98.361871 
2500.000000	98.362044 
2499.000000	98.362185 
2498.000000	98.362343 
2497.000000	98.362516 
2496.000000	98.362691 
2495.000000	98.362881 
2494.000000	98.363096 
2493.000000	98.363286 
2492.000000	98.363421 
2491.000000	98.363610 
2490.000000	98.364040 
2489.000000	98.364699 
2488.000000	98.365243 
2487.000000	98.365348 
2486.000000	98.365084 
2485.000000	98.364877 
2484.000000	98.365045 
2483.000000	98.365506 
2482.000000	98.365963 
2481.000000	98.366253 
2480.000000	98.366459 
2479.000000	98.366786 
2478.000000	98.367407 
2477.000000	98.368331 
2476.000000	98.369280 
2475.000000	98.369771 
2474.000000	98.369431 
2473.000000	98.368286 
2472.000000	98.366777 
2471.000000	98.365419 
2470.000000	98.364552 
2469.000000	98.364361 
2468.000000	98.364884 
2467.000000	98.365944 
2466.000000	98.367140 
2465.000000	98.368023 
2464.000000	98.368476 
2463.000000	98.368919 
2462.000000	98.370031 
2461.000000	98.372125 
2460.000000	98.374792 
2459.000000	98.377158 
2458.000000	98.378481 
2457.000000	98.378488 
2456.000000	98.377277 
2455.000000	98.375200 
2454.000000	98.372855 
2453.000000	98.370820 
2452.000000	98.369321 
2451.000000	98.368387 
2450.000000	98.368307 
2449.000000	98.369541 
2448.000000	98.371981 
2447.000000	98.374609 
2446.000000	98.376259 
2445.000000	98.376651 
2444.000000	98.376390 
2443.000000	98.376186 
2442.000000	98.376314 
2441.000000	98.376675 
2440.000000	98.377089 
2439.000000	98.377545 
2438.000000	98.378370 
2437.000000	98.380017 
2436.000000	98.382445 
2435.000000	98.384786 
2434.000000	98.386000 
2433.000000	98.385887 
2432.000000	98.385208 
2431.000000	98.384910 
2430.000000	98.385411 
2429.000000	98.386599 
2428.000000	98.388048 
2427.000000	98.389117 
2426.000000	98.389266 
2425.000000	98.388476 
2424.000000	98.387275 
2423.000000	98.386262 
2422.000000	98.385796 
2421.000000	98.386187 
2420.000000	98.387743 
2419.000000	98.390354 
2418.000000	98.393298 
2417.000000	98.395769 
2416.000000	98.397424 
2415.000000	98.398209 
2414.000000	98.398173 
2413.000000	98.397800 
2412.000000	98.397975 
2411.000000	98.399027 
2410.000000	98.400162 
2409.000000	98.400508 
2408.000000	98.400370 
2407.000000	98.400697 
2406.000000	98.401623 
2405.000000	98.402299 
2404.000000	98.402086 
2403.000000	98.401264 
2402.000000	98.400567 
2401.000000	98.400584 
2400.000000	98.401668 
2399.000000	98.403855 
2398.000000	98.406651 
2397.000000	98.409258 
2396.000000	98.411182 
2395.000000	98.412350 
2394.000000	98.412768 
2393.000000	98.412632 
2392.000000	98.412514 
2391.000000	98.413041 
2390.000000	98.414223 
2389.000000	98.415490 
2388.000000	98.416383 
2387.000000	98.416945 
2386.000000	98.417398 
2385.000000	98.417810 
2384.000000	98.418159 
2383.000000	98.418419 
2382.000000	98.418548 
2381.000000	98.418529 
2380.000000	98.418437 
2379.000000	98.418370 
2378.000000	98.418315 
2377.000000	98.418220 
2376.000000	98.418119 
2375.000000	98.418080 
2374.000000	98.418087 
2373.000000	98.418072 
2372.000000	98.418015 
2371.000000	98.417937 
2370.000000	98.417853 
2369.000000	98.417752 
2368.000000	98.417623 
2367.000000	98.417452 
2366.000000	98.417248 
2365.000000	98.417035 
2364.000000	98.416843 
2363.000000	98.416689 
2362.000000	98.416576 
2361.000000	98.416491 
2360.000000	98.416421 
2359.000000	98.416346 
2358.000000	98.416250 
2357.000000	98.416116 
2356.000000	98.415936 
2355.000000	98.415719 
2354.000000	98.415485 
2353.000000	98.415270 
2352.000000	98.415108 
2351.000000	98.415018 
2350.000000	98.414986 
2349.000000	98.414987 
2348.000000	98.415012 
2347.000000	98.415076 
2346.000000	98.415206 
2345.000000	98.415413 
2344.000000	98.415684 
2343.000000	98.415998 
2342.000000	98.416342 
2341.000000	98.416718 
2340.000000	98.417130 
2339.000000	98.417577 
2338.000000	98.418043 
2337.000000	98.418463 
2336.000000	98.418801 
2335.000000	98.419138 
2334.000000	98.419498 
2333.000000	98.419752 
2332.000000	98.419969 
2331.000000	98.420462 
2330.000000	98.421287 
2329.000000	98.422030 
2328.000000	98.422514 
2327.000000	98.423031 
2326.000000	98.423757 
2325.000000	98.424674 
2324.000000	98.426019 
2323.000000	98.428251 
2322.000000	98.430777 
2321.000000	98.432057 
2320.000000	98.431480 
2319.000000	98.430282 
2318.000000	98.429963 
2317.000000	98.430255 
2316.000000	98.430008 
2315.000000	98.429108 
2314.000000	98.428830 
2313.000000	98.430098 
2312.000000	98.432726 
2311.000000	98.435937 
2310.000000	98.438807 
2309.000000	98.440447 
2308.000000	98.440798 
2307.000000	98.440995 
2306.000000	98.441639 
2305.000000	98.441819 
2304.000000	98.440536 
2303.000000	98.438678 
2302.000000	98.438389 
2301.000000	98.440258 
2300.000000	98.442209 
2299.000000	98.441506 
2298.000000	98.437079 
2297.000000	98.429802 
2296.000000	98.422039 
2295.000000	98.416514 
2294.000000	98.414662 
2293.000000	98.415550 
2292.000000	98.416671 
2291.000000	98.416191 
2290.000000	98.414079 
2289.000000	98.411567 
2288.000000	98.409779 
2287.000000	98.408938 
2286.000000	98.408345 
2285.000000	98.407228 
2284.000000	98.405623 
2283.000000	98.404240 
2282.000000	98.403250 
2281.000000	98.401763 
2280.000000	98.398765 
2279.000000	98.394201 
2278.000000	98.388916 
2277.000000	98.384059 
2276.000000	98.380834 
2275.000000	98.380053 
2274.000000	98.381406 
2273.000000	98.383598 
2272.000000	98.385487 
2271.000000	98.386661 
2270.000000	98.386946 
2269.000000	98.386313 
2268.000000	98.385409 
2267.000000	98.385187 
2266.000000	98.385630 
2265.000000	98.385635 
2264.000000	98.384417 
2263.000000	98.382228 
2262.000000	98.379593 
2261.000000	98.376711 
2260.000000	98.373875 
2259.000000	98.371662 
2258.000000	98.370257 
2257.000000	98.369238 
2256.000000	98.368332 
2255.000000	98.367840 
2254.000000	98.367938 
2253.000000	98.368040 
2252.000000	98.367313 
2251.000000	98.365550 
2250.000000	98.363105 
2249.000000	98.360380 
2248.000000	98.357794 
2247.000000	98.355866 
2246.000000	98.354800 
2245.000000	98.354215 
2244.000000	98.353421 
2243.000000	98.352120 
2242.000000	98.350560 
2241.000000	98.349159 
2240.000000	98.348143 
2239.000000	98.347474 
2238.000000	98.346919 
2237.000000	98.346177 
2236.000000	98.345123 
2235.000000	98.343894 
2234.000000	98.342723 
2233.000000	98.341679 
2232.000000	98.340665 
2231.000000	98.339596 
2230.000000	98.338475 
2229.000000	98.337286 
2228.000000	98.335980 
2227.000000	98.334645 
2226.000000	98.333504 
2225.000000	98.332642 
2224.000000	98.331779 
2223.000000	98.330583 
2222.000000	98.329051 
2221.000000	98.327507 
2220.000000	98.326101 
2219.000000	98.324686 
2218.000000	98.323148 
2217.000000	98.321578 
2216.000000	98.320164 
2215.000000	98.318980 
2214.000000	98.317905 
2213.000000	98.316726 
2212.000000	98.315374 
2211.000000	98.314022 
2210.000000	98.312902 
2209.000000	98.312051 
2208.000000	98.311317 
2207.000000	98.310554 
2206.000000	98.309753 
2205.000000	98.308966 
2204.000000	98.308213 
2203.000000	98.307471 
2202.000000	98.306699 
2201.000000	98.305809 
2200.000000	98.304700 
2199.000000	98.303368 
2198.000000	98.301920 
2197.000000	98.300507 
2196.000000	98.299211 
2195.000000	98.298028 
2194.000000	98.296940 
2193.000000	98.295986 
2192.000000	98.295240 
2191.000000	98.294667 
2190.000000	98.294042 
2189.000000	98.293144 
2188.000000	98.292026 
2187.000000	98.290933 
2186.000000	98.289874 
2185.000000	98.288564 
2184.000000	98.287001 
2183.000000	98.285877 
2182.000000	98.285830 
2181.000000	98.286692 
2180.000000	98.287412 
2179.000000	98.287162 
2178.000000	98.286045 
2177.000000	98.284974 
2176.000000	98.284719 
2175.000000	98.285237 
2174.000000	98.285946 
2173.000000	98.286469 
2172.000000	98.287112 
2171.000000	98.288681 
2170.000000	98.291540 
2169.000000	98.294695 
2168.000000	98.296478 
2167.000000	98.296433 
2166.000000	98.295669 
2165.000000	98.294873 
2164.000000	98.293083 
2163.000000	98.289719 
2162.000000	98.286788 
2161.000000	98.287044 
2160.000000	98.290504 
2159.000000	98.294566 
2158.000000	98.297583 
2157.000000	98.300251 
2156.000000	98.303276 
2155.000000	98.306135 
2154.000000	98.308642 
2153.000000	98.311930 
2152.000000	98.316825 
2151.000000	98.321841 
2150.000000	98.323951 
2149.000000	98.321934 
2148.000000	98.318562 
2147.000000	98.318281 
2146.000000	98.322459 
2145.000000	98.328294 
2144.000000	98.333054 
2143.000000	98.337846 
2142.000000	98.345104 
2141.000000	98.353804 
2140.000000	98.360173 
2139.000000	98.363174 
2138.000000	98.366284 
2137.000000	98.372468 
2136.000000	98.379732 
2135.000000	98.383302 
2134.000000	98.380507 
2133.000000	98.372866 
2132.000000	98.364965 
2131.000000	98.361198 
2130.000000	98.362707 
2129.000000	98.366892 
2128.000000	98.370163 
2127.000000	98.371498 
2126.000000	98.372656 
2125.000000	98.375174 
2124.000000	98.378435 
2123.000000	98.380831 
2122.000000	98.381504 
2121.000000	98.380434 
2120.000000	98.377809 
2119.000000	98.374054 
2118.000000	98.370163 
2117.000000	98.367447 
2116.000000	98.366711 
2115.000000	98.367457 
2114.000000	98.367816 
2113.000000	98.366022 
2112.000000	98.362630 
2111.000000	98.360624 
2110.000000	98.362456 
2109.000000	98.367527 
2108.000000	98.373041 
2107.000000	98.376713 
2106.000000	98.377888 
2105.000000	98.377007 
2104.000000	98.375446 
2103.000000	98.375062 
2102.000000	98.376161 
2101.000000	98.376429 
2100.000000	98.373624 
2099.000000	98.369043 
2098.000000	98.366635 
2097.000000	98.368512 
2096.000000	98.373237 
2095.000000	98.378109 
2094.000000	98.381608 
2093.000000	98.383230 
2092.000000	98.382706 
2091.000000	98.380685 
2090.000000	98.379046 
2089.000000	98.379193 
2088.000000	98.380475 
2087.000000	98.381016 
2086.000000	98.379723 
2085.000000	98.376989 
2084.000000	98.374098 
2083.000000	98.372274 
2082.000000	98.371805 
2081.000000	98.371879 
2080.000000	98.371756 
2079.000000	98.371875 
2078.000000	98.372839 
2077.000000	98.373544 
2076.000000	98.371984 
2075.000000	98.368216 
2074.000000	98.364617 
2073.000000	98.362490 
2072.000000	98.360357 
2071.000000	98.356513 
2070.000000	98.351553 
2069.000000	98.347360 
2068.000000	98.344849 
2067.000000	98.343736 
2066.000000	98.343481 
2065.000000	98.343235 
2064.000000	98.341678 
2063.000000	98.338323 
2062.000000	98.334673 
2061.000000	98.332947 
2060.000000	98.333778 
2059.000000	98.336068 
2058.000000	98.338173 
2057.000000	98.338854 
2056.000000	98.337520 
2055.000000	98.334346 
2054.000000	98.330474 
2053.000000	98.327392 
2052.000000	98.325704 
2051.000000	98.324696 
2050.000000	98.323202 
2049.000000	98.320807 
2048.000000	98.318132 
2047.000000	98.316026 
2046.000000	98.314699 
2045.000000	98.313732 
2044.000000	98.312773 
2043.000000	98.311964 
2042.000000	98.311662 
2041.000000	98.311998 
2040.000000	98.312934 
2039.000000	98.314499 
2038.000000	98.316415 
2037.000000	98.317642 
2036.000000	98.317105 
2035.000000	98.314914 
2034.000000	98.312546 
2033.000000	98.311490 
2032.000000	98.311906 
2031.000000	98.312744 
2030.000000	98.312687 
2029.000000	98.310998 
2028.000000	98.307976 
2027.000000	98.304901 
2026.000000	98.303058 
2025.000000	98.302710 
2024.000000	98.303386 
2023.000000	98.305036 
2022.000000	98.308083 
2021.000000	98.311999 
2020.000000	98.314718 
2019.000000	98.314412 
2018.000000	98.311175 
2017.000000	98.306931 
2016.000000	98.303727 
2015.000000	98.302164 
2014.000000	98.301454 
2013.000000	98.300279 
2012.000000	98.298161 
2011.000000	98.296449 
2010.000000	98.297160 
2009.000000	98.300563 
2008.000000	98.304491 
2007.000000	98.306589 
2006.000000	98.306743 
2005.000000	98.306351 
2004.000000	98.306215 
2003.000000	98.306192 
2002.000000	98.306381 
2001.000000	98.306987 
2000.000000	98.307113 
1999.000000	98.305154 
1998.000000	98.300710 
1997.000000	98.295346 
1996.000000	98.291285 
1995.000000	98.289548 
1994.000000	98.289599 
1993.000000	98.290082 
1992.000000	98.289885 
1991.000000	98.289020 
1990.000000	98.288437 
1989.000000	98.288838 
1988.000000	98.289804 
1987.000000	98.290151 
1986.000000	98.289151 
1985.000000	98.287179 
1984.000000	98.285229 
1983.000000	98.283986 
1982.000000	98.283456 
1981.000000	98.283335 
1980.000000	98.283466 
1979.000000	98.283839 
1978.000000	98.284254 
1977.000000	98.284319 
1976.000000	98.283912 
1975.000000	98.283417 
1974.000000	98.283372 
1973.000000	98.283963 
1972.000000	98.284936 
1971.000000	98.285908 
1970.000000	98.286625 
1969.000000	98.287006 
1968.000000	98.287101 
1967.000000	98.287090 
1966.000000	98.287283 
1965.000000	98.287906 
1964.000000	98.288947 
1963.000000	98.290214 
1962.000000	98.291523 
1961.000000	98.292772 
1960.000000	98.293920 
1959.000000	98.294995 
1958.000000	98.296067 
1957.000000	98.297226 
1956.000000	98.298523 
1955.000000	98.299952 
1954.000000	98.301452 
1953.000000	98.302938 
1952.000000	98.304379 
1951.000000	98.305798 
1950.000000	98.307227 
1949.000000	98.308698 
1948.000000	98.310258 
1947.000000	98.311933 
1946.000000	98.313647 
1945.000000	98.315257 
1944.000000	98.316698 
1943.000000	98.318054 
1942.000000	98.319430 
1941.000000	98.320806 
1940.000000	98.322118 
1939.000000	98.323385 
1938.000000	98.324684 
1937.000000	98.326110 
1936.000000	98.327744 
1935.000000	98.329565 
1934.000000	98.331364 
1933.000000	98.332967 
1932.000000	98.334517 
1931.000000	98.336336 
1930.000000	98.338479 
1929.000000	98.340545 
1928.000000	98.342187 
1927.000000	98.343579 
1926.000000	98.345073 
1925.000000	98.346554 
1924.000000	98.347564 
1923.000000	98.348025 
1922.000000	98.348331 
1921.000000	98.348812 
1920.000000	98.349529 
1919.000000	98.350495 
1918.000000	98.351625 
1917.000000	98.352521 
1916.000000	98.352944 
1915.000000	98.353411 
1914.000000	98.354497 
1913.000000	98.355914 
1912.000000	98.356914 
1911.000000	98.357443 
1910.000000	98.358109 
1909.000000	98.359191 
1908.000000	98.360373 
1907.000000	98.361273 
1906.000000	98.361761 
1905.000000	98.361852 
1904.000000	98.361714 
1903.000000	98.361718 
1902.000000	98.362104 
1901.000000	98.362729 
1900.000000	98.363337 
1899.000000	98.363850 
1898.000000	98.364337 
1897.000000	98.364827 
1896.000000	98.365280 
1895.000000	98.365684 
1894.000000	98.366055 
1893.000000	98.366406 
1892.000000	98.366749 
1891.000000	98.367100 
1890.000000	98.367469 
1889.000000	98.367856 
1888.000000	98.368260 
1887.000000	98.368683 
1886.000000	98.369134 
1885.000000	98.369612 
1884.000000	98.370110 
1883.000000	98.370627 
1882.000000	98.371181 
1881.000000	98.371787 
1880.000000	98.372447 
1879.000000	98.373149 
1878.000000	98.373886 
1877.000000	98.374658 
1876.000000	98.375475 
1875.000000	98.376346 
1874.000000	98.377266 
1873.000000	98.378220 
1872.000000	98.379192 
1871.000000	98.380171 
1870.000000	98.381162 
1869.000000	98.382176 
1868.000000	98.383223 
1867.000000	98.384311 
1866.000000	98.385443 
1865.000000	98.386620 
1864.000000	98.387838 
1863.000000	98.389100 
1862.000000	98.390422 
1861.000000	98.391814 
1860.000000	98.393259 
1859.000000	98.394728 
1858.000000	98.396214 
1857.000000	98.397722 
1856.000000	98.399242 
1855.000000	98.400766 
1854.000000	98.402300 
1853.000000	98.403845 
1852.000000	98.405396 
1851.000000	98.406967 
1850.000000	98.408588 
1849.000000	98.410254 
1848.000000	98.411900 
1847.000000	98.413486 
1846.000000	98.415061 
1845.000000	98.416704 
1844.000000	98.418390 
1843.000000	98.420016 
1842.000000	98.421558 
1841.000000	98.423060 
1840.000000	98.424592 
1839.000000	98.426237 
1838.000000	98.427971 
1837.000000	98.429544 
1836.000000	98.430686 
1835.000000	98.431511 
1834.000000	98.432449 
1833.000000	98.433659 
1832.000000	98.434980 
1831.000000	98.436202 
1830.000000	98.437208 
1829.000000	98.437999 
1828.000000	98.438731 
1827.000000	98.439695 
1826.000000	98.441102 
1825.000000	98.442731 
1824.000000	98.443951 
1823.000000	98.444449 
1822.000000	98.444666 
1821.000000	98.445104 
1820.000000	98.445619 
1819.000000	98.445865 
1818.000000	98.446240 
1817.000000	98.447475 
1816.000000	98.449166 
1815.000000	98.450305 
1814.000000	98.450940 
1813.000000	98.452056 
1812.000000	98.453700 
1811.000000	98.454293 
1810.000000	98.453223 
1809.000000	98.451869 
1808.000000	98.451231 
1807.000000	98.451001 
1806.000000	98.451118 
1805.000000	98.451949 
1804.000000	98.452898 
1803.000000	98.452699 
1802.000000	98.451101 
1801.000000	98.449478 
1800.000000	98.448825 
1799.000000	98.448572 
1798.000000	98.448604 
1797.000000	98.449187 
1796.000000	98.449415 
1795.000000	98.448552 
1794.000000	98.447643 
1793.000000	98.448472 
1792.000000	98.450464 
1791.000000	98.451132 
1790.000000	98.450660 
1789.000000	98.451209 
1788.000000	98.453172 
1787.000000	98.455209 
1786.000000	98.456532 
1785.000000	98.457361 
1784.000000	98.457516 
1783.000000	98.457069 
1782.000000	98.456801 
1781.000000	98.457315 
1780.000000	98.458388 
1779.000000	98.459294 
1778.000000	98.460374 
1777.000000	98.462130 
1776.000000	98.464023 
1775.000000	98.465288 
1774.000000	98.465589 
1773.000000	98.465583 
1772.000000	98.466156 
1771.000000	98.466752 
1770.000000	98.466699 
1769.000000	98.466677 
1768.000000	98.467433 
1767.000000	98.468561 
1766.000000	98.469256 
1765.000000	98.469704 
1764.000000	98.470668 
1763.000000	98.472120 
1762.000000	98.473156 
1761.000000	98.473471 
1760.000000	98.473629 
1759.000000	98.473877 
1758.000000	98.473981 
1757.000000	98.473721 
1756.000000	98.473621 
1755.000000	98.473838 
1754.000000	98.473495 
1753.000000	98.471909 
1752.000000	98.469852 
1751.000000	98.469191 
1750.000000	98.470500 
1749.000000	98.472495 
1748.000000	98.473863 
1747.000000	98.474574 
1746.000000	98.474800 
1745.000000	98.474839 
1744.000000	98.475370 
1743.000000	98.476285 
1742.000000	98.476590 
1741.000000	98.476153 
1740.000000	98.476049 
1739.000000	98.476812 
1738.000000	98.477484 
1737.000000	98.477508 
1736.000000	98.477122 
1735.000000	98.476602 
1734.000000	98.475811 
1733.000000	98.474215 
1732.000000	98.472640 
1731.000000	98.472859 
1730.000000	98.475241 
1729.000000	98.477781 
1728.000000	98.478761 
1727.000000	98.478402 
1726.000000	98.477711 
1725.000000	98.477142 
1724.000000	98.476615 
1723.000000	98.475819 
1722.000000	98.474902 
1721.000000	98.474029 
1720.000000	98.473171 
1719.000000	98.472032 
1718.000000	98.470689 
1717.000000	98.469761 
1716.000000	98.468235 
1715.000000	98.465370 
1714.000000	98.462940 
1713.000000	98.461938 
1712.000000	98.461222 
1711.000000	98.460043 
1710.000000	98.458832 
1709.000000	98.457700 
1708.000000	98.456184 
1707.000000	98.454258 
1706.000000	98.452565 
1705.000000	98.451178 
1704.000000	98.448807 
1703.000000	98.445165 
1702.000000	98.441153 
1701.000000	98.438205 
1700.000000	98.436154 
1699.000000	98.433244 
1698.000000	98.429986 
1697.000000	98.427684 
1696.000000	98.426048 
1695.000000	98.424018 
1694.000000	98.421369 
1693.000000	98.418603 
1692.000000	98.415910 
1691.000000	98.413155 
1690.000000	98.410282 
1689.000000	98.407342 
1688.000000	98.404393 
1687.000000	98.401476 
1686.000000	98.398611 
1685.000000	98.395908 
1684.000000	98.393189 
1683.000000	98.390184 
1682.000000	98.387026 
1681.000000	98.383889 
1680.000000	98.380925 
1679.000000	98.378134 
1678.000000	98.375392 
1677.000000	98.372518 
1676.000000	98.369489 
1675.000000	98.366336 
1674.000000	98.362777 
1673.000000	98.358707 
1672.000000	98.354725 
1671.000000	98.351558 
1670.000000	98.349365 
1669.000000	98.347188 
1668.000000	98.344541 
1667.000000	98.342075 
1666.000000	98.339867 
1665.000000	98.337623 
1664.000000	98.335521 
1663.000000	98.333950 
1662.000000	98.332135 
1661.000000	98.328356 
1660.000000	98.323312 
1659.000000	98.319271 
1658.000000	98.317333 
1657.000000	98.315720 
1656.000000	98.313761 
1655.000000	98.311396 
1654.000000	98.309733 
1653.000000	98.307241 
1652.000000	98.299688 
1651.000000	98.289802 
1650.000000	98.280782 
1649.000000	98.274943 
1648.000000	98.272042 
1647.000000	98.271993 
1646.000000	98.272889 
1645.000000	98.273021 
1644.000000	98.270708 
1643.000000	98.267211 
1642.000000	98.264653 
1641.000000	98.263733 
1640.000000	98.263412 
1639.000000	98.262312 
1638.000000	98.260343 
1637.000000	98.258086 
1636.000000	98.255935 
1635.000000	98.255088 
1634.000000	98.255539 
1633.000000	98.255290 
1632.000000	98.252807 
1631.000000	98.249278 
1630.000000	98.247587 
1629.000000	98.248157 
1628.000000	98.248927 
1627.000000	98.249292 
1626.000000	98.250181 
1625.000000	98.251341 
1624.000000	98.252363 
1623.000000	98.254381 
1622.000000	98.257691 
1621.000000	98.259578 
1620.000000	98.259499 
1619.000000	98.260368 
1618.000000	98.264551 
1617.000000	98.269166 
1616.000000	98.269097 
1615.000000	98.266821 
1614.000000	98.266869 
1613.000000	98.268117 
1612.000000	98.267583 
1611.000000	98.266093 
1610.000000	98.266721 
1609.000000	98.269943 
1608.000000	98.274669 
1607.000000	98.281249 
1606.000000	98.288656 
1605.000000	98.293875 
1604.000000	98.296725 
1603.000000	98.299447 
1602.000000	98.302565 
1601.000000	98.304557 
1600.000000	98.305536 
1599.000000	98.307813 
1598.000000	98.311986 
1597.000000	98.316289 
1596.000000	98.319729 
1595.000000	98.323532 
1594.000000	98.328576 
1593.000000	98.333177 
1592.000000	98.335591 
1591.000000	98.336763 
1590.000000	98.338542 
1589.000000	98.340863 
1588.000000	98.343088 
1587.000000	98.346084 
1586.000000	98.350255 
1585.000000	98.353399 
1584.000000	98.354538 
1583.000000	98.356419 
1582.000000	98.360671 
1581.000000	98.365110 
1580.000000	98.367819 
1579.000000	98.370392 
1578.000000	98.374870 
1577.000000	98.380511 
1576.000000	98.384411 
1575.000000	98.386145 
1574.000000	98.386848 
1573.000000	98.386907 
1572.000000	98.387913 
1571.000000	98.391648 
1570.000000	98.397005 
1569.000000	98.398238 
1568.000000	98.394708 
1567.000000	98.391463 
1566.000000	98.390943 
1565.000000	98.391260 
1564.000000	98.392294 
1563.000000	98.394393 
1562.000000	98.397278 
1561.000000	98.396764 
1560.000000	98.393859 
1559.000000	98.394364 
1558.000000	98.395507 
1557.000000	98.394223 
1556.000000	98.391019 
1555.000000	98.390364 
1554.000000	98.389910 
1553.000000	98.389433 
1552.000000	98.389198 
1551.000000	98.389522 
1550.000000	98.388341 
1549.000000	98.385290 
1548.000000	98.382076 
1547.000000	98.380399 
1546.000000	98.379104 
1545.000000	98.376265 
1544.000000	98.372130 
1543.000000	98.368511 
1542.000000	98.367227 
1541.000000	98.368935 
1540.000000	98.368344 
1539.000000	98.362047 
1538.000000	98.353525 
1537.000000	98.345024 
1536.000000	98.337488 
1535.000000	98.332066 
1534.000000	98.330065 
1533.000000	98.330245 
1532.000000	98.329100 
1531.000000	98.324440 
1530.000000	98.317968 
1529.000000	98.312122 
1528.000000	98.307105 
1527.000000	98.301949 
1526.000000	98.296252 
1525.000000	98.290616 
1524.000000	98.285902 
1523.000000	98.282337 
1522.000000	98.279360 
1521.000000	98.274830 
1520.000000	98.266583 
1519.000000	98.255612 
1518.000000	98.244912 
1517.000000	98.236657 
1516.000000	98.230612 
1515.000000	98.225600 
1514.000000	98.221115 
1513.000000	98.217145 
1512.000000	98.212670 
1511.000000	98.205665 
1510.000000	98.195975 
1509.000000	98.185899 
1508.000000	98.178575 
1507.000000	98.173621 
1506.000000	98.168117 
1505.000000	98.161133 
1504.000000	98.152832 
1503.000000	98.144300 
1502.000000	98.135932 
1501.000000	98.128453 
1500.000000	98.122275 
1499.000000	98.116628 
1498.000000	98.109347 
1497.000000	98.101016 
1496.000000	98.094056 
1495.000000	98.088531 
1494.000000	98.083671 
1493.000000	98.080100 
1492.000000	98.078403 
1491.000000	98.077431 
1490.000000	98.074995 
1489.000000	98.070854 
1488.000000	98.065058 
1487.000000	98.056703 
1486.000000	98.047402 
1485.000000	98.037745 
1484.000000	98.027381 
1483.000000	98.017810 
1482.000000	98.010504 
1481.000000	98.005420 
1480.000000	98.000403 
1479.000000	97.993908 
1478.000000	97.986484 
1477.000000	97.979424 
1476.000000	97.971549 
1475.000000	97.960449 
1474.000000	97.947330 
1473.000000	97.937777 
1472.000000	97.935110 
1471.000000	97.934709 
1470.000000	97.932070 
1469.000000	97.927727 
1468.000000	97.922518 
1467.000000	97.915625 
1466.000000	97.907627 
1465.000000	97.901472 
1464.000000	97.898812 
1463.000000	97.896113 
1462.000000	97.890166 
1461.000000	97.883024 
1460.000000	97.878417 
1459.000000	97.876447 
1458.000000	97.869413 
1457.000000	97.852451 
1456.000000	97.834165 
1455.000000	97.821153 
1454.000000	97.810918 
1453.000000	97.803778 
1452.000000	97.800953 
1451.000000	97.802070 
1450.000000	97.805643 
1449.000000	97.812738 
1448.000000	97.822994 
1447.000000	97.831588 
1446.000000	97.834110 
1445.000000	97.832387 
1444.000000	97.831981 
1443.000000	97.833442 
1442.000000	97.833325 
1441.000000	97.830267 
1440.000000	97.826853 
1439.000000	97.824657 
1438.000000	97.821317 
1437.000000	97.816395 
1436.000000	97.813387 
1435.000000	97.811783 
1434.000000	97.808701 
1433.000000	97.806367 
1432.000000	97.807315 
1431.000000	97.810607 
1430.000000	97.812455 
1429.000000	97.811708 
1428.000000	97.810211 
1427.000000	97.809177 
1426.000000	97.807677 
1425.000000	97.804059 
1424.000000	97.800683 
1423.000000	97.799603 
1422.000000	97.799153 
1421.000000	97.797656 
1420.000000	97.795261 
1419.000000	97.788679 
1418.000000	97.772375 
1417.000000	97.751737 
1416.000000	97.737858 
1415.000000	97.732907 
1414.000000	97.729289 
1413.000000	97.720634 
1412.000000	97.709339 
1411.000000	97.700791 
1410.000000	97.694998 
1409.000000	97.690469 
1408.000000	97.688687 
1407.000000	97.691602 
1406.000000	97.698304 
1405.000000	97.706936 
1404.000000	97.718903 
1403.000000	97.733780 
1402.000000	97.747796 
1401.000000	97.760591 
1400.000000	97.776147 
1399.000000	97.794919 
1398.000000	97.807916 
1397.000000	97.805744 
1396.000000	97.789827 
1395.000000	97.774130 
1394.000000	97.773801 
1393.000000	97.792525 
1392.000000	97.824367 
1391.000000	97.859547 
1390.000000	97.888848 
1389.000000	97.907031 
1388.000000	97.913821 
1387.000000	97.912960 
1386.000000	97.909860 
1385.000000	97.909279 
1384.000000	97.914297 
1383.000000	97.924683 
1382.000000	97.937264 
1381.000000	97.949575 
1380.000000	97.961468 
1379.000000	97.974418 
1378.000000	97.989598 
1377.000000	98.006814 
1376.000000	98.024937 
1375.000000	98.042901 
1374.000000	98.059980 
1373.000000	98.076453 
1372.000000	98.093489 
1371.000000	98.112288 
1370.000000	98.132825 
1369.000000	98.152545 
1368.000000	98.169943 
1367.000000	98.185955 
1366.000000	98.202140 
1365.000000	98.219182 
1364.000000	98.235665 
1363.000000	98.248700 
1362.000000	98.257693 
1361.000000	98.265980 
1360.000000	98.277426 
1359.000000	98.293214 
1358.000000	98.311309 
1357.000000	98.328140 
1356.000000	98.341532 
1355.000000	98.351696 
1354.000000	98.360197 
1353.000000	98.369321 
1352.000000	98.379737 
1351.000000	98.390906 
1350.000000	98.402913 
1349.000000	98.413854 
1348.000000	98.421722 
1347.000000	98.426999 
1346.000000	98.432438 
1345.000000	98.439406 
1344.000000	98.446863 
1343.000000	98.453906 
1342.000000	98.461109 
1341.000000	98.468008 
1340.000000	98.472043 
1339.000000	98.472055 
1338.000000	98.470165 
1337.000000	98.468938 
1336.000000	98.468620 
1335.000000	98.468001 
1334.000000	98.467036 
1333.000000	98.467128 
1332.000000	98.468786 
1331.000000	98.471053 
1330.000000	98.473005 
1329.000000	98.474571 
1328.000000	98.476135 
1327.000000	98.478394 
1326.000000	98.481461 
1325.000000	98.483179 
1324.000000	98.481576 
1323.000000	98.477019 
1322.000000	98.471585 
1321.000000	98.467199 
1320.000000	98.465053 
1319.000000	98.465565 
1318.000000	98.467993 
1317.000000	98.470839 
1316.000000	98.472759 
1315.000000	98.472878 
1314.000000	98.470811 
1313.000000	98.467789 
1312.000000	98.466670 
1311.000000	98.469219 
1310.000000	98.473638 
1309.000000	98.476599 
1308.000000	98.477182 
1307.000000	98.477578 
1306.000000	98.479740 
1305.000000	98.482476 
1304.000000	98.483863 
1303.000000	98.483404 
1302.000000	98.481436 
1301.000000	98.478225 
1300.000000	98.475082 
1299.000000	98.474348 
1298.000000	98.476666 
1297.000000	98.479403 
1296.000000	98.479453 
1295.000000	98.477209 
1294.000000	98.475698 
1293.000000	98.476478 
1292.000000	98.478098 
1291.000000	98.478652 
1290.000000	98.478403 
1289.000000	98.478997 
1288.000000	98.480781 
1287.000000	98.482030 
1286.000000	98.480927 
1285.000000	98.477847 
1284.000000	98.475212 
1283.000000	98.474775 
1282.000000	98.475462 
1281.000000	98.474445 
1280.000000	98.470405 
1279.000000	98.465071 
1278.000000	98.461177 
1277.000000	98.459816 
1276.000000	98.459776 
1275.000000	98.458954 
1274.000000	98.455723 
1273.000000	98.449580 
1272.000000	98.441150 
1271.000000	98.431379 
1270.000000	98.420363 
1269.000000	98.407328 
1268.000000	98.392068 
1267.000000	98.375475 
1266.000000	98.358303 
1265.000000	98.341071 
1264.000000	98.325481 
1263.000000	98.314077 
1262.000000	98.307589 
1261.000000	98.304081 
1260.000000	98.302086 
1259.000000	98.302998 
1258.000000	98.307988 
1257.000000	98.314333 
1256.000000	98.317368 
1255.000000	98.315861 
1254.000000	98.312984 
1253.000000	98.311494 
1252.000000	98.310267 
1251.000000	98.307184 
1250.000000	98.303704 
1249.000000	98.304400 
1248.000000	98.312216 
1247.000000	98.325082 
1246.000000	98.336578 
1245.000000	98.339798 
1244.000000	98.331965 
1243.000000	98.317667 
1242.000000	98.307613 
1241.000000	98.311051 
1240.000000	98.327113 
1239.000000	98.344317 
1238.000000	98.350450 
1237.000000	98.342698 
1236.000000	98.327303 
1235.000000	98.311264 
1234.000000	98.296817 
1233.000000	98.283318 
1232.000000	98.270721 
1231.000000	98.259349 
1230.000000	98.248688 
1229.000000	98.238657 
1228.000000	98.230440 
1227.000000	98.224071 
1226.000000	98.216558 
1225.000000	98.204597 
1224.000000	98.188446 
1223.000000	98.171186 
1222.000000	98.154641 
1221.000000	98.137830 
1220.000000	98.119313 
1219.000000	98.099225 
1218.000000	98.078478 
1217.000000	98.057193 
1216.000000	98.034152 
1215.000000	98.007322 
1214.000000	97.975627 
1213.000000	97.941279 
1212.000000	97.909087 
1211.000000	97.881170 
1210.000000	97.853186 
1209.000000	97.818486 
1208.000000	97.775857 
1207.000000	97.730863 
1206.000000	97.689270 
1205.000000	97.651216 
1204.000000	97.612653 
1203.000000	97.570510 
1202.000000	97.525123 
1201.000000	97.478863 
1200.000000	97.433802 
1199.000000	97.390422 
1198.000000	97.347827 
1197.000000	97.305260 
1196.000000	97.262959 
1195.000000	97.221048 
1194.000000	97.178378 
1193.000000	97.133403 
1192.000000	97.085918 
1191.000000	97.036958 
1190.000000	96.987228 
1189.000000	96.936507 
1188.000000	96.884184 
1187.000000	96.829638 
1186.000000	96.772826 
1185.000000	96.715217 
1184.000000	96.658694 
1183.000000	96.602576 
1182.000000	96.543650 
1181.000000	96.480633 
1180.000000	96.416305 
1179.000000	96.352873 
1178.000000	96.287443 
1177.000000	96.215584 
1176.000000	96.137824 
1175.000000	96.058827 
1174.000000	95.981103 
1173.000000	95.903546 
1172.000000	95.825915 
1171.000000	95.750110 
1170.000000	95.676349 
1169.000000	95.602525 
1168.000000	95.528848 
1167.000000	95.459820 
1166.000000	95.400632 
1165.000000	95.355026 
1164.000000	95.327241 
1163.000000	95.321480 
1162.000000	95.336975 
1161.000000	95.365815 
1160.000000	95.396809 
1159.000000	95.419828 
1158.000000	95.427019 
1157.000000	95.413754 
1156.000000	95.380045 
1155.000000	95.329552 
1154.000000	95.267000 
1153.000000	95.197931 
1152.000000	95.129461 
1151.000000	95.067092 
1150.000000	95.010162 
1149.000000	94.953759 
1148.000000	94.895444 
1147.000000	94.836684 
1146.000000	94.777860 
1145.000000	94.716523 
1144.000000	94.651873 
1143.000000	94.586952 
1142.000000	94.524532 
1141.000000	94.463989 
1140.000000	94.403676 
1139.000000	94.343262 
1138.000000	94.282520 
1137.000000	94.220777 
1136.000000	94.158491 
1135.000000	94.096547 
1134.000000	94.033432 
1133.000000	93.966259 
1132.000000	93.895028 
1131.000000	93.822679 
1130.000000	93.750829 
1129.000000	93.678937 
1128.000000	93.607507 
1127.000000	93.537707 
1126.000000	93.467453 
1125.000000	93.392360 
1124.000000	93.311449 
1123.000000	93.228212 
1122.000000	93.145709 
1121.000000	93.064568 
1120.000000	92.985736 
1119.000000	92.910234 
1118.000000	92.835813 
1117.000000	92.758899 
1116.000000	92.680387 
1115.000000	92.604724 
1114.000000	92.533059 
1113.000000	92.462511 
1112.000000	92.392280 
1111.000000	92.324559 
1110.000000	92.258992 
1109.000000	92.192240 
1108.000000	92.123254 
1107.000000	92.053599 
1106.000000	91.983023 
1105.000000	91.910009 
1104.000000	91.836348 
1103.000000	91.765793 
1102.000000	91.697965 
1101.000000	91.630086 
1100.000000	91.563869 
1099.000000	91.503494 
1098.000000	91.448897 
1097.000000	91.395128 
1096.000000	91.339403 
1095.000000	91.281637 
1094.000000	91.218473 
1093.000000	91.144466 
1092.000000	91.060958 
1091.000000	90.977301 
1090.000000	90.901108 
1089.000000	90.832208 
1088.000000	90.766646 
1087.000000	90.700652 
1086.000000	90.630503 
1085.000000	90.555437 
1084.000000	90.481554 
1083.000000	90.416066 
1082.000000	90.357030 
1081.000000	90.296037 
1080.000000	90.231585 
1079.000000	90.171467 
1078.000000	90.120523 
1077.000000	90.074677 
1076.000000	90.029327 
1075.000000	89.984973 
1074.000000	89.941862 
1073.000000	89.897180 
1072.000000	89.849121 
1071.000000	89.794126 
1070.000000	89.718406 
1069.000000	89.605071 
1068.000000	89.456520 
1067.000000	89.302007 
1066.000000	89.174976 
1065.000000	89.086393 
1064.000000	89.023996 
1063.000000	88.967184 
1062.000000	88.895726 
1061.000000	88.794118 
1060.000000	88.660532 
1059.000000	88.511530 
1058.000000	88.370639 
1057.000000	88.250486 
1056.000000	88.147493 
1055.000000	88.049759 
1054.000000	87.946749 
1053.000000	87.835538 
1052.000000	87.721785 
1051.000000	87.612824 
1050.000000	87.508849 
1049.000000	87.404499 
1048.000000	87.298132 
1047.000000	87.193232 
1046.000000	87.091577 
1045.000000	86.992021 
1044.000000	86.895164 
1043.000000	86.802126 
1042.000000	86.709273 
1041.000000	86.611312 
1040.000000	86.509937 
1039.000000	86.413522 
1038.000000	86.329076 
1037.000000	86.259941 
1036.000000	86.208261 
1035.000000	86.171827 
1034.000000	86.141143 
1033.000000	86.107522 
1032.000000	86.070371 
1031.000000	86.028848 
1030.000000	85.974445 
1029.000000	85.905556 
1028.000000	85.843402 
1027.000000	85.815703 
1026.000000	85.824754 
1025.000000	85.845712 
1024.000000	85.856336 
1023.000000	85.854062 
1022.000000	85.843761 
1021.000000	85.826538 
1020.000000	85.805113 
1019.000000	85.786036 
1018.000000	85.771127 
1017.000000	85.756905 
1016.000000	85.744682 
1015.000000	85.740326 
1014.000000	85.742688 
1013.000000	85.744062 
1012.000000	85.743555 
1011.000000	85.748117 
1010.000000	85.759187 
1009.000000	85.770688 
1008.000000	85.781858 
1007.000000	85.799865 
1006.000000	85.827816 
1005.000000	85.861740 
1004.000000	85.900545 
1003.000000	85.946686 
1002.000000	85.995629 
1001.000000	86.037643 
1000.000000	86.072765 
999.000000	 86.112040 
998.000000	 86.161249 
997.000000	 86.214703 
996.000000	 86.267360 
995.000000	 86.321820 
994.000000	 86.380721 
993.000000	 86.442771 
992.000000	 86.508416 
991.000000	 86.579304 
990.000000	 86.650968 
989.000000	 86.716696 
988.000000	 86.779572 
987.000000	 86.849730 
986.000000	 86.929348 
985.000000	 87.012230 
984.000000	 87.098154 
983.000000	 87.194056 
982.000000	 87.299837 
981.000000	 87.406364 
980.000000	 87.509959 
979.000000	 87.616396 
978.000000	 87.727453 
977.000000	 87.836590 
976.000000	 87.942206 
975.000000	 88.052984 
974.000000	 88.174773 
973.000000	 88.302678 
972.000000	 88.430953 
971.000000	 88.561123 
970.000000	 88.695335 
969.000000	 88.830199 
968.000000	 88.962006 
967.000000	 89.091146 
966.000000	 89.218199 
965.000000	 89.342511 
964.000000	 89.466737 
963.000000	 89.595470 
962.000000	 89.727379 
961.000000	 89.855906 
960.000000	 89.979069 
959.000000	 90.100947 
958.000000	 90.222376 
957.000000	 90.338500 
956.000000	 90.447469 
955.000000	 90.553780 
954.000000	 90.660781 
953.000000	 90.766648 
952.000000	 90.869406 
951.000000	 90.969030 
950.000000	 91.063432 
949.000000	 91.149561 
948.000000	 91.229682 
947.000000	 91.309509 
946.000000	 91.388999 
945.000000	 91.462098 
944.000000	 91.526620 
943.000000	 91.587406 
942.000000	 91.648795 
941.000000	 91.711011 
940.000000	 91.774918 
939.000000	 91.842558 
938.000000	 91.911291 
937.000000	 91.974894 
936.000000	 92.032645 
935.000000	 92.090871 
934.000000	 92.153750 
933.000000	 92.218952 
932.000000	 92.283755 
931.000000	 92.348856 
930.000000	 92.414297 
929.000000	 92.477665 
928.000000	 92.538595 
927.000000	 92.600029 
926.000000	 92.663122 
925.000000	 92.724864 
924.000000	 92.781384 
923.000000	 92.830087 
922.000000	 92.869616 
921.000000	 92.902527 
920.000000	 92.936568 
919.000000	 92.977547 
918.000000	 93.021461 
917.000000	 93.059011 
916.000000	 93.087464 
915.000000	 93.113315 
914.000000	 93.144749 
913.000000	 93.186796 
912.000000	 93.241787 
911.000000	 93.307805 
910.000000	 93.377721 
909.000000	 93.446428 
908.000000	 93.518295 
907.000000	 93.601783 
906.000000	 93.698700 
905.000000	 93.804248 
904.000000	 93.914430 
903.000000	 94.026697 
902.000000	 94.136520 
901.000000	 94.241347 
900.000000	 94.345937 
899.000000	 94.456822 
898.000000	 94.573471 
897.000000	 94.690158 
896.000000	 94.802559 
895.000000	 94.906332 
894.000000	 94.995373 
893.000000	 95.070645 
892.000000	 95.146069 
891.000000	 95.235399 
890.000000	 95.335443 
889.000000	 95.431094 
888.000000	 95.513106 
887.000000	 95.581510 
886.000000	 95.636874 
885.000000	 95.680323 
884.000000	 95.718967 
883.000000	 95.758442 
882.000000	 95.792466 
881.000000	 95.814034 
880.000000	 95.835349 
879.000000	 95.879634 
878.000000	 95.950823 
877.000000	 96.027687 
876.000000	 96.092168 
875.000000	 96.148462 
874.000000	 96.209010 
873.000000	 96.277888 
872.000000	 96.355785 
871.000000	 96.446815 
870.000000	 96.550190 
869.000000	 96.654906 
868.000000	 96.751077 
867.000000	 96.839409 
866.000000	 96.924406 
865.000000	 97.006719 
864.000000	 97.088031 
863.000000	 97.175423 
862.000000	 97.273131 
861.000000	 97.374588 
860.000000	 97.468654 
859.000000	 97.550608 
858.000000	 97.623652 
857.000000	 97.693282 
856.000000	 97.762828 
855.000000	 97.830953 
854.000000	 97.891633 
853.000000	 97.940286 
852.000000	 97.980528 
851.000000	 98.020612 
850.000000	 98.063682 
849.000000	 98.107221 
848.000000	 98.150765 
847.000000	 98.195909 
846.000000	 98.238765 
845.000000	 98.271946 
844.000000	 98.295858 
843.000000	 98.319165 
842.000000	 98.345442 
841.000000	 98.367608 
840.000000	 98.378390 
839.000000	 98.377927 
838.000000	 98.368316 
837.000000	 98.349962 
836.000000	 98.328202 
835.000000	 98.315147 
834.000000	 98.317863 
833.000000	 98.330006 
832.000000	 98.340332 
831.000000	 98.344187 
830.000000	 98.342688 
829.000000	 98.337615 
828.000000	 98.333738 
827.000000	 98.340648 
826.000000	 98.364146 
825.000000	 98.398384 
824.000000	 98.431948 
823.000000	 98.458267 
822.000000	 98.476677 
821.000000	 98.489146 
820.000000	 98.500060 
819.000000	 98.513005 
818.000000	 98.522832 
817.000000	 98.515565 
816.000000	 98.480782 
815.000000	 98.421580 
814.000000	 98.349392 
813.000000	 98.271065 
812.000000	 98.182815 
811.000000	 98.072839 
810.000000	 97.926506 
809.000000	 97.732862 
808.000000	 97.491521 
807.000000	 97.213838 
806.000000	 96.916317 
805.000000	 96.613869 
804.000000	 96.318836 
803.000000	 96.041113 
802.000000	 95.786747 
801.000000	 95.561352 
800.000000	 95.376283 
799.000000	 95.245006 
798.000000	 95.171318 
797.000000	 95.147085 
796.000000	 95.161682 
795.000000	 95.205751 
794.000000	 95.266180 
793.000000	 95.328359 
792.000000	 95.386295 
791.000000	 95.442323 
790.000000	 95.495114 
789.000000	 95.535540 
788.000000	 95.554750 
787.000000	 95.548014 
786.000000	 95.510710 
785.000000	 95.439848 
784.000000	 95.341365 
783.000000	 95.228197 
782.000000	 95.110515 
781.000000	 94.996162 
780.000000	 94.899326 
779.000000	 94.836330 
778.000000	 94.811140 
777.000000	 94.816831 
776.000000	 94.852678 
775.000000	 94.925730 
774.000000	 95.031923 
773.000000	 95.150161 
772.000000	 95.261726 
771.000000	 95.364227 
770.000000	 95.461099 
769.000000	 95.549718 
768.000000	 95.626805 
767.000000	 95.694496 
766.000000	 95.753180 
765.000000	 95.797627 
764.000000	 95.828146 
763.000000	 95.857597 
762.000000	 95.899332 
761.000000	 95.954016 
760.000000	 96.014042 
759.000000	 96.073896 
758.000000	 96.130505 
757.000000	 96.181440 
756.000000	 96.230558 
755.000000	 96.289228 
754.000000	 96.363255 
753.000000	 96.441649 
752.000000	 96.505085 
751.000000	 96.544121 
750.000000	 96.566533 
749.000000	 96.589821 
748.000000	 96.628386 
747.000000	 96.683632 
746.000000	 96.743856 
745.000000	 96.797336 
744.000000	 96.846199 
743.000000	 96.902315 
742.000000	 96.969765 
741.000000	 97.039214 
740.000000	 97.101220 
739.000000	 97.157117 
738.000000	 97.213545 
737.000000	 97.272591 
736.000000	 97.330990 
735.000000	 97.384379 
734.000000	 97.430030 
733.000000	 97.469400 
732.000000	 97.508131 
731.000000	 97.548329 
730.000000	 97.582424 
729.000000	 97.602283 
728.000000	 97.612122 
727.000000	 97.624795 
726.000000	 97.648032 
725.000000	 97.681818 
724.000000	 97.725971 
723.000000	 97.779360 
722.000000	 97.832489 
721.000000	 97.872789 
720.000000	 97.899476 
719.000000	 97.922914 
718.000000	 97.947489 
717.000000	 97.967530 
716.000000	 97.982365 
715.000000	 98.000973 
714.000000	 98.026943 
713.000000	 98.051856 
712.000000	 98.070093 
711.000000	 98.088675 
710.000000	 98.114633 
709.000000	 98.144580 
708.000000	 98.170414 
707.000000	 98.187714 
706.000000	 98.195118 
705.000000	 98.190997 
704.000000	 98.175449 
703.000000	 98.150347 
702.000000	 98.111296 
701.000000	 98.046237 
700.000000	 97.947848 
699.000000	 97.821094 
698.000000	 97.678394 
697.000000	 97.535223 
696.000000	 97.413090 
695.000000	 97.337525 
694.000000	 97.322035 
693.000000	 97.358120 
692.000000	 97.425291 
691.000000	 97.504485 
690.000000	 97.582843 
689.000000	 97.653350 
688.000000	 97.714957 
687.000000	 97.769772 
686.000000	 97.815977 
685.000000	 97.850114 
684.000000	 97.876499 
683.000000	 97.903956 
682.000000	 97.933940 
681.000000	 97.961102 
680.000000	 97.985043 
679.000000	 98.010883 
678.000000	 98.038818 
677.000000	 98.066604 
676.000000	 98.097528 
675.000000	 98.136045 
674.000000	 98.175187 
673.000000	 98.198932 
672.000000	 98.198148 
671.000000	 98.172494 
670.000000	 98.121952 
669.000000	 98.052597 
668.000000	 98.016917 
667.000000	 98.080506 
666.000000	 98.198669 
665.000000	 98.292623 
664.000000	 98.346049 
663.000000	 98.371166 
662.000000	 98.384887 
661.000000	 98.397955 
660.000000	 98.415797 
659.000000	 98.443501 
658.000000	 98.479333 
657.000000	 98.510010 
656.000000	 98.520344 
655.000000	 98.508100 
654.000000	 98.483980 
653.000000	 98.459662 
652.000000	 98.443717 
651.000000	 98.445708 
650.000000	 98.467796 

