4000.000000	98.040216 
3999.000000	98.039624 
3998.000000	98.036920 
3997.000000	98.033131 
3996.000000	98.029635 
3995.000000	98.027223 
3994.000000	98.026245 
3993.000000	98.026580 
3992.000000	98.027433 
3991.000000	98.028024 
3990.000000	98.028343 
3989.000000	98.028794 
3988.000000	98.029381 
3987.000000	98.029716 
3986.000000	98.029811 
3985.000000	98.030200 
3984.000000	98.031067 
3983.000000	98.031919 
3982.000000	98.032410 
3981.000000	98.032853 
3980.000000	98.033452 
3979.000000	98.033547 
3978.000000	98.032399 
3977.000000	98.030462 
3976.000000	98.029048 
3975.000000	98.028652 
3974.000000	98.028351 
3973.000000	98.027054 
3972.000000	98.024689 
3971.000000	98.021994 
3970.000000	98.019834 
3969.000000	98.018754 
3968.000000	98.018800 
3967.000000	98.019474 
3966.000000	98.020056 
3965.000000	98.020083 
3964.000000	98.019429 
3963.000000	98.018179 
3962.000000	98.016611 
3961.000000	98.015246 
3960.000000	98.014459 
3959.000000	98.014042 
3958.000000	98.013698 
3957.000000	98.013450 
3956.000000	98.013278 
3955.000000	98.012619 
3954.000000	98.010795 
3953.000000	98.007828 
3952.000000	98.004559 
3951.000000	98.002106 
3950.000000	98.001046 
3949.000000	98.001062 
3948.000000	98.001225 
3947.000000	98.000887 
3946.000000	98.000145 
3945.000000	97.999366 
3944.000000	97.998697 
3943.000000	97.998227 
3942.000000	97.998364 
3941.000000	97.999617 
3940.000000	98.001628 
3939.000000	98.002749 
3938.000000	98.001805 
3937.000000	97.999317 
3936.000000	97.996623 
3935.000000	97.994249 
3934.000000	97.992044 
3933.000000	97.990741 
3932.000000	97.991390 
3931.000000	97.993450 
3930.000000	97.994822 
3929.000000	97.994201 
3928.000000	97.992669 
3927.000000	97.991726 
3926.000000	97.991127 
3925.000000	97.989988 
3924.000000	97.988989 
3923.000000	97.989147 
3922.000000	97.989216 
3921.000000	97.987382 
3920.000000	97.984817 
3919.000000	97.984416 
3918.000000	97.986712 
3917.000000	97.989564 
3916.000000	97.991559 
3915.000000	97.993134 
3914.000000	97.994391 
3913.000000	97.994334 
3912.000000	97.992988 
3911.000000	97.991059 
3910.000000	97.989068 
3909.000000	97.986903 
3908.000000	97.984664 
3907.000000	97.982867 
3906.000000	97.981763 
3905.000000	97.981169 
3904.000000	97.980902 
3903.000000	97.981168 
3902.000000	97.981984 
3901.000000	97.982833 
3900.000000	97.983286 
3899.000000	97.983430 
3898.000000	97.983446 
3897.000000	97.983401 
3896.000000	97.983337 
3895.000000	97.983239 
3894.000000	97.983092 
3893.000000	97.982901 
3892.000000	97.982678 
3891.000000	97.982438 
3890.000000	97.982198 
3889.000000	97.981984 
3888.000000	97.981801 
3887.000000	97.981639 
3886.000000	97.981491 
3885.000000	97.981363 
3884.000000	97.981265 
3883.000000	97.981191 
3882.000000	97.981125 
3881.000000	97.981062 
3880.000000	97.981019 
3879.000000	97.981012 
3878.000000	97.981039 
3877.000000	97.981071 
3876.000000	97.981082 
3875.000000	97.981070 
3874.000000	97.981060 
3873.000000	97.981080 
3872.000000	97.981142 
3871.000000	97.981238 
3870.000000	97.981364 
3869.000000	97.981542 
3868.000000	97.981793 
3867.000000	97.982098 
3866.000000	97.982415 
3865.000000	97.982729 
3864.000000	97.983048 
3863.000000	97.983362 
3862.000000	97.983638 
3861.000000	97.983855 
3860.000000	97.984027 
3859.000000	97.984175 
3858.000000	97.984311 
3857.000000	97.984455 
3856.000000	97.984646 
3855.000000	97.984925 
3854.000000	97.985293 
3853.000000	97.985727 
3852.000000	97.986248 
3851.000000	97.986900 
3850.000000	97.987669 
3849.000000	97.988492 
3848.000000	97.989320 
3847.000000	97.990128 
3846.000000	97.990910 
3845.000000	97.991673 
3844.000000	97.992425 
3843.000000	97.993162 
3842.000000	97.993884 
3841.000000	97.994601 
3840.000000	97.995330 
3839.000000	97.996071 
3838.000000	97.996809 
3837.000000	97.997533 
3836.000000	97.998249 
3835.000000	97.998976 
3834.000000	97.999722 
3833.000000	98.000485 
3832.000000	98.001259 
3831.000000	98.002038 
3830.000000	98.002818 
3829.000000	98.003595 
3828.000000	98.004365 
3827.000000	98.005119 
3826.000000	98.005847 
3825.000000	98.006556 
3824.000000	98.007262 
3823.000000	98.007972 
3822.000000	98.008669 
3821.000000	98.009347 
3820.000000	98.010034 
3819.000000	98.010773 
3818.000000	98.011553 
3817.000000	98.012325 
3816.000000	98.013064 
3815.000000	98.013786 
3814.000000	98.014511 
3813.000000	98.015219 
3812.000000	98.015873 
3811.000000	98.016472 
3810.000000	98.017034 
3809.000000	98.017550 
3808.000000	98.017987 
3807.000000	98.018343 
3806.000000	98.018660 
3805.000000	98.018995 
3804.000000	98.019364 
3803.000000	98.019745 
3802.000000	98.020118 
3801.000000	98.020493 
3800.000000	98.020901 
3799.000000	98.021346 
3798.000000	98.021789 
3797.000000	98.022193 
3796.000000	98.022553 
3795.000000	98.022879 
3794.000000	98.023173 
3793.000000	98.023423 
3792.000000	98.023615 
3791.000000	98.023738 
3790.000000	98.023786 
3789.000000	98.023758 
3788.000000	98.023665 
3787.000000	98.023516 
3786.000000	98.023316 
3785.000000	98.023066 
3784.000000	98.022787 
3783.000000	98.022497 
3782.000000	98.022184 
3781.000000	98.021821 
3780.000000	98.021397 
3779.000000	98.020922 
3778.000000	98.020401 
3777.000000	98.019828 
3776.000000	98.019199 
3775.000000	98.018535 
3774.000000	98.017862 
3773.000000	98.017186 
3772.000000	98.016487 
3771.000000	98.015750 
3770.000000	98.014978 
3769.000000	98.014189 
3768.000000	98.013390 
3767.000000	98.012575 
3766.000000	98.011742 
3765.000000	98.010907 
3764.000000	98.010087 
3763.000000	98.009273 
3762.000000	98.008435 
3761.000000	98.007556 
3760.000000	98.006639 
3759.000000	98.005691 
3758.000000	98.004697 
3757.000000	98.003643 
3756.000000	98.002547 
3755.000000	98.001451 
3754.000000	98.000396 
3753.000000	97.999406 
3752.000000	97.998484 
3751.000000	97.997612 
3750.000000	97.996768 
3749.000000	97.995958 
3748.000000	97.995214 
3747.000000	97.994551 
3746.000000	97.993952 
3745.000000	97.993383 
3744.000000	97.992818 
3743.000000	97.992262 
3742.000000	97.991710 
3741.000000	97.991112 
3740.000000	97.990434 
3739.000000	97.989704 
3738.000000	97.988964 
3737.000000	97.988230 
3736.000000	97.987493 
3735.000000	97.986741 
3734.000000	97.985956 
3733.000000	97.985134 
3732.000000	97.984226 
3731.000000	97.983147 
3730.000000	97.982011 
3729.000000	97.980964 
3728.000000	97.979837 
3727.000000	97.978430 
3726.000000	97.976979 
3725.000000	97.975958 
3724.000000	97.975284 
3723.000000	97.974308 
3722.000000	97.972796 
3721.000000	97.971071 
3720.000000	97.969386 
3719.000000	97.967378 
3718.000000	97.964545 
3717.000000	97.961215 
3716.000000	97.958390 
3715.000000	97.956544 
3714.000000	97.955435 
3713.000000	97.955299 
3712.000000	97.955878 
3711.000000	97.955041 
3710.000000	97.951513 
3709.000000	97.946235 
3708.000000	97.940328 
3707.000000	97.934277 
3706.000000	97.928503 
3705.000000	97.923251 
3704.000000	97.918303 
3703.000000	97.913240 
3702.000000	97.907517 
3701.000000	97.901041 
3700.000000	97.894998 
3699.000000	97.890257 
3698.000000	97.885790 
3697.000000	97.880599 
3696.000000	97.875253 
3695.000000	97.870491 
3694.000000	97.865749 
3693.000000	97.860189 
3692.000000	97.854082 
3691.000000	97.848165 
3690.000000	97.842419 
3689.000000	97.836206 
3688.000000	97.829684 
3687.000000	97.823772 
3686.000000	97.818469 
3685.000000	97.812868 
3684.000000	97.806616 
3683.000000	97.800107 
3682.000000	97.793643 
3681.000000	97.787072 
3680.000000	97.780261 
3679.000000	97.773408 
3678.000000	97.766700 
3677.000000	97.760069 
3676.000000	97.753366 
3675.000000	97.746578 
3674.000000	97.739825 
3673.000000	97.733133 
3672.000000	97.726443 
3671.000000	97.719648 
3670.000000	97.712721 
3669.000000	97.705760 
3668.000000	97.699033 
3667.000000	97.692661 
3666.000000	97.686320 
3665.000000	97.679789 
3664.000000	97.673263 
3663.000000	97.666823 
3662.000000	97.660015 
3661.000000	97.652321 
3660.000000	97.644018 
3659.000000	97.636258 
3658.000000	97.629548 
3657.000000	97.622400 
3656.000000	97.612389 
3655.000000	97.601210 
3654.000000	97.592638 
3653.000000	97.584219 
3652.000000	97.571969 
3651.000000	97.560283 
3650.000000	97.555323 
3649.000000	97.553274 
3648.000000	97.547458 
3647.000000	97.540376 
3646.000000	97.538814 
3645.000000	97.543351 
3644.000000	97.548561 
3643.000000	97.549893 
3642.000000	97.548044 
3641.000000	97.546022 
3640.000000	97.544048 
3639.000000	97.539186 
3638.000000	97.530500 
3637.000000	97.522111 
3636.000000	97.516037 
3635.000000	97.507093 
3634.000000	97.489843 
3633.000000	97.467905 
3632.000000	97.449630 
3631.000000	97.438658 
3630.000000	97.435623 
3629.000000	97.433214 
3628.000000	97.425909 
3627.000000	97.427646 
3626.000000	97.440213 
3625.000000	97.445047 
3624.000000	97.437182 
3623.000000	97.425783 
3622.000000	97.416443 
3621.000000	97.407850 
3620.000000	97.399182 
3619.000000	97.392037 
3618.000000	97.389591 
3617.000000	97.396044 
3616.000000	97.410019 
3615.000000	97.424994 
3614.000000	97.436920 
3613.000000	97.446215 
3612.000000	97.455049 
3611.000000	97.463778 
3610.000000	97.470514 
3609.000000	97.474976 
3608.000000	97.479416 
3607.000000	97.485229 
3606.000000	97.491100 
3605.000000	97.494852 
3604.000000	97.497580 
3603.000000	97.503230 
3602.000000	97.511934 
3601.000000	97.518103 
3600.000000	97.517505 
3599.000000	97.511920 
3598.000000	97.505783 
3597.000000	97.503745 
3596.000000	97.508154 
3595.000000	97.516575 
3594.000000	97.523126 
3593.000000	97.523826 
3592.000000	97.518578 
3591.000000	97.509045 
3590.000000	97.498263 
3589.000000	97.491140 
3588.000000	97.491387 
3587.000000	97.498131 
3586.000000	97.508715 
3585.000000	97.520222 
3584.000000	97.528988 
3583.000000	97.533755 
3582.000000	97.536467 
3581.000000	97.539012 
3580.000000	97.541146 
3579.000000	97.541787 
3578.000000	97.540643 
3577.000000	97.538732 
3576.000000	97.537407 
3575.000000	97.536643 
3574.000000	97.534964 
3573.000000	97.530672 
3572.000000	97.523248 
3571.000000	97.513708 
3570.000000	97.504401 
3569.000000	97.498433 
3568.000000	97.498359 
3567.000000	97.503886 
3566.000000	97.511983 
3565.000000	97.519559 
3564.000000	97.524132 
3563.000000	97.524861 
3562.000000	97.523568 
3561.000000	97.522877 
3560.000000	97.523682 
3559.000000	97.524967 
3558.000000	97.525446 
3557.000000	97.524789 
3556.000000	97.523836 
3555.000000	97.523544 
3554.000000	97.523856 
3553.000000	97.523693 
3552.000000	97.522058 
3551.000000	97.518916 
3550.000000	97.514821 
3549.000000	97.510526 
3548.000000	97.507569 
3547.000000	97.507688 
3546.000000	97.510716 
3545.000000	97.514491 
3544.000000	97.517291 
3543.000000	97.519023 
3542.000000	97.520095 
3541.000000	97.520502 
3540.000000	97.520307 
3539.000000	97.519901 
3538.000000	97.519563 
3537.000000	97.519317 
3536.000000	97.519134 
3535.000000	97.519006 
3534.000000	97.518610 
3533.000000	97.517638 
3532.000000	97.516464 
3531.000000	97.516014 
3530.000000	97.516461 
3529.000000	97.516620 
3528.000000	97.515289 
3527.000000	97.512822 
3526.000000	97.510830 
3525.000000	97.510535 
3524.000000	97.512037 
3523.000000	97.514673 
3522.000000	97.517537 
3521.000000	97.519813 
3520.000000	97.521196 
3519.000000	97.521958 
3518.000000	97.522438 
3517.000000	97.522524 
3516.000000	97.521743 
3515.000000	97.519986 
3514.000000	97.517986 
3513.000000	97.516803 
3512.000000	97.516745 
3511.000000	97.517165 
3510.000000	97.517260 
3509.000000	97.516891 
3508.000000	97.516544 
3507.000000	97.516509 
3506.000000	97.516352 
3505.000000	97.515501 
3504.000000	97.514135 
3503.000000	97.513120 
3502.000000	97.513134 
3501.000000	97.514083 
3500.000000	97.515350 
3499.000000	97.516459 
3498.000000	97.517328 
3497.000000	97.517893 
3496.000000	97.517822 
3495.000000	97.516812 
3494.000000	97.515093 
3493.000000	97.513439 
3492.000000	97.512456 
3491.000000	97.512065 
3490.000000	97.511792 
3489.000000	97.511337 
3488.000000	97.510714 
3487.000000	97.509961 
3486.000000	97.509018 
3485.000000	97.507950 
3484.000000	97.507023 
3483.000000	97.506444 
3482.000000	97.506154 
3481.000000	97.505975 
3480.000000	97.505822 
3479.000000	97.505627 
3478.000000	97.505193 
3477.000000	97.504337 
3476.000000	97.503104 
3475.000000	97.501765 
3474.000000	97.500614 
3473.000000	97.499778 
3472.000000	97.499171 
3471.000000	97.498555 
3470.000000	97.497714 
3469.000000	97.496621 
3468.000000	97.495463 
3467.000000	97.494479 
3466.000000	97.493778 
3465.000000	97.493267 
3464.000000	97.492681 
3463.000000	97.491776 
3462.000000	97.490512 
3461.000000	97.489102 
3460.000000	97.487827 
3459.000000	97.486752 
3458.000000	97.485699 
3457.000000	97.484459 
3456.000000	97.483017 
3455.000000	97.481585 
3454.000000	97.480393 
3453.000000	97.479500 
3452.000000	97.478813 
3451.000000	97.478241 
3450.000000	97.477723 
3449.000000	97.477112 
3448.000000	97.476202 
3447.000000	97.474918 
3446.000000	97.473421 
3445.000000	97.471989 
3444.000000	97.470808 
3443.000000	97.469940 
3442.000000	97.469323 
3441.000000	97.468695 
3440.000000	97.467686 
3439.000000	97.466098 
3438.000000	97.464120 
3437.000000	97.462174 
3436.000000	97.460583 
3435.000000	97.459544 
3434.000000	97.459168 
3433.000000	97.459263 
3432.000000	97.459260 
3431.000000	97.458660 
3430.000000	97.457538 
3429.000000	97.456450 
3428.000000	97.455825 
3427.000000	97.455588 
3426.000000	97.455470 
3425.000000	97.455476 
3424.000000	97.455744 
3423.000000	97.455982 
3422.000000	97.455536 
3421.000000	97.454221 
3420.000000	97.452729 
3419.000000	97.451965 
3418.000000	97.452051 
3417.000000	97.452366 
3416.000000	97.452377 
3415.000000	97.452039 
3414.000000	97.451411 
3413.000000	97.450365 
3412.000000	97.448908 
3411.000000	97.447399 
3410.000000	97.446238 
3409.000000	97.445539 
3408.000000	97.445181 
3407.000000	97.444924 
3406.000000	97.444444 
3405.000000	97.443587 
3404.000000	97.442640 
3403.000000	97.442092 
3402.000000	97.442073 
3401.000000	97.442283 
3400.000000	97.442448 
3399.000000	97.442561 
3398.000000	97.442659 
3397.000000	97.442682 
3396.000000	97.442660 
3395.000000	97.442803 
3394.000000	97.443244 
3393.000000	97.443810 
3392.000000	97.444168 
3391.000000	97.444163 
3390.000000	97.443949 
3389.000000	97.443844 
3388.000000	97.444090 
3387.000000	97.444715 
3386.000000	97.445522 
3385.000000	97.446171 
3384.000000	97.446324 
3383.000000	97.445837 
3382.000000	97.444992 
3381.000000	97.444471 
3380.000000	97.444787 
3379.000000	97.445792 
3378.000000	97.446838 
3377.000000	97.447582 
3376.000000	97.448299 
3375.000000	97.449234 
3374.000000	97.450051 
3373.000000	97.450242 
3372.000000	97.449883 
3371.000000	97.449704 
3370.000000	97.450339 
3369.000000	97.451774 
3368.000000	97.453491 
3367.000000	97.454976 
3366.000000	97.456067 
3365.000000	97.456903 
3364.000000	97.457701 
3363.000000	97.458531 
3362.000000	97.459276 
3361.000000	97.459845 
3360.000000	97.460390 
3359.000000	97.461211 
3358.000000	97.462411 
3357.000000	97.463728 
3356.000000	97.464735 
3355.000000	97.465226 
3354.000000	97.465428 
3353.000000	97.465914 
3352.000000	97.467245 
3351.000000	97.469575 
3350.000000	97.472513 
3349.000000	97.475326 
3348.000000	97.477420 
3347.000000	97.478680 
3346.000000	97.479413 
3345.000000	97.480068 
3344.000000	97.480845 
3343.000000	97.481501 
3342.000000	97.481664 
3341.000000	97.481336 
3340.000000	97.480949 
3339.000000	97.480865 
3338.000000	97.481086 
3337.000000	97.481513 
3336.000000	97.482191 
3335.000000	97.483187 
3334.000000	97.484404 
3333.000000	97.485651 
3332.000000	97.486843 
3331.000000	97.487982 
3330.000000	97.489006 
3329.000000	97.489780 
3328.000000	97.490292 
3327.000000	97.490765 
3326.000000	97.491484 
3325.000000	97.492502 
3324.000000	97.493560 
3323.000000	97.494338 
3322.000000	97.494796 
3321.000000	97.495208 
3320.000000	97.495858 
3319.000000	97.496764 
3318.000000	97.497754 
3317.000000	97.498698 
3316.000000	97.499584 
3315.000000	97.500429 
3314.000000	97.501223 
3313.000000	97.501979 
3312.000000	97.502752 
3311.000000	97.503581 
3310.000000	97.504457 
3309.000000	97.505338 
3308.000000	97.506163 
3307.000000	97.506868 
3306.000000	97.507450 
3305.000000	97.507984 
3304.000000	97.508581 
3303.000000	97.509307 
3302.000000	97.510157 
3301.000000	97.511094 
3300.000000	97.512063 
3299.000000	97.512993 
3298.000000	97.513820 
3297.000000	97.514516 
3296.000000	97.515155 
3295.000000	97.515879 
3294.000000	97.516785 
3293.000000	97.517884 
3292.000000	97.519110 
3291.000000	97.520350 
3290.000000	97.521469 
3289.000000	97.522374 
3288.000000	97.523083 
3287.000000	97.523718 
3286.000000	97.524377 
3285.000000	97.525048 
3284.000000	97.525674 
3283.000000	97.526266 
3282.000000	97.526932 
3281.000000	97.527783 
3280.000000	97.528799 
3279.000000	97.529813 
3278.000000	97.530692 
3277.000000	97.531479 
3276.000000	97.532309 
3275.000000	97.533210 
3274.000000	97.534081 
3273.000000	97.534880 
3272.000000	97.535736 
3271.000000	97.536794 
3270.000000	97.538024 
3269.000000	97.539251 
3268.000000	97.540330 
3267.000000	97.541272 
3266.000000	97.542207 
3265.000000	97.543272 
3264.000000	97.544494 
3263.000000	97.545750 
3262.000000	97.546870 
3261.000000	97.547817 
3260.000000	97.548691 
3259.000000	97.549595 
3258.000000	97.550531 
3257.000000	97.551478 
3256.000000	97.552462 
3255.000000	97.553502 
3254.000000	97.554555 
3253.000000	97.555579 
3252.000000	97.556587 
3251.000000	97.557615 
3250.000000	97.558668 
3249.000000	97.559728 
3248.000000	97.560789 
3247.000000	97.561859 
3246.000000	97.562941 
3245.000000	97.564038 
3244.000000	97.565146 
3243.000000	97.566261 
3242.000000	97.567380 
3241.000000	97.568500 
3240.000000	97.569619 
3239.000000	97.570738 
3238.000000	97.571859 
3237.000000	97.572982 
3236.000000	97.574108 
3235.000000	97.575233 
3234.000000	97.576356 
3233.000000	97.577473 
3232.000000	97.578586 
3231.000000	97.579696 
3230.000000	97.580803 
3229.000000	97.581903 
3228.000000	97.582997 
3227.000000	97.584088 
3226.000000	97.585186 
3225.000000	97.586305 
3224.000000	97.587447 
3223.000000	97.588597 
3222.000000	97.589736 
3221.000000	97.590860 
3220.000000	97.591986 
3219.000000	97.593130 
3218.000000	97.594286 
3217.000000	97.595437 
3216.000000	97.596572 
3215.000000	97.597703 
3214.000000	97.598872 
3213.000000	97.600135 
3212.000000	97.601516 
3211.000000	97.602948 
3210.000000	97.604291 
3209.000000	97.605461 
3208.000000	97.606512 
3207.000000	97.607570 
3206.000000	97.608681 
3205.000000	97.609794 
3204.000000	97.610873 
3203.000000	97.611979 
3202.000000	97.613241 
3201.000000	97.614723 
3200.000000	97.616328 
3199.000000	97.617838 
3198.000000	97.619130 
3197.000000	97.620301 
3196.000000	97.621546 
3195.000000	97.622955 
3194.000000	97.624505 
3193.000000	97.626169 
3192.000000	97.627915 
3191.000000	97.629608 
3190.000000	97.631077 
3189.000000	97.632287 
3188.000000	97.633391 
3187.000000	97.634600 
3186.000000	97.636042 
3185.000000	97.637739 
3184.000000	97.639561 
3183.000000	97.641307 
3182.000000	97.642891 
3181.000000	97.644386 
3180.000000	97.645886 
3179.000000	97.647393 
3178.000000	97.648872 
3177.000000	97.650348 
3176.000000	97.651886 
3175.000000	97.653503 
3174.000000	97.655167 
3173.000000	97.656830 
3172.000000	97.658438 
3171.000000	97.659951 
3170.000000	97.661377 
3169.000000	97.662780 
3168.000000	97.664205 
3167.000000	97.665647 
3166.000000	97.667090 
3165.000000	97.668533 
3164.000000	97.669977 
3163.000000	97.671415 
3162.000000	97.672844 
3161.000000	97.674260 
3160.000000	97.675663 
3159.000000	97.677053 
3158.000000	97.678435 
3157.000000	97.679813 
3156.000000	97.681188 
3155.000000	97.682556 
3154.000000	97.683915 
3153.000000	97.685262 
3152.000000	97.686600 
3151.000000	97.687931 
3150.000000	97.689253 
3149.000000	97.690564 
3148.000000	97.691867 
3147.000000	97.693173 
3146.000000	97.694490 
3145.000000	97.695818 
3144.000000	97.697143 
3143.000000	97.698449 
3142.000000	97.699725 
3141.000000	97.700969 
3140.000000	97.702188 
3139.000000	97.703390 
3138.000000	97.704582 
3137.000000	97.705764 
3136.000000	97.706938 
3135.000000	97.708104 
3134.000000	97.709262 
3133.000000	97.710414 
3132.000000	97.711563 
3131.000000	97.712711 
3130.000000	97.713863 
3129.000000	97.715019 
3128.000000	97.716178 
3127.000000	97.717345 
3126.000000	97.718518 
3125.000000	97.719692 
3124.000000	97.720872 
3123.000000	97.722053 
3122.000000	97.723198 
3121.000000	97.724256 
3120.000000	97.725235 
3119.000000	97.726230 
3118.000000	97.727319 
3117.000000	97.728494 
3116.000000	97.729687 
3115.000000	97.730863 
3114.000000	97.732035 
3113.000000	97.733227 
3112.000000	97.734460 
3111.000000	97.735733 
3110.000000	97.736986 
3109.000000	97.738125 
3108.000000	97.739141 
3107.000000	97.740192 
3106.000000	97.741436 
3105.000000	97.742783 
3104.000000	97.743897 
3103.000000	97.744521 
3102.000000	97.744736 
3101.000000	97.744852 
3100.000000	97.745073 
3099.000000	97.745426 
3098.000000	97.745991 
3097.000000	97.747031 
3096.000000	97.748699 
3095.000000	97.750695 
3094.000000	97.752413 
3093.000000	97.753519 
3092.000000	97.754204 
3091.000000	97.754830 
3090.000000	97.755459 
3089.000000	97.755910 
3088.000000	97.756117 
3087.000000	97.756299 
3086.000000	97.756799 
3085.000000	97.757770 
3084.000000	97.758959 
3083.000000	97.759819 
3082.000000	97.760015 
3081.000000	97.759880 
3080.000000	97.760220 
3079.000000	97.761377 
3078.000000	97.762749 
3077.000000	97.763718 
3076.000000	97.764700 
3075.000000	97.766388 
3074.000000	97.768236 
3073.000000	97.768857 
3072.000000	97.767919 
3071.000000	97.766569 
3070.000000	97.765919 
3069.000000	97.766176 
3068.000000	97.767358 
3067.000000	97.769564 
3066.000000	97.772044 
3065.000000	97.773217 
3064.000000	97.772276 
3063.000000	97.769905 
3062.000000	97.767116 
3061.000000	97.764357 
3060.000000	97.762128 
3059.000000	97.761383 
3058.000000	97.762714 
3057.000000	97.765756 
3056.000000	97.769471 
3055.000000	97.772310 
3054.000000	97.772346 
3053.000000	97.768779 
3052.000000	97.763798 
3051.000000	97.761383 
3050.000000	97.763188 
3049.000000	97.766641 
3048.000000	97.767865 
3047.000000	97.765485 
3046.000000	97.760735 
3045.000000	97.755256 
3044.000000	97.750335 
3043.000000	97.747645 
3042.000000	97.748786 
3041.000000	97.753267 
3040.000000	97.757804 
3039.000000	97.758700 
3038.000000	97.754846 
3037.000000	97.748145 
3036.000000	97.741201 
3035.000000	97.734893 
3034.000000	97.728590 
3033.000000	97.722196 
3032.000000	97.716887 
3031.000000	97.713687 
3030.000000	97.712116 
3029.000000	97.710603 
3028.000000	97.707482 
3027.000000	97.701377 
3026.000000	97.691799 
3025.000000	97.680221 
3024.000000	97.669633 
3023.000000	97.661804 
3022.000000	97.655643 
3021.000000	97.649466 
3020.000000	97.643845 
3019.000000	97.640288 
3018.000000	97.637546 
3017.000000	97.631753 
3016.000000	97.620924 
3015.000000	97.607507 
3014.000000	97.595808 
3013.000000	97.588143 
3012.000000	97.583947 
3011.000000	97.580974 
3010.000000	97.576433 
3009.000000	97.568275 
3008.000000	97.556516 
3007.000000	97.542989 
3006.000000	97.529453 
3005.000000	97.516662 
3004.000000	97.505326 
3003.000000	97.496522 
3002.000000	97.490427 
3001.000000	97.485686 
3000.000000	97.480691 
2999.000000	97.474558 
2998.000000	97.466559 
2997.000000	97.456055 
2996.000000	97.443837 
2995.000000	97.432292 
2994.000000	97.422836 
2993.000000	97.413802 
2992.000000	97.402119 
2991.000000	97.387069 
2990.000000	97.371701 
2989.000000	97.360612 
2988.000000	97.356706 
2987.000000	97.359575 
2986.000000	97.366161 
2985.000000	97.372945 
2984.000000	97.377935 
2983.000000	97.380930 
2982.000000	97.382580 
2981.000000	97.383684 
2980.000000	97.384820 
2979.000000	97.385543 
2978.000000	97.384182 
2977.000000	97.379640 
2976.000000	97.373542 
2975.000000	97.369425 
2974.000000	97.369522 
2973.000000	97.373343 
2972.000000	97.379330 
2971.000000	97.386338 
2970.000000	97.393078 
2969.000000	97.398044 
2968.000000	97.401334 
2967.000000	97.405295 
2966.000000	97.411947 
2965.000000	97.420526 
2964.000000	97.428702 
2963.000000	97.435520 
2962.000000	97.441832 
2961.000000	97.448281 
2960.000000	97.454429 
2959.000000	97.460049 
2958.000000	97.466152 
2957.000000	97.474048 
2956.000000	97.483516 
2955.000000	97.492216 
2954.000000	97.497371 
2953.000000	97.498677 
2952.000000	97.499352 
2951.000000	97.503318 
2950.000000	97.510814 
2949.000000	97.517845 
2948.000000	97.520569 
2947.000000	97.519117 
2946.000000	97.516598 
2945.000000	97.515548 
2944.000000	97.516455 
2943.000000	97.518686 
2942.000000	97.521010 
2941.000000	97.521622 
2940.000000	97.519586 
2939.000000	97.516565 
2938.000000	97.515613 
2937.000000	97.517731 
2936.000000	97.520777 
2935.000000	97.522104 
2934.000000	97.521102 
2933.000000	97.518658 
2932.000000	97.515443 
2931.000000	97.511904 
2930.000000	97.509225 
2929.000000	97.508940 
2928.000000	97.511340 
2927.000000	97.514904 
2926.000000	97.517620 
2925.000000	97.518805 
2924.000000	97.519492 
2923.000000	97.521037 
2922.000000	97.523376 
2921.000000	97.524932 
2920.000000	97.524537 
2919.000000	97.523124 
2918.000000	97.522727 
2917.000000	97.523612 
2916.000000	97.523343 
2915.000000	97.519505 
2914.000000	97.512908 
2913.000000	97.507164 
2912.000000	97.504957 
2911.000000	97.505576 
2910.000000	97.506342 
2909.000000	97.505879 
2908.000000	97.505264 
2907.000000	97.506031 
2906.000000	97.507755 
2905.000000	97.507919 
2904.000000	97.504253 
2903.000000	97.497485 
2902.000000	97.491735 
2901.000000	97.491590 
2900.000000	97.498427 
2899.000000	97.509494 
2898.000000	97.520305 
2897.000000	97.528074 
2896.000000	97.532653 
2895.000000	97.534998 
2894.000000	97.536257 
2893.000000	97.538158 
2892.000000	97.542528 
2891.000000	97.549316 
2890.000000	97.556019 
2889.000000	97.560297 
2888.000000	97.562587 
2887.000000	97.564856 
2886.000000	97.567329 
2885.000000	97.568369 
2884.000000	97.567890 
2883.000000	97.568797 
2882.000000	97.573714 
2881.000000	97.581736 
2880.000000	97.589963 
2879.000000	97.597492 
2878.000000	97.605825 
2877.000000	97.615416 
2876.000000	97.623993 
2875.000000	97.629245 
2874.000000	97.631704 
2873.000000	97.633811 
2872.000000	97.637000 
2871.000000	97.640870 
2870.000000	97.644750 
2869.000000	97.648685 
2868.000000	97.652769 
2867.000000	97.656649 
2866.000000	97.660105 
2865.000000	97.663512 
2864.000000	97.667490 
2863.000000	97.672612 
2862.000000	97.679516 
2861.000000	97.688442 
2860.000000	97.698299 
2859.000000	97.707080 
2858.000000	97.713900 
2857.000000	97.720116 
2856.000000	97.727718 
2855.000000	97.736897 
2854.000000	97.745972 
2853.000000	97.753437 
2852.000000	97.759111 
2851.000000	97.763340 
2850.000000	97.766230 
2849.000000	97.768213 
2848.000000	97.770646 
2847.000000	97.774930 
2846.000000	97.780993 
2845.000000	97.787146 
2844.000000	97.791626 
2843.000000	97.794187 
2842.000000	97.796188 
2841.000000	97.799136 
2840.000000	97.803097 
2839.000000	97.806655 
2838.000000	97.808561 
2837.000000	97.809214 
2836.000000	97.810317 
2835.000000	97.813173 
2834.000000	97.817644 
2833.000000	97.822813 
2832.000000	97.828037 
2831.000000	97.832996 
2830.000000	97.837060 
2829.000000	97.839341 
2828.000000	97.839600 
2827.000000	97.838880 
2826.000000	97.839008 
2825.000000	97.841309 
2824.000000	97.845577 
2823.000000	97.850118 
2822.000000	97.852965 
2821.000000	97.853317 
2820.000000	97.851973 
2819.000000	97.850475 
2818.000000	97.849882 
2817.000000	97.850381 
2816.000000	97.851778 
2815.000000	97.853863 
2814.000000	97.856190 
2813.000000	97.857861 
2812.000000	97.858052 
2811.000000	97.856881 
2810.000000	97.855582 
2809.000000	97.855571 
2808.000000	97.857288 
2807.000000	97.860063 
2806.000000	97.862949 
2805.000000	97.865477 
2804.000000	97.867589 
2803.000000	97.869190 
2802.000000	97.870163 
2801.000000	97.870737 
2800.000000	97.871445 
2799.000000	97.872544 
2798.000000	97.873685 
2797.000000	97.874349 
2796.000000	97.874492 
2795.000000	97.874617 
2794.000000	97.875259 
2793.000000	97.876483 
2792.000000	97.877940 
2791.000000	97.879220 
2790.000000	97.880170 
2789.000000	97.880899 
2788.000000	97.881596 
2787.000000	97.882389 
2786.000000	97.883303 
2785.000000	97.884294 
2784.000000	97.885300 
2783.000000	97.886277 
2782.000000	97.887214 
2781.000000	97.888125 
2780.000000	97.889029 
2779.000000	97.889936 
2778.000000	97.890849 
2777.000000	97.891762 
2776.000000	97.892661 
2775.000000	97.893536 
2774.000000	97.894398 
2773.000000	97.895265 
2772.000000	97.896132 
2771.000000	97.896972 
2770.000000	97.897797 
2769.000000	97.898682 
2768.000000	97.899688 
2767.000000	97.900752 
2766.000000	97.901722 
2765.000000	97.902514 
2764.000000	97.903195 
2763.000000	97.903869 
2762.000000	97.904542 
2761.000000	97.905156 
2760.000000	97.905730 
2759.000000	97.906408 
2758.000000	97.907325 
2757.000000	97.908408 
2756.000000	97.909346 
2755.000000	97.909870 
2754.000000	97.910094 
2753.000000	97.910484 
2752.000000	97.911355 
2751.000000	97.912532 
2750.000000	97.913660 
2749.000000	97.914691 
2748.000000	97.915727 
2747.000000	97.916471 
2746.000000	97.916419 
2745.000000	97.915589 
2744.000000	97.914715 
2743.000000	97.914520 
2742.000000	97.915007 
2741.000000	97.915654 
2740.000000	97.916065 
2739.000000	97.916280 
2738.000000	97.916517 
2737.000000	97.916868 
2736.000000	97.917284 
2735.000000	97.917690 
2734.000000	97.918087 
2733.000000	97.918581 
2732.000000	97.919279 
2731.000000	97.920130 
2730.000000	97.920953 
2729.000000	97.921642 
2728.000000	97.922248 
2727.000000	97.922759 
2726.000000	97.922992 
2725.000000	97.922843 
2724.000000	97.922539 
2723.000000	97.922445 
2722.000000	97.922644 
2721.000000	97.922918 
2720.000000	97.923122 
2719.000000	97.923382 
2718.000000	97.923853 
2717.000000	97.924452 
2716.000000	97.924947 
2715.000000	97.925261 
2714.000000	97.925521 
2713.000000	97.925864 
2712.000000	97.926264 
2711.000000	97.926599 
2710.000000	97.926817 
2709.000000	97.926984 
2708.000000	97.927190 
2707.000000	97.927478 
2706.000000	97.927854 
2705.000000	97.928310 
2704.000000	97.928789 
2703.000000	97.929179 
2702.000000	97.929412 
2701.000000	97.929579 
2700.000000	97.929891 
2699.000000	97.930472 
2698.000000	97.931215 
2697.000000	97.931830 
2696.000000	97.932108 
2695.000000	97.932089 
2694.000000	97.932019 
2693.000000	97.932093 
2692.000000	97.932269 
2691.000000	97.932371 
2690.000000	97.932321 
2689.000000	97.932215 
2688.000000	97.932174 
2687.000000	97.932184 
2686.000000	97.932179 
2685.000000	97.932189 
2684.000000	97.932292 
2683.000000	97.932445 
2682.000000	97.932483 
2681.000000	97.932318 
2680.000000	97.932074 
2679.000000	97.931973 
2678.000000	97.932143 
2677.000000	97.932571 
2676.000000	97.933117 
2675.000000	97.933524 
2674.000000	97.933552 
2673.000000	97.933185 
2672.000000	97.932687 
2671.000000	97.932311 
2670.000000	97.932062 
2669.000000	97.931832 
2668.000000	97.931607 
2667.000000	97.931417 
2666.000000	97.931164 
2665.000000	97.930693 
2664.000000	97.930019 
2663.000000	97.929360 
2662.000000	97.928918 
2661.000000	97.928692 
2660.000000	97.928517 
2659.000000	97.928218 
2658.000000	97.927737 
2657.000000	97.927139 
2656.000000	97.926547 
2655.000000	97.926037 
2654.000000	97.925573 
2653.000000	97.925071 
2652.000000	97.924513 
2651.000000	97.923960 
2650.000000	97.923480 
2649.000000	97.923075 
2648.000000	97.922687 
2647.000000	97.922250 
2646.000000	97.921732 
2645.000000	97.921137 
2644.000000	97.920498 
2643.000000	97.919873 
2642.000000	97.919323 
2641.000000	97.918863 
2640.000000	97.918460 
2639.000000	97.918060 
2638.000000	97.917640 
2637.000000	97.917204 
2636.000000	97.916758 
2635.000000	97.916302 
2634.000000	97.915835 
2633.000000	97.915357 
2632.000000	97.914871 
2631.000000	97.914386 
2630.000000	97.913908 
2629.000000	97.913444 
2628.000000	97.912997 
2627.000000	97.912571 
2626.000000	97.912165 
2625.000000	97.911779 
2624.000000	97.911414 
2623.000000	97.911070 
2622.000000	97.910741 
2621.000000	97.910422 
2620.000000	97.910105 
2619.000000	97.909793 
2618.000000	97.909498 
2617.000000	97.909235 
2616.000000	97.909013 
2615.000000	97.908829 
2614.000000	97.908668 
2613.000000	97.908516 
2612.000000	97.908366 
2611.000000	97.908223 
2610.000000	97.908091 
2609.000000	97.907977 
2608.000000	97.907882 
2607.000000	97.907800 
2606.000000	97.907716 
2605.000000	97.907625 
2604.000000	97.907535 
2603.000000	97.907453 
2602.000000	97.907380 
2601.000000	97.907333 
2600.000000	97.907358 
2599.000000	97.907456 
2598.000000	97.907524 
2597.000000	97.907454 
2596.000000	97.907270 
2595.000000	97.907083 
2594.000000	97.906907 
2593.000000	97.906704 
2592.000000	97.906629 
2591.000000	97.906932 
2590.000000	97.907584 
2589.000000	97.908186 
2588.000000	97.908405 
2587.000000	97.908309 
2586.000000	97.908209 
2585.000000	97.908379 
2584.000000	97.908968 
2583.000000	97.909952 
2582.000000	97.911041 
2581.000000	97.911852 
2580.000000	97.912321 
2579.000000	97.912759 
2578.000000	97.913447 
2577.000000	97.914317 
2576.000000	97.915080 
2575.000000	97.915417 
2574.000000	97.915046 
2573.000000	97.913913 
2572.000000	97.912424 
2571.000000	97.911260 
2570.000000	97.910904 
2569.000000	97.911434 
2568.000000	97.912654 
2567.000000	97.914130 
2566.000000	97.915202 
2565.000000	97.915425 
2564.000000	97.915043 
2563.000000	97.914764 
2562.000000	97.914991 
2561.000000	97.915614 
2560.000000	97.916555 
2559.000000	97.918023 
2558.000000	97.919994 
2557.000000	97.921831 
2556.000000	97.922881 
2555.000000	97.923195 
2554.000000	97.923332 
2553.000000	97.923573 
2552.000000	97.923687 
2551.000000	97.923567 
2550.000000	97.923623 
2549.000000	97.924236 
2548.000000	97.925081 
2547.000000	97.925432 
2546.000000	97.925120 
2545.000000	97.924776 
2544.000000	97.924968 
2543.000000	97.925472 
2542.000000	97.925708 
2541.000000	97.925574 
2540.000000	97.925520 
2539.000000	97.925869 
2538.000000	97.926445 
2537.000000	97.926944 
2536.000000	97.927364 
2535.000000	97.927887 
2534.000000	97.928493 
2533.000000	97.928956 
2532.000000	97.929160 
2531.000000	97.929243 
2530.000000	97.929395 
2529.000000	97.929638 
2528.000000	97.929874 
2527.000000	97.930095 
2526.000000	97.930440 
2525.000000	97.931031 
2524.000000	97.931820 
2523.000000	97.932590 
2522.000000	97.933140 
2521.000000	97.933438 
2520.000000	97.933611 
2519.000000	97.933831 
2518.000000	97.934194 
2517.000000	97.934662 
2516.000000	97.935067 
2515.000000	97.935206 
2514.000000	97.935055 
2513.000000	97.934893 
2512.000000	97.935083 
2511.000000	97.935750 
2510.000000	97.936789 
2509.000000	97.938054 
2508.000000	97.939366 
2507.000000	97.940395 
2506.000000	97.940874 
2505.000000	97.941009 
2504.000000	97.941445 
2503.000000	97.942543 
2502.000000	97.943868 
2501.000000	97.944660 
2500.000000	97.944736 
2499.000000	97.944588 
2498.000000	97.944689 
2497.000000	97.945007 
2496.000000	97.945338 
2495.000000	97.945704 
2494.000000	97.946187 
2493.000000	97.946672 
2492.000000	97.947063 
2491.000000	97.947583 
2490.000000	97.948558 
2489.000000	97.949896 
2488.000000	97.951002 
2487.000000	97.951359 
2486.000000	97.951072 
2485.000000	97.950816 
2484.000000	97.951204 
2483.000000	97.952211 
2482.000000	97.953238 
2481.000000	97.953782 
2480.000000	97.953937 
2479.000000	97.954200 
2478.000000	97.954903 
2477.000000	97.955848 
2476.000000	97.956361 
2475.000000	97.955759 
2474.000000	97.953987 
2473.000000	97.951850 
2472.000000	97.950277 
2471.000000	97.949233 
2470.000000	97.947899 
2469.000000	97.946064 
2468.000000	97.944685 
2467.000000	97.944683 
2466.000000	97.945823 
2465.000000	97.947180 
2464.000000	97.948244 
2463.000000	97.949067 
2462.000000	97.949770 
2461.000000	97.950544 
2460.000000	97.951849 
2459.000000	97.953886 
2458.000000	97.955869 
2457.000000	97.956411 
2456.000000	97.954770 
2455.000000	97.951461 
2454.000000	97.947839 
2453.000000	97.945003 
2452.000000	97.943123 
2451.000000	97.941831 
2450.000000	97.941168 
2449.000000	97.941778 
2448.000000	97.943836 
2447.000000	97.946211 
2446.000000	97.947325 
2445.000000	97.946777 
2444.000000	97.945456 
2443.000000	97.944254 
2442.000000	97.943404 
2441.000000	97.943013 
2440.000000	97.943372 
2439.000000	97.944548 
2438.000000	97.946369 
2437.000000	97.948903 
2436.000000	97.952203 
2435.000000	97.955482 
2434.000000	97.957429 
2433.000000	97.957614 
2432.000000	97.956955 
2431.000000	97.956662 
2430.000000	97.957265 
2429.000000	97.958793 
2428.000000	97.960992 
2427.000000	97.962996 
2426.000000	97.963535 
2425.000000	97.961933 
2424.000000	97.958900 
2423.000000	97.955973 
2422.000000	97.954089 
2421.000000	97.953679 
2420.000000	97.955379 
2419.000000	97.959225 
2418.000000	97.963752 
2417.000000	97.967195 
2416.000000	97.969118 
2415.000000	97.969957 
2414.000000	97.970006 
2413.000000	97.970088 
2412.000000	97.971794 
2411.000000	97.975393 
2410.000000	97.978701 
2409.000000	97.979774 
2408.000000	97.979577 
2407.000000	97.980228 
2406.000000	97.981707 
2405.000000	97.982191 
2404.000000	97.980898 
2403.000000	97.978739 
2402.000000	97.976808 
2401.000000	97.976084 
2400.000000	97.977903 
2399.000000	97.982704 
2398.000000	97.988628 
2397.000000	97.993081 
2396.000000	97.995389 
2395.000000	97.996422 
2394.000000	97.996355 
2393.000000	97.994806 
2392.000000	97.992769 
2391.000000	97.992381 
2390.000000	97.994523 
2389.000000	97.998297 
2388.000000	98.002950 
2387.000000	98.008765 
2386.000000	98.015834 
2385.000000	98.023234 
2384.000000	98.029678 
2383.000000	98.033683 
2382.000000	98.033090 
2381.000000	98.026208 
2380.000000	98.013974 
2379.000000	97.999696 
2378.000000	97.985893 
2377.000000	97.972905 
2376.000000	97.961657 
2375.000000	97.955608 
2374.000000	97.957456 
2373.000000	97.965328 
2372.000000	97.974338 
2371.000000	97.981585 
2370.000000	97.987104 
2369.000000	97.990375 
2368.000000	97.989516 
2367.000000	97.984481 
2366.000000	97.978078 
2365.000000	97.972880 
2364.000000	97.969175 
2363.000000	97.966808 
2362.000000	97.966707 
2361.000000	97.969323 
2360.000000	97.973476 
2359.000000	97.977289 
2358.000000	97.978837 
2357.000000	97.977349 
2356.000000	97.973452 
2355.000000	97.968833 
2354.000000	97.963890 
2353.000000	97.959549 
2352.000000	97.958489 
2351.000000	97.961565 
2350.000000	97.966139 
2349.000000	97.968601 
2348.000000	97.968233 
2347.000000	97.966779 
2346.000000	97.966322 
2345.000000	97.967900 
2344.000000	97.970631 
2343.000000	97.973015 
2342.000000	97.973863 
2341.000000	97.973442 
2340.000000	97.972974 
2339.000000	97.973076 
2338.000000	97.973111 
2337.000000	97.972064 
2336.000000	97.970990 
2335.000000	97.971619 
2334.000000	97.973960 
2333.000000	97.975600 
2332.000000	97.976427 
2331.000000	97.977746 
2330.000000	97.980854 
2329.000000	97.984254 
2328.000000	97.988011 
2327.000000	97.992253 
2326.000000	97.996062 
2325.000000	97.998094 
2324.000000	97.999447 
2323.000000	98.002461 
2322.000000	98.005956 
2321.000000	98.005875 
2320.000000	98.002257 
2319.000000	97.998922 
2318.000000	97.999379 
2317.000000	98.000781 
2316.000000	98.000965 
2315.000000	97.999758 
2314.000000	98.000666 
2313.000000	98.003963 
2312.000000	98.010394 
2311.000000	98.019121 
2310.000000	98.029030 
2309.000000	98.035706 
2308.000000	98.037734 
2307.000000	98.036901 
2306.000000	98.037000 
2305.000000	98.038560 
2304.000000	98.041306 
2303.000000	98.044336 
2302.000000	98.048265 
2301.000000	98.052038 
2300.000000	98.054691 
2299.000000	98.053726 
2298.000000	98.047957 
2297.000000	98.036471 
2296.000000	98.021766 
2295.000000	98.007552 
2294.000000	97.996854 
2293.000000	97.989421 
2292.000000	97.983840 
2291.000000	97.979234 
2290.000000	97.975423 
2289.000000	97.972506 
2288.000000	97.970347 
2287.000000	97.968287 
2286.000000	97.964798 
2285.000000	97.959651 
2284.000000	97.954913 
2283.000000	97.953050 
2282.000000	97.953464 
2281.000000	97.953190 
2280.000000	97.950118 
2279.000000	97.944335 
2278.000000	97.936825 
2277.000000	97.929182 
2276.000000	97.924249 
2275.000000	97.923936 
2274.000000	97.926888 
2273.000000	97.930232 
2272.000000	97.933498 
2271.000000	97.937681 
2270.000000	97.941530 
2269.000000	97.942214 
2268.000000	97.939751 
2267.000000	97.937080 
2266.000000	97.935677 
2265.000000	97.934170 
2264.000000	97.931510 
2263.000000	97.928346 
2262.000000	97.924978 
2261.000000	97.920825 
2260.000000	97.916205 
2259.000000	97.912524 
2258.000000	97.910273 
2257.000000	97.908723 
2256.000000	97.907557 
2255.000000	97.907264 
2254.000000	97.907758 
2253.000000	97.907774 
2252.000000	97.906213 
2251.000000	97.903230 
2250.000000	97.899664 
2249.000000	97.896181 
2248.000000	97.893234 
2247.000000	97.891145 
2246.000000	97.889807 
2245.000000	97.888625 
2244.000000	97.887058 
2243.000000	97.885133 
2242.000000	97.883182 
2241.000000	97.881408 
2240.000000	97.879780 
2239.000000	97.878203 
2238.000000	97.876618 
2237.000000	97.874985 
2236.000000	97.873284 
2235.000000	97.871530 
2234.000000	97.869741 
2233.000000	97.867928 
2232.000000	97.866104 
2231.000000	97.864284 
2230.000000	97.862469 
2229.000000	97.860637 
2228.000000	97.858780 
2227.000000	97.856970 
2226.000000	97.855282 
2225.000000	97.853700 
2224.000000	97.852107 
2223.000000	97.850448 
2222.000000	97.848784 
2221.000000	97.847208 
2220.000000	97.845727 
2219.000000	97.844290 
2218.000000	97.842854 
2217.000000	97.841422 
2216.000000	97.840023 
2215.000000	97.838678 
2214.000000	97.837375 
2213.000000	97.836078 
2212.000000	97.834764 
2211.000000	97.833473 
2210.000000	97.832272 
2209.000000	97.831174 
2208.000000	97.830145 
2207.000000	97.829150 
2206.000000	97.828168 
2205.000000	97.827194 
2204.000000	97.826239 
2203.000000	97.825351 
2202.000000	97.824618 
2201.000000	97.824050 
2200.000000	97.823366 
2199.000000	97.822088 
2198.000000	97.819950 
2197.000000	97.817266 
2196.000000	97.814828 
2195.000000	97.813213 
2194.000000	97.812300 
2193.000000	97.811703 
2192.000000	97.811527 
2191.000000	97.812019 
2190.000000	97.812651 
2189.000000	97.812630 
2188.000000	97.812381 
2187.000000	97.812999 
2186.000000	97.813741 
2185.000000	97.812029 
2184.000000	97.807237 
2183.000000	97.803024 
2182.000000	97.803628 
2181.000000	97.808748 
2180.000000	97.813529 
2179.000000	97.813880 
2178.000000	97.810021 
2177.000000	97.805055 
2176.000000	97.801849 
2175.000000	97.801261 
2174.000000	97.802344 
2173.000000	97.803874 
2172.000000	97.806179 
2171.000000	97.810638 
2170.000000	97.816538 
2169.000000	97.819811 
2168.000000	97.817073 
2167.000000	97.810255 
2166.000000	97.804980 
2165.000000	97.803858 
2164.000000	97.803684 
2163.000000	97.800258 
2162.000000	97.794713 
2161.000000	97.793398 
2160.000000	97.801617 
2159.000000	97.818421 
2158.000000	97.837009 
2157.000000	97.851044 
2156.000000	97.859909 
2155.000000	97.866611 
2154.000000	97.872905 
2153.000000	97.878237 
2152.000000	97.882062 
2151.000000	97.884424 
2150.000000	97.884552 
2149.000000	97.881771 
2148.000000	97.878147 
2147.000000	97.877431 
2146.000000	97.880605 
2145.000000	97.885163 
2144.000000	97.889578 
2143.000000	97.895346 
2142.000000	97.902915 
2141.000000	97.908862 
2140.000000	97.910164 
2139.000000	97.909348 
2138.000000	97.912261 
2137.000000	97.921142 
2136.000000	97.932083 
2135.000000	97.939151 
2134.000000	97.939765 
2133.000000	97.936226 
2132.000000	97.933536 
2131.000000	97.935007 
2130.000000	97.939482 
2129.000000	97.943104 
2128.000000	97.943691 
2127.000000	97.942580 
2126.000000	97.942247 
2125.000000	97.943552 
2124.000000	97.945759 
2123.000000	97.947809 
2122.000000	97.948661 
2121.000000	97.947308 
2120.000000	97.943485 
2119.000000	97.938244 
2118.000000	97.933534 
2117.000000	97.931270 
2116.000000	97.932200 
2115.000000	97.935013 
2114.000000	97.936757 
2113.000000	97.935458 
2112.000000	97.932408 
2111.000000	97.930768 
2110.000000	97.931852 
2109.000000	97.934042 
2108.000000	97.935313 
2107.000000	97.935541 
2106.000000	97.935644 
2105.000000	97.935931 
2104.000000	97.936277 
2103.000000	97.936778 
2102.000000	97.937072 
2101.000000	97.935903 
2100.000000	97.932645 
2099.000000	97.928834 
2098.000000	97.927049 
2097.000000	97.928246 
2096.000000	97.931201 
2095.000000	97.933996 
2094.000000	97.935471 
2093.000000	97.935349 
2092.000000	97.933791 
2091.000000	97.931493 
2090.000000	97.929589 
2089.000000	97.928882 
2088.000000	97.929172 
2087.000000	97.929302 
2086.000000	97.927980 
2085.000000	97.924812 
2084.000000	97.920782 
2083.000000	97.917478 
2082.000000	97.915591 
2081.000000	97.914582 
2080.000000	97.913957 
2079.000000	97.914090 
2078.000000	97.915090 
2077.000000	97.915631 
2076.000000	97.914281 
2075.000000	97.911609 
2074.000000	97.909464 
2073.000000	97.908171 
2072.000000	97.905968 
2071.000000	97.901501 
2070.000000	97.895498 
2069.000000	97.889737 
2068.000000	97.885427 
2067.000000	97.882810 
2066.000000	97.881386 
2065.000000	97.880047 
2064.000000	97.877673 
2063.000000	97.874173 
2062.000000	97.870624 
2061.000000	97.868289 
2060.000000	97.867694 
2059.000000	97.868516 
2058.000000	97.869685 
2057.000000	97.869666 
2056.000000	97.867233 
2055.000000	97.862127 
2054.000000	97.855391 
2053.000000	97.849070 
2052.000000	97.844953 
2051.000000	97.843056 
2050.000000	97.841543 
2049.000000	97.838613 
2048.000000	97.834606 
2047.000000	97.831376 
2046.000000	97.829761 
2045.000000	97.828921 
2044.000000	97.828122 
2043.000000	97.827711 
2042.000000	97.827937 
2041.000000	97.828183 
2040.000000	97.828058 
2039.000000	97.828203 
2038.000000	97.829011 
2037.000000	97.829466 
2036.000000	97.828317 
2035.000000	97.825748 
2034.000000	97.823219 
2033.000000	97.822000 
2032.000000	97.822279 
2031.000000	97.823246 
2030.000000	97.823447 
2029.000000	97.821674 
2028.000000	97.818116 
2027.000000	97.814430 
2026.000000	97.811969 
2025.000000	97.810662 
2024.000000	97.810153 
2023.000000	97.811102 
2022.000000	97.814276 
2021.000000	97.818812 
2020.000000	97.822320 
2019.000000	97.822977 
2018.000000	97.820627 
2017.000000	97.816516 
2016.000000	97.812632 
2015.000000	97.810591 
2014.000000	97.810321 
2013.000000	97.809918 
2012.000000	97.807947 
2011.000000	97.805843 
2010.000000	97.806432 
2009.000000	97.810182 
2008.000000	97.814393 
2007.000000	97.816555 
2006.000000	97.816926 
2005.000000	97.816982 
2004.000000	97.817087 
2003.000000	97.817008 
2002.000000	97.817454 
2001.000000	97.819106 
2000.000000	97.820653 
1999.000000	97.819194 
1998.000000	97.813082 
1997.000000	97.803954 
1996.000000	97.795854 
1995.000000	97.791897 
1994.000000	97.792169 
1993.000000	97.794353 
1992.000000	97.795971 
1991.000000	97.796583 
1990.000000	97.797592 
1989.000000	97.800317 
1988.000000	97.804448 
1987.000000	97.807817 
1986.000000	97.807876 
1985.000000	97.804026 
1984.000000	97.798496 
1983.000000	97.794326 
1982.000000	97.792413 
1981.000000	97.791463 
1980.000000	97.790942 
1979.000000	97.792257 
1978.000000	97.796080 
1977.000000	97.800365 
1976.000000	97.802583 
1975.000000	97.803014 
1974.000000	97.803990 
1973.000000	97.806936 
1972.000000	97.811406 
1971.000000	97.816137 
1970.000000	97.819816 
1969.000000	97.821236 
1968.000000	97.819968 
1967.000000	97.817228 
1966.000000	97.815461 
1965.000000	97.816396 
1964.000000	97.820051 
1963.000000	97.825394 
1962.000000	97.831246 
1961.000000	97.836496 
1960.000000	97.840085 
1959.000000	97.841472 
1958.000000	97.841334 
1957.000000	97.841480 
1956.000000	97.843377 
1955.000000	97.846793 
1954.000000	97.850138 
1953.000000	97.852245 
1952.000000	97.853299 
1951.000000	97.854116 
1950.000000	97.855191 
1949.000000	97.856770 
1948.000000	97.859255 
1947.000000	97.862690 
1946.000000	97.866162 
1945.000000	97.868542 
1944.000000	97.869724 
1943.000000	97.870467 
1942.000000	97.871202 
1941.000000	97.871838 
1940.000000	97.872630 
1939.000000	97.874113 
1938.000000	97.876349 
1937.000000	97.878989 
1936.000000	97.881915 
1935.000000	97.885110 
1934.000000	97.888010 
1933.000000	97.890060 
1932.000000	97.891828 
1931.000000	97.894641 
1930.000000	97.898500 
1929.000000	97.901412 
1928.000000	97.902135 
1927.000000	97.901620 
1926.000000	97.901526 
1925.000000	97.901985 
1924.000000	97.902310 
1923.000000	97.902902 
1922.000000	97.904301 
1921.000000	97.905831 
1920.000000	97.906797 
1919.000000	97.907718 
1918.000000	97.908900 
1917.000000	97.909061 
1916.000000	97.907543 
1915.000000	97.905858 
1914.000000	97.905541 
1913.000000	97.906237 
1912.000000	97.906558 
1911.000000	97.906283 
1910.000000	97.906213 
1909.000000	97.906664 
1908.000000	97.907550 
1907.000000	97.908561 
1906.000000	97.908959 
1905.000000	97.907673 
1904.000000	97.904665 
1903.000000	97.901812 
1902.000000	97.900795 
1901.000000	97.901223 
1900.000000	97.901781 
1899.000000	97.902000 
1898.000000	97.902250 
1897.000000	97.902514 
1896.000000	97.902288 
1895.000000	97.901523 
1894.000000	97.900474 
1893.000000	97.899031 
1892.000000	97.897124 
1891.000000	97.895473 
1890.000000	97.894965 
1889.000000	97.895481 
1888.000000	97.896271 
1887.000000	97.897122 
1886.000000	97.898126 
1885.000000	97.898814 
1884.000000	97.898482 
1883.000000	97.897226 
1882.000000	97.896039 
1881.000000	97.895771 
1880.000000	97.896499 
1879.000000	97.897654 
1878.000000	97.898504 
1877.000000	97.898771 
1876.000000	97.898784 
1875.000000	97.899234 
1874.000000	97.900523 
1873.000000	97.902283 
1872.000000	97.903881 
1871.000000	97.905191 
1870.000000	97.906315 
1869.000000	97.906932 
1868.000000	97.907017 
1867.000000	97.907632 
1866.000000	97.909260 
1865.000000	97.910774 
1864.000000	97.911126 
1863.000000	97.911030 
1862.000000	97.912098 
1861.000000	97.914623 
1860.000000	97.917533 
1859.000000	97.920224 
1858.000000	97.922909 
1857.000000	97.925475 
1856.000000	97.927593 
1855.000000	97.929629 
1854.000000	97.931997 
1853.000000	97.933925 
1852.000000	97.934925 
1851.000000	97.935847 
1850.000000	97.937707 
1849.000000	97.940483 
1848.000000	97.943332 
1847.000000	97.945885 
1846.000000	97.948342 
1845.000000	97.950770 
1844.000000	97.952889 
1843.000000	97.954962 
1842.000000	97.957256 
1841.000000	97.959029 
1840.000000	97.960222 
1839.000000	97.961761 
1838.000000	97.964044 
1837.000000	97.965975 
1836.000000	97.966547 
1835.000000	97.966546 
1834.000000	97.967362 
1833.000000	97.969031 
1832.000000	97.970665 
1831.000000	97.971550 
1830.000000	97.971604 
1829.000000	97.971373 
1828.000000	97.971565 
1827.000000	97.972590 
1826.000000	97.974682 
1825.000000	97.977510 
1824.000000	97.979795 
1823.000000	97.980813 
1822.000000	97.980942 
1821.000000	97.980652 
1820.000000	97.980023 
1819.000000	97.979336 
1818.000000	97.979542 
1817.000000	97.980751 
1816.000000	97.981611 
1815.000000	97.981452 
1814.000000	97.981215 
1813.000000	97.982026 
1812.000000	97.983260 
1811.000000	97.983471 
1810.000000	97.982772 
1809.000000	97.982097 
1808.000000	97.981692 
1807.000000	97.981433 
1806.000000	97.981359 
1805.000000	97.981297 
1804.000000	97.980962 
1803.000000	97.980893 
1802.000000	97.981616 
1801.000000	97.982537 
1800.000000	97.982192 
1799.000000	97.980493 
1798.000000	97.979312 
1797.000000	97.979467 
1796.000000	97.979868 
1795.000000	97.979616 
1794.000000	97.979406 
1793.000000	97.980252 
1792.000000	97.981480 
1791.000000	97.982286 
1790.000000	97.983126 
1789.000000	97.983880 
1788.000000	97.984372 
1787.000000	97.985335 
1786.000000	97.987583 
1785.000000	97.990336 
1784.000000	97.991873 
1783.000000	97.992139 
1782.000000	97.992054 
1781.000000	97.992676 
1780.000000	97.994208 
1779.000000	97.996010 
1778.000000	97.997805 
1777.000000	97.999536 
1776.000000	98.001324 
1775.000000	98.002937 
1774.000000	98.004041 
1773.000000	98.004723 
1772.000000	98.005314 
1771.000000	98.006168 
1770.000000	98.007533 
1769.000000	98.009260 
1768.000000	98.011088 
1767.000000	98.012688 
1766.000000	98.013906 
1765.000000	98.014920 
1764.000000	98.015963 
1763.000000	98.017132 
1762.000000	98.018363 
1761.000000	98.019615 
1760.000000	98.020872 
1759.000000	98.022103 
1758.000000	98.023299 
1757.000000	98.024461 
1756.000000	98.025584 
1755.000000	98.026609 
1754.000000	98.027528 
1753.000000	98.028397 
1752.000000	98.029281 
1751.000000	98.030175 
1750.000000	98.031049 
1749.000000	98.031868 
1748.000000	98.032613 
1747.000000	98.033288 
1746.000000	98.033891 
1745.000000	98.034457 
1744.000000	98.035048 
1743.000000	98.035669 
1742.000000	98.036226 
1741.000000	98.036623 
1740.000000	98.036867 
1739.000000	98.037105 
1738.000000	98.037471 
1737.000000	98.037855 
1736.000000	98.038109 
1735.000000	98.038382 
1734.000000	98.038569 
1733.000000	98.038289 
1732.000000	98.037925 
1731.000000	98.037856 
1730.000000	98.038272 
1729.000000	98.038945 
1728.000000	98.039293 
1727.000000	98.038979 
1726.000000	98.038166 
1725.000000	98.037487 
1724.000000	98.037091 
1723.000000	98.036782 
1722.000000	98.036674 
1721.000000	98.036599 
1720.000000	98.036051 
1719.000000	98.035021 
1718.000000	98.034289 
1717.000000	98.033683 
1716.000000	98.032232 
1715.000000	98.030339 
1714.000000	98.029073 
1713.000000	98.028209 
1712.000000	98.026719 
1711.000000	98.024748 
1710.000000	98.023186 
1709.000000	98.021962 
1708.000000	98.020158 
1707.000000	98.017562 
1706.000000	98.015153 
1705.000000	98.013379 
1704.000000	98.011551 
1703.000000	98.009098 
1702.000000	98.006530 
1701.000000	98.004673 
1700.000000	98.002480 
1699.000000	97.999523 
1698.000000	97.997097 
1697.000000	97.994953 
1696.000000	97.992672 
1695.000000	97.990155 
1694.000000	97.987635 
1693.000000	97.984969 
1692.000000	97.982019 
1691.000000	97.978998 
1690.000000	97.976063 
1689.000000	97.973194 
1688.000000	97.970337 
1687.000000	97.967414 
1686.000000	97.964452 
1685.000000	97.961493 
1684.000000	97.958478 
1683.000000	97.955429 
1682.000000	97.952414 
1681.000000	97.949386 
1680.000000	97.946381 
1679.000000	97.943416 
1678.000000	97.940450 
1677.000000	97.937444 
1676.000000	97.934425 
1675.000000	97.931407 
1674.000000	97.928326 
1673.000000	97.925174 
1672.000000	97.922004 
1671.000000	97.918928 
1670.000000	97.915983 
1669.000000	97.913020 
1668.000000	97.910117 
1667.000000	97.907427 
1666.000000	97.904800 
1665.000000	97.902045 
1664.000000	97.899213 
1663.000000	97.896576 
1662.000000	97.894021 
1661.000000	97.891220 
1660.000000	97.888322 
1659.000000	97.885521 
1658.000000	97.882659 
1657.000000	97.879611 
1656.000000	97.876529 
1655.000000	97.873908 
1654.000000	97.872233 
1653.000000	97.869024 
1652.000000	97.863311 
1651.000000	97.859963 
1650.000000	97.857611 
1649.000000	97.854451 
1648.000000	97.851707 
1647.000000	97.850550 
1646.000000	97.849695 
1645.000000	97.848505 
1644.000000	97.847027 
1643.000000	97.845668 
1642.000000	97.844628 
1641.000000	97.843649 
1640.000000	97.842818 
1639.000000	97.841849 
1638.000000	97.840479 
1637.000000	97.838851 
1636.000000	97.837075 
1635.000000	97.834469 
1634.000000	97.833109 
1633.000000	97.833707 
1632.000000	97.833833 
1631.000000	97.833726 
1630.000000	97.833619 
1629.000000	97.832447 
1628.000000	97.830456 
1627.000000	97.830193 
1626.000000	97.831621 
1625.000000	97.832266 
1624.000000	97.831796 
1623.000000	97.832320 
1622.000000	97.834292 
1621.000000	97.836266 
1620.000000	97.837874 
1619.000000	97.839992 
1618.000000	97.843003 
1617.000000	97.842830 
1616.000000	97.838526 
1615.000000	97.837148 
1614.000000	97.839558 
1613.000000	97.840200 
1612.000000	97.838408 
1611.000000	97.837784 
1610.000000	97.838909 
1609.000000	97.840493 
1608.000000	97.844693 
1607.000000	97.853075 
1606.000000	97.860791 
1605.000000	97.863864 
1604.000000	97.865896 
1603.000000	97.870469 
1602.000000	97.875973 
1601.000000	97.879962 
1600.000000	97.883691 
1599.000000	97.888560 
1598.000000	97.892823 
1597.000000	97.895122 
1596.000000	97.897099 
1595.000000	97.900692 
1594.000000	97.904902 
1593.000000	97.907927 
1592.000000	97.910590 
1591.000000	97.914686 
1590.000000	97.919630 
1589.000000	97.923739 
1588.000000	97.927293 
1587.000000	97.931560 
1586.000000	97.935801 
1585.000000	97.938223 
1584.000000	97.940754 
1583.000000	97.945446 
1582.000000	97.949686 
1581.000000	97.951230 
1580.000000	97.952754 
1579.000000	97.956709 
1578.000000	97.961698 
1577.000000	97.965574 
1576.000000	97.967452 
1575.000000	97.969973 
1574.000000	97.974296 
1573.000000	97.977364 
1572.000000	97.979180 
1571.000000	97.982437 
1570.000000	97.985360 
1569.000000	97.984282 
1568.000000	97.983913 
1567.000000	97.986608 
1566.000000	97.988193 
1565.000000	97.986811 
1564.000000	97.985572 
1563.000000	97.985467 
1562.000000	97.982867 
1561.000000	97.977813 
1560.000000	97.983331 
1559.000000	97.995366 
1558.000000	97.992106 
1557.000000	97.984778 
1556.000000	97.980999 
1555.000000	97.981551 
1554.000000	97.983395 
1553.000000	97.983194 
1552.000000	97.980528 
1551.000000	97.977219 
1550.000000	97.975833 
1549.000000	97.974578 
1548.000000	97.970493 
1547.000000	97.963937 
1546.000000	97.956826 
1545.000000	97.951351 
1544.000000	97.948102 
1543.000000	97.945639 
1542.000000	97.943472 
1541.000000	97.939715 
1540.000000	97.928397 
1539.000000	97.912602 
1538.000000	97.902228 
1537.000000	97.895007 
1536.000000	97.885653 
1535.000000	97.876201 
1534.000000	97.870022 
1533.000000	97.866089 
1532.000000	97.860745 
1531.000000	97.852085 
1530.000000	97.841110 
1529.000000	97.829530 
1528.000000	97.818853 
1527.000000	97.810736 
1526.000000	97.804806 
1525.000000	97.798240 
1524.000000	97.788837 
1523.000000	97.777684 
1522.000000	97.768118 
1521.000000	97.760375 
1520.000000	97.751228 
1519.000000	97.738731 
1518.000000	97.724361 
1517.000000	97.712308 
1516.000000	97.704245 
1515.000000	97.697962 
1514.000000	97.690902 
1513.000000	97.682719 
1512.000000	97.673144 
1511.000000	97.661663 
1510.000000	97.649212 
1509.000000	97.637819 
1508.000000	97.629688 
1507.000000	97.623484 
1506.000000	97.614218 
1505.000000	97.601548 
1504.000000	97.588444 
1503.000000	97.575370 
1502.000000	97.562428 
1501.000000	97.550386 
1500.000000	97.539351 
1499.000000	97.528501 
1498.000000	97.517911 
1497.000000	97.508799 
1496.000000	97.500600 
1495.000000	97.492669 
1494.000000	97.485437 
1493.000000	97.478746 
1492.000000	97.472271 
1491.000000	97.466551 
1490.000000	97.462042 
1489.000000	97.456533 
1488.000000	97.446306 
1487.000000	97.432472 
1486.000000	97.419396 
1485.000000	97.406809 
1484.000000	97.393594 
1483.000000	97.381052 
1482.000000	97.371733 
1481.000000	97.365416 
1480.000000	97.357978 
1479.000000	97.347614 
1478.000000	97.337096 
1477.000000	97.329227 
1476.000000	97.322003 
1475.000000	97.313467 
1474.000000	97.305050 
1473.000000	97.299678 
1472.000000	97.296452 
1471.000000	97.291463 
1470.000000	97.283433 
1469.000000	97.272494 
1468.000000	97.259468 
1467.000000	97.247088 
1466.000000	97.238636 
1465.000000	97.234728 
1464.000000	97.232368 
1463.000000	97.226649 
1462.000000	97.216317 
1461.000000	97.203440 
1460.000000	97.191267 
1459.000000	97.182435 
1458.000000	97.179605 
1457.000000	97.182388 
1456.000000	97.183602 
1455.000000	97.177746 
1454.000000	97.164862 
1453.000000	97.151408 
1452.000000	97.143687 
1451.000000	97.142130 
1450.000000	97.144791 
1449.000000	97.151374 
1448.000000	97.159853 
1447.000000	97.165809 
1446.000000	97.165737 
1445.000000	97.162576 
1444.000000	97.161404 
1443.000000	97.161735 
1442.000000	97.161315 
1441.000000	97.159815 
1440.000000	97.157795 
1439.000000	97.154224 
1438.000000	97.152003 
1437.000000	97.156832 
1436.000000	97.165386 
1435.000000	97.167491 
1434.000000	97.162045 
1433.000000	97.156546 
1432.000000	97.156668 
1431.000000	97.161117 
1430.000000	97.166135 
1429.000000	97.171667 
1428.000000	97.177051 
1427.000000	97.180223 
1426.000000	97.180587 
1425.000000	97.183791 
1424.000000	97.194439 
1423.000000	97.205048 
1422.000000	97.207501 
1421.000000	97.205955 
1420.000000	97.211484 
1419.000000	97.223354 
1418.000000	97.230894 
1417.000000	97.232793 
1416.000000	97.234083 
1415.000000	97.235856 
1414.000000	97.235610 
1413.000000	97.234067 
1412.000000	97.235546 
1411.000000	97.240719 
1410.000000	97.246634 
1409.000000	97.251891 
1408.000000	97.256831 
1407.000000	97.263277 
1406.000000	97.273063 
1405.000000	97.288600 
1404.000000	97.309568 
1403.000000	97.328539 
1402.000000	97.340578 
1401.000000	97.350743 
1400.000000	97.367969 
1399.000000	97.391564 
1398.000000	97.410617 
1397.000000	97.418922 
1396.000000	97.421872 
1395.000000	97.429016 
1394.000000	97.443526 
1393.000000	97.463523 
1392.000000	97.486325 
1391.000000	97.507917 
1390.000000	97.525155 
1389.000000	97.538681 
1388.000000	97.551591 
1387.000000	97.564425 
1386.000000	97.574169 
1385.000000	97.580854 
1384.000000	97.589445 
1383.000000	97.602467 
1382.000000	97.617064 
1381.000000	97.629314 
1380.000000	97.639597 
1379.000000	97.651018 
1378.000000	97.663959 
1377.000000	97.676334 
1376.000000	97.688134 
1375.000000	97.702070 
1374.000000	97.719052 
1373.000000	97.736909 
1372.000000	97.753276 
1371.000000	97.768119 
1370.000000	97.782153 
1369.000000	97.795859 
1368.000000	97.809400 
1367.000000	97.820831 
1366.000000	97.828385 
1365.000000	97.834163 
1364.000000	97.843490 
1363.000000	97.858828 
1362.000000	97.875757 
1361.000000	97.888465 
1360.000000	97.897362 
1359.000000	97.906744 
1358.000000	97.917953 
1357.000000	97.928854 
1356.000000	97.938059 
1355.000000	97.945852 
1354.000000	97.952815 
1353.000000	97.959517 
1352.000000	97.966653 
1351.000000	97.975727 
1350.000000	97.986183 
1349.000000	97.995280 
1348.000000	98.001745 
1347.000000	98.006527 
1346.000000	98.011353 
1345.000000	98.016170 
1344.000000	98.019013 
1343.000000	98.018158 
1342.000000	98.015046 
1341.000000	98.014414 
1340.000000	98.020172 
1339.000000	98.030228 
1338.000000	98.038188 
1337.000000	98.040870 
1336.000000	98.040273 
1335.000000	98.038940 
1334.000000	98.037482 
1333.000000	98.036328 
1332.000000	98.036571 
1331.000000	98.038074 
1330.000000	98.039083 
1329.000000	98.039010 
1328.000000	98.039577 
1327.000000	98.042103 
1326.000000	98.044935 
1325.000000	98.045411 
1324.000000	98.042799 
1323.000000	98.037739 
1322.000000	98.031263 
1321.000000	98.025398 
1320.000000	98.022983 
1319.000000	98.025078 
1318.000000	98.029616 
1317.000000	98.033529 
1316.000000	98.035118 
1315.000000	98.033997 
1314.000000	98.030966 
1313.000000	98.028712 
1312.000000	98.030166 
1311.000000	98.034855 
1310.000000	98.038818 
1309.000000	98.039308 
1308.000000	98.037829 
1307.000000	98.037772 
1306.000000	98.040088 
1305.000000	98.043116 
1304.000000	98.045268 
1303.000000	98.045662 
1302.000000	98.043724 
1301.000000	98.040017 
1300.000000	98.036939 
1299.000000	98.036781 
1298.000000	98.039221 
1297.000000	98.041668 
1296.000000	98.042002 
1295.000000	98.040291 
1294.000000	98.038248 
1293.000000	98.037664 
1292.000000	98.038941 
1291.000000	98.040862 
1290.000000	98.042082 
1289.000000	98.042612 
1288.000000	98.042988 
1287.000000	98.042480 
1286.000000	98.039770 
1285.000000	98.035626 
1284.000000	98.033039 
1283.000000	98.033714 
1282.000000	98.035746 
1281.000000	98.035843 
1280.000000	98.033197 
1279.000000	98.030090 
1278.000000	98.029404 
1277.000000	98.032275 
1276.000000	98.037309 
1275.000000	98.041500 
1274.000000	98.042667 
1273.000000	98.041572 
1272.000000	98.040762 
1271.000000	98.041058 
1270.000000	98.040484 
1269.000000	98.037295 
1268.000000	98.032527 
1267.000000	98.028356 
1266.000000	98.025414 
1265.000000	98.023132 
1264.000000	98.021518 
1263.000000	98.021042 
1262.000000	98.021211 
1261.000000	98.020676 
1260.000000	98.019100 
1259.000000	98.017705 
1258.000000	98.017389 
1257.000000	98.016702 
1256.000000	98.012354 
1255.000000	98.002712 
1254.000000	97.990613 
1253.000000	97.980991 
1252.000000	97.974926 
1251.000000	97.968205 
1250.000000	97.957475 
1249.000000	97.945737 
1248.000000	97.938818 
1247.000000	97.937401 
1246.000000	97.936000 
1245.000000	97.929605 
1244.000000	97.918087 
1243.000000	97.904370 
1242.000000	97.891751 
1241.000000	97.883342 
1240.000000	97.880402 
1239.000000	97.879607 
1238.000000	97.874664 
1237.000000	97.862164 
1236.000000	97.843948 
1235.000000	97.823335 
1234.000000	97.801758 
1233.000000	97.779926 
1232.000000	97.759122 
1231.000000	97.739350 
1230.000000	97.718546 
1229.000000	97.695235 
1228.000000	97.669716 
1227.000000	97.641169 
1226.000000	97.606157 
1225.000000	97.562226 
1224.000000	97.511177 
1223.000000	97.456742 
1222.000000	97.400282 
1221.000000	97.340588 
1220.000000	97.276684 
1219.000000	97.208858 
1218.000000	97.137713 
1217.000000	97.063646 
1216.000000	96.986390 
1215.000000	96.904321 
1214.000000	96.816158 
1213.000000	96.724681 
1212.000000	96.636048 
1211.000000	96.552640 
1210.000000	96.468747 
1209.000000	96.376924 
1208.000000	96.277246 
1207.000000	96.176828 
1206.000000	96.080955 
1205.000000	95.988164 
1204.000000	95.894027 
1203.000000	95.796378 
1202.000000	95.696544 
1201.000000	95.597955 
1200.000000	95.503729 
1199.000000	95.413679 
1198.000000	95.323943 
1197.000000	95.231190 
1196.000000	95.136127 
1195.000000	95.041072 
1194.000000	94.945837 
1193.000000	94.848557 
1192.000000	94.748962 
1191.000000	94.647839 
1190.000000	94.544590 
1189.000000	94.438347 
1188.000000	94.330163 
1187.000000	94.221125 
1186.000000	94.109846 
1185.000000	93.994878 
1184.000000	93.877634 
1183.000000	93.759383 
1182.000000	93.637554 
1181.000000	93.509125 
1180.000000	93.375474 
1179.000000	93.239067 
1178.000000	93.097495 
1177.000000	92.946496 
1176.000000	92.787451 
1175.000000	92.626132 
1174.000000	92.465182 
1173.000000	92.303859 
1172.000000	92.143941 
1171.000000	91.988666 
1170.000000	91.836323 
1169.000000	91.682629 
1168.000000	91.530208 
1167.000000	91.388978 
1166.000000	91.267294 
1165.000000	91.170534 
1164.000000	91.108214 
1163.000000	91.092285 
1162.000000	91.124326 
1161.000000	91.189912 
1160.000000	91.266750 
1159.000000	91.332971 
1158.000000	91.369024 
1157.000000	91.361396 
1156.000000	91.308519 
1155.000000	91.219121 
1154.000000	91.103889 
1153.000000	90.972116 
1152.000000	90.834518 
1151.000000	90.701031 
1150.000000	90.573807 
1149.000000	90.448731 
1148.000000	90.324965 
1147.000000	90.206245 
1146.000000	90.092072 
1145.000000	89.975799 
1144.000000	89.853992 
1143.000000	89.730773 
1142.000000	89.610564 
1141.000000	89.492899 
1140.000000	89.376442 
1139.000000	89.261693 
1138.000000	89.147777 
1137.000000	89.032584 
1136.000000	88.917354 
1135.000000	88.805026 
1134.000000	88.693478 
1133.000000	88.577209 
1132.000000	88.456070 
1131.000000	88.335005 
1130.000000	88.215001 
1129.000000	88.092426 
1128.000000	87.967710 
1127.000000	87.845743 
1126.000000	87.726468 
1125.000000	87.604062 
1124.000000	87.477096 
1123.000000	87.350762 
1122.000000	87.227453 
1121.000000	87.104099 
1120.000000	86.980311 
1119.000000	86.859570 
1118.000000	86.740849 
1117.000000	86.619331 
1116.000000	86.497143 
1115.000000	86.382732 
1114.000000	86.277471 
1113.000000	86.173534 
1112.000000	86.067033 
1111.000000	85.961854 
1110.000000	85.858977 
1109.000000	85.754281 
1108.000000	85.648160 
1107.000000	85.545696 
1106.000000	85.445965 
1105.000000	85.342651 
1104.000000	85.236376 
1103.000000	85.134230 
1102.000000	85.036320 
1101.000000	84.935715 
1100.000000	84.832930 
1099.000000	84.737299 
1098.000000	84.652207 
1097.000000	84.571693 
1096.000000	84.492798 
1095.000000	84.417842 
1094.000000	84.343532 
1093.000000	84.262535 
1092.000000	84.178288 
1091.000000	84.104228 
1090.000000	84.045787 
1089.000000	83.996238 
1088.000000	83.951358 
1087.000000	83.913609 
1086.000000	83.880354 
1085.000000	83.843500 
1084.000000	83.803604 
1083.000000	83.769882 
1082.000000	83.743951 
1081.000000	83.717970 
1080.000000	83.690619 
1079.000000	83.669432 
1078.000000	83.654777 
1077.000000	83.636887 
1076.000000	83.611498 
1075.000000	83.582885 
1074.000000	83.548715 
1073.000000	83.497519 
1072.000000	83.423799 
1071.000000	83.329743 
1070.000000	83.209362 
1069.000000	83.048523 
1068.000000	82.846961 
1067.000000	82.626038 
1066.000000	82.408077 
1065.000000	82.199575 
1064.000000	81.999006 
1063.000000	81.805396 
1062.000000	81.612541 
1061.000000	81.409945 
1060.000000	81.197968 
1059.000000	80.990831 
1058.000000	80.798997 
1057.000000	80.619677 
1056.000000	80.447881 
1055.000000	80.283244 
1054.000000	80.122214 
1053.000000	79.957775 
1052.000000	79.791920 
1051.000000	79.634419 
1050.000000	79.484633 
1049.000000	79.330082 
1048.000000	79.166497 
1047.000000	79.002192 
1046.000000	78.840739 
1045.000000	78.676960 
1044.000000	78.511022 
1043.000000	78.349168 
1042.000000	78.189092 
1041.000000	78.021580 
1040.000000	77.849249 
1039.000000	77.687290 
1038.000000	77.543099 
1037.000000	77.411304 
1036.000000	77.290188 
1035.000000	77.185452 
1034.000000	77.095697 
1033.000000	77.011707 
1032.000000	76.932176 
1031.000000	76.863251 
1030.000000	76.802386 
1029.000000	76.741552 
1028.000000	76.686758 
1027.000000	76.653664 
1026.000000	76.641851 
1025.000000	76.633329 
1024.000000	76.618686 
1023.000000	76.604403 
1022.000000	76.592099 
1021.000000	76.572286 
1020.000000	76.542719 
1019.000000	76.512996 
1018.000000	76.486825 
1017.000000	76.458415 
1016.000000	76.429325 
1015.000000	76.409687 
1014.000000	76.399520 
1013.000000	76.387691 
1012.000000	76.372249 
1011.000000	76.363138 
1010.000000	76.362623 
1009.000000	76.362493 
1008.000000	76.363187 
1007.000000	76.376196 
1006.000000	76.404708 
1005.000000	76.440606 
1004.000000	76.482323 
1003.000000	76.536012 
1002.000000	76.597291 
1001.000000	76.652789 
1000.000000	76.703196 
999.000000	 76.764448 
998.000000	 76.842306 
997.000000	 76.925172 
996.000000	 77.005460 
995.000000	 77.089008 
994.000000	 77.179507 
993.000000	 77.272462 
992.000000	 77.368304 
991.000000	 77.473483 
990.000000	 77.585526 
989.000000	 77.694771 
988.000000	 77.803180 
987.000000	 77.923288 
986.000000	 78.057075 
985.000000	 78.195053 
984.000000	 78.337641 
983.000000	 78.496741 
982.000000	 78.673088 
981.000000	 78.852448 
980.000000	 79.028430 
979.000000	 79.209624 
978.000000	 79.399707 
977.000000	 79.590339 
976.000000	 79.779262 
975.000000	 79.976654 
974.000000	 80.187043 
973.000000	 80.401766 
972.000000	 80.615179 
971.000000	 80.832497 
970.000000	 81.055950 
969.000000	 81.278281 
968.000000	 81.495455 
967.000000	 81.712260 
966.000000	 81.931076 
965.000000	 82.148238 
964.000000	 82.364640 
963.000000	 82.586403 
962.000000	 82.811934 
961.000000	 83.031365 
960.000000	 83.241240 
959.000000	 83.446910 
958.000000	 83.649014 
957.000000	 83.841418 
956.000000	 84.024691 
955.000000	 84.208046 
954.000000	 84.395098 
953.000000	 84.579862 
952.000000	 84.758412 
951.000000	 84.931844 
950.000000	 85.097088 
949.000000	 85.248485 
948.000000	 85.389880 
947.000000	 85.531870 
946.000000	 85.675305 
945.000000	 85.810772 
944.000000	 85.935848 
943.000000	 86.059138 
942.000000	 86.185231 
941.000000	 86.309349 
940.000000	 86.429881 
939.000000	 86.552860 
938.000000	 86.680527 
937.000000	 86.807667 
936.000000	 86.932528 
935.000000	 87.059791 
934.000000	 87.189979 
933.000000	 87.317336 
932.000000	 87.440722 
931.000000	 87.565515 
930.000000	 87.692472 
929.000000	 87.815619 
928.000000	 87.933481 
927.000000	 88.051830 
926.000000	 88.172920 
925.000000	 88.291564 
924.000000	 88.403489 
923.000000	 88.508587 
922.000000	 88.605772 
921.000000	 88.694445 
920.000000	 88.780929 
919.000000	 88.873025 
918.000000	 88.967924 
917.000000	 89.055598 
916.000000	 89.134382 
915.000000	 89.213351 
914.000000	 89.299787 
913.000000	 89.394802 
912.000000	 89.500741 
911.000000	 89.621453 
910.000000	 89.754643 
909.000000	 89.894532 
908.000000	 90.042142 
907.000000	 90.202873 
906.000000	 90.375058 
905.000000	 90.551403 
904.000000	 90.729934 
903.000000	 90.912427 
902.000000	 91.094374 
901.000000	 91.268869 
900.000000	 91.438913 
899.000000	 91.614076 
898.000000	 91.795745 
897.000000	 91.976412 
896.000000	 92.151144 
895.000000	 92.317994 
894.000000	 92.470549 
893.000000	 92.603846 
892.000000	 92.726489 
891.000000	 92.853605 
890.000000	 92.986983 
889.000000	 93.113507 
888.000000	 93.222483 
887.000000	 93.313017 
886.000000	 93.386683 
885.000000	 93.445976 
884.000000	 93.498956 
883.000000	 93.552202 
882.000000	 93.600185 
881.000000	 93.635926 
880.000000	 93.671046 
879.000000	 93.728532 
878.000000	 93.814621 
877.000000	 93.914914 
876.000000	 94.019777 
875.000000	 94.135372 
874.000000	 94.266475 
873.000000	 94.407840 
872.000000	 94.558222 
871.000000	 94.724816 
870.000000	 94.906065 
869.000000	 95.084962 
868.000000	 95.246966 
867.000000	 95.392932 
866.000000	 95.529549 
865.000000	 95.659172 
864.000000	 95.784746 
863.000000	 95.913304 
862.000000	 96.046877 
861.000000	 96.177810 
860.000000	 96.298961 
859.000000	 96.411955 
858.000000	 96.521637 
857.000000	 96.629196 
856.000000	 96.733864 
855.000000	 96.834414 
854.000000	 96.926163 
853.000000	 97.003287 
852.000000	 97.066689 
851.000000	 97.124168 
850.000000	 97.182317 
849.000000	 97.244175 
848.000000	 97.312994 
847.000000	 97.389197 
846.000000	 97.463997 
845.000000	 97.525914 
844.000000	 97.574450 
843.000000	 97.618897 
842.000000	 97.663886 
841.000000	 97.705109 
840.000000	 97.738453 
839.000000	 97.762978 
838.000000	 97.775335 
837.000000	 97.772899 
836.000000	 97.763922 
835.000000	 97.763600 
834.000000	 97.776925 
833.000000	 97.794740 
832.000000	 97.808799 
831.000000	 97.820663 
830.000000	 97.833756 
829.000000	 97.848164 
828.000000	 97.867540 
827.000000	 97.899829 
826.000000	 97.945138 
825.000000	 97.992697 
824.000000	 98.034343 
823.000000	 98.069893 
822.000000	 98.096175 
821.000000	 98.104709 
820.000000	 98.094562 
819.000000	 98.074151 
818.000000	 98.045306 
817.000000	 97.996189 
816.000000	 97.915139 
815.000000	 97.802781 
814.000000	 97.664161 
813.000000	 97.494632 
812.000000	 97.278885 
811.000000	 96.999118 
810.000000	 96.640236 
809.000000	 96.193092 
808.000000	 95.659495 
807.000000	 95.053190 
806.000000	 94.394005 
805.000000	 93.704364 
804.000000	 93.011793 
803.000000	 92.346494 
802.000000	 91.733070 
801.000000	 91.192491 
800.000000	 90.751821 
799.000000	 90.437011 
798.000000	 90.251558 
797.000000	 90.175265 
796.000000	 90.185645 
795.000000	 90.265296 
794.000000	 90.389040 
793.000000	 90.525246 
792.000000	 90.655373 
791.000000	 90.775919 
790.000000	 90.877768 
789.000000	 90.939799 
788.000000	 90.946153 
787.000000	 90.894278 
786.000000	 90.782872 
785.000000	 90.607568 
784.000000	 90.373708 
783.000000	 90.100769 
782.000000	 89.811524 
781.000000	 89.530464 
780.000000	 89.293029 
779.000000	 89.136184 
778.000000	 89.072865 
777.000000	 89.091029 
776.000000	 89.180600 
775.000000	 89.342215 
774.000000	 89.565547 
773.000000	 89.820671 
772.000000	 90.079605 
771.000000	 90.330760 
770.000000	 90.567940 
769.000000	 90.783081 
768.000000	 90.975574 
767.000000	 91.152219 
766.000000	 91.312508 
765.000000	 91.449815 
764.000000	 91.571663 
763.000000	 91.701171 
762.000000	 91.851041 
761.000000	 92.011270 
760.000000	 92.168787 
759.000000	 92.323591 
758.000000	 92.479064 
757.000000	 92.632951 
756.000000	 92.787084 
755.000000	 92.951483 
754.000000	 93.127880 
753.000000	 93.299180 
752.000000	 93.443861 
751.000000	 93.554330 
750.000000	 93.639058 
749.000000	 93.716286 
748.000000	 93.806687 
747.000000	 93.919287 
746.000000	 94.040516 
745.000000	 94.148869 
744.000000	 94.243151 
743.000000	 94.343595 
742.000000	 94.463230 
741.000000	 94.593298 
740.000000	 94.720582 
739.000000	 94.843273 
738.000000	 94.963571 
737.000000	 95.077963 
736.000000	 95.181898 
735.000000	 95.274284 
734.000000	 95.353919 
733.000000	 95.421013 
732.000000	 95.482699 
731.000000	 95.545453 
730.000000	 95.602320 
729.000000	 95.641783 
728.000000	 95.667361 
727.000000	 95.695553 
726.000000	 95.737479 
725.000000	 95.793849 
724.000000	 95.865443 
723.000000	 95.953744 
722.000000	 96.050352 
721.000000	 96.139893 
720.000000	 96.216230 
719.000000	 96.284672 
718.000000	 96.347319 
717.000000	 96.400225 
716.000000	 96.446702 
715.000000	 96.497472 
714.000000	 96.555496 
713.000000	 96.616149 
712.000000	 96.682553 
711.000000	 96.763473 
710.000000	 96.852980 
709.000000	 96.933303 
708.000000	 96.996405 
707.000000	 97.046609 
706.000000	 97.083280 
705.000000	 97.094095 
704.000000	 97.068626 
703.000000	 97.006343 
702.000000	 96.902347 
701.000000	 96.738642 
700.000000	 96.500440 
699.000000	 96.190772 
698.000000	 95.832577 
697.000000	 95.469967 
696.000000	 95.165898 
695.000000	 94.981620 
694.000000	 94.941831 
693.000000	 95.026514 
692.000000	 95.197255 
691.000000	 95.416031 
690.000000	 95.646750 
689.000000	 95.859806 
688.000000	 96.044008 
687.000000	 96.205336 
686.000000	 96.346546 
685.000000	 96.464454 
684.000000	 96.567814 
683.000000	 96.672197 
682.000000	 96.777425 
681.000000	 96.870071 
680.000000	 96.950393 
679.000000	 97.032355 
678.000000	 97.117987 
677.000000	 97.199745 
676.000000	 97.278422 
675.000000	 97.362101 
674.000000	 97.444854 
673.000000	 97.498553 
672.000000	 97.501339 
671.000000	 97.442833 
670.000000	 97.322385 
669.000000	 97.153919 
668.000000	 97.067873 
667.000000	 97.224295 
666.000000	 97.502978 
665.000000	 97.711731 
664.000000	 97.832383 
663.000000	 97.901580 
662.000000	 97.948656 
661.000000	 97.984056 
660.000000	 98.011966 
659.000000	 98.041647 
658.000000	 98.075681 
657.000000	 98.106828 
656.000000	 98.122385 
655.000000	 98.115133 
654.000000	 98.085020 
653.000000	 98.036083 
652.000000	 97.984114 
651.000000	 97.960968 
650.000000	 97.988018 

