4000.000000	97.514215 
3999.000000	97.513930 
3998.000000	97.512638 
3997.000000	97.510712 
3996.000000	97.508894 
3995.000000	97.507841 
3994.000000	97.507852 
3993.000000	97.508720 
3992.000000	97.509812 
3991.000000	97.510485 
3990.000000	97.510557 
3989.000000	97.510277 
3988.000000	97.509896 
3987.000000	97.509512 
3986.000000	97.509350 
3985.000000	97.509758 
3984.000000	97.510650 
3983.000000	97.511317 
3982.000000	97.511294 
3981.000000	97.511046 
3980.000000	97.511209 
3979.000000	97.511515 
3978.000000	97.511173 
3977.000000	97.510152 
3976.000000	97.509368 
3975.000000	97.509420 
3974.000000	97.509792 
3973.000000	97.509520 
3972.000000	97.508148 
3971.000000	97.505939 
3970.000000	97.503576 
3969.000000	97.501965 
3968.000000	97.501865 
3967.000000	97.503246 
3966.000000	97.505245 
3965.000000	97.506765 
3964.000000	97.507052 
3963.000000	97.506002 
3962.000000	97.504271 
3961.000000	97.502932 
3960.000000	97.502551 
3959.000000	97.502728 
3958.000000	97.502695 
3957.000000	97.502353 
3956.000000	97.502138 
3955.000000	97.501942 
3954.000000	97.501097 
3953.000000	97.499102 
3952.000000	97.496104 
3951.000000	97.492557 
3950.000000	97.488862 
3949.000000	97.485608 
3948.000000	97.483408 
3947.000000	97.482576 
3946.000000	97.483100 
3945.000000	97.484668 
3944.000000	97.486397 
3943.000000	97.487131 
3942.000000	97.486782 
3941.000000	97.486423 
3940.000000	97.486932 
3939.000000	97.488149 
3938.000000	97.489208 
3937.000000	97.489554 
3936.000000	97.489124 
3935.000000	97.487620 
3934.000000	97.484909 
3933.000000	97.481809 
3932.000000	97.479953 
3931.000000	97.479958 
3930.000000	97.480961 
3929.000000	97.482389 
3928.000000	97.484569 
3927.000000	97.487455 
3926.000000	97.489495 
3925.000000	97.488943 
3924.000000	97.486268 
3923.000000	97.483408 
3922.000000	97.481137 
3921.000000	97.479087 
3920.000000	97.477410 
3919.000000	97.477027 
3918.000000	97.477855 
3917.000000	97.478541 
3916.000000	97.478459 
3915.000000	97.478493 
3914.000000	97.479411 
3913.000000	97.480820 
3912.000000	97.481989 
3911.000000	97.483071 
3910.000000	97.484287 
3909.000000	97.485317 
3908.000000	97.485721 
3907.000000	97.485109 
3906.000000	97.483149 
3905.000000	97.479268 
3904.000000	97.473720 
3903.000000	97.468386 
3902.000000	97.465324 
3901.000000	97.465039 
3900.000000	97.466466 
3899.000000	97.468191 
3898.000000	97.469713 
3897.000000	97.470916 
3896.000000	97.471494 
3895.000000	97.471533 
3894.000000	97.471493 
3893.000000	97.471665 
3892.000000	97.471538 
3891.000000	97.470460 
3890.000000	97.468705 
3889.000000	97.467080 
3888.000000	97.466058 
3887.000000	97.465493 
3886.000000	97.465190 
3885.000000	97.465151 
3884.000000	97.465188 
3883.000000	97.464870 
3882.000000	97.464084 
3881.000000	97.463231 
3880.000000	97.462794 
3879.000000	97.462745 
3878.000000	97.462768 
3877.000000	97.462704 
3876.000000	97.462590 
3875.000000	97.462422 
3874.000000	97.462147 
3873.000000	97.461782 
3872.000000	97.461392 
3871.000000	97.461013 
3870.000000	97.460683 
3869.000000	97.460444 
3868.000000	97.460278 
3867.000000	97.460146 
3866.000000	97.460031 
3865.000000	97.459948 
3864.000000	97.459920 
3863.000000	97.459957 
3862.000000	97.460036 
3861.000000	97.460133 
3860.000000	97.460246 
3859.000000	97.460375 
3858.000000	97.460501 
3857.000000	97.460582 
3856.000000	97.460578 
3855.000000	97.460448 
3854.000000	97.460178 
3853.000000	97.459855 
3852.000000	97.459627 
3851.000000	97.459537 
3850.000000	97.459549 
3849.000000	97.459627 
3848.000000	97.459792 
3847.000000	97.460072 
3846.000000	97.460383 
3845.000000	97.460596 
3844.000000	97.460665 
3843.000000	97.460639 
3842.000000	97.460584 
3841.000000	97.460574 
3840.000000	97.460623 
3839.000000	97.460757 
3838.000000	97.461033 
3837.000000	97.461371 
3836.000000	97.461613 
3835.000000	97.461696 
3834.000000	97.461721 
3833.000000	97.461868 
3832.000000	97.462229 
3831.000000	97.462775 
3830.000000	97.463402 
3829.000000	97.463994 
3828.000000	97.464577 
3827.000000	97.465272 
3826.000000	97.466055 
3825.000000	97.466798 
3824.000000	97.467318 
3823.000000	97.467463 
3822.000000	97.467277 
3821.000000	97.467056 
3820.000000	97.467152 
3819.000000	97.467451 
3818.000000	97.467557 
3817.000000	97.467355 
3816.000000	97.467378 
3815.000000	97.468221 
3814.000000	97.469686 
3813.000000	97.470941 
3812.000000	97.471582 
3811.000000	97.472153 
3810.000000	97.473339 
3809.000000	97.474856 
3808.000000	97.475618 
3807.000000	97.475178 
3806.000000	97.474230 
3805.000000	97.473586 
3804.000000	97.473122 
3803.000000	97.472593 
3802.000000	97.472297 
3801.000000	97.472906 
3800.000000	97.474416 
3799.000000	97.475504 
3798.000000	97.475188 
3797.000000	97.474288 
3796.000000	97.474621 
3795.000000	97.476772 
3794.000000	97.479339 
3793.000000	97.480666 
3792.000000	97.480854 
3791.000000	97.481423 
3790.000000	97.482983 
3789.000000	97.484415 
3788.000000	97.484707 
3787.000000	97.484207 
3786.000000	97.483681 
3785.000000	97.483092 
3784.000000	97.482054 
3783.000000	97.480908 
3782.000000	97.479897 
3781.000000	97.478473 
3780.000000	97.476427 
3779.000000	97.475080 
3778.000000	97.475628 
3777.000000	97.477379 
3776.000000	97.478368 
3775.000000	97.477514 
3774.000000	97.475511 
3773.000000	97.473563 
3772.000000	97.471715 
3771.000000	97.468938 
3770.000000	97.465284 
3769.000000	97.462613 
3768.000000	97.461674 
3767.000000	97.460861 
3766.000000	97.458990 
3765.000000	97.457224 
3764.000000	97.458073 
3763.000000	97.461848 
3762.000000	97.465272 
3761.000000	97.465176 
3760.000000	97.462458 
3759.000000	97.461291 
3758.000000	97.461171 
3757.000000	97.457667 
3756.000000	97.450639 
3755.000000	97.443436 
3754.000000	97.436895 
3753.000000	97.427950 
3752.000000	97.416774 
3751.000000	97.408725 
3750.000000	97.404002 
3749.000000	97.397798 
3748.000000	97.391206 
3747.000000	97.389128 
3746.000000	97.390747 
3745.000000	97.388890 
3744.000000	97.388348 
3743.000000	97.396624 
3742.000000	97.404146 
3741.000000	97.398392 
3740.000000	97.382305 
3739.000000	97.372684 
3738.000000	97.379056 
3737.000000	97.389863 
3736.000000	97.391218 
3735.000000	97.386682 
3734.000000	97.387261 
3733.000000	97.391895 
3732.000000	97.394347 
3731.000000	97.395816 
3730.000000	97.398639 
3729.000000	97.399644 
3728.000000	97.395383 
3727.000000	97.388325 
3726.000000	97.385577 
3725.000000	97.389166 
3724.000000	97.393428 
3723.000000	97.393523 
3722.000000	97.391058 
3721.000000	97.389484 
3720.000000	97.386821 
3719.000000	97.381258 
3718.000000	97.374126 
3717.000000	97.366760 
3716.000000	97.359282 
3715.000000	97.348326 
3714.000000	97.330573 
3713.000000	97.308456 
3712.000000	97.288446 
3711.000000	97.273675 
3710.000000	97.259272 
3709.000000	97.240288 
3708.000000	97.217464 
3707.000000	97.193200 
3706.000000	97.169438 
3705.000000	97.146821 
3704.000000	97.124404 
3703.000000	97.100207 
3702.000000	97.072090 
3701.000000	97.040255 
3700.000000	97.007670 
3699.000000	96.978585 
3698.000000	96.956457 
3697.000000	96.941689 
3696.000000	96.933736 
3695.000000	96.931007 
3694.000000	96.928634 
3693.000000	96.922084 
3692.000000	96.911214 
3691.000000	96.898992 
3690.000000	96.885588 
3689.000000	96.871151 
3688.000000	96.859789 
3687.000000	96.853670 
3686.000000	96.849524 
3685.000000	96.842255 
3684.000000	96.831107 
3683.000000	96.821481 
3682.000000	96.817272 
3681.000000	96.811572 
3680.000000	96.792965 
3679.000000	96.757853 
3678.000000	96.714089 
3677.000000	96.670263 
3676.000000	96.629465 
3675.000000	96.596960 
3674.000000	96.572684 
3673.000000	96.547550 
3672.000000	96.513874 
3671.000000	96.475332 
3670.000000	96.442810 
3669.000000	96.420339 
3668.000000	96.398688 
3667.000000	96.369226 
3666.000000	96.335769 
3665.000000	96.306411 
3664.000000	96.282480 
3663.000000	96.259644 
3662.000000	96.232662 
3661.000000	96.198478 
3660.000000	96.158542 
3659.000000	96.116557 
3658.000000	96.076906 
3657.000000	96.040461 
3656.000000	96.005265 
3655.000000	95.970042 
3654.000000	95.933054 
3653.000000	95.892521 
3652.000000	95.847480 
3651.000000	95.799934 
3650.000000	95.755726 
3649.000000	95.719517 
3648.000000	95.690466 
3647.000000	95.666001 
3646.000000	95.646183 
3645.000000	95.631315 
3644.000000	95.619804 
3643.000000	95.609802 
3642.000000	95.599183 
3641.000000	95.585242 
3640.000000	95.565821 
3639.000000	95.539973 
3638.000000	95.509774 
3637.000000	95.478727 
3636.000000	95.448264 
3635.000000	95.415331 
3634.000000	95.376017 
3633.000000	95.331497 
3632.000000	95.287271 
3631.000000	95.248237 
3630.000000	95.216101 
3629.000000	95.191878 
3628.000000	95.173778 
3627.000000	95.155297 
3626.000000	95.132055 
3625.000000	95.108829 
3624.000000	95.094114 
3623.000000	95.091256 
3622.000000	95.096284 
3621.000000	95.102721 
3620.000000	95.107583 
3619.000000	95.112522 
3618.000000	95.119062 
3617.000000	95.128356 
3616.000000	95.145797 
3615.000000	95.176831 
3614.000000	95.218770 
3613.000000	95.260967 
3612.000000	95.293185 
3611.000000	95.312889 
3610.000000	95.326670 
3609.000000	95.344452 
3608.000000	95.370044 
3607.000000	95.398579 
3606.000000	95.422938 
3605.000000	95.442506 
3604.000000	95.463095 
3603.000000	95.488925 
3602.000000	95.517625 
3601.000000	95.541933 
3600.000000	95.556721 
3599.000000	95.563267 
3598.000000	95.567625 
3597.000000	95.575850 
3596.000000	95.591679 
3595.000000	95.611955 
3594.000000	95.628219 
3593.000000	95.634621 
3592.000000	95.631921 
3591.000000	95.625795 
3590.000000	95.623247 
3589.000000	95.628856 
3588.000000	95.642429 
3587.000000	95.659307 
3586.000000	95.674083 
3585.000000	95.685079 
3584.000000	95.695472 
3583.000000	95.708626 
3582.000000	95.724734 
3581.000000	95.740018 
3580.000000	95.750151 
3579.000000	95.753643 
3578.000000	95.752509 
3577.000000	95.750507 
3576.000000	95.750418 
3575.000000	95.752868 
3574.000000	95.755663 
3573.000000	95.755782 
3572.000000	95.751111 
3571.000000	95.741667 
3570.000000	95.729595 
3569.000000	95.718517 
3568.000000	95.712443 
3567.000000	95.713892 
3566.000000	95.721085 
3565.000000	95.729112 
3564.000000	95.734706 
3563.000000	95.738583 
3562.000000	95.743069 
3561.000000	95.749336 
3560.000000	95.756253 
3559.000000	95.761653 
3558.000000	95.764295 
3557.000000	95.764888 
3556.000000	95.765214 
3555.000000	95.766734 
3554.000000	95.769484 
3553.000000	95.771928 
3552.000000	95.772279 
3551.000000	95.769674 
3550.000000	95.764900 
3549.000000	95.760370 
3548.000000	95.758839 
3547.000000	95.761015 
3546.000000	95.764625 
3545.000000	95.766689 
3544.000000	95.766901 
3543.000000	95.767395 
3542.000000	95.769652 
3541.000000	95.773169 
3540.000000	95.776629 
3539.000000	95.779068 
3538.000000	95.780054 
3537.000000	95.779546 
3536.000000	95.778111 
3535.000000	95.776411 
3534.000000	95.774811 
3533.000000	95.773526 
3532.000000	95.772977 
3531.000000	95.773547 
3530.000000	95.774839 
3529.000000	95.775564 
3528.000000	95.774539 
3527.000000	95.771833 
3526.000000	95.768892 
3525.000000	95.767485 
3524.000000	95.768471 
3523.000000	95.771385 
3522.000000	95.774731 
3521.000000	95.777016 
3520.000000	95.777829 
3519.000000	95.777708 
3518.000000	95.777273 
3517.000000	95.776511 
3516.000000	95.775150 
3515.000000	95.773406 
3514.000000	95.772137 
3513.000000	95.772103 
3512.000000	95.773067 
3511.000000	95.773789 
3510.000000	95.773088 
3509.000000	95.770886 
3508.000000	95.768152 
3507.000000	95.765892 
3506.000000	95.764300 
3505.000000	95.762833 
3504.000000	95.760947 
3503.000000	95.758492 
3502.000000	95.755617 
3501.000000	95.752628 
3500.000000	95.750056 
3499.000000	95.748490 
3498.000000	95.748048 
3497.000000	95.748098 
3496.000000	95.747557 
3495.000000	95.745666 
3494.000000	95.742614 
3493.000000	95.739428 
3492.000000	95.737040 
3491.000000	95.735466 
3490.000000	95.734170 
3489.000000	95.732885 
3488.000000	95.731442 
3487.000000	95.729036 
3486.000000	95.724663 
3485.000000	95.718671 
3484.000000	95.713069 
3483.000000	95.709489 
3482.000000	95.707480 
3481.000000	95.705446 
3480.000000	95.702790 
3479.000000	95.700207 
3478.000000	95.698165 
3477.000000	95.696089 
3476.000000	95.693006 
3475.000000	95.688556 
3474.000000	95.683309 
3473.000000	95.678407 
3472.000000	95.674782 
3471.000000	95.672369 
3470.000000	95.670150 
3469.000000	95.667256 
3468.000000	95.663750 
3467.000000	95.660263 
3466.000000	95.657122 
3465.000000	95.653975 
3464.000000	95.650118 
3463.000000	95.645008 
3462.000000	95.638622 
3461.000000	95.631535 
3460.000000	95.624552 
3459.000000	95.618124 
3458.000000	95.612197 
3457.000000	95.606586 
3456.000000	95.601527 
3455.000000	95.597517 
3454.000000	95.594822 
3453.000000	95.593025 
3452.000000	95.591252 
3451.000000	95.588940 
3450.000000	95.586116 
3449.000000	95.582947 
3448.000000	95.579146 
3447.000000	95.574153 
3446.000000	95.567851 
3445.000000	95.561081 
3444.000000	95.555257 
3443.000000	95.551290 
3442.000000	95.548794 
3441.000000	95.546341 
3440.000000	95.542715 
3439.000000	95.537812 
3438.000000	95.532310 
3437.000000	95.526707 
3436.000000	95.521198 
3435.000000	95.516275 
3434.000000	95.512896 
3433.000000	95.511542 
3432.000000	95.511472 
3431.000000	95.511285 
3430.000000	95.509986 
3429.000000	95.507358 
3428.000000	95.503472 
3427.000000	95.498433 
3426.000000	95.492818 
3425.000000	95.487938 
3424.000000	95.485024 
3423.000000	95.483894 
3422.000000	95.482852 
3421.000000	95.480451 
3420.000000	95.477136 
3419.000000	95.474534 
3418.000000	95.473441 
3417.000000	95.473181 
3416.000000	95.472723 
3415.000000	95.471607 
3414.000000	95.469613 
3413.000000	95.466373 
3412.000000	95.461960 
3411.000000	95.457489 
3410.000000	95.454500 
3409.000000	95.453720 
3408.000000	95.454472 
3407.000000	95.455107 
3406.000000	95.454206 
3405.000000	95.451677 
3404.000000	95.448827 
3403.000000	95.446951 
3402.000000	95.446019 
3401.000000	95.445084 
3400.000000	95.443762 
3399.000000	95.442577 
3398.000000	95.441897 
3397.000000	95.441411 
3396.000000	95.440882 
3395.000000	95.440766 
3394.000000	95.441561 
3393.000000	95.442941 
3392.000000	95.443966 
3391.000000	95.444069 
3390.000000	95.443602 
3389.000000	95.443469 
3388.000000	95.444401 
3387.000000	95.446392 
3386.000000	95.448533 
3385.000000	95.449365 
3384.000000	95.447857 
3383.000000	95.444435 
3382.000000	95.441177 
3381.000000	95.440383 
3380.000000	95.442592 
3379.000000	95.446153 
3378.000000	95.448994 
3377.000000	95.450923 
3376.000000	95.453385 
3375.000000	95.457085 
3374.000000	95.460766 
3373.000000	95.462690 
3372.000000	95.462778 
3371.000000	95.462753 
3370.000000	95.464380 
3369.000000	95.467886 
3368.000000	95.471967 
3367.000000	95.474971 
3366.000000	95.476175 
3365.000000	95.476115 
3364.000000	95.475868 
3363.000000	95.476098 
3362.000000	95.476939 
3361.000000	95.478571 
3360.000000	95.481415 
3359.000000	95.485508 
3358.000000	95.490033 
3357.000000	95.493857 
3356.000000	95.496530 
3355.000000	95.498576 
3354.000000	95.500889 
3353.000000	95.504003 
3352.000000	95.507786 
3351.000000	95.511607 
3350.000000	95.514763 
3349.000000	95.516957 
3348.000000	95.518501 
3347.000000	95.520101 
3346.000000	95.522384 
3345.000000	95.525422 
3344.000000	95.528577 
3343.000000	95.530925 
3342.000000	95.532094 
3341.000000	95.532742 
3340.000000	95.533960 
3339.000000	95.536101 
3338.000000	95.538559 
3337.000000	95.540629 
3336.000000	95.542247 
3335.000000	95.543811 
3334.000000	95.545613 
3333.000000	95.547668 
3332.000000	95.549900 
3331.000000	95.552251 
3330.000000	95.554635 
3329.000000	95.556988 
3328.000000	95.559393 
3327.000000	95.562030 
3326.000000	95.564949 
3325.000000	95.567933 
3324.000000	95.570600 
3323.000000	95.572663 
3322.000000	95.574181 
3321.000000	95.575582 
3320.000000	95.577389 
3319.000000	95.579840 
3318.000000	95.582835 
3317.000000	95.586123 
3316.000000	95.589465 
3315.000000	95.592609 
3314.000000	95.595303 
3313.000000	95.597467 
3312.000000	95.599325 
3311.000000	95.601261 
3310.000000	95.603547 
3309.000000	95.606215 
3308.000000	95.609073 
3307.000000	95.611766 
3306.000000	95.613947 
3305.000000	95.615533 
3304.000000	95.616829 
3303.000000	95.618367 
3302.000000	95.620527 
3301.000000	95.623315 
3300.000000	95.626377 
3299.000000	95.629159 
3298.000000	95.631248 
3297.000000	95.632646 
3296.000000	95.633815 
3295.000000	95.635394 
3294.000000	95.637771 
3293.000000	95.640947 
3292.000000	95.644607 
3291.000000	95.648257 
3290.000000	95.651423 
3289.000000	95.653869 
3288.000000	95.655707 
3287.000000	95.657291 
3286.000000	95.658909 
3285.000000	95.660594 
3284.000000	95.662244 
3283.000000	95.663872 
3282.000000	95.665666 
3281.000000	95.667771 
3280.000000	95.670043 
3279.000000	95.672166 
3278.000000	95.674129 
3277.000000	95.676402 
3276.000000	95.679396 
3275.000000	95.682861 
3274.000000	95.686158 
3273.000000	95.689093 
3272.000000	95.692115 
3271.000000	95.695626 
3270.000000	95.699382 
3269.000000	95.702699 
3268.000000	95.705135 
3267.000000	95.706907 
3266.000000	95.708801 
3265.000000	95.711652 
3264.000000	95.715679 
3263.000000	95.720202 
3262.000000	95.724134 
3261.000000	95.726967 
3260.000000	95.729039 
3259.000000	95.730938 
3258.000000	95.732972 
3257.000000	95.735347 
3256.000000	95.738439 
3255.000000	95.742344 
3254.000000	95.746402 
3253.000000	95.749710 
3252.000000	95.752165 
3251.000000	95.754594 
3250.000000	95.757724 
3249.000000	95.761349 
3248.000000	95.764674 
3247.000000	95.767292 
3246.000000	95.769574 
3245.000000	95.772158 
3244.000000	95.775205 
3243.000000	95.778271 
3242.000000	95.780878 
3241.000000	95.783083 
3240.000000	95.785403 
3239.000000	95.788320 
3238.000000	95.792062 
3237.000000	95.796721 
3236.000000	95.802195 
3235.000000	95.807901 
3234.000000	95.812876 
3233.000000	95.816483 
3232.000000	95.818977 
3231.000000	95.821339 
3230.000000	95.824424 
3229.000000	95.828347 
3228.000000	95.832678 
3227.000000	95.837114 
3226.000000	95.841849 
3225.000000	95.847120 
3224.000000	95.852545 
3223.000000	95.857276 
3222.000000	95.860906 
3221.000000	95.864030 
3220.000000	95.867625 
3219.000000	95.871990 
3218.000000	95.876632 
3217.000000	95.881048 
3216.000000	95.885278 
3215.000000	95.889661 
3214.000000	95.894394 
3213.000000	95.899422 
3212.000000	95.904526 
3211.000000	95.909447 
3210.000000	95.914035 
3209.000000	95.918384 
3208.000000	95.922692 
3207.000000	95.927000 
3206.000000	95.931180 
3205.000000	95.935219 
3204.000000	95.939404 
3203.000000	95.944129 
3202.000000	95.949533 
3201.000000	95.955363 
3200.000000	95.961160 
3199.000000	95.966638 
3198.000000	95.971861 
3197.000000	95.977019 
3196.000000	95.982130 
3195.000000	95.987072 
3194.000000	95.991874 
3193.000000	95.996835 
3192.000000	96.002246 
3191.000000	96.008057 
3190.000000	96.013837 
3189.000000	96.019217 
3188.000000	96.024227 
3187.000000	96.029208 
3186.000000	96.034489 
3185.000000	96.040150 
3184.000000	96.045983 
3183.000000	96.051650 
3182.000000	96.057016 
3181.000000	96.062246 
3180.000000	96.067534 
3179.000000	96.072825 
3178.000000	96.077984 
3177.000000	96.083131 
3176.000000	96.088547 
3175.000000	96.094282 
3174.000000	96.100112 
3173.000000	96.105858 
3172.000000	96.111543 
3171.000000	96.117191 
3170.000000	96.122750 
3169.000000	96.128318 
3168.000000	96.134151 
3167.000000	96.140241 
3166.000000	96.146126 
3165.000000	96.151372 
3164.000000	96.155982 
3163.000000	96.160267 
3162.000000	96.164575 
3161.000000	96.169289 
3160.000000	96.174782 
3159.000000	96.181116 
3158.000000	96.187954 
3157.000000	96.194894 
3156.000000	96.201690 
3155.000000	96.208145 
3154.000000	96.214192 
3153.000000	96.220185 
3152.000000	96.226573 
3151.000000	96.233013 
3150.000000	96.238361 
3149.000000	96.241934 
3148.000000	96.244439 
3147.000000	96.247440 
3146.000000	96.252081 
3145.000000	96.258495 
3144.000000	96.265898 
3143.000000	96.272880 
3142.000000	96.278192 
3141.000000	96.281767 
3140.000000	96.284866 
3139.000000	96.288873 
3138.000000	96.293964 
3137.000000	96.299180 
3136.000000	96.303461 
3135.000000	96.306437 
3134.000000	96.308662 
3133.000000	96.311329 
3132.000000	96.315405 
3131.000000	96.320866 
3130.000000	96.327062 
3129.000000	96.333804 
3128.000000	96.341512 
3127.000000	96.350191 
3126.000000	96.358957 
3125.000000	96.366904 
3124.000000	96.373922 
3123.000000	96.380219 
3122.000000	96.385576 
3121.000000	96.389743 
3120.000000	96.393317 
3119.000000	96.397518 
3118.000000	96.403006 
3117.000000	96.409318 
3116.000000	96.415471 
3115.000000	96.420849 
3114.000000	96.425517 
3113.000000	96.429994 
3112.000000	96.434895 
3111.000000	96.440621 
3110.000000	96.447116 
3109.000000	96.453762 
3108.000000	96.459705 
3107.000000	96.464556 
3106.000000	96.468744 
3105.000000	96.472964 
3104.000000	96.477257 
3103.000000	96.481002 
3102.000000	96.483844 
3101.000000	96.486240 
3100.000000	96.488865 
3099.000000	96.491922 
3098.000000	96.495584 
3097.000000	96.500713 
3096.000000	96.508205 
3095.000000	96.517566 
3094.000000	96.526873 
3093.000000	96.534408 
3092.000000	96.539920 
3091.000000	96.544128 
3090.000000	96.547697 
3089.000000	96.550979 
3088.000000	96.554273 
3087.000000	96.557977 
3086.000000	96.562627 
3085.000000	96.568629 
3084.000000	96.575469 
3083.000000	96.581493 
3082.000000	96.585375 
3081.000000	96.587863 
3080.000000	96.591024 
3079.000000	96.595351 
3078.000000	96.599110 
3077.000000	96.601171 
3076.000000	96.602952 
3075.000000	96.606340 
3074.000000	96.611047 
3073.000000	96.615621 
3072.000000	96.620045 
3071.000000	96.625380 
3070.000000	96.631346 
3069.000000	96.636306 
3068.000000	96.639578 
3067.000000	96.641999 
3066.000000	96.644140 
3065.000000	96.645703 
3064.000000	96.646871 
3063.000000	96.648517 
3062.000000	96.650582 
3061.000000	96.651777 
3060.000000	96.651577 
3059.000000	96.651482 
3058.000000	96.653774 
3057.000000	96.659550 
3056.000000	96.667879 
3055.000000	96.675900 
3054.000000	96.680157 
3053.000000	96.679421 
3052.000000	96.676648 
3051.000000	96.676814 
3050.000000	96.681888 
3049.000000	96.688852 
3048.000000	96.693089 
3047.000000	96.692676 
3046.000000	96.688901 
3045.000000	96.684205 
3044.000000	96.680917 
3043.000000	96.681174 
3042.000000	96.686058 
3041.000000	96.693945 
3040.000000	96.700510 
3039.000000	96.701644 
3038.000000	96.696829 
3037.000000	96.689361 
3036.000000	96.682914 
3035.000000	96.678076 
3034.000000	96.672924 
3033.000000	96.666501 
3032.000000	96.660339 
3031.000000	96.656459 
3030.000000	96.655124 
3029.000000	96.654939 
3028.000000	96.653824 
3027.000000	96.649357 
3026.000000	96.639859 
3025.000000	96.626507 
3024.000000	96.613319 
3023.000000	96.603436 
3022.000000	96.596098 
3021.000000	96.588824 
3020.000000	96.581551 
3019.000000	96.576429 
3018.000000	96.573658 
3017.000000	96.569894 
3016.000000	96.561755 
3015.000000	96.549438 
3014.000000	96.536187 
3013.000000	96.525100 
3012.000000	96.516813 
3011.000000	96.509348 
3010.000000	96.499676 
3009.000000	96.486086 
3008.000000	96.469361 
3007.000000	96.451430 
3006.000000	96.433259 
3005.000000	96.414932 
3004.000000	96.397374 
3003.000000	96.382490 
3002.000000	96.371362 
3001.000000	96.363397 
3000.000000	96.357369 
2999.000000	96.352144 
2998.000000	96.346306 
2997.000000	96.338618 
2996.000000	96.329391 
2995.000000	96.320065 
2994.000000	96.310505 
2993.000000	96.297714 
2992.000000	96.278599 
2991.000000	96.254004 
2990.000000	96.229422 
2989.000000	96.211628 
2988.000000	96.204596 
2987.000000	96.207912 
2986.000000	96.218062 
2985.000000	96.231024 
2984.000000	96.243918 
2983.000000	96.254860 
2982.000000	96.262487 
2981.000000	96.266410 
2980.000000	96.267566 
2979.000000	96.267165 
2978.000000	96.265518 
2977.000000	96.262708 
2976.000000	96.259943 
2975.000000	96.259008 
2974.000000	96.260471 
2973.000000	96.263701 
2972.000000	96.268589 
2971.000000	96.275809 
2970.000000	96.285055 
2969.000000	96.294589 
2968.000000	96.303319 
2967.000000	96.312176 
2966.000000	96.322586 
2965.000000	96.334623 
2964.000000	96.347549 
2963.000000	96.361094 
2962.000000	96.374953 
2961.000000	96.387739 
2960.000000	96.398040 
2959.000000	96.406533 
2958.000000	96.415838 
2957.000000	96.427847 
2956.000000	96.441763 
2955.000000	96.454981 
2954.000000	96.465596 
2953.000000	96.474072 
2952.000000	96.482816 
2951.000000	96.493985 
2950.000000	96.507199 
2949.000000	96.519437 
2948.000000	96.527590 
2947.000000	96.530987 
2946.000000	96.531314 
2945.000000	96.530628 
2944.000000	96.530049 
2943.000000	96.530179 
2942.000000	96.531530 
2941.000000	96.533889 
2940.000000	96.536111 
2939.000000	96.537471 
2938.000000	96.538959 
2937.000000	96.542471 
2936.000000	96.548514 
2935.000000	96.555107 
2934.000000	96.559099 
2933.000000	96.558490 
2932.000000	96.553746 
2931.000000	96.547528 
2930.000000	96.543219 
2929.000000	96.542907 
2928.000000	96.545975 
2927.000000	96.549539 
2926.000000	96.550742 
2925.000000	96.549146 
2924.000000	96.546999 
2923.000000	96.547171 
2922.000000	96.550811 
2921.000000	96.556810 
2920.000000	96.563228 
2919.000000	96.568953 
2918.000000	96.573812 
2917.000000	96.577274 
2916.000000	96.577759 
2915.000000	96.574068 
2914.000000	96.567551 
2913.000000	96.561943 
2912.000000	96.560194 
2911.000000	96.561614 
2910.000000	96.562847 
2909.000000	96.561609 
2908.000000	96.558927 
2907.000000	96.557353 
2906.000000	96.557493 
2905.000000	96.556688 
2904.000000	96.551542 
2903.000000	96.541797 
2902.000000	96.532668 
2901.000000	96.531095 
2900.000000	96.540192 
2899.000000	96.556996 
2898.000000	96.575077 
2897.000000	96.589867 
2896.000000	96.600502 
2895.000000	96.607632 
2894.000000	96.611956 
2893.000000	96.615330 
2892.000000	96.620800 
2891.000000	96.629639 
2890.000000	96.639426 
2889.000000	96.646798 
2888.000000	96.651453 
2887.000000	96.655683 
2886.000000	96.660644 
2885.000000	96.665474 
2884.000000	96.670292 
2883.000000	96.677407 
2882.000000	96.688146 
2881.000000	96.700355 
2880.000000	96.711006 
2879.000000	96.720408 
2878.000000	96.731586 
2877.000000	96.745679 
2876.000000	96.759953 
2875.000000	96.770941 
2874.000000	96.778059 
2873.000000	96.783320 
2872.000000	96.788667 
2871.000000	96.794702 
2870.000000	96.801412 
2869.000000	96.808794 
2868.000000	96.816690 
2867.000000	96.824827 
2866.000000	96.833212 
2865.000000	96.842041 
2864.000000	96.851403 
2863.000000	96.861643 
2862.000000	96.873650 
2861.000000	96.887677 
2860.000000	96.901890 
2859.000000	96.913512 
2858.000000	96.922111 
2857.000000	96.930739 
2856.000000	96.942715 
2855.000000	96.957741 
2854.000000	96.972244 
2853.000000	96.983223 
2852.000000	96.990632 
2851.000000	96.996352 
2850.000000	97.002063 
2849.000000	97.008398 
2848.000000	97.015265 
2847.000000	97.022254 
2846.000000	97.028956 
2845.000000	97.035252 
2844.000000	97.041255 
2843.000000	97.047082 
2842.000000	97.052949 
2841.000000	97.059167 
2840.000000	97.065523 
2839.000000	97.071008 
2838.000000	97.074930 
2837.000000	97.078153 
2836.000000	97.082373 
2835.000000	97.088083 
2834.000000	97.094144 
2833.000000	97.099641 
2832.000000	97.105215 
2831.000000	97.111915 
2830.000000	97.119259 
2829.000000	97.125265 
2828.000000	97.128436 
2827.000000	97.129354 
2826.000000	97.130380 
2825.000000	97.133762 
2824.000000	97.139712 
2823.000000	97.146146 
2822.000000	97.150542 
2821.000000	97.152176 
2820.000000	97.152361 
2819.000000	97.152720 
2818.000000	97.153739 
2817.000000	97.155146 
2816.000000	97.156938 
2815.000000	97.159440 
2814.000000	97.162639 
2813.000000	97.165948 
2812.000000	97.168630 
2811.000000	97.170296 
2810.000000	97.171179 
2809.000000	97.172124 
2808.000000	97.174138 
2807.000000	97.177715 
2806.000000	97.182509 
2805.000000	97.187570 
2804.000000	97.191818 
2803.000000	97.194551 
2802.000000	97.195869 
2801.000000	97.196726 
2800.000000	97.198281 
2799.000000	97.200893 
2798.000000	97.203884 
2797.000000	97.206310 
2796.000000	97.207871 
2795.000000	97.209001 
2794.000000	97.210355 
2793.000000	97.212262 
2792.000000	97.214589 
2791.000000	97.216973 
2790.000000	97.219128 
2789.000000	97.221033 
2788.000000	97.222854 
2787.000000	97.224738 
2786.000000	97.226698 
2785.000000	97.228675 
2784.000000	97.230629 
2783.000000	97.232559 
2782.000000	97.234471 
2781.000000	97.236368 
2780.000000	97.238256 
2779.000000	97.240140 
2778.000000	97.242019 
2777.000000	97.243887 
2776.000000	97.245736 
2775.000000	97.247559 
2774.000000	97.249354 
2773.000000	97.251124 
2772.000000	97.252872 
2771.000000	97.254599 
2770.000000	97.256310 
2769.000000	97.258007 
2768.000000	97.259689 
2767.000000	97.261351 
2766.000000	97.262986 
2765.000000	97.264588 
2764.000000	97.266160 
2763.000000	97.267706 
2762.000000	97.269224 
2761.000000	97.270716 
2760.000000	97.272194 
2759.000000	97.273669 
2758.000000	97.275143 
2757.000000	97.276609 
2756.000000	97.278054 
2755.000000	97.279472 
2754.000000	97.280877 
2753.000000	97.282295 
2752.000000	97.283742 
2751.000000	97.285209 
2750.000000	97.286668 
2749.000000	97.288107 
2748.000000	97.289526 
2747.000000	97.290901 
2746.000000	97.292200 
2745.000000	97.293441 
2744.000000	97.294680 
2743.000000	97.295947 
2742.000000	97.297236 
2741.000000	97.298526 
2740.000000	97.299807 
2739.000000	97.301078 
2738.000000	97.302341 
2737.000000	97.303594 
2736.000000	97.304839 
2735.000000	97.306082 
2734.000000	97.307329 
2733.000000	97.308584 
2732.000000	97.309845 
2731.000000	97.311106 
2730.000000	97.312362 
2729.000000	97.313609 
2728.000000	97.314842 
2727.000000	97.316057 
2726.000000	97.317252 
2725.000000	97.318433 
2724.000000	97.319610 
2723.000000	97.320787 
2722.000000	97.321965 
2721.000000	97.323139 
2720.000000	97.324310 
2719.000000	97.325484 
2718.000000	97.326670 
2717.000000	97.327869 
2716.000000	97.329071 
2715.000000	97.330258 
2714.000000	97.331423 
2713.000000	97.332575 
2712.000000	97.333723 
2711.000000	97.334862 
2710.000000	97.335981 
2709.000000	97.337081 
2708.000000	97.338174 
2707.000000	97.339276 
2706.000000	97.340410 
2705.000000	97.341596 
2704.000000	97.342810 
2703.000000	97.343958 
2702.000000	97.344953 
2701.000000	97.345837 
2700.000000	97.346807 
2699.000000	97.348032 
2698.000000	97.349464 
2697.000000	97.350835 
2696.000000	97.351898 
2695.000000	97.352629 
2694.000000	97.353215 
2693.000000	97.353862 
2692.000000	97.354631 
2691.000000	97.355445 
2690.000000	97.356213 
2689.000000	97.356901 
2688.000000	97.357484 
2687.000000	97.357926 
2686.000000	97.358307 
2685.000000	97.358873 
2684.000000	97.359806 
2683.000000	97.360961 
2682.000000	97.361957 
2681.000000	97.362623 
2680.000000	97.363196 
2679.000000	97.364002 
2678.000000	97.365068 
2677.000000	97.366171 
2676.000000	97.367119 
2675.000000	97.367755 
2674.000000	97.367882 
2673.000000	97.367481 
2672.000000	97.366953 
2671.000000	97.366810 
2670.000000	97.367161 
2669.000000	97.367729 
2668.000000	97.368323 
2667.000000	97.369020 
2666.000000	97.369840 
2665.000000	97.370567 
2664.000000	97.371030 
2663.000000	97.371367 
2662.000000	97.371833 
2661.000000	97.372441 
2660.000000	97.372918 
2659.000000	97.372994 
2658.000000	97.372707 
2657.000000	97.372424 
2656.000000	97.372534 
2655.000000	97.373009 
2654.000000	97.373340 
2653.000000	97.373058 
2652.000000	97.372280 
2651.000000	97.371641 
2650.000000	97.371651 
2649.000000	97.372256 
2648.000000	97.373006 
2647.000000	97.373479 
2646.000000	97.373491 
2645.000000	97.373021 
2644.000000	97.372180 
2643.000000	97.371262 
2642.000000	97.370643 
2641.000000	97.370529 
2640.000000	97.370830 
2639.000000	97.371312 
2638.000000	97.371829 
2637.000000	97.372355 
2636.000000	97.372906 
2635.000000	97.373531 
2634.000000	97.374306 
2633.000000	97.375191 
2632.000000	97.375876 
2631.000000	97.375957 
2630.000000	97.375382 
2629.000000	97.374604 
2628.000000	97.374179 
2627.000000	97.374229 
2626.000000	97.374480 
2625.000000	97.374719 
2624.000000	97.375022 
2623.000000	97.375506 
2622.000000	97.376050 
2621.000000	97.376363 
2620.000000	97.376227 
2619.000000	97.375608 
2618.000000	97.374688 
2617.000000	97.373875 
2616.000000	97.373621 
2615.000000	97.374072 
2614.000000	97.374900 
2613.000000	97.375550 
2612.000000	97.375748 
2611.000000	97.375699 
2610.000000	97.375851 
2609.000000	97.376489 
2608.000000	97.377484 
2607.000000	97.378358 
2606.000000	97.378724 
2605.000000	97.378618 
2604.000000	97.378330 
2603.000000	97.377985 
2602.000000	97.377566 
2601.000000	97.377321 
2600.000000	97.377600 
2599.000000	97.378064 
2598.000000	97.377677 
2597.000000	97.375949 
2596.000000	97.373693 
2595.000000	97.372049 
2594.000000	97.371115 
2593.000000	97.370438 
2592.000000	97.370405 
2591.000000	97.371901 
2590.000000	97.374618 
2589.000000	97.376843 
2588.000000	97.377390 
2587.000000	97.376727 
2586.000000	97.375942 
2585.000000	97.375563 
2584.000000	97.375843 
2583.000000	97.377152 
2582.000000	97.379294 
2581.000000	97.381108 
2580.000000	97.381610 
2579.000000	97.381168 
2578.000000	97.380932 
2577.000000	97.381402 
2576.000000	97.382036 
2575.000000	97.382039 
2574.000000	97.381163 
2573.000000	97.379858 
2572.000000	97.378800 
2571.000000	97.378123 
2570.000000	97.377210 
2569.000000	97.375568 
2568.000000	97.373707 
2567.000000	97.372501 
2566.000000	97.371835 
2565.000000	97.370750 
2564.000000	97.369046 
2563.000000	97.367765 
2562.000000	97.367829 
2561.000000	97.369237 
2560.000000	97.371895 
2559.000000	97.376102 
2558.000000	97.381478 
2557.000000	97.386282 
2556.000000	97.388933 
2555.000000	97.389736 
2554.000000	97.390182 
2553.000000	97.390821 
2552.000000	97.390916 
2551.000000	97.390327 
2550.000000	97.390305 
2549.000000	97.391649 
2548.000000	97.393065 
2547.000000	97.392620 
2546.000000	97.390387 
2545.000000	97.388468 
2544.000000	97.388229 
2543.000000	97.388701 
2542.000000	97.388379 
2541.000000	97.387577 
2540.000000	97.387834 
2539.000000	97.389448 
2538.000000	97.390931 
2537.000000	97.391103 
2536.000000	97.390712 
2535.000000	97.391322 
2534.000000	97.393196 
2533.000000	97.395026 
2532.000000	97.395586 
2531.000000	97.395002 
2530.000000	97.394256 
2529.000000	97.393947 
2528.000000	97.393838 
2527.000000	97.393515 
2526.000000	97.393117 
2525.000000	97.393278 
2524.000000	97.394423 
2523.000000	97.396260 
2522.000000	97.397966 
2521.000000	97.398865 
2520.000000	97.398870 
2519.000000	97.398373 
2518.000000	97.397877 
2517.000000	97.397665 
2516.000000	97.397622 
2515.000000	97.397382 
2514.000000	97.396832 
2513.000000	97.396487 
2512.000000	97.397089 
2511.000000	97.398885 
2510.000000	97.401493 
2509.000000	97.404311 
2508.000000	97.406746 
2507.000000	97.408208 
2506.000000	97.408545 
2505.000000	97.408654 
2504.000000	97.409874 
2503.000000	97.412209 
2502.000000	97.413851 
2501.000000	97.413207 
2500.000000	97.410704 
2499.000000	97.408173 
2498.000000	97.406744 
2497.000000	97.406185 
2496.000000	97.406095 
2495.000000	97.406547 
2494.000000	97.407393 
2493.000000	97.407911 
2492.000000	97.407773 
2491.000000	97.407800 
2490.000000	97.409124 
2489.000000	97.411797 
2488.000000	97.414597 
2487.000000	97.416241 
2486.000000	97.416537 
2485.000000	97.416324 
2484.000000	97.416515 
2483.000000	97.417223 
2482.000000	97.417839 
2481.000000	97.417826 
2480.000000	97.417227 
2479.000000	97.416430 
2478.000000	97.415720 
2477.000000	97.415156 
2476.000000	97.414666 
2475.000000	97.414121 
2474.000000	97.413492 
2473.000000	97.413033 
2472.000000	97.413098 
2471.000000	97.413662 
2470.000000	97.414266 
2469.000000	97.414553 
2468.000000	97.414627 
2467.000000	97.414679 
2466.000000	97.414587 
2465.000000	97.414186 
2464.000000	97.413761 
2463.000000	97.413897 
2462.000000	97.414854 
2461.000000	97.416324 
2460.000000	97.417720 
2459.000000	97.418624 
2458.000000	97.418876 
2457.000000	97.418450 
2456.000000	97.417391 
2455.000000	97.415964 
2454.000000	97.414776 
2453.000000	97.414447 
2452.000000	97.415104 
2451.000000	97.416233 
2450.000000	97.417224 
2449.000000	97.418008 
2448.000000	97.418877 
2447.000000	97.419802 
2446.000000	97.420338 
2445.000000	97.420267 
2444.000000	97.419947 
2443.000000	97.419880 
2442.000000	97.420170 
2441.000000	97.420562 
2440.000000	97.420814 
2439.000000	97.420908 
2438.000000	97.421043 
2437.000000	97.421552 
2436.000000	97.422642 
2435.000000	97.424089 
2434.000000	97.425333 
2433.000000	97.426008 
2432.000000	97.426228 
2431.000000	97.426321 
2430.000000	97.426603 
2429.000000	97.427380 
2428.000000	97.428666 
2427.000000	97.429784 
2426.000000	97.429783 
2425.000000	97.428479 
2424.000000	97.426755 
2423.000000	97.425591 
2422.000000	97.425224 
2421.000000	97.425584 
2420.000000	97.426806 
2419.000000	97.428777 
2418.000000	97.430707 
2417.000000	97.431969 
2416.000000	97.432870 
2415.000000	97.434053 
2414.000000	97.435647 
2413.000000	97.437439 
2412.000000	97.439295 
2411.000000	97.440889 
2410.000000	97.441516 
2409.000000	97.441027 
2408.000000	97.440399 
2407.000000	97.440516 
2406.000000	97.441157 
2405.000000	97.441561 
2404.000000	97.441538 
2403.000000	97.441477 
2402.000000	97.441717 
2401.000000	97.442382 
2400.000000	97.443520 
2399.000000	97.445002 
2398.000000	97.446470 
2397.000000	97.447637 
2396.000000	97.448545 
2395.000000	97.449315 
2394.000000	97.449871 
2393.000000	97.450146 
2392.000000	97.450364 
2391.000000	97.450843 
2390.000000	97.451574 
2389.000000	97.452231 
2388.000000	97.452559 
2387.000000	97.452588 
2386.000000	97.452471 
2385.000000	97.452327 
2384.000000	97.452232 
2383.000000	97.452222 
2382.000000	97.452259 
2381.000000	97.452259 
2380.000000	97.452233 
2379.000000	97.452285 
2378.000000	97.452411 
2377.000000	97.452409 
2376.000000	97.452111 
2375.000000	97.451621 
2374.000000	97.451187 
2373.000000	97.450855 
2372.000000	97.450451 
2371.000000	97.449937 
2370.000000	97.449552 
2369.000000	97.449436 
2368.000000	97.449288 
2367.000000	97.448646 
2366.000000	97.447390 
2365.000000	97.445905 
2364.000000	97.444752 
2363.000000	97.444114 
2362.000000	97.443829 
2361.000000	97.443745 
2360.000000	97.443802 
2359.000000	97.443785 
2358.000000	97.443345 
2357.000000	97.442325 
2356.000000	97.440928 
2355.000000	97.439397 
2354.000000	97.437673 
2353.000000	97.435747 
2352.000000	97.434208 
2351.000000	97.433731 
2350.000000	97.433848 
2349.000000	97.433113 
2348.000000	97.430942 
2347.000000	97.428604 
2346.000000	97.427965 
2345.000000	97.429334 
2344.000000	97.431411 
2343.000000	97.432883 
2342.000000	97.433424 
2341.000000	97.433766 
2340.000000	97.434853 
2339.000000	97.436602 
2338.000000	97.437637 
2337.000000	97.436837 
2336.000000	97.434706 
2335.000000	97.432513 
2334.000000	97.430577 
2333.000000	97.428711 
2332.000000	97.427765 
2331.000000	97.428917 
2330.000000	97.431079 
2329.000000	97.431469 
2328.000000	97.429126 
2327.000000	97.425697 
2326.000000	97.423280 
2325.000000	97.422834 
2324.000000	97.425169 
2323.000000	97.430396 
2322.000000	97.436175 
2321.000000	97.439159 
2320.000000	97.438964 
2319.000000	97.438838 
2318.000000	97.440991 
2317.000000	97.444089 
2316.000000	97.445945 
2315.000000	97.446856 
2314.000000	97.448545 
2313.000000	97.451492 
2312.000000	97.454752 
2311.000000	97.457308 
2310.000000	97.458123 
2309.000000	97.456161 
2308.000000	97.452176 
2307.000000	97.448996 
2306.000000	97.448487 
2305.000000	97.449303 
2304.000000	97.449172 
2303.000000	97.448202 
2302.000000	97.448315 
2301.000000	97.449930 
2300.000000	97.450970 
2299.000000	97.449140 
2298.000000	97.443839 
2297.000000	97.436227 
2296.000000	97.428712 
2295.000000	97.423805 
2294.000000	97.422443 
2293.000000	97.423002 
2292.000000	97.422873 
2291.000000	97.420976 
2290.000000	97.418351 
2289.000000	97.416475 
2288.000000	97.415641 
2287.000000	97.415051 
2286.000000	97.414063 
2285.000000	97.413033 
2284.000000	97.412904 
2283.000000	97.413870 
2282.000000	97.414646 
2281.000000	97.413509 
2280.000000	97.409884 
2279.000000	97.404602 
2278.000000	97.399050 
2277.000000	97.394605 
2276.000000	97.392368 
2275.000000	97.392481 
2274.000000	97.393795 
2273.000000	97.395083 
2272.000000	97.396302 
2271.000000	97.397727 
2270.000000	97.398483 
2269.000000	97.397337 
2268.000000	97.394676 
2267.000000	97.392345 
2266.000000	97.391412 
2265.000000	97.391231 
2264.000000	97.390841 
2263.000000	97.390045 
2262.000000	97.388803 
2261.000000	97.386835 
2260.000000	97.384414 
2259.000000	97.382551 
2258.000000	97.381770 
2257.000000	97.381580 
2256.000000	97.381597 
2255.000000	97.382302 
2254.000000	97.383956 
2253.000000	97.385389 
2252.000000	97.385021 
2251.000000	97.382588 
2250.000000	97.378958 
2249.000000	97.375031 
2248.000000	97.371527 
2247.000000	97.369190 
2246.000000	97.368264 
2245.000000	97.368074 
2244.000000	97.367520 
2243.000000	97.366205 
2242.000000	97.364575 
2241.000000	97.363210 
2240.000000	97.362301 
2239.000000	97.361715 
2238.000000	97.361177 
2237.000000	97.360374 
2236.000000	97.359181 
2235.000000	97.357753 
2234.000000	97.356349 
2233.000000	97.355063 
2232.000000	97.353843 
2231.000000	97.352677 
2230.000000	97.351583 
2229.000000	97.350487 
2228.000000	97.349296 
2227.000000	97.348114 
2226.000000	97.347134 
2225.000000	97.346321 
2224.000000	97.345385 
2223.000000	97.344199 
2222.000000	97.342964 
2221.000000	97.341926 
2220.000000	97.341049 
2219.000000	97.340153 
2218.000000	97.339131 
2217.000000	97.338021 
2216.000000	97.336889 
2215.000000	97.335757 
2214.000000	97.334613 
2213.000000	97.333456 
2212.000000	97.332310 
2211.000000	97.331207 
2210.000000	97.330166 
2209.000000	97.329184 
2208.000000	97.328241 
2207.000000	97.327314 
2206.000000	97.326382 
2205.000000	97.325418 
2204.000000	97.324405 
2203.000000	97.323360 
2202.000000	97.322368 
2201.000000	97.321490 
2200.000000	97.320570 
2199.000000	97.319307 
2198.000000	97.317549 
2197.000000	97.315504 
2196.000000	97.313602 
2195.000000	97.312101 
2194.000000	97.310882 
2193.000000	97.309698 
2192.000000	97.308639 
2191.000000	97.308035 
2190.000000	97.307826 
2189.000000	97.307498 
2188.000000	97.306831 
2187.000000	97.306167 
2186.000000	97.305545 
2185.000000	97.304271 
2184.000000	97.302125 
2183.000000	97.300505 
2182.000000	97.301115 
2181.000000	97.303670 
2180.000000	97.305572 
2179.000000	97.304705 
2178.000000	97.301477 
2177.000000	97.298331 
2176.000000	97.297318 
2175.000000	97.298458 
2174.000000	97.300026 
2173.000000	97.300298 
2172.000000	97.299491 
2171.000000	97.299587 
2170.000000	97.301590 
2169.000000	97.303597 
2168.000000	97.303050 
2167.000000	97.300639 
2166.000000	97.299696 
2165.000000	97.301231 
2164.000000	97.301940 
2163.000000	97.298668 
2162.000000	97.293303 
2161.000000	97.291161 
2160.000000	97.295404 
2159.000000	97.304852 
2158.000000	97.316018 
2157.000000	97.325968 
2156.000000	97.333432 
2155.000000	97.338558 
2154.000000	97.342410 
2153.000000	97.346413 
2152.000000	97.351486 
2151.000000	97.356875 
2150.000000	97.360045 
2149.000000	97.359069 
2148.000000	97.355628 
2147.000000	97.354193 
2146.000000	97.357228 
2145.000000	97.362754 
2144.000000	97.367838 
2143.000000	97.372640 
2142.000000	97.378739 
2141.000000	97.385132 
2140.000000	97.389136 
2139.000000	97.390968 
2138.000000	97.394370 
2137.000000	97.401810 
2136.000000	97.410988 
2135.000000	97.416824 
2134.000000	97.415855 
2133.000000	97.409032 
2132.000000	97.401602 
2131.000000	97.399255 
2130.000000	97.403356 
2129.000000	97.410201 
2128.000000	97.415362 
2127.000000	97.418254 
2126.000000	97.421381 
2125.000000	97.426116 
2124.000000	97.430975 
2123.000000	97.433647 
2122.000000	97.433031 
2121.000000	97.429235 
2120.000000	97.423084 
2119.000000	97.416061 
2118.000000	97.409868 
2117.000000	97.405687 
2116.000000	97.403670 
2115.000000	97.402810 
2114.000000	97.401286 
2113.000000	97.397980 
2112.000000	97.394408 
2111.000000	97.394011 
2110.000000	97.398547 
2109.000000	97.406010 
2108.000000	97.412748 
2107.000000	97.416905 
2106.000000	97.418935 
2105.000000	97.420223 
2104.000000	97.422442 
2103.000000	97.426694 
2102.000000	97.431552 
2101.000000	97.433082 
2100.000000	97.428890 
2099.000000	97.421641 
2098.000000	97.417176 
2097.000000	97.418579 
2096.000000	97.424128 
2095.000000	97.430228 
2094.000000	97.434784 
2093.000000	97.437441 
2092.000000	97.438224 
2091.000000	97.437514 
2090.000000	97.436626 
2089.000000	97.437090 
2088.000000	97.439142 
2087.000000	97.441337 
2086.000000	97.441840 
2085.000000	97.440155 
2084.000000	97.437729 
2083.000000	97.436671 
2082.000000	97.437653 
2081.000000	97.439435 
2080.000000	97.440617 
2079.000000	97.441171 
2078.000000	97.441679 
2077.000000	97.441830 
2076.000000	97.440896 
2075.000000	97.439350 
2074.000000	97.438562 
2073.000000	97.438786 
2072.000000	97.438709 
2071.000000	97.437246 
2070.000000	97.434825 
2069.000000	97.432689 
2068.000000	97.431672 
2067.000000	97.431807 
2066.000000	97.432412 
2065.000000	97.432248 
2064.000000	97.430379 
2063.000000	97.427395 
2062.000000	97.425337 
2061.000000	97.425817 
2060.000000	97.428640 
2059.000000	97.432466 
2058.000000	97.435826 
2057.000000	97.437553 
2056.000000	97.437232 
2055.000000	97.435433 
2054.000000	97.433532 
2053.000000	97.432720 
2052.000000	97.433180 
2051.000000	97.434303 
2050.000000	97.435409 
2049.000000	97.436218 
2048.000000	97.436847 
2047.000000	97.437513 
2046.000000	97.438273 
2045.000000	97.439012 
2044.000000	97.439654 
2043.000000	97.440276 
2042.000000	97.441017 
2041.000000	97.441958 
2040.000000	97.443149 
2039.000000	97.444629 
2038.000000	97.446306 
2037.000000	97.447888 
2036.000000	97.449114 
2035.000000	97.449986 
2034.000000	97.450746 
2033.000000	97.451659 
2032.000000	97.452833 
2031.000000	97.454141 
2030.000000	97.455230 
2029.000000	97.455800 
2028.000000	97.455940 
2027.000000	97.456078 
2026.000000	97.456505 
2025.000000	97.457141 
2024.000000	97.457806 
2023.000000	97.458532 
2022.000000	97.459485 
2021.000000	97.460642 
2020.000000	97.461621 
2019.000000	97.462008 
2018.000000	97.461688 
2017.000000	97.460907 
2016.000000	97.460168 
2015.000000	97.459888 
2014.000000	97.460154 
2013.000000	97.460584 
2012.000000	97.460716 
2011.000000	97.460705 
2010.000000	97.461225 
2009.000000	97.462526 
2008.000000	97.463875 
2007.000000	97.464364 
2006.000000	97.464011 
2005.000000	97.463466 
2004.000000	97.462991 
2003.000000	97.462454 
2002.000000	97.462014 
2001.000000	97.461953 
2000.000000	97.461954 
1999.000000	97.461178 
1998.000000	97.459171 
1997.000000	97.456441 
1996.000000	97.454156 
1995.000000	97.453206 
1994.000000	97.453598 
1993.000000	97.454459 
1992.000000	97.454723 
1991.000000	97.454178 
1990.000000	97.453641 
1989.000000	97.453939 
1988.000000	97.454890 
1987.000000	97.455395 
1986.000000	97.454528 
1985.000000	97.452328 
1984.000000	97.449654 
1983.000000	97.447443 
1982.000000	97.446162 
1981.000000	97.445870 
1980.000000	97.446528 
1979.000000	97.448002 
1978.000000	97.449769 
1977.000000	97.451075 
1976.000000	97.451584 
1975.000000	97.451657 
1974.000000	97.451921 
1973.000000	97.452717 
1972.000000	97.453959 
1971.000000	97.455225 
1970.000000	97.455862 
1969.000000	97.455284 
1968.000000	97.453424 
1967.000000	97.450922 
1966.000000	97.448897 
1965.000000	97.448183 
1964.000000	97.448889 
1963.000000	97.450547 
1962.000000	97.452380 
1961.000000	97.453632 
1960.000000	97.453844 
1959.000000	97.452959 
1958.000000	97.451404 
1957.000000	97.449968 
1956.000000	97.449243 
1955.000000	97.449181 
1954.000000	97.449250 
1953.000000	97.449030 
1952.000000	97.448513 
1951.000000	97.447837 
1950.000000	97.447084 
1949.000000	97.446430 
1948.000000	97.446185 
1947.000000	97.446463 
1946.000000	97.446881 
1945.000000	97.446833 
1944.000000	97.446094 
1943.000000	97.444923 
1942.000000	97.443715 
1941.000000	97.442639 
1940.000000	97.441708 
1939.000000	97.440926 
1938.000000	97.440257 
1937.000000	97.439663 
1936.000000	97.439162 
1935.000000	97.438695 
1934.000000	97.438010 
1933.000000	97.436966 
1932.000000	97.435884 
1931.000000	97.435278 
1930.000000	97.435253 
1929.000000	97.435288 
1928.000000	97.434891 
1927.000000	97.434147 
1926.000000	97.433369 
1925.000000	97.432531 
1924.000000	97.431347 
1923.000000	97.429909 
1922.000000	97.428614 
1921.000000	97.427480 
1920.000000	97.426320 
1919.000000	97.425249 
1918.000000	97.424232 
1917.000000	97.422571 
1916.000000	97.419907 
1915.000000	97.417436 
1914.000000	97.416715 
1913.000000	97.417702 
1912.000000	97.418844 
1911.000000	97.419213 
1910.000000	97.419216 
1909.000000	97.418994 
1908.000000	97.417998 
1907.000000	97.416130 
1906.000000	97.413813 
1905.000000	97.410888 
1904.000000	97.406954 
1903.000000	97.403231 
1902.000000	97.401741 
1901.000000	97.402304 
1900.000000	97.402604 
1899.000000	97.401325 
1898.000000	97.399308 
1897.000000	97.397577 
1896.000000	97.395693 
1895.000000	97.393047 
1894.000000	97.390113 
1893.000000	97.387304 
1892.000000	97.384317 
1891.000000	97.381389 
1890.000000	97.379682 
1889.000000	97.379527 
1888.000000	97.379846 
1887.000000	97.380261 
1886.000000	97.381473 
1885.000000	97.382918 
1884.000000	97.382570 
1883.000000	97.379880 
1882.000000	97.377083 
1881.000000	97.376463 
1880.000000	97.377865 
1879.000000	97.379352 
1878.000000	97.379387 
1877.000000	97.378176 
1876.000000	97.376947 
1875.000000	97.376699 
1874.000000	97.377624 
1873.000000	97.379037 
1872.000000	97.380032 
1871.000000	97.380354 
1870.000000	97.380350 
1869.000000	97.380203 
1868.000000	97.379707 
1867.000000	97.379242 
1866.000000	97.379540 
1865.000000	97.380086 
1864.000000	97.379730 
1863.000000	97.378763 
1862.000000	97.378790 
1861.000000	97.380381 
1860.000000	97.382327 
1859.000000	97.383664 
1858.000000	97.384970 
1857.000000	97.386769 
1856.000000	97.388574 
1855.000000	97.390009 
1854.000000	97.391301 
1853.000000	97.392386 
1852.000000	97.393245 
1851.000000	97.394545 
1850.000000	97.396744 
1849.000000	97.399351 
1848.000000	97.401511 
1847.000000	97.403152 
1846.000000	97.404760 
1845.000000	97.406366 
1844.000000	97.407453 
1843.000000	97.407967 
1842.000000	97.408502 
1841.000000	97.409399 
1840.000000	97.410687 
1839.000000	97.412379 
1838.000000	97.414283 
1837.000000	97.415817 
1836.000000	97.416587 
1835.000000	97.416910 
1834.000000	97.417427 
1833.000000	97.418309 
1832.000000	97.419342 
1831.000000	97.420271 
1830.000000	97.420963 
1829.000000	97.421487 
1828.000000	97.422017 
1827.000000	97.422687 
1826.000000	97.423504 
1825.000000	97.424345 
1824.000000	97.425023 
1823.000000	97.425474 
1822.000000	97.425842 
1821.000000	97.426274 
1820.000000	97.426740 
1819.000000	97.427135 
1818.000000	97.427518 
1817.000000	97.428037 
1816.000000	97.428605 
1815.000000	97.429019 
1814.000000	97.429324 
1813.000000	97.429784 
1812.000000	97.430375 
1811.000000	97.430620 
1810.000000	97.430417 
1809.000000	97.430319 
1808.000000	97.430597 
1807.000000	97.431012 
1806.000000	97.431536 
1805.000000	97.432403 
1804.000000	97.433320 
1803.000000	97.433549 
1802.000000	97.432817 
1801.000000	97.431872 
1800.000000	97.431410 
1799.000000	97.431108 
1798.000000	97.430938 
1797.000000	97.431268 
1796.000000	97.431644 
1795.000000	97.431384 
1794.000000	97.430659 
1793.000000	97.430269 
1792.000000	97.429966 
1791.000000	97.428804 
1790.000000	97.427690 
1789.000000	97.428084 
1788.000000	97.429712 
1787.000000	97.431316 
1786.000000	97.432492 
1785.000000	97.433589 
1784.000000	97.434420 
1783.000000	97.434845 
1782.000000	97.435117 
1781.000000	97.435635 
1780.000000	97.436634 
1779.000000	97.437969 
1778.000000	97.439757 
1777.000000	97.441760 
1776.000000	97.443074 
1775.000000	97.443111 
1774.000000	97.442036 
1773.000000	97.441035 
1772.000000	97.441205 
1771.000000	97.441781 
1770.000000	97.441638 
1769.000000	97.441236 
1768.000000	97.441638 
1767.000000	97.442855 
1766.000000	97.443910 
1765.000000	97.444443 
1764.000000	97.445090 
1763.000000	97.446178 
1762.000000	97.447001 
1761.000000	97.447127 
1760.000000	97.447104 
1759.000000	97.447280 
1758.000000	97.447251 
1757.000000	97.446503 
1756.000000	97.445762 
1755.000000	97.445131 
1754.000000	97.442938 
1753.000000	97.438209 
1752.000000	97.433214 
1751.000000	97.431947 
1750.000000	97.435124 
1749.000000	97.439395 
1748.000000	97.442048 
1747.000000	97.443231 
1746.000000	97.443073 
1745.000000	97.442055 
1744.000000	97.442055 
1743.000000	97.443314 
1742.000000	97.443321 
1741.000000	97.440874 
1740.000000	97.438556 
1739.000000	97.439291 
1738.000000	97.441149 
1737.000000	97.440427 
1736.000000	97.435370 
1735.000000	97.426880 
1734.000000	97.418354 
1733.000000	97.412446 
1732.000000	97.410824 
1731.000000	97.414675 
1730.000000	97.422488 
1729.000000	97.428675 
1728.000000	97.430029 
1727.000000	97.427878 
1726.000000	97.424515 
1725.000000	97.420355 
1724.000000	97.415296 
1723.000000	97.410446 
1722.000000	97.408113 
1721.000000	97.407517 
1720.000000	97.404860 
1719.000000	97.396374 
1718.000000	97.383646 
1717.000000	97.373417 
1716.000000	97.364933 
1715.000000	97.354797 
1714.000000	97.347576 
1713.000000	97.345525 
1712.000000	97.343816 
1711.000000	97.339867 
1710.000000	97.336157 
1709.000000	97.333564 
1708.000000	97.329356 
1707.000000	97.321988 
1706.000000	97.314711 
1705.000000	97.310083 
1704.000000	97.301858 
1703.000000	97.285969 
1702.000000	97.265807 
1701.000000	97.250446 
1700.000000	97.240892 
1699.000000	97.226305 
1698.000000	97.209219 
1697.000000	97.198750 
1696.000000	97.194477 
1695.000000	97.189931 
1694.000000	97.183204 
1693.000000	97.176243 
1692.000000	97.168026 
1691.000000	97.157164 
1690.000000	97.144764 
1689.000000	97.132254 
1688.000000	97.119346 
1687.000000	97.105406 
1686.000000	97.091596 
1685.000000	97.082098 
1684.000000	97.075941 
1683.000000	97.067106 
1682.000000	97.054602 
1681.000000	97.039923 
1680.000000	97.028221 
1679.000000	97.021546 
1678.000000	97.016679 
1677.000000	97.008257 
1676.000000	96.996624 
1675.000000	96.984407 
1674.000000	96.968620 
1673.000000	96.948392 
1672.000000	96.929809 
1671.000000	96.917983 
1670.000000	96.911078 
1669.000000	96.900499 
1668.000000	96.886533 
1667.000000	96.876799 
1666.000000	96.870304 
1665.000000	96.861971 
1664.000000	96.850590 
1663.000000	96.838463 
1662.000000	96.824157 
1661.000000	96.802873 
1660.000000	96.780509 
1659.000000	96.766388 
1658.000000	96.762320 
1657.000000	96.756977 
1656.000000	96.744474 
1655.000000	96.724460 
1654.000000	96.703733 
1653.000000	96.684700 
1652.000000	96.661342 
1651.000000	96.644454 
1650.000000	96.634720 
1649.000000	96.626833 
1648.000000	96.617668 
1647.000000	96.612849 
1646.000000	96.611328 
1645.000000	96.609379 
1644.000000	96.603642 
1643.000000	96.597060 
1642.000000	96.592583 
1641.000000	96.591296 
1640.000000	96.590608 
1639.000000	96.586582 
1638.000000	96.579904 
1637.000000	96.575691 
1636.000000	96.578526 
1635.000000	96.587542 
1634.000000	96.596901 
1633.000000	96.603398 
1632.000000	96.606646 
1631.000000	96.610462 
1630.000000	96.620679 
1629.000000	96.636019 
1628.000000	96.650913 
1627.000000	96.664253 
1626.000000	96.677819 
1625.000000	96.691425 
1624.000000	96.706166 
1623.000000	96.726294 
1622.000000	96.750750 
1621.000000	96.770190 
1620.000000	96.781058 
1619.000000	96.788962 
1618.000000	96.801752 
1617.000000	96.819622 
1616.000000	96.836663 
1615.000000	96.854754 
1614.000000	96.875395 
1613.000000	96.892726 
1612.000000	96.903848 
1611.000000	96.914691 
1610.000000	96.930558 
1609.000000	96.948845 
1608.000000	96.966971 
1607.000000	96.987328 
1606.000000	97.008288 
1605.000000	97.024388 
1604.000000	97.037036 
1603.000000	97.051503 
1602.000000	97.067300 
1601.000000	97.079503 
1600.000000	97.088149 
1599.000000	97.098147 
1598.000000	97.110151 
1597.000000	97.120432 
1596.000000	97.128224 
1595.000000	97.137473 
1594.000000	97.150238 
1593.000000	97.163025 
1592.000000	97.173067 
1591.000000	97.182574 
1590.000000	97.193434 
1589.000000	97.203068 
1588.000000	97.209750 
1587.000000	97.216464 
1586.000000	97.224804 
1585.000000	97.230786 
1584.000000	97.233507 
1583.000000	97.238365 
1582.000000	97.247339 
1581.000000	97.256116 
1580.000000	97.261555 
1579.000000	97.265223 
1578.000000	97.268762 
1577.000000	97.272156 
1576.000000	97.276889 
1575.000000	97.287436 
1574.000000	97.302049 
1573.000000	97.314008 
1572.000000	97.322634 
1571.000000	97.331266 
1570.000000	97.338989 
1569.000000	97.338258 
1568.000000	97.331970 
1567.000000	97.330086 
1566.000000	97.334634 
1565.000000	97.340257 
1564.000000	97.346366 
1563.000000	97.352495 
1562.000000	97.356945 
1561.000000	97.354804 
1560.000000	97.348326 
1559.000000	97.348226 
1558.000000	97.352485 
1557.000000	97.353447 
1556.000000	97.351568 
1555.000000	97.354933 
1554.000000	97.358699 
1553.000000	97.361636 
1552.000000	97.362522 
1551.000000	97.362505 
1550.000000	97.361106 
1549.000000	97.359580 
1548.000000	97.359500 
1547.000000	97.361981 
1546.000000	97.365103 
1545.000000	97.366724 
1544.000000	97.367124 
1543.000000	97.367028 
1542.000000	97.366627 
1541.000000	97.365959 
1540.000000	97.361271 
1539.000000	97.353697 
1538.000000	97.349641 
1537.000000	97.348656 
1536.000000	97.347604 
1535.000000	97.345994 
1534.000000	97.345902 
1533.000000	97.347115 
1532.000000	97.346848 
1531.000000	97.343456 
1530.000000	97.339524 
1529.000000	97.336960 
1528.000000	97.334435 
1527.000000	97.330799 
1526.000000	97.326972 
1525.000000	97.324305 
1524.000000	97.322683 
1523.000000	97.321098 
1522.000000	97.319642 
1521.000000	97.318108 
1520.000000	97.314679 
1519.000000	97.308913 
1518.000000	97.302366 
1517.000000	97.297349 
1516.000000	97.294597 
1515.000000	97.293136 
1514.000000	97.292284 
1513.000000	97.292487 
1512.000000	97.292885 
1511.000000	97.290415 
1510.000000	97.283721 
1509.000000	97.275129 
1508.000000	97.268994 
1507.000000	97.266275 
1506.000000	97.264655 
1505.000000	97.262831 
1504.000000	97.260781 
1503.000000	97.258640 
1502.000000	97.255493 
1501.000000	97.252770 
1500.000000	97.251073 
1499.000000	97.248284 
1498.000000	97.241232 
1497.000000	97.233294 
1496.000000	97.229998 
1495.000000	97.230714 
1494.000000	97.232414 
1493.000000	97.234375 
1492.000000	97.236786 
1491.000000	97.238909 
1490.000000	97.239873 
1489.000000	97.240529 
1488.000000	97.239269 
1487.000000	97.233657 
1486.000000	97.226633 
1485.000000	97.219274 
1484.000000	97.210948 
1483.000000	97.203370 
1482.000000	97.198251 
1481.000000	97.195196 
1480.000000	97.191132 
1479.000000	97.184639 
1478.000000	97.177588 
1477.000000	97.172058 
1476.000000	97.165884 
1475.000000	97.156004 
1474.000000	97.144569 
1473.000000	97.137938 
1472.000000	97.138062 
1471.000000	97.138521 
1470.000000	97.135549 
1469.000000	97.130864 
1468.000000	97.125463 
1467.000000	97.118674 
1466.000000	97.111356 
1465.000000	97.106078 
1464.000000	97.103110 
1463.000000	97.098125 
1462.000000	97.089234 
1461.000000	97.079383 
1460.000000	97.071325 
1459.000000	97.063851 
1458.000000	97.050897 
1457.000000	97.032750 
1456.000000	97.019342 
1455.000000	97.012802 
1454.000000	97.006443 
1453.000000	96.999661 
1452.000000	96.995670 
1451.000000	96.995742 
1450.000000	96.997587 
1449.000000	97.000999 
1448.000000	97.005818 
1447.000000	97.008551 
1446.000000	97.005346 
1445.000000	96.998140 
1444.000000	96.992350 
1443.000000	96.988084 
1442.000000	96.982461 
1441.000000	96.975442 
1440.000000	96.969449 
1439.000000	96.963833 
1438.000000	96.954829 
1437.000000	96.943519 
1436.000000	96.935909 
1435.000000	96.931291 
1434.000000	96.925085 
1433.000000	96.919761 
1432.000000	96.919740 
1431.000000	96.924577 
1430.000000	96.928328 
1429.000000	96.927840 
1428.000000	96.924661 
1427.000000	96.920875 
1426.000000	96.917082 
1425.000000	96.914565 
1424.000000	96.917346 
1423.000000	96.922885 
1422.000000	96.923564 
1421.000000	96.918670 
1420.000000	96.915186 
1419.000000	96.913500 
1418.000000	96.904923 
1417.000000	96.892261 
1416.000000	96.887024 
1415.000000	96.890957 
1414.000000	96.894774 
1413.000000	96.892104 
1412.000000	96.887115 
1411.000000	96.885202 
1410.000000	96.884345 
1409.000000	96.882644 
1408.000000	96.883050 
1407.000000	96.888272 
1406.000000	96.896662 
1405.000000	96.906484 
1404.000000	96.920550 
1403.000000	96.937613 
1402.000000	96.951675 
1401.000000	96.962445 
1400.000000	96.976369 
1399.000000	96.995612 
1398.000000	97.010959 
1397.000000	97.013657 
1396.000000	97.006975 
1395.000000	97.003245 
1394.000000	97.010719 
1393.000000	97.028743 
1392.000000	97.054162 
1391.000000	97.081770 
1390.000000	97.104646 
1389.000000	97.118497 
1388.000000	97.124034 
1387.000000	97.125274 
1386.000000	97.125956 
1385.000000	97.128745 
1384.000000	97.136044 
1383.000000	97.147370 
1382.000000	97.158752 
1381.000000	97.167290 
1380.000000	97.173858 
1379.000000	97.181755 
1378.000000	97.192744 
1377.000000	97.205640 
1376.000000	97.218502 
1375.000000	97.230900 
1374.000000	97.243272 
1373.000000	97.256143 
1372.000000	97.269953 
1371.000000	97.285045 
1370.000000	97.300671 
1369.000000	97.314293 
1368.000000	97.325690 
1367.000000	97.336575 
1366.000000	97.347637 
1365.000000	97.358540 
1364.000000	97.368474 
1363.000000	97.376291 
1362.000000	97.381887 
1361.000000	97.386922 
1360.000000	97.393785 
1359.000000	97.404068 
1358.000000	97.416895 
1357.000000	97.429454 
1356.000000	97.440009 
1355.000000	97.448751 
1354.000000	97.456435 
1353.000000	97.464254 
1352.000000	97.472073 
1351.000000	97.479600 
1350.000000	97.487572 
1349.000000	97.494239 
1348.000000	97.497949 
1347.000000	97.499548 
1346.000000	97.501835 
1345.000000	97.505971 
1344.000000	97.510615 
1343.000000	97.514128 
1342.000000	97.516336 
1341.000000	97.517363 
1340.000000	97.516865 
1339.000000	97.515051 
1338.000000	97.512726 
1337.000000	97.510818 
1336.000000	97.510034 
1335.000000	97.510020 
1334.000000	97.509902 
1333.000000	97.509775 
1332.000000	97.510515 
1331.000000	97.512536 
1330.000000	97.514967 
1329.000000	97.516427 
1328.000000	97.516608 
1327.000000	97.516889 
1326.000000	97.518281 
1325.000000	97.519197 
1324.000000	97.518233 
1323.000000	97.515458 
1322.000000	97.511357 
1321.000000	97.506619 
1320.000000	97.503088 
1319.000000	97.502379 
1318.000000	97.503589 
1317.000000	97.504488 
1316.000000	97.504221 
1315.000000	97.503120 
1314.000000	97.501125 
1313.000000	97.499051 
1312.000000	97.499555 
1311.000000	97.504096 
1310.000000	97.509903 
1309.000000	97.512965 
1308.000000	97.512898 
1307.000000	97.512872 
1306.000000	97.515128 
1305.000000	97.518484 
1304.000000	97.521465 
1303.000000	97.523427 
1302.000000	97.523209 
1301.000000	97.519608 
1300.000000	97.514136 
1299.000000	97.510485 
1298.000000	97.510531 
1297.000000	97.512572 
1296.000000	97.513924 
1295.000000	97.513806 
1294.000000	97.512910 
1293.000000	97.512164 
1292.000000	97.512360 
1291.000000	97.513646 
1290.000000	97.515281 
1289.000000	97.516651 
1288.000000	97.517922 
1287.000000	97.518876 
1286.000000	97.518139 
1285.000000	97.515283 
1284.000000	97.512563 
1283.000000	97.512232 
1282.000000	97.513045 
1281.000000	97.511782 
1280.000000	97.507933 
1279.000000	97.504706 
1278.000000	97.505049 
1277.000000	97.508873 
1276.000000	97.514083 
1275.000000	97.518614 
1274.000000	97.520921 
1273.000000	97.520539 
1272.000000	97.518866 
1271.000000	97.517926 
1270.000000	97.517848 
1269.000000	97.517052 
1268.000000	97.515169 
1267.000000	97.513545 
1266.000000	97.512528 
1265.000000	97.511173 
1264.000000	97.509816 
1263.000000	97.510028 
1262.000000	97.511521 
1261.000000	97.511816 
1260.000000	97.510405 
1259.000000	97.510597 
1258.000000	97.514694 
1257.000000	97.519767 
1256.000000	97.520415 
1255.000000	97.515037 
1254.000000	97.507545 
1253.000000	97.502709 
1252.000000	97.500912 
1251.000000	97.498756 
1250.000000	97.494559 
1249.000000	97.491803 
1248.000000	97.495679 
1247.000000	97.506245 
1246.000000	97.516721 
1245.000000	97.519881 
1244.000000	97.514619 
1243.000000	97.505881 
1242.000000	97.500456 
1241.000000	97.503383 
1240.000000	97.515040 
1239.000000	97.529297 
1238.000000	97.537050 
1237.000000	97.534340 
1236.000000	97.525438 
1235.000000	97.516590 
1234.000000	97.509258 
1233.000000	97.501676 
1232.000000	97.493809 
1231.000000	97.486873 
1230.000000	97.480225 
1229.000000	97.472768 
1228.000000	97.465589 
1227.000000	97.459417 
1226.000000	97.451107 
1225.000000	97.436611 
1224.000000	97.416308 
1223.000000	97.393736 
1222.000000	97.370018 
1221.000000	97.343285 
1220.000000	97.312983 
1219.000000	97.280917 
1218.000000	97.248006 
1217.000000	97.213195 
1216.000000	97.175250 
1215.000000	97.132970 
1214.000000	97.084880 
1213.000000	97.032157 
1212.000000	96.980300 
1211.000000	96.933248 
1210.000000	96.886864 
1209.000000	96.833153 
1208.000000	96.770490 
1207.000000	96.705119 
1206.000000	96.642663 
1205.000000	96.582516 
1204.000000	96.521039 
1203.000000	96.456045 
1202.000000	96.387387 
1201.000000	96.316492 
1200.000000	96.246020 
1199.000000	96.177540 
1198.000000	96.109623 
1197.000000	96.040762 
1196.000000	95.972723 
1195.000000	95.907746 
1194.000000	95.844021 
1193.000000	95.777717 
1192.000000	95.708273 
1191.000000	95.637592 
1190.000000	95.565295 
1189.000000	95.489418 
1188.000000	95.411015 
1187.000000	95.333422 
1186.000000	95.257373 
1185.000000	95.181092 
1184.000000	95.104276 
1183.000000	95.027558 
1182.000000	94.949152 
1181.000000	94.866871 
1180.000000	94.782490 
1179.000000	94.699119 
1178.000000	94.615009 
1177.000000	94.525208 
1176.000000	94.428450 
1175.000000	94.327172 
1174.000000	94.221997 
1173.000000	94.112229 
1172.000000	94.000906 
1171.000000	93.892290 
1170.000000	93.784568 
1169.000000	93.672344 
1168.000000	93.556884 
1167.000000	93.446993 
1166.000000	93.349802 
1165.000000	93.268868 
1164.000000	93.211817 
1163.000000	93.189999 
1162.000000	93.206476 
1161.000000	93.250045 
1160.000000	93.302810 
1159.000000	93.348103 
1158.000000	93.371227 
1157.000000	93.361500 
1156.000000	93.317511 
1155.000000	93.246116 
1154.000000	93.155037 
1153.000000	93.050431 
1152.000000	92.940535 
1151.000000	92.833851 
1150.000000	92.731925 
1149.000000	92.630391 
1148.000000	92.528016 
1147.000000	92.427676 
1146.000000	92.327879 
1145.000000	92.221874 
1144.000000	92.107357 
1143.000000	91.989513 
1142.000000	91.872146 
1141.000000	91.753027 
1140.000000	91.630193 
1139.000000	91.505444 
1138.000000	91.379469 
1137.000000	91.250634 
1136.000000	91.120239 
1135.000000	90.991485 
1134.000000	90.861684 
1133.000000	90.723567 
1132.000000	90.576089 
1131.000000	90.425898 
1130.000000	90.276564 
1129.000000	90.124852 
1128.000000	89.969261 
1127.000000	89.812889 
1126.000000	89.655322 
1125.000000	89.490937 
1124.000000	89.318402 
1123.000000	89.143725 
1122.000000	88.971390 
1121.000000	88.800643 
1120.000000	88.632161 
1119.000000	88.469092 
1118.000000	88.309878 
1117.000000	88.150089 
1116.000000	87.992898 
1115.000000	87.847403 
1114.000000	87.715013 
1113.000000	87.588091 
1112.000000	87.463119 
1111.000000	87.343465 
1110.000000	87.227851 
1109.000000	87.108847 
1108.000000	86.984681 
1107.000000	86.860172 
1106.000000	86.735102 
1105.000000	86.604164 
1104.000000	86.469278 
1103.000000	86.338901 
1102.000000	86.212978 
1101.000000	86.082960 
1100.000000	85.947726 
1099.000000	85.814684 
1098.000000	85.686778 
1097.000000	85.559490 
1096.000000	85.433041 
1095.000000	85.311308 
1094.000000	85.187912 
1093.000000	85.049948 
1092.000000	84.898578 
1091.000000	84.750269 
1090.000000	84.614657 
1089.000000	84.486150 
1088.000000	84.359123 
1087.000000	84.234544 
1086.000000	84.109188 
1085.000000	83.975866 
1084.000000	83.837836 
1083.000000	83.706404 
1082.000000	83.581345 
1081.000000	83.450922 
1080.000000	83.313852 
1079.000000	83.182586 
1078.000000	83.060889 
1077.000000	82.936762 
1076.000000	82.802211 
1075.000000	82.661622 
1074.000000	82.516087 
1073.000000	82.357658 
1072.000000	82.182975 
1071.000000	81.993580 
1070.000000	81.779126 
1069.000000	81.521866 
1068.000000	81.225246 
1067.000000	80.919817 
1066.000000	80.632713 
1065.000000	80.366722 
1064.000000	80.114122 
1063.000000	79.869202 
1062.000000	79.618537 
1061.000000	79.340722 
1060.000000	79.029034 
1059.000000	78.700375 
1058.000000	78.373225 
1057.000000	78.049939 
1056.000000	77.725876 
1055.000000	77.398498 
1054.000000	77.060674 
1053.000000	76.702556 
1052.000000	76.328056 
1051.000000	75.952689 
1050.000000	75.578460 
1049.000000	75.190639 
1048.000000	74.784588 
1047.000000	74.372694 
1046.000000	73.960911 
1045.000000	73.542492 
1044.000000	73.118383 
1043.000000	72.700135 
1042.000000	72.288144 
1041.000000	71.869812 
1040.000000	71.444897 
1039.000000	71.030812 
1038.000000	70.637631 
1037.000000	70.260029 
1036.000000	69.897820 
1035.000000	69.560319 
1034.000000	69.245614 
1033.000000	68.939671 
1032.000000	68.640313 
1031.000000	68.358380 
1030.000000	68.093688 
1029.000000	67.836984 
1028.000000	67.597417 
1027.000000	67.397598 
1026.000000	67.236512 
1025.000000	67.086251 
1024.000000	66.930485 
1023.000000	66.777017 
1022.000000	66.628117 
1021.000000	66.470691 
1020.000000	66.302885 
1019.000000	66.139968 
1018.000000	65.986172 
1017.000000	65.829411 
1016.000000	65.669792 
1015.000000	65.523451 
1014.000000	65.391675 
1013.000000	65.256418 
1012.000000	65.113283 
1011.000000	64.979191 
1010.000000	64.860890 
1009.000000	64.746431 
1008.000000	64.634678 
1007.000000	64.542673 
1006.000000	64.476182 
1005.000000	64.422544 
1004.000000	64.379073 
1003.000000	64.358171 
1002.000000	64.357786 
1001.000000	64.358203 
1000.000000	64.355969 
999.000000	 64.370548 
998.000000	 64.409607 
997.000000	 64.457854 
996.000000	 64.507498 
995.000000	 64.569391 
994.000000	 64.645888 
993.000000	 64.722712 
992.000000	 64.796205 
991.000000	 64.879919 
990.000000	 64.976628 
989.000000	 65.072561 
988.000000	 65.166541 
987.000000	 65.276047 
986.000000	 65.407278 
985.000000	 65.547846 
984.000000	 65.695201 
983.000000	 65.863024 
982.000000	 66.053144 
981.000000	 66.250679 
980.000000	 66.453520 
979.000000	 66.677043 
978.000000	 66.922999 
977.000000	 67.174149 
976.000000	 67.427209 
975.000000	 67.700862 
974.000000	 68.002438 
973.000000	 68.315924 
972.000000	 68.631831 
971.000000	 68.960591 
970.000000	 69.306543 
969.000000	 69.655769 
968.000000	 69.999878 
967.000000	 70.347302 
966.000000	 70.702347 
965.000000	 71.056836 
964.000000	 71.409676 
963.000000	 71.770589 
962.000000	 72.137331 
961.000000	 72.492903 
960.000000	 72.832251 
959.000000	 73.168640 
958.000000	 73.507481 
957.000000	 73.837089 
956.000000	 74.151934 
955.000000	 74.461863 
954.000000	 74.771118 
953.000000	 75.069747 
952.000000	 75.352389 
951.000000	 75.624687 
950.000000	 75.885774 
949.000000	 76.125363 
948.000000	 76.343343 
947.000000	 76.551587 
946.000000	 76.751609 
945.000000	 76.930945 
944.000000	 77.086111 
943.000000	 77.228433 
942.000000	 77.363099 
941.000000	 77.483714 
940.000000	 77.592403 
939.000000	 77.703411 
938.000000	 77.820861 
937.000000	 77.933754 
936.000000	 78.038588 
935.000000	 78.146069 
934.000000	 78.260075 
933.000000	 78.371084 
932.000000	 78.476014 
931.000000	 78.583623 
930.000000	 78.694654 
929.000000	 78.797406 
928.000000	 78.888792 
927.000000	 78.979478 
926.000000	 79.072553 
925.000000	 79.157055 
924.000000	 79.227774 
923.000000	 79.291531 
922.000000	 79.349321 
921.000000	 79.392959 
920.000000	 79.424381 
919.000000	 79.457318 
918.000000	 79.494298 
917.000000	 79.522787 
916.000000	 79.540337 
915.000000	 79.563723 
914.000000	 79.607562 
913.000000	 79.673710 
912.000000	 79.766478 
911.000000	 79.897223 
910.000000	 80.067789 
909.000000	 80.269068 
908.000000	 80.500411 
907.000000	 80.770600 
906.000000	 81.076874 
905.000000	 81.404067 
904.000000	 81.746814 
903.000000	 82.111028 
902.000000	 82.491818 
901.000000	 82.872765 
900.000000	 83.249495 
899.000000	 83.632073 
898.000000	 84.022108 
897.000000	 84.407916 
896.000000	 84.782564 
895.000000	 85.145287 
894.000000	 85.486745 
893.000000	 85.796860 
892.000000	 86.087380 
891.000000	 86.382477 
890.000000	 86.684634 
889.000000	 86.972310 
888.000000	 87.232820 
887.000000	 87.474419 
886.000000	 87.704997 
885.000000	 87.923308 
884.000000	 88.134160 
883.000000	 88.347611 
882.000000	 88.559205 
881.000000	 88.755862 
880.000000	 88.945438 
879.000000	 89.154142 
878.000000	 89.388439 
877.000000	 89.625927 
876.000000	 89.850980 
875.000000	 90.072705 
874.000000	 90.300842 
873.000000	 90.531810 
872.000000	 90.767775 
871.000000	 91.022561 
870.000000	 91.297189 
869.000000	 91.572064 
868.000000	 91.833136 
867.000000	 92.085758 
866.000000	 92.335884 
865.000000	 92.578189 
864.000000	 92.810765 
863.000000	 93.042286 
862.000000	 93.275455 
861.000000	 93.499907 
860.000000	 93.709199 
859.000000	 93.909138 
858.000000	 94.103122 
857.000000	 94.284945 
856.000000	 94.452213 
855.000000	 94.611057 
854.000000	 94.761308 
853.000000	 94.892455 
852.000000	 95.000980 
851.000000	 95.097252 
850.000000	 95.189325 
849.000000	 95.273872 
848.000000	 95.348121 
847.000000	 95.415400 
846.000000	 95.473118 
845.000000	 95.510693 
844.000000	 95.525759 
843.000000	 95.528091 
842.000000	 95.521781 
841.000000	 95.497678 
840.000000	 95.448750 
839.000000	 95.378594 
838.000000	 95.290408 
837.000000	 95.183277 
836.000000	 95.065360 
835.000000	 94.955094 
834.000000	 94.861344 
833.000000	 94.776213 
832.000000	 94.694529 
831.000000	 94.625911 
830.000000	 94.580272 
829.000000	 94.556636 
828.000000	 94.555296 
827.000000	 94.585988 
826.000000	 94.653409 
825.000000	 94.747076 
824.000000	 94.852504 
823.000000	 94.958364 
822.000000	 95.050355 
821.000000	 95.117957 
820.000000	 95.170763 
819.000000	 95.228951 
818.000000	 95.293824 
817.000000	 95.343872 
816.000000	 95.362151 
815.000000	 95.351251 
814.000000	 95.317821 
813.000000	 95.258073 
812.000000	 95.163581 
811.000000	 95.026117 
810.000000	 94.830661 
809.000000	 94.558285 
808.000000	 94.204005 
807.000000	 93.781683 
806.000000	 93.307893 
805.000000	 92.794145 
804.000000	 92.259486 
803.000000	 91.734983 
802.000000	 91.248558 
801.000000	 90.819934 
800.000000	 90.474261 
799.000000	 90.240104 
798.000000	 90.125031 
797.000000	 90.109977 
796.000000	 90.172750 
795.000000	 90.298945 
794.000000	 90.467936 
793.000000	 90.652135 
792.000000	 90.836653 
791.000000	 91.019712 
790.000000	 91.190198 
789.000000	 91.325693 
788.000000	 91.415532 
787.000000	 91.463636 
786.000000	 91.464944 
785.000000	 91.401902 
784.000000	 91.271157 
783.000000	 91.094100 
782.000000	 90.896075 
781.000000	 90.696562 
780.000000	 90.524518 
779.000000	 90.417303 
778.000000	 90.392739 
777.000000	 90.441880 
776.000000	 90.555471 
775.000000	 90.733466 
774.000000	 90.960466 
773.000000	 91.198219 
772.000000	 91.416498 
771.000000	 91.612247 
770.000000	 91.789216 
769.000000	 91.940013 
768.000000	 92.058398 
767.000000	 92.148546 
766.000000	 92.210967 
765.000000	 92.238609 
764.000000	 92.238474 
763.000000	 92.238087 
762.000000	 92.257234 
761.000000	 92.289025 
760.000000	 92.319638 
759.000000	 92.349380 
758.000000	 92.383236 
757.000000	 92.419085 
756.000000	 92.459007 
755.000000	 92.516114 
754.000000	 92.595572 
753.000000	 92.681414 
752.000000	 92.754431 
751.000000	 92.813154 
750.000000	 92.869560 
749.000000	 92.935903 
748.000000	 93.022256 
747.000000	 93.132743 
746.000000	 93.256377 
745.000000	 93.375629 
744.000000	 93.491144 
743.000000	 93.623364 
742.000000	 93.783712 
741.000000	 93.960683 
740.000000	 94.140151 
739.000000	 94.320705 
738.000000	 94.500539 
737.000000	 94.667207 
736.000000	 94.811565 
735.000000	 94.938201 
734.000000	 95.054162 
733.000000	 95.160465 
732.000000	 95.259517 
731.000000	 95.354774 
730.000000	 95.437906 
729.000000	 95.493455 
728.000000	 95.522223 
727.000000	 95.544918 
726.000000	 95.579165 
725.000000	 95.628694 
724.000000	 95.696052 
723.000000	 95.785180 
722.000000	 95.886834 
721.000000	 95.981488 
720.000000	 96.063440 
719.000000	 96.143758 
718.000000	 96.224727 
717.000000	 96.294206 
716.000000	 96.349790 
715.000000	 96.403774 
714.000000	 96.457516 
713.000000	 96.494834 
712.000000	 96.510647 
711.000000	 96.523099 
710.000000	 96.545786 
709.000000	 96.568555 
708.000000	 96.577310 
707.000000	 96.571670 
706.000000	 96.551322 
705.000000	 96.506350 
704.000000	 96.433864 
703.000000	 96.344776 
702.000000	 96.240256 
701.000000	 96.099520 
700.000000	 95.903948 
699.000000	 95.658041 
698.000000	 95.380966 
697.000000	 95.099286 
696.000000	 94.856825 
695.000000	 94.705845 
694.000000	 94.669263 
693.000000	 94.725132 
692.000000	 94.837083 
691.000000	 94.982422 
690.000000	 95.144093 
689.000000	 95.298743 
688.000000	 95.429128 
687.000000	 95.534061 
686.000000	 95.615198 
685.000000	 95.672948 
684.000000	 95.721584 
683.000000	 95.782822 
682.000000	 95.857675 
681.000000	 95.928278 
680.000000	 95.991706 
679.000000	 96.065260 
678.000000	 96.151961 
677.000000	 96.234039 
676.000000	 96.310001 
675.000000	 96.400354 
674.000000	 96.504035 
673.000000	 96.584401 
672.000000	 96.613397 
671.000000	 96.602131 
670.000000	 96.587654 
669.000000	 96.619536 
668.000000	 96.733854 
667.000000	 96.903954 
666.000000	 97.058782 
665.000000	 97.148840 
664.000000	 97.190938 
663.000000	 97.228297 
662.000000	 97.285150 
661.000000	 97.348818 
660.000000	 97.408080 
659.000000	 97.474672 
658.000000	 97.549661 
657.000000	 97.604646 
656.000000	 97.618700 
655.000000	 97.601324 
654.000000	 97.565906 
653.000000	 97.512642 
652.000000	 97.455738 
651.000000	 97.434326 
650.000000	 97.464232 

