4000.000000	96.900076 
3999.000000	96.899584 
3998.000000	96.897812 
3997.000000	96.895487 
3996.000000	96.893486 
3995.000000	96.892291 
3994.000000	96.892008 
3993.000000	96.892425 
3992.000000	96.892925 
3991.000000	96.892701 
3990.000000	96.891507 
3989.000000	96.890036 
3988.000000	96.889171 
3987.000000	96.889170 
3986.000000	96.889817 
3985.000000	96.890886 
3984.000000	96.892137 
3983.000000	96.893170 
3982.000000	96.893869 
3981.000000	96.894702 
3980.000000	96.895891 
3979.000000	96.896691 
3978.000000	96.896238 
3977.000000	96.894859 
3976.000000	96.893836 
3975.000000	96.893694 
3974.000000	96.893531 
3973.000000	96.892274 
3972.000000	96.889846 
3971.000000	96.887091 
3970.000000	96.884999 
3969.000000	96.884315 
3968.000000	96.885294 
3967.000000	96.887340 
3966.000000	96.889287 
3965.000000	96.890160 
3964.000000	96.889458 
3963.000000	96.887119 
3962.000000	96.883678 
3961.000000	96.880329 
3960.000000	96.878095 
3959.000000	96.877064 
3958.000000	96.876639 
3957.000000	96.876500 
3956.000000	96.876723 
3955.000000	96.876961 
3954.000000	96.876520 
3953.000000	96.875018 
3952.000000	96.872729 
3951.000000	96.870116 
3950.000000	96.867349 
3949.000000	96.864651 
3948.000000	96.862471 
3947.000000	96.861271 
3946.000000	96.861275 
3945.000000	96.862355 
3944.000000	96.863664 
3943.000000	96.864062 
3942.000000	96.863588 
3941.000000	96.863351 
3940.000000	96.863986 
3939.000000	96.864936 
3938.000000	96.865138 
3937.000000	96.864235 
3936.000000	96.862623 
3935.000000	96.860391 
3934.000000	96.857536 
3933.000000	96.854796 
3932.000000	96.853538 
3931.000000	96.853915 
3930.000000	96.854511 
3929.000000	96.854621 
3928.000000	96.855158 
3927.000000	96.856869 
3926.000000	96.858420 
3925.000000	96.857605 
3924.000000	96.854399 
3923.000000	96.850710 
3922.000000	96.847490 
3921.000000	96.844436 
3920.000000	96.841783 
3919.000000	96.840780 
3918.000000	96.841714 
3917.000000	96.843190 
3916.000000	96.844025 
3915.000000	96.844505 
3914.000000	96.845153 
3913.000000	96.845740 
3912.000000	96.845881 
3911.000000	96.846007 
3910.000000	96.846416 
3909.000000	96.846729 
3908.000000	96.846477 
3907.000000	96.845210 
3906.000000	96.842368 
3905.000000	96.837004 
3904.000000	96.829398 
3903.000000	96.822320 
3902.000000	96.818748 
3901.000000	96.819185 
3900.000000	96.821775 
3899.000000	96.824269 
3898.000000	96.825999 
3897.000000	96.827053 
3896.000000	96.827220 
3895.000000	96.826781 
3894.000000	96.826557 
3893.000000	96.826979 
3892.000000	96.827049 
3891.000000	96.825499 
3890.000000	96.822660 
3889.000000	96.819962 
3888.000000	96.818418 
3887.000000	96.817825 
3886.000000	96.817567 
3885.000000	96.817496 
3884.000000	96.817524 
3883.000000	96.817145 
3882.000000	96.816104 
3881.000000	96.814890 
3880.000000	96.814249 
3879.000000	96.814198 
3878.000000	96.814238 
3877.000000	96.814127 
3876.000000	96.813950 
3875.000000	96.813629 
3874.000000	96.813022 
3873.000000	96.812247 
3872.000000	96.811523 
3871.000000	96.810856 
3870.000000	96.810213 
3869.000000	96.809753 
3868.000000	96.809520 
3867.000000	96.809366 
3866.000000	96.809167 
3865.000000	96.808952 
3864.000000	96.808817 
3863.000000	96.808783 
3862.000000	96.808770 
3861.000000	96.808733 
3860.000000	96.808699 
3859.000000	96.808684 
3858.000000	96.808661 
3857.000000	96.808579 
3856.000000	96.808403 
3855.000000	96.808097 
3854.000000	96.807609 
3853.000000	96.807028 
3852.000000	96.806585 
3851.000000	96.806330 
3850.000000	96.806175 
3849.000000	96.806074 
3848.000000	96.806092 
3847.000000	96.806280 
3846.000000	96.806518 
3845.000000	96.806612 
3844.000000	96.806490 
3843.000000	96.806210 
3842.000000	96.805883 
3841.000000	96.805633 
3840.000000	96.805489 
3839.000000	96.805463 
3838.000000	96.805611 
3837.000000	96.805824 
3836.000000	96.805901 
3835.000000	96.805807 
3834.000000	96.805714 
3833.000000	96.805828 
3832.000000	96.806188 
3831.000000	96.806740 
3830.000000	96.807435 
3829.000000	96.808243 
3828.000000	96.809158 
3827.000000	96.810076 
3826.000000	96.810689 
3825.000000	96.810879 
3824.000000	96.810842 
3823.000000	96.810837 
3822.000000	96.810734 
3821.000000	96.810289 
3820.000000	96.809983 
3819.000000	96.810212 
3818.000000	96.810675 
3817.000000	96.810901 
3816.000000	96.811280 
3815.000000	96.812846 
3814.000000	96.815466 
3813.000000	96.817532 
3812.000000	96.818019 
3811.000000	96.817939 
3810.000000	96.819086 
3809.000000	96.821547 
3808.000000	96.823129 
3807.000000	96.822153 
3806.000000	96.819578 
3805.000000	96.817581 
3804.000000	96.816807 
3803.000000	96.816929 
3802.000000	96.817342 
3801.000000	96.818290 
3800.000000	96.820098 
3799.000000	96.820836 
3798.000000	96.819040 
3797.000000	96.816777 
3796.000000	96.817831 
3795.000000	96.823119 
3794.000000	96.829207 
3793.000000	96.832366 
3792.000000	96.833039 
3791.000000	96.834785 
3790.000000	96.838929 
3789.000000	96.842795 
3788.000000	96.843971 
3787.000000	96.843151 
3786.000000	96.841950 
3785.000000	96.840082 
3784.000000	96.836519 
3783.000000	96.832219 
3782.000000	96.828779 
3781.000000	96.826503 
3780.000000	96.825004 
3779.000000	96.825321 
3778.000000	96.828321 
3777.000000	96.832309 
3776.000000	96.833876 
3775.000000	96.831480 
3774.000000	96.826961 
3773.000000	96.823349 
3772.000000	96.821277 
3771.000000	96.818342 
3770.000000	96.813252 
3769.000000	96.808629 
3768.000000	96.806752 
3767.000000	96.806066 
3766.000000	96.804282 
3765.000000	96.801664 
3764.000000	96.800746 
3763.000000	96.802200 
3762.000000	96.802924 
3761.000000	96.800320 
3760.000000	96.796017 
3759.000000	96.793987 
3758.000000	96.792488 
3757.000000	96.786561 
3756.000000	96.776781 
3755.000000	96.767196 
3754.000000	96.758478 
3753.000000	96.747548 
3752.000000	96.735598 
3751.000000	96.728888 
3750.000000	96.727067 
3749.000000	96.722941 
3748.000000	96.716631 
3747.000000	96.715412 
3746.000000	96.721624 
3745.000000	96.727590 
3744.000000	96.732684 
3743.000000	96.740934 
3742.000000	96.745234 
3741.000000	96.737205 
3740.000000	96.720747 
3739.000000	96.710180 
3738.000000	96.713480 
3737.000000	96.721112 
3736.000000	96.720757 
3735.000000	96.715722 
3734.000000	96.716816 
3733.000000	96.723730 
3732.000000	96.729779 
3731.000000	96.734196 
3730.000000	96.738798 
3729.000000	96.741723 
3728.000000	96.740421 
3727.000000	96.736394 
3726.000000	96.735063 
3725.000000	96.738329 
3724.000000	96.741905 
3723.000000	96.742494 
3722.000000	96.742416 
3721.000000	96.745232 
3720.000000	96.748826 
3719.000000	96.750212 
3718.000000	96.749390 
3717.000000	96.747514 
3716.000000	96.745830 
3715.000000	96.742615 
3714.000000	96.734926 
3713.000000	96.723497 
3712.000000	96.711933 
3711.000000	96.703456 
3710.000000	96.697221 
3709.000000	96.691404 
3708.000000	96.686146 
3707.000000	96.680928 
3706.000000	96.675295 
3705.000000	96.669817 
3704.000000	96.665260 
3703.000000	96.660851 
3702.000000	96.653103 
3701.000000	96.639294 
3700.000000	96.620659 
3699.000000	96.601450 
3698.000000	96.585839 
3697.000000	96.574671 
3696.000000	96.567653 
3695.000000	96.563962 
3694.000000	96.560213 
3693.000000	96.553935 
3692.000000	96.546432 
3691.000000	96.539809 
3690.000000	96.530707 
3689.000000	96.516907 
3688.000000	96.504294 
3687.000000	96.498160 
3686.000000	96.496487 
3685.000000	96.493197 
3684.000000	96.485465 
3683.000000	96.477496 
3682.000000	96.474300 
3681.000000	96.471137 
3680.000000	96.458266 
3679.000000	96.433513 
3678.000000	96.405439 
3677.000000	96.380387 
3676.000000	96.354464 
3675.000000	96.329381 
3674.000000	96.310520 
3673.000000	96.295439 
3672.000000	96.278478 
3671.000000	96.261271 
3670.000000	96.250579 
3669.000000	96.249157 
3668.000000	96.248830 
3667.000000	96.240266 
3666.000000	96.225539 
3665.000000	96.212325 
3664.000000	96.203236 
3663.000000	96.195287 
3662.000000	96.183683 
3661.000000	96.165103 
3660.000000	96.140916 
3659.000000	96.115084 
3658.000000	96.091839 
3657.000000	96.070979 
3656.000000	96.050058 
3655.000000	96.028707 
3654.000000	96.005639 
3653.000000	95.978429 
3652.000000	95.944920 
3651.000000	95.906177 
3650.000000	95.868714 
3649.000000	95.841376 
3648.000000	95.827186 
3647.000000	95.822716 
3646.000000	95.824906 
3645.000000	95.831595 
3644.000000	95.839274 
3643.000000	95.844883 
3642.000000	95.847020 
3641.000000	95.844976 
3640.000000	95.837666 
3639.000000	95.823092 
3638.000000	95.802337 
3637.000000	95.780184 
3636.000000	95.760340 
3635.000000	95.740500 
3634.000000	95.715822 
3633.000000	95.686612 
3632.000000	95.657442 
3631.000000	95.630508 
3630.000000	95.603603 
3629.000000	95.579147 
3628.000000	95.566203 
3627.000000	95.563627 
3626.000000	95.560179 
3625.000000	95.553593 
3624.000000	95.551611 
3623.000000	95.560032 
3622.000000	95.575218 
3621.000000	95.586471 
3620.000000	95.585199 
3619.000000	95.573165 
3618.000000	95.559077 
3617.000000	95.549975 
3616.000000	95.550667 
3615.000000	95.562902 
3614.000000	95.582463 
3613.000000	95.602321 
3612.000000	95.617998 
3611.000000	95.628372 
3610.000000	95.635946 
3609.000000	95.646261 
3608.000000	95.663035 
3607.000000	95.684515 
3606.000000	95.705182 
3605.000000	95.722709 
3604.000000	95.740264 
3603.000000	95.760172 
3602.000000	95.779314 
3601.000000	95.791464 
3600.000000	95.794413 
3599.000000	95.791834 
3598.000000	95.789490 
3597.000000	95.791026 
3596.000000	95.798592 
3595.000000	95.809791 
3594.000000	95.818270 
3593.000000	95.819732 
3592.000000	95.814855 
3591.000000	95.808059 
3590.000000	95.804440 
3589.000000	95.805819 
3588.000000	95.809999 
3587.000000	95.814773 
3586.000000	95.820362 
3585.000000	95.827425 
3584.000000	95.837134 
3583.000000	95.849920 
3582.000000	95.864715 
3581.000000	95.877989 
3580.000000	95.886098 
3579.000000	95.887835 
3578.000000	95.884924 
3577.000000	95.880741 
3576.000000	95.878000 
3575.000000	95.877857 
3574.000000	95.878935 
3573.000000	95.878631 
3572.000000	95.874308 
3571.000000	95.864928 
3570.000000	95.851939 
3569.000000	95.839001 
3568.000000	95.830495 
3567.000000	95.829580 
3566.000000	95.835437 
3565.000000	95.843222 
3564.000000	95.848690 
3563.000000	95.851926 
3562.000000	95.855202 
3561.000000	95.859589 
3560.000000	95.863780 
3559.000000	95.865821 
3558.000000	95.865173 
3557.000000	95.863202 
3556.000000	95.861756 
3555.000000	95.861767 
3554.000000	95.862686 
3553.000000	95.862950 
3552.000000	95.861548 
3551.000000	95.858407 
3550.000000	95.854007 
3549.000000	95.849475 
3548.000000	95.846612 
3547.000000	95.846375 
3546.000000	95.847650 
3545.000000	95.848419 
3544.000000	95.848497 
3543.000000	95.849566 
3542.000000	95.852504 
3541.000000	95.856373 
3540.000000	95.859881 
3539.000000	95.862450 
3538.000000	95.863875 
3537.000000	95.863821 
3536.000000	95.862510 
3535.000000	95.860677 
3534.000000	95.859025 
3533.000000	95.857921 
3532.000000	95.857702 
3531.000000	95.858629 
3530.000000	95.860129 
3529.000000	95.860687 
3528.000000	95.859130 
3527.000000	95.855922 
3526.000000	95.852895 
3525.000000	95.851659 
3524.000000	95.852553 
3523.000000	95.854843 
3522.000000	95.857478 
3521.000000	95.859768 
3520.000000	95.861717 
3519.000000	95.863553 
3518.000000	95.865179 
3517.000000	95.865988 
3516.000000	95.865534 
3515.000000	95.864137 
3514.000000	95.862827 
3513.000000	95.862493 
3512.000000	95.863006 
3511.000000	95.863279 
3510.000000	95.862373 
3509.000000	95.860507 
3508.000000	95.858845 
3507.000000	95.858239 
3506.000000	95.858440 
3505.000000	95.858450 
3504.000000	95.857640 
3503.000000	95.856328 
3502.000000	95.855340 
3501.000000	95.855164 
3500.000000	95.855759 
3499.000000	95.856865 
3498.000000	95.858147 
3497.000000	95.859205 
3496.000000	95.859600 
3495.000000	95.859076 
3494.000000	95.857836 
3493.000000	95.856508 
3492.000000	95.855544 
3491.000000	95.854679 
3490.000000	95.853399 
3489.000000	95.851788 
3488.000000	95.850313 
3487.000000	95.848884 
3486.000000	95.846867 
3485.000000	95.844249 
3484.000000	95.842032 
3483.000000	95.841002 
3482.000000	95.840749 
3481.000000	95.840321 
3480.000000	95.839416 
3479.000000	95.838294 
3478.000000	95.836922 
3477.000000	95.834888 
3476.000000	95.832058 
3475.000000	95.828969 
3474.000000	95.826442 
3473.000000	95.824945 
3472.000000	95.824338 
3471.000000	95.823995 
3470.000000	95.823199 
3469.000000	95.821686 
3468.000000	95.819786 
3467.000000	95.818061 
3466.000000	95.816818 
3465.000000	95.815843 
3464.000000	95.814514 
3463.000000	95.812253 
3462.000000	95.809037 
3461.000000	95.805536 
3460.000000	95.802581 
3459.000000	95.800382 
3458.000000	95.798414 
3457.000000	95.796002 
3456.000000	95.793107 
3455.000000	95.790376 
3454.000000	95.788562 
3453.000000	95.787845 
3452.000000	95.787765 
3451.000000	95.787681 
3450.000000	95.787138 
3449.000000	95.785834 
3448.000000	95.783491 
3447.000000	95.780069 
3446.000000	95.776004 
3445.000000	95.772082 
3444.000000	95.769000 
3443.000000	95.767019 
3442.000000	95.765908 
3441.000000	95.765042 
3440.000000	95.763785 
3439.000000	95.761840 
3438.000000	95.759352 
3437.000000	95.756704 
3436.000000	95.754405 
3435.000000	95.752939 
3434.000000	95.752494 
3433.000000	95.752636 
3432.000000	95.752541 
3431.000000	95.751809 
3430.000000	95.750717 
3429.000000	95.749680 
3428.000000	95.748599 
3427.000000	95.747014 
3426.000000	95.744842 
3425.000000	95.742734 
3424.000000	95.741512 
3423.000000	95.741257 
3422.000000	95.741147 
3421.000000	95.740317 
3420.000000	95.738809 
3419.000000	95.737392 
3418.000000	95.736595 
3417.000000	95.736293 
3416.000000	95.736139 
3415.000000	95.735967 
3414.000000	95.735584 
3413.000000	95.734585 
3412.000000	95.732758 
3411.000000	95.730557 
3410.000000	95.728873 
3409.000000	95.728307 
3408.000000	95.728781 
3407.000000	95.729656 
3406.000000	95.730207 
3405.000000	95.730146 
3404.000000	95.729803 
3403.000000	95.729624 
3402.000000	95.729643 
3401.000000	95.729624 
3400.000000	95.729564 
3399.000000	95.729666 
3398.000000	95.729843 
3397.000000	95.729778 
3396.000000	95.729517 
3395.000000	95.729607 
3394.000000	95.730399 
3393.000000	95.731507 
3392.000000	95.732122 
3391.000000	95.731768 
3390.000000	95.730720 
3389.000000	95.729853 
3388.000000	95.730101 
3387.000000	95.731782 
3386.000000	95.734245 
3385.000000	95.736159 
3384.000000	95.736524 
3383.000000	95.735542 
3382.000000	95.734656 
3381.000000	95.735429 
3380.000000	95.738055 
3379.000000	95.741026 
3378.000000	95.742642 
3377.000000	95.743045 
3376.000000	95.743968 
3375.000000	95.746411 
3374.000000	95.749379 
3373.000000	95.751327 
3372.000000	95.752222 
3371.000000	95.753423 
3370.000000	95.755922 
3369.000000	95.759453 
3368.000000	95.763117 
3367.000000	95.766169 
3366.000000	95.768188 
3365.000000	95.769131 
3364.000000	95.769451 
3363.000000	95.769811 
3362.000000	95.770541 
3361.000000	95.771579 
3360.000000	95.772970 
3359.000000	95.775023 
3358.000000	95.777875 
3357.000000	95.781173 
3356.000000	95.784377 
3355.000000	95.787295 
3354.000000	95.790253 
3353.000000	95.793815 
3352.000000	95.798241 
3351.000000	95.803106 
3350.000000	95.807494 
3349.000000	95.810728 
3348.000000	95.812922 
3347.000000	95.814756 
3346.000000	95.816777 
3345.000000	95.818950 
3344.000000	95.820774 
3343.000000	95.821721 
3342.000000	95.821769 
3341.000000	95.821748 
3340.000000	95.822729 
3339.000000	95.824940 
3338.000000	95.827639 
3337.000000	95.830004 
3336.000000	95.831961 
3335.000000	95.833932 
3334.000000	95.836114 
3333.000000	95.838320 
3332.000000	95.840386 
3331.000000	95.842406 
3330.000000	95.844559 
3329.000000	95.846908 
3328.000000	95.849441 
3327.000000	95.852136 
3326.000000	95.854928 
3325.000000	95.857629 
3324.000000	95.859989 
3323.000000	95.861883 
3322.000000	95.863435 
3321.000000	95.864964 
3320.000000	95.866783 
3319.000000	95.868962 
3318.000000	95.871361 
3317.000000	95.873788 
3316.000000	95.876130 
3315.000000	95.878374 
3314.000000	95.880543 
3313.000000	95.882669 
3312.000000	95.884793 
3311.000000	95.886954 
3310.000000	95.889182 
3309.000000	95.891476 
3308.000000	95.893792 
3307.000000	95.896048 
3306.000000	95.898191 
3305.000000	95.900240 
3304.000000	95.902278 
3303.000000	95.904396 
3302.000000	95.906631 
3301.000000	95.908963 
3300.000000	95.911312 
3299.000000	95.913576 
3298.000000	95.915696 
3297.000000	95.917703 
3296.000000	95.919728 
3295.000000	95.921905 
3294.000000	95.924282 
3293.000000	95.926813 
3292.000000	95.929409 
3291.000000	95.931991 
3290.000000	95.934491 
3289.000000	95.936861 
3288.000000	95.939101 
3287.000000	95.941270 
3286.000000	95.943417 
3285.000000	95.945519 
3284.000000	95.947537 
3283.000000	95.949514 
3282.000000	95.951600 
3281.000000	95.953918 
3280.000000	95.956409 
3279.000000	95.958855 
3278.000000	95.961115 
3277.000000	95.963287 
3276.000000	95.965569 
3275.000000	95.968025 
3274.000000	95.970563 
3273.000000	95.973119 
3272.000000	95.975724 
3271.000000	95.978393 
3270.000000	95.981046 
3269.000000	95.983586 
3268.000000	95.985993 
3267.000000	95.988323 
3266.000000	95.990667 
3265.000000	95.993106 
3264.000000	95.995660 
3263.000000	95.998285 
3262.000000	96.000901 
3261.000000	96.003466 
3260.000000	96.005988 
3259.000000	96.008486 
3258.000000	96.010978 
3257.000000	96.013493 
3256.000000	96.016054 
3255.000000	96.018648 
3254.000000	96.021244 
3253.000000	96.023827 
3252.000000	96.026403 
3251.000000	96.028977 
3250.000000	96.031551 
3249.000000	96.034127 
3248.000000	96.036707 
3247.000000	96.039293 
3246.000000	96.041892 
3245.000000	96.044507 
3244.000000	96.047139 
3243.000000	96.049787 
3242.000000	96.052447 
3241.000000	96.055120 
3240.000000	96.057806 
3239.000000	96.060504 
3238.000000	96.063214 
3237.000000	96.065931 
3236.000000	96.068654 
3235.000000	96.071378 
3234.000000	96.074099 
3233.000000	96.076817 
3232.000000	96.079530 
3231.000000	96.082240 
3230.000000	96.084945 
3229.000000	96.087646 
3228.000000	96.090344 
3227.000000	96.093043 
3226.000000	96.095747 
3225.000000	96.098456 
3224.000000	96.101168 
3223.000000	96.103881 
3222.000000	96.106594 
3221.000000	96.109309 
3220.000000	96.112028 
3219.000000	96.114753 
3218.000000	96.117485 
3217.000000	96.120226 
3216.000000	96.122981 
3215.000000	96.125755 
3214.000000	96.128550 
3213.000000	96.131362 
3212.000000	96.134188 
3211.000000	96.137026 
3210.000000	96.139874 
3209.000000	96.142728 
3208.000000	96.145592 
3207.000000	96.148468 
3206.000000	96.151338 
3205.000000	96.154183 
3204.000000	96.157020 
3203.000000	96.159905 
3202.000000	96.162873 
3201.000000	96.165897 
3200.000000	96.168893 
3199.000000	96.171793 
3198.000000	96.174619 
3197.000000	96.177456 
3196.000000	96.180331 
3195.000000	96.183177 
3194.000000	96.185966 
3193.000000	96.188819 
3192.000000	96.191873 
3191.000000	96.195015 
3190.000000	96.197908 
3189.000000	96.200330 
3188.000000	96.202422 
3187.000000	96.204630 
3186.000000	96.207324 
3185.000000	96.210590 
3184.000000	96.214192 
3183.000000	96.217735 
3182.000000	96.221014 
3181.000000	96.224097 
3180.000000	96.227090 
3179.000000	96.229936 
3178.000000	96.232558 
3177.000000	96.235135 
3176.000000	96.238005 
3175.000000	96.241314 
3174.000000	96.244912 
3173.000000	96.248525 
3172.000000	96.251884 
3171.000000	96.254768 
3170.000000	96.257167 
3169.000000	96.259392 
3168.000000	96.261791 
3167.000000	96.264365 
3166.000000	96.266884 
3165.000000	96.269266 
3164.000000	96.271606 
3163.000000	96.273924 
3162.000000	96.276143 
3161.000000	96.278302 
3160.000000	96.280590 
3159.000000	96.283138 
3158.000000	96.285957 
3157.000000	96.289024 
3156.000000	96.292259 
3155.000000	96.295439 
3154.000000	96.298332 
3153.000000	96.300942 
3152.000000	96.303465 
3151.000000	96.306006 
3150.000000	96.308477 
3149.000000	96.310779 
3148.000000	96.312968 
3147.000000	96.315235 
3146.000000	96.317770 
3145.000000	96.320640 
3144.000000	96.323745 
3143.000000	96.326801 
3142.000000	96.329521 
3141.000000	96.331852 
3140.000000	96.333995 
3139.000000	96.336243 
3138.000000	96.338703 
3137.000000	96.341261 
3136.000000	96.343721 
3135.000000	96.345959 
3134.000000	96.348019 
3133.000000	96.350117 
3132.000000	96.352464 
3131.000000	96.355041 
3130.000000	96.357639 
3129.000000	96.360141 
3128.000000	96.362637 
3127.000000	96.365231 
3126.000000	96.367889 
3125.000000	96.370539 
3124.000000	96.373175 
3123.000000	96.375752 
3122.000000	96.378132 
3121.000000	96.380289 
3120.000000	96.382449 
3119.000000	96.384835 
3118.000000	96.387409 
3117.000000	96.390011 
3116.000000	96.392594 
3115.000000	96.395132 
3114.000000	96.397499 
3113.000000	96.399676 
3112.000000	96.402004 
3111.000000	96.404976 
3110.000000	96.408695 
3109.000000	96.412591 
3108.000000	96.415771 
3107.000000	96.417789 
3106.000000	96.418999 
3105.000000	96.420138 
3104.000000	96.421472 
3103.000000	96.422624 
3102.000000	96.423213 
3101.000000	96.423362 
3100.000000	96.423428 
3099.000000	96.423643 
3098.000000	96.424370 
3097.000000	96.426344 
3096.000000	96.430019 
3095.000000	96.434677 
3094.000000	96.438913 
3093.000000	96.441995 
3092.000000	96.444215 
3091.000000	96.446002 
3090.000000	96.447353 
3089.000000	96.448287 
3088.000000	96.449219 
3087.000000	96.450610 
3086.000000	96.452548 
3085.000000	96.454809 
3084.000000	96.456992 
3083.000000	96.458595 
3082.000000	96.459447 
3081.000000	96.460211 
3080.000000	96.461832 
3079.000000	96.464201 
3078.000000	96.466128 
3077.000000	96.467075 
3076.000000	96.468044 
3075.000000	96.469970 
3074.000000	96.472146 
3073.000000	96.473334 
3072.000000	96.473712 
3071.000000	96.474461 
3070.000000	96.475839 
3069.000000	96.477088 
3068.000000	96.478033 
3067.000000	96.479367 
3066.000000	96.481277 
3065.000000	96.482984 
3064.000000	96.483775 
3063.000000	96.483486 
3062.000000	96.482006 
3061.000000	96.479398 
3060.000000	96.476613 
3059.000000	96.475157 
3058.000000	96.476001 
3057.000000	96.479275 
3056.000000	96.484480 
3055.000000	96.489962 
3054.000000	96.492957 
3053.000000	96.491929 
3052.000000	96.488861 
3051.000000	96.487788 
3050.000000	96.490463 
3049.000000	96.494730 
3048.000000	96.497388 
3047.000000	96.497221 
3046.000000	96.494733 
3045.000000	96.490751 
3044.000000	96.486585 
3043.000000	96.484572 
3042.000000	96.486645 
3041.000000	96.492006 
3040.000000	96.496978 
3039.000000	96.497885 
3038.000000	96.494029 
3037.000000	96.487838 
3036.000000	96.482245 
3035.000000	96.477974 
3034.000000	96.473691 
3033.000000	96.468334 
3032.000000	96.462338 
3031.000000	96.456788 
3030.000000	96.452498 
3029.000000	96.450030 
3028.000000	96.449164 
3027.000000	96.447773 
3026.000000	96.442805 
3025.000000	96.433686 
3024.000000	96.423807 
3023.000000	96.417121 
3022.000000	96.413820 
3021.000000	96.411156 
3020.000000	96.407740 
3019.000000	96.404822 
3018.000000	96.403133 
3017.000000	96.400756 
3016.000000	96.395210 
3015.000000	96.386289 
3014.000000	96.376060 
3013.000000	96.366881 
3012.000000	96.359768 
3011.000000	96.353830 
3010.000000	96.346988 
3009.000000	96.338072 
3008.000000	96.328223 
3007.000000	96.319491 
3006.000000	96.312183 
3005.000000	96.304716 
3004.000000	96.296088 
3003.000000	96.287224 
3002.000000	96.279714 
3001.000000	96.274386 
3000.000000	96.271105 
2999.000000	96.268604 
2998.000000	96.264379 
2997.000000	96.256487 
2996.000000	96.245931 
2995.000000	96.235869 
2994.000000	96.227748 
2993.000000	96.219485 
2992.000000	96.208263 
2991.000000	96.194163 
2990.000000	96.180204 
2989.000000	96.169695 
2988.000000	96.164388 
2987.000000	96.164326 
2986.000000	96.168272 
2985.000000	96.174391 
2984.000000	96.181142 
2983.000000	96.187678 
2982.000000	96.193504 
2981.000000	96.198163 
2980.000000	96.201246 
2979.000000	96.202205 
2978.000000	96.200339 
2977.000000	96.195735 
2976.000000	96.190297 
2975.000000	96.186926 
2974.000000	96.187284 
2973.000000	96.190940 
2972.000000	96.196644 
2971.000000	96.203527 
2970.000000	96.210796 
2969.000000	96.217456 
2968.000000	96.223145 
2967.000000	96.228650 
2966.000000	96.234934 
2965.000000	96.242042 
2964.000000	96.249403 
2963.000000	96.256702 
2962.000000	96.263960 
2961.000000	96.271084 
2960.000000	96.277951 
2959.000000	96.284814 
2958.000000	96.292247 
2957.000000	96.300505 
2956.000000	96.308828 
2955.000000	96.315360 
2954.000000	96.318419 
2953.000000	96.318680 
2952.000000	96.319807 
2951.000000	96.325664 
2950.000000	96.336232 
2949.000000	96.347071 
2948.000000	96.353528 
2947.000000	96.354897 
2946.000000	96.354071 
2945.000000	96.353981 
2944.000000	96.355172 
2943.000000	96.356569 
2942.000000	96.357326 
2941.000000	96.357512 
2940.000000	96.357802 
2939.000000	96.359041 
2938.000000	96.361689 
2937.000000	96.365272 
2936.000000	96.368590 
2935.000000	96.370691 
2934.000000	96.371483 
2933.000000	96.371249 
2932.000000	96.369993 
2931.000000	96.367734 
2930.000000	96.365314 
2929.000000	96.364284 
2928.000000	96.365618 
2927.000000	96.368625 
2926.000000	96.371477 
2925.000000	96.373022 
2924.000000	96.373950 
2923.000000	96.375943 
2922.000000	96.379655 
2921.000000	96.383847 
2920.000000	96.386792 
2919.000000	96.388265 
2918.000000	96.389428 
2917.000000	96.390558 
2916.000000	96.389747 
2915.000000	96.384903 
2914.000000	96.376917 
2913.000000	96.369767 
2912.000000	96.366784 
2911.000000	96.367388 
2910.000000	96.368225 
2909.000000	96.367081 
2908.000000	96.364894 
2907.000000	96.363765 
2906.000000	96.364018 
2905.000000	96.363610 
2904.000000	96.360370 
2903.000000	96.354278 
2902.000000	96.348970 
2901.000000	96.348817 
2900.000000	96.355547 
2899.000000	96.367030 
2898.000000	96.378798 
2897.000000	96.387657 
2896.000000	96.392976 
2895.000000	96.395436 
2894.000000	96.396126 
2893.000000	96.397090 
2892.000000	96.400798 
2891.000000	96.407630 
2890.000000	96.414755 
2889.000000	96.418996 
2888.000000	96.420416 
2887.000000	96.421647 
2886.000000	96.424103 
2885.000000	96.426758 
2884.000000	96.428983 
2883.000000	96.432420 
2882.000000	96.438633 
2881.000000	96.446338 
2880.000000	96.452860 
2879.000000	96.457889 
2878.000000	96.463803 
2877.000000	96.472101 
2876.000000	96.481264 
2875.000000	96.488816 
2874.000000	96.494130 
2873.000000	96.498134 
2872.000000	96.501335 
2871.000000	96.503621 
2870.000000	96.505601 
2869.000000	96.508582 
2868.000000	96.512903 
2867.000000	96.517445 
2866.000000	96.521232 
2865.000000	96.524701 
2864.000000	96.529058 
2863.000000	96.535202 
2862.000000	96.543642 
2861.000000	96.554438 
2860.000000	96.566448 
2859.000000	96.577530 
2858.000000	96.586539 
2857.000000	96.594627 
2856.000000	96.603582 
2855.000000	96.613176 
2854.000000	96.621313 
2853.000000	96.626581 
2852.000000	96.629491 
2851.000000	96.631360 
2850.000000	96.633136 
2849.000000	96.635454 
2848.000000	96.638776 
2847.000000	96.642860 
2846.000000	96.646729 
2845.000000	96.649661 
2844.000000	96.651911 
2843.000000	96.654310 
2842.000000	96.657469 
2841.000000	96.661310 
2840.000000	96.665000 
2839.000000	96.667476 
2838.000000	96.668537 
2837.000000	96.669340 
2836.000000	96.671299 
2835.000000	96.674615 
2834.000000	96.678516 
2833.000000	96.682747 
2832.000000	96.687776 
2831.000000	96.693390 
2830.000000	96.698102 
2829.000000	96.700581 
2828.000000	96.701128 
2827.000000	96.701321 
2826.000000	96.702620 
2825.000000	96.705511 
2824.000000	96.709471 
2823.000000	96.713223 
2822.000000	96.715427 
2821.000000	96.715686 
2820.000000	96.714839 
2819.000000	96.714111 
2818.000000	96.714170 
2817.000000	96.715127 
2816.000000	96.716982 
2815.000000	96.719575 
2814.000000	96.722273 
2813.000000	96.724168 
2812.000000	96.724723 
2811.000000	96.724164 
2810.000000	96.723368 
2809.000000	96.723402 
2808.000000	96.724921 
2807.000000	96.727834 
2806.000000	96.731448 
2805.000000	96.734912 
2804.000000	96.737612 
2803.000000	96.739307 
2802.000000	96.740162 
2801.000000	96.740769 
2800.000000	96.741835 
2799.000000	96.743566 
2798.000000	96.745491 
2797.000000	96.746964 
2796.000000	96.747806 
2795.000000	96.748342 
2794.000000	96.748999 
2793.000000	96.749965 
2792.000000	96.751212 
2791.000000	96.752624 
2790.000000	96.754040 
2789.000000	96.755290 
2788.000000	96.756312 
2787.000000	96.757224 
2786.000000	96.758226 
2785.000000	96.759435 
2784.000000	96.760805 
2783.000000	96.762206 
2782.000000	96.763541 
2781.000000	96.764796 
2780.000000	96.766001 
2779.000000	96.767189 
2778.000000	96.768387 
2777.000000	96.769604 
2776.000000	96.770825 
2775.000000	96.772022 
2774.000000	96.773185 
2773.000000	96.774333 
2772.000000	96.775472 
2771.000000	96.776583 
2770.000000	96.777668 
2769.000000	96.778760 
2768.000000	96.779889 
2767.000000	96.781030 
2766.000000	96.782136 
2765.000000	96.783195 
2764.000000	96.784231 
2763.000000	96.785254 
2762.000000	96.786234 
2761.000000	96.787155 
2760.000000	96.788050 
2759.000000	96.788970 
2758.000000	96.789928 
2757.000000	96.790898 
2756.000000	96.791839 
2755.000000	96.792738 
2754.000000	96.793624 
2753.000000	96.794534 
2752.000000	96.795473 
2751.000000	96.796398 
2750.000000	96.797268 
2749.000000	96.798092 
2748.000000	96.798913 
2747.000000	96.799734 
2746.000000	96.800520 
2745.000000	96.801264 
2744.000000	96.802005 
2743.000000	96.802778 
2742.000000	96.803581 
2741.000000	96.804380 
2740.000000	96.805151 
2739.000000	96.805899 
2738.000000	96.806635 
2737.000000	96.807365 
2736.000000	96.808094 
2735.000000	96.808832 
2734.000000	96.809579 
2733.000000	96.810331 
2732.000000	96.811082 
2731.000000	96.811833 
2730.000000	96.812585 
2729.000000	96.813337 
2728.000000	96.814082 
2727.000000	96.814802 
2726.000000	96.815485 
2725.000000	96.816138 
2724.000000	96.816779 
2723.000000	96.817422 
2722.000000	96.818069 
2721.000000	96.818719 
2720.000000	96.819375 
2719.000000	96.820036 
2718.000000	96.820703 
2717.000000	96.821371 
2716.000000	96.822037 
2715.000000	96.822700 
2714.000000	96.823362 
2713.000000	96.824023 
2712.000000	96.824684 
2711.000000	96.825341 
2710.000000	96.825991 
2709.000000	96.826634 
2708.000000	96.827270 
2707.000000	96.827901 
2706.000000	96.828529 
2705.000000	96.829159 
2704.000000	96.829792 
2703.000000	96.830383 
2702.000000	96.830864 
2701.000000	96.831247 
2700.000000	96.831682 
2699.000000	96.832329 
2698.000000	96.833190 
2697.000000	96.834030 
2696.000000	96.834578 
2695.000000	96.834761 
2694.000000	96.834771 
2693.000000	96.834896 
2692.000000	96.835256 
2691.000000	96.835705 
2690.000000	96.835995 
2689.000000	96.836028 
2688.000000	96.835887 
2687.000000	96.835663 
2686.000000	96.835443 
2685.000000	96.835457 
2684.000000	96.835985 
2683.000000	96.836965 
2682.000000	96.837834 
2681.000000	96.838040 
2680.000000	96.837566 
2679.000000	96.836860 
2678.000000	96.836384 
2677.000000	96.836422 
2676.000000	96.837093 
2675.000000	96.838137 
2674.000000	96.838836 
2673.000000	96.838622 
2672.000000	96.837682 
2671.000000	96.836603 
2670.000000	96.835641 
2669.000000	96.834750 
2668.000000	96.834106 
2667.000000	96.833934 
2666.000000	96.833836 
2665.000000	96.832956 
2664.000000	96.831026 
2663.000000	96.828802 
2662.000000	96.827258 
2661.000000	96.826576 
2660.000000	96.826175 
2659.000000	96.825459 
2658.000000	96.824329 
2657.000000	96.823124 
2656.000000	96.822214 
2655.000000	96.821585 
2654.000000	96.820739 
2653.000000	96.819184 
2652.000000	96.817130 
2651.000000	96.815500 
2650.000000	96.815050 
2649.000000	96.815641 
2648.000000	96.816412 
2647.000000	96.816563 
2646.000000	96.815845 
2645.000000	96.814404 
2644.000000	96.812553 
2643.000000	96.810730 
2642.000000	96.809397 
2641.000000	96.808746 
2640.000000	96.808570 
2639.000000	96.808477 
2638.000000	96.808230 
2637.000000	96.807838 
2636.000000	96.807444 
2635.000000	96.807244 
2634.000000	96.807368 
2633.000000	96.807693 
2632.000000	96.807815 
2631.000000	96.807396 
2630.000000	96.806530 
2629.000000	96.805687 
2628.000000	96.805250 
2627.000000	96.805173 
2626.000000	96.805146 
2625.000000	96.804993 
2624.000000	96.804829 
2623.000000	96.804809 
2622.000000	96.804888 
2621.000000	96.804851 
2620.000000	96.804524 
2619.000000	96.803906 
2618.000000	96.803185 
2617.000000	96.802659 
2616.000000	96.802538 
2615.000000	96.802758 
2614.000000	96.803007 
2613.000000	96.803014 
2612.000000	96.802804 
2611.000000	96.802618 
2610.000000	96.802652 
2609.000000	96.802899 
2608.000000	96.803202 
2607.000000	96.803410 
2606.000000	96.803518 
2605.000000	96.803649 
2604.000000	96.803847 
2603.000000	96.803938 
2602.000000	96.803748 
2601.000000	96.803435 
2600.000000	96.803365 
2599.000000	96.803576 
2598.000000	96.803660 
2597.000000	96.803285 
2596.000000	96.802598 
2595.000000	96.801972 
2594.000000	96.801534 
2593.000000	96.801307 
2592.000000	96.801589 
2591.000000	96.802656 
2590.000000	96.804177 
2589.000000	96.805329 
2588.000000	96.805691 
2587.000000	96.805608 
2586.000000	96.805673 
2585.000000	96.806136 
2584.000000	96.806895 
2583.000000	96.807715 
2582.000000	96.808285 
2581.000000	96.808352 
2580.000000	96.808002 
2579.000000	96.807704 
2578.000000	96.807931 
2577.000000	96.808762 
2576.000000	96.809805 
2575.000000	96.810429 
2574.000000	96.810192 
2573.000000	96.809203 
2572.000000	96.808087 
2571.000000	96.807391 
2570.000000	96.807115 
2569.000000	96.806983 
2568.000000	96.806991 
2567.000000	96.807367 
2566.000000	96.808061 
2565.000000	96.808698 
2564.000000	96.809055 
2563.000000	96.809196 
2562.000000	96.809194 
2561.000000	96.809143 
2560.000000	96.809471 
2559.000000	96.810735 
2558.000000	96.812920 
2557.000000	96.815182 
2556.000000	96.816589 
2555.000000	96.816984 
2554.000000	96.816823 
2553.000000	96.816499 
2552.000000	96.816071 
2551.000000	96.815682 
2550.000000	96.815721 
2549.000000	96.816324 
2548.000000	96.817018 
2547.000000	96.817225 
2546.000000	96.817005 
2545.000000	96.816932 
2544.000000	96.817213 
2543.000000	96.817358 
2542.000000	96.816935 
2541.000000	96.816275 
2540.000000	96.816134 
2539.000000	96.816742 
2538.000000	96.817624 
2537.000000	96.818271 
2536.000000	96.818759 
2535.000000	96.819448 
2534.000000	96.820329 
2533.000000	96.820969 
2532.000000	96.821071 
2531.000000	96.820823 
2530.000000	96.820644 
2529.000000	96.820689 
2528.000000	96.820728 
2527.000000	96.820509 
2526.000000	96.820158 
2525.000000	96.820129 
2524.000000	96.820743 
2523.000000	96.821855 
2522.000000	96.822953 
2521.000000	96.823618 
2520.000000	96.823815 
2519.000000	96.823779 
2518.000000	96.823723 
2517.000000	96.823649 
2516.000000	96.823374 
2515.000000	96.822739 
2514.000000	96.821893 
2513.000000	96.821357 
2512.000000	96.821582 
2511.000000	96.822535 
2510.000000	96.823826 
2509.000000	96.825113 
2508.000000	96.826234 
2507.000000	96.827030 
2506.000000	96.827430 
2505.000000	96.827713 
2504.000000	96.828330 
2503.000000	96.829303 
2502.000000	96.830110 
2501.000000	96.830327 
2500.000000	96.830109 
2499.000000	96.829934 
2498.000000	96.830037 
2497.000000	96.830339 
2496.000000	96.830785 
2495.000000	96.831404 
2494.000000	96.832093 
2493.000000	96.832610 
2492.000000	96.832867 
2491.000000	96.833080 
2490.000000	96.833537 
2489.000000	96.834271 
2488.000000	96.835005 
2487.000000	96.835438 
2486.000000	96.835545 
2485.000000	96.835590 
2484.000000	96.835880 
2483.000000	96.836484 
2482.000000	96.837201 
2481.000000	96.837763 
2480.000000	96.838083 
2479.000000	96.838277 
2478.000000	96.838536 
2477.000000	96.838966 
2476.000000	96.839487 
2475.000000	96.839866 
2474.000000	96.839930 
2473.000000	96.839774 
2472.000000	96.839703 
2471.000000	96.839908 
2470.000000	96.840321 
2469.000000	96.840784 
2468.000000	96.841146 
2467.000000	96.841208 
2466.000000	96.840786 
2465.000000	96.839990 
2464.000000	96.839318 
2463.000000	96.839280 
2462.000000	96.840024 
2461.000000	96.841372 
2460.000000	96.843003 
2459.000000	96.844494 
2458.000000	96.845340 
2457.000000	96.845170 
2456.000000	96.844006 
2455.000000	96.842326 
2454.000000	96.840860 
2453.000000	96.840149 
2452.000000	96.840176 
2451.000000	96.840440 
2450.000000	96.840572 
2449.000000	96.840811 
2448.000000	96.841572 
2447.000000	96.842699 
2446.000000	96.843531 
2445.000000	96.843724 
2444.000000	96.843575 
2443.000000	96.843529 
2442.000000	96.843737 
2441.000000	96.844167 
2440.000000	96.844777 
2439.000000	96.845528 
2438.000000	96.846496 
2437.000000	96.847992 
2436.000000	96.850175 
2435.000000	96.852492 
2434.000000	96.853959 
2433.000000	96.854159 
2432.000000	96.853660 
2431.000000	96.853461 
2430.000000	96.854138 
2429.000000	96.855635 
2428.000000	96.857506 
2427.000000	96.859103 
2426.000000	96.859898 
2425.000000	96.859838 
2424.000000	96.859333 
2423.000000	96.858854 
2422.000000	96.858699 
2421.000000	96.859170 
2420.000000	96.860522 
2419.000000	96.862568 
2418.000000	96.864594 
2417.000000	96.866102 
2416.000000	96.867302 
2415.000000	96.868625 
2414.000000	96.870081 
2413.000000	96.871454 
2412.000000	96.872809 
2411.000000	96.874311 
2410.000000	96.875856 
2409.000000	96.877379 
2408.000000	96.879161 
2407.000000	96.881306 
2406.000000	96.883213 
2405.000000	96.884194 
2404.000000	96.884349 
2403.000000	96.884435 
2402.000000	96.885061 
2401.000000	96.886395 
2400.000000	96.888431 
2399.000000	96.891010 
2398.000000	96.893725 
2397.000000	96.896319 
2396.000000	96.899006 
2395.000000	96.901870 
2394.000000	96.904011 
2393.000000	96.904440 
2392.000000	96.903974 
2391.000000	96.904688 
2390.000000	96.907310 
2389.000000	96.910501 
2388.000000	96.912952 
2387.000000	96.914776 
2386.000000	96.916478 
2385.000000	96.918024 
2384.000000	96.919456 
2383.000000	96.921274 
2382.000000	96.923706 
2381.000000	96.926632 
2380.000000	96.930604 
2379.000000	96.936596 
2378.000000	96.943738 
2377.000000	96.948688 
2376.000000	96.948819 
2375.000000	96.945394 
2374.000000	96.941924 
2373.000000	96.939581 
2372.000000	96.936792 
2371.000000	96.933659 
2370.000000	96.933492 
2369.000000	96.938138 
2368.000000	96.944069 
2367.000000	96.945775 
2366.000000	96.941947 
2365.000000	96.936778 
2364.000000	96.935120 
2363.000000	96.936805 
2362.000000	96.939227 
2361.000000	96.942109 
2360.000000	96.946666 
2359.000000	96.953092 
2358.000000	96.959249 
2357.000000	96.964907 
2356.000000	96.971667 
2355.000000	96.976730 
2354.000000	96.973476 
2353.000000	96.959384 
2352.000000	96.941516 
2351.000000	96.927992 
2350.000000	96.921095 
2349.000000	96.919769 
2348.000000	96.917846 
2347.000000	96.908800 
2346.000000	96.893663 
2345.000000	96.882497 
2344.000000	96.880411 
2343.000000	96.882482 
2342.000000	96.886274 
2341.000000	96.892411 
2340.000000	96.900559 
2339.000000	96.906586 
2338.000000	96.907168 
2337.000000	96.903084 
2336.000000	96.899235 
2335.000000	96.897718 
2334.000000	96.895198 
2333.000000	96.885883 
2332.000000	96.871127 
2331.000000	96.857023 
2330.000000	96.845576 
2329.000000	96.834869 
2328.000000	96.822297 
2327.000000	96.809405 
2326.000000	96.795238 
2325.000000	96.778808 
2324.000000	96.763641 
2323.000000	96.755272 
2322.000000	96.754269 
2321.000000	96.753415 
2320.000000	96.750123 
2319.000000	96.749488 
2318.000000	96.756594 
2317.000000	96.766913 
2316.000000	96.771986 
2315.000000	96.768273 
2314.000000	96.758710 
2313.000000	96.747634 
2312.000000	96.737952 
2311.000000	96.731680 
2310.000000	96.728483 
2309.000000	96.725725 
2308.000000	96.721665 
2307.000000	96.718660 
2306.000000	96.719642 
2305.000000	96.723645 
2304.000000	96.727138 
2303.000000	96.728999 
2302.000000	96.731381 
2301.000000	96.735720 
2300.000000	96.740198 
2299.000000	96.741984 
2298.000000	96.739660 
2297.000000	96.734129 
2296.000000	96.727574 
2295.000000	96.722607 
2294.000000	96.720084 
2293.000000	96.718718 
2292.000000	96.716806 
2291.000000	96.714621 
2290.000000	96.713911 
2289.000000	96.715918 
2288.000000	96.720315 
2287.000000	96.725614 
2286.000000	96.729854 
2285.000000	96.731676 
2284.000000	96.731502 
2283.000000	96.731052 
2282.000000	96.731505 
2281.000000	96.732566 
2280.000000	96.733574 
2279.000000	96.734359 
2278.000000	96.734793 
2277.000000	96.734345 
2276.000000	96.732850 
2275.000000	96.731157 
2274.000000	96.730503 
2273.000000	96.731655 
2272.000000	96.734641 
2271.000000	96.738625 
2270.000000	96.741904 
2269.000000	96.742997 
2268.000000	96.742090 
2267.000000	96.740757 
2266.000000	96.740005 
2265.000000	96.739513 
2264.000000	96.738682 
2263.000000	96.737356 
2262.000000	96.735354 
2261.000000	96.732456 
2260.000000	96.729188 
2259.000000	96.726620 
2258.000000	96.725157 
2257.000000	96.724386 
2256.000000	96.724309 
2255.000000	96.725501 
2254.000000	96.727638 
2253.000000	96.728822 
2252.000000	96.727504 
2251.000000	96.724058 
2250.000000	96.719967 
2249.000000	96.716266 
2248.000000	96.713265 
2247.000000	96.711157 
2246.000000	96.709900 
2245.000000	96.708901 
2244.000000	96.707417 
2243.000000	96.705325 
2242.000000	96.703066 
2241.000000	96.701084 
2240.000000	96.699472 
2239.000000	96.698075 
2238.000000	96.696652 
2237.000000	96.695021 
2236.000000	96.693189 
2235.000000	96.691282 
2234.000000	96.689395 
2233.000000	96.687534 
2232.000000	96.685675 
2231.000000	96.683795 
2230.000000	96.681881 
2229.000000	96.679931 
2228.000000	96.677944 
2227.000000	96.675933 
2226.000000	96.673912 
2225.000000	96.671884 
2224.000000	96.669841 
2223.000000	96.667789 
2222.000000	96.665748 
2221.000000	96.663739 
2220.000000	96.661763 
2219.000000	96.659805 
2218.000000	96.657848 
2217.000000	96.655890 
2216.000000	96.653937 
2215.000000	96.651993 
2214.000000	96.650056 
2213.000000	96.648122 
2212.000000	96.646197 
2211.000000	96.644305 
2210.000000	96.642468 
2209.000000	96.640683 
2208.000000	96.638924 
2207.000000	96.637160 
2206.000000	96.635411 
2205.000000	96.633604 
2204.000000	96.631694 
2203.000000	96.630021 
2202.000000	96.629350 
2201.000000	96.629860 
2200.000000	96.630109 
2199.000000	96.628120 
2198.000000	96.623606 
2197.000000	96.618309 
2196.000000	96.614100 
2195.000000	96.611361 
2194.000000	96.609363 
2193.000000	96.607743 
2192.000000	96.606916 
2191.000000	96.606811 
2190.000000	96.605999 
2189.000000	96.603236 
2188.000000	96.599592 
2187.000000	96.597266 
2186.000000	96.595976 
2185.000000	96.592938 
2184.000000	96.587951 
2183.000000	96.586028 
2182.000000	96.591819 
2181.000000	96.602675 
2180.000000	96.610175 
2179.000000	96.609020 
2178.000000	96.601539 
2177.000000	96.594086 
2176.000000	96.591332 
2175.000000	96.594150 
2174.000000	96.600456 
2173.000000	96.606819 
2172.000000	96.610952 
2171.000000	96.613149 
2170.000000	96.614085 
2169.000000	96.611992 
2168.000000	96.604704 
2167.000000	96.594508 
2166.000000	96.587391 
2165.000000	96.585783 
2164.000000	96.585054 
2163.000000	96.580003 
2162.000000	96.573502 
2161.000000	96.575558 
2160.000000	96.593852 
2159.000000	96.626733 
2158.000000	96.663561 
2157.000000	96.692057 
2156.000000	96.706585 
2155.000000	96.709566 
2154.000000	96.707659 
2153.000000	96.707017 
2152.000000	96.709890 
2151.000000	96.713952 
2150.000000	96.715042 
2149.000000	96.712091 
2148.000000	96.709481 
2147.000000	96.712602 
2146.000000	96.720890 
2145.000000	96.728079 
2144.000000	96.730532 
2143.000000	96.732032 
2142.000000	96.737898 
2141.000000	96.747484 
2140.000000	96.756185 
2139.000000	96.762924 
2138.000000	96.771298 
2137.000000	96.783548 
2136.000000	96.796996 
2135.000000	96.806961 
2134.000000	96.810641 
2133.000000	96.808396 
2132.000000	96.803708 
2131.000000	96.801340 
2130.000000	96.803287 
2129.000000	96.806599 
2128.000000	96.806806 
2127.000000	96.803259 
2126.000000	96.799652 
2125.000000	96.799684 
2124.000000	96.803611 
2123.000000	96.808624 
2122.000000	96.810943 
2121.000000	96.807862 
2120.000000	96.799563 
2119.000000	96.789310 
2118.000000	96.780877 
2117.000000	96.775730 
2116.000000	96.772779 
2115.000000	96.769974 
2114.000000	96.765414 
2113.000000	96.758367 
2112.000000	96.750836 
2111.000000	96.746809 
2110.000000	96.748192 
2109.000000	96.752348 
2108.000000	96.755236 
2107.000000	96.755965 
2106.000000	96.756472 
2105.000000	96.758224 
2104.000000	96.761351 
2103.000000	96.765472 
2102.000000	96.768854 
2101.000000	96.767982 
2100.000000	96.761068 
2099.000000	96.751728 
2098.000000	96.746733 
2097.000000	96.749408 
2096.000000	96.757189 
2095.000000	96.764903 
2094.000000	96.769010 
2093.000000	96.768641 
2092.000000	96.764615 
2091.000000	96.758906 
2090.000000	96.753941 
2089.000000	96.751010 
2088.000000	96.749374 
2087.000000	96.747178 
2086.000000	96.743065 
2085.000000	96.737109 
2084.000000	96.730842 
2083.000000	96.726215 
2082.000000	96.723950 
2081.000000	96.723017 
2080.000000	96.722146 
2079.000000	96.721366 
2078.000000	96.721131 
2077.000000	96.720508 
2076.000000	96.717876 
2075.000000	96.713398 
2074.000000	96.709001 
2073.000000	96.705459 
2072.000000	96.701395 
2071.000000	96.695724 
2070.000000	96.689500 
2069.000000	96.684597 
2068.000000	96.681786 
2067.000000	96.680647 
2066.000000	96.680164 
2065.000000	96.678727 
2064.000000	96.674804 
2063.000000	96.668658 
2062.000000	96.662745 
2061.000000	96.659593 
2060.000000	96.659553 
2059.000000	96.661202 
2058.000000	96.662818 
2057.000000	96.663012 
2056.000000	96.660824 
2055.000000	96.655949 
2054.000000	96.649095 
2053.000000	96.641711 
2052.000000	96.635304 
2051.000000	96.630760 
2050.000000	96.627923 
2049.000000	96.625810 
2048.000000	96.623596 
2047.000000	96.621472 
2046.000000	96.620064 
2045.000000	96.619289 
2044.000000	96.618500 
2043.000000	96.617553 
2042.000000	96.616982 
2041.000000	96.617048 
2040.000000	96.617417 
2039.000000	96.617954 
2038.000000	96.618798 
2037.000000	96.619354 
2036.000000	96.618391 
2035.000000	96.615700 
2034.000000	96.613018 
2033.000000	96.612539 
2032.000000	96.614817 
2031.000000	96.618377 
2030.000000	96.620780 
2029.000000	96.620264 
2028.000000	96.616996 
2027.000000	96.613038 
2026.000000	96.610473 
2025.000000	96.609632 
2024.000000	96.609860 
2023.000000	96.611555 
2022.000000	96.616157 
2021.000000	96.623557 
2020.000000	96.630476 
2019.000000	96.632813 
2018.000000	96.629105 
2017.000000	96.621555 
2016.000000	96.614331 
2015.000000	96.610355 
2014.000000	96.609236 
2013.000000	96.607638 
2012.000000	96.602973 
2011.000000	96.597566 
2010.000000	96.597053 
2009.000000	96.603770 
2008.000000	96.613756 
2007.000000	96.621480 
2006.000000	96.625909 
2005.000000	96.629118 
2004.000000	96.631684 
2003.000000	96.632822 
2002.000000	96.633491 
2001.000000	96.635171 
2000.000000	96.636041 
1999.000000	96.631922 
1998.000000	96.621254 
1997.000000	96.607772 
1996.000000	96.597849 
1995.000000	96.595274 
1994.000000	96.598912 
1993.000000	96.603935 
1992.000000	96.605389 
1991.000000	96.602192 
1990.000000	96.597744 
1989.000000	96.596095 
1988.000000	96.597615 
1987.000000	96.598612 
1986.000000	96.595156 
1985.000000	96.587210 
1984.000000	96.578599 
1983.000000	96.572878 
1982.000000	96.570080 
1981.000000	96.568207 
1980.000000	96.567611 
1979.000000	96.571532 
1978.000000	96.580794 
1977.000000	96.590872 
1976.000000	96.596585 
1975.000000	96.597969 
1974.000000	96.599085 
1973.000000	96.603003 
1972.000000	96.609899 
1971.000000	96.618288 
1970.000000	96.625855 
1969.000000	96.629734 
1968.000000	96.628148 
1967.000000	96.622423 
1966.000000	96.617004 
1965.000000	96.616191 
1964.000000	96.621182 
1963.000000	96.630230 
1962.000000	96.640174 
1961.000000	96.648050 
1960.000000	96.652237 
1959.000000	96.652854 
1958.000000	96.651760 
1957.000000	96.651806 
1956.000000	96.654702 
1955.000000	96.659361 
1954.000000	96.662945 
1953.000000	96.664024 
1952.000000	96.663857 
1951.000000	96.664399 
1950.000000	96.666367 
1949.000000	96.669657 
1948.000000	96.674326 
1947.000000	96.680112 
1946.000000	96.685488 
1945.000000	96.688623 
1944.000000	96.689235 
1943.000000	96.688779 
1942.000000	96.688933 
1941.000000	96.690171 
1940.000000	96.692091 
1939.000000	96.694199 
1938.000000	96.696128 
1937.000000	96.697887 
1936.000000	96.700027 
1935.000000	96.702944 
1934.000000	96.706036 
1933.000000	96.708306 
1932.000000	96.709824 
1931.000000	96.711789 
1930.000000	96.715006 
1929.000000	96.718635 
1928.000000	96.721415 
1927.000000	96.723413 
1926.000000	96.725538 
1925.000000	96.728016 
1924.000000	96.730067 
1923.000000	96.731319 
1922.000000	96.732045 
1921.000000	96.732015 
1920.000000	96.730910 
1919.000000	96.729453 
1918.000000	96.728695 
1917.000000	96.728283 
1916.000000	96.727263 
1915.000000	96.726699 
1914.000000	96.728447 
1913.000000	96.731976 
1912.000000	96.734636 
1911.000000	96.735107 
1910.000000	96.734727 
1909.000000	96.734874 
1908.000000	96.735493 
1907.000000	96.736310 
1906.000000	96.737184 
1905.000000	96.736970 
1904.000000	96.734164 
1903.000000	96.729850 
1902.000000	96.727325 
1901.000000	96.727689 
1900.000000	96.728971 
1899.000000	96.729437 
1898.000000	96.729507 
1897.000000	96.730015 
1896.000000	96.730192 
1895.000000	96.728981 
1894.000000	96.726872 
1893.000000	96.724987 
1892.000000	96.723778 
1891.000000	96.723331 
1890.000000	96.723669 
1889.000000	96.724248 
1888.000000	96.724339 
1887.000000	96.724361 
1886.000000	96.725215 
1885.000000	96.726333 
1884.000000	96.726054 
1883.000000	96.724230 
1882.000000	96.722896 
1881.000000	96.723537 
1880.000000	96.725511 
1879.000000	96.727158 
1878.000000	96.727619 
1877.000000	96.727388 
1876.000000	96.727475 
1875.000000	96.728582 
1874.000000	96.730885 
1873.000000	96.733800 
1872.000000	96.736355 
1871.000000	96.738199 
1870.000000	96.739700 
1869.000000	96.740950 
1868.000000	96.741394 
1867.000000	96.741289 
1866.000000	96.741833 
1865.000000	96.743140 
1864.000000	96.744259 
1863.000000	96.745223 
1862.000000	96.747280 
1861.000000	96.750755 
1860.000000	96.754195 
1859.000000	96.756497 
1858.000000	96.758356 
1857.000000	96.760554 
1856.000000	96.762753 
1855.000000	96.764755 
1854.000000	96.767123 
1853.000000	96.769779 
1852.000000	96.772055 
1851.000000	96.774186 
1850.000000	96.776935 
1849.000000	96.780214 
1848.000000	96.783025 
1847.000000	96.785040 
1846.000000	96.786967 
1845.000000	96.789266 
1844.000000	96.791417 
1843.000000	96.793118 
1842.000000	96.794929 
1841.000000	96.797168 
1840.000000	96.799776 
1839.000000	96.802679 
1838.000000	96.805636 
1837.000000	96.808015 
1836.000000	96.809339 
1835.000000	96.810200 
1834.000000	96.811593 
1833.000000	96.813549 
1832.000000	96.815507 
1831.000000	96.816967 
1830.000000	96.817638 
1829.000000	96.817805 
1828.000000	96.818190 
1827.000000	96.819280 
1826.000000	96.821122 
1825.000000	96.823280 
1824.000000	96.824976 
1823.000000	96.825796 
1822.000000	96.826266 
1821.000000	96.827089 
1820.000000	96.828185 
1819.000000	96.828969 
1818.000000	96.829785 
1817.000000	96.831567 
1816.000000	96.833588 
1815.000000	96.834450 
1814.000000	96.834500 
1813.000000	96.835414 
1812.000000	96.837213 
1811.000000	96.837429 
1810.000000	96.835556 
1809.000000	96.834181 
1808.000000	96.834410 
1807.000000	96.835030 
1806.000000	96.835806 
1805.000000	96.837602 
1804.000000	96.839596 
1803.000000	96.839727 
1802.000000	96.837506 
1801.000000	96.835028 
1800.000000	96.833803 
1799.000000	96.832920 
1798.000000	96.832597 
1797.000000	96.833660 
1796.000000	96.834452 
1795.000000	96.833164 
1794.000000	96.831034 
1793.000000	96.831194 
1792.000000	96.833307 
1791.000000	96.833625 
1790.000000	96.832341 
1789.000000	96.832623 
1788.000000	96.834926 
1787.000000	96.837396 
1786.000000	96.839389 
1785.000000	96.841539 
1784.000000	96.843304 
1783.000000	96.844420 
1782.000000	96.845588 
1781.000000	96.847211 
1780.000000	96.849009 
1779.000000	96.850530 
1778.000000	96.852605 
1777.000000	96.855527 
1776.000000	96.858089 
1775.000000	96.859426 
1774.000000	96.859658 
1773.000000	96.859946 
1772.000000	96.861206 
1771.000000	96.862316 
1770.000000	96.862287 
1769.000000	96.862298 
1768.000000	96.863712 
1767.000000	96.866108 
1766.000000	96.868268 
1765.000000	96.870259 
1764.000000	96.873014 
1763.000000	96.876251 
1762.000000	96.878285 
1761.000000	96.878693 
1760.000000	96.878779 
1759.000000	96.879293 
1758.000000	96.879953 
1757.000000	96.880291 
1756.000000	96.880894 
1755.000000	96.881744 
1754.000000	96.881457 
1753.000000	96.879469 
1752.000000	96.877691 
1751.000000	96.878713 
1750.000000	96.882338 
1749.000000	96.885914 
1748.000000	96.888101 
1747.000000	96.889757 
1746.000000	96.891102 
1745.000000	96.892111 
1744.000000	96.893633 
1743.000000	96.895348 
1742.000000	96.895556 
1741.000000	96.894253 
1740.000000	96.893736 
1739.000000	96.895240 
1738.000000	96.896657 
1737.000000	96.896263 
1736.000000	96.894532 
1735.000000	96.893026 
1734.000000	96.892726 
1733.000000	96.892665 
1732.000000	96.892592 
1731.000000	96.894115 
1730.000000	96.897745 
1729.000000	96.900717 
1728.000000	96.901408 
1727.000000	96.900874 
1726.000000	96.900477 
1725.000000	96.900255 
1724.000000	96.899818 
1723.000000	96.898919 
1722.000000	96.898016 
1721.000000	96.897177 
1720.000000	96.896135 
1719.000000	96.894296 
1718.000000	96.891843 
1717.000000	96.890490 
1716.000000	96.888849 
1715.000000	96.885039 
1714.000000	96.881573 
1713.000000	96.880132 
1712.000000	96.879031 
1711.000000	96.877193 
1710.000000	96.875381 
1709.000000	96.873923 
1708.000000	96.872241 
1707.000000	96.870179 
1706.000000	96.868338 
1705.000000	96.866589 
1704.000000	96.863040 
1703.000000	96.857380 
1702.000000	96.851043 
1701.000000	96.846517 
1700.000000	96.844027 
1699.000000	96.840828 
1698.000000	96.836860 
1697.000000	96.833854 
1696.000000	96.831578 
1695.000000	96.828767 
1694.000000	96.825280 
1693.000000	96.821743 
1692.000000	96.818326 
1691.000000	96.814787 
1690.000000	96.810991 
1689.000000	96.806954 
1688.000000	96.802756 
1687.000000	96.798481 
1686.000000	96.794202 
1685.000000	96.790112 
1684.000000	96.786076 
1683.000000	96.781802 
1682.000000	96.777367 
1681.000000	96.772798 
1680.000000	96.768353 
1679.000000	96.764070 
1678.000000	96.759661 
1677.000000	96.754635 
1676.000000	96.749436 
1675.000000	96.745079 
1674.000000	96.740514 
1673.000000	96.734032 
1672.000000	96.726917 
1671.000000	96.722098 
1670.000000	96.720584 
1669.000000	96.718989 
1668.000000	96.715667 
1667.000000	96.712799 
1666.000000	96.709996 
1665.000000	96.705943 
1664.000000	96.701571 
1663.000000	96.698856 
1662.000000	96.696034 
1661.000000	96.687722 
1660.000000	96.676438 
1659.000000	96.669492 
1658.000000	96.669789 
1657.000000	96.670034 
1656.000000	96.667225 
1655.000000	96.662439 
1654.000000	96.660006 
1653.000000	96.658075 
1652.000000	96.649261 
1651.000000	96.635288 
1650.000000	96.618133 
1649.000000	96.607024 
1648.000000	96.600672 
1647.000000	96.596924 
1646.000000	96.593089 
1645.000000	96.592095 
1644.000000	96.589847 
1643.000000	96.586373 
1642.000000	96.584566 
1641.000000	96.585426 
1640.000000	96.586300 
1639.000000	96.583937 
1638.000000	96.579494 
1637.000000	96.576216 
1636.000000	96.575017 
1635.000000	96.578362 
1634.000000	96.585595 
1633.000000	96.590731 
1632.000000	96.590569 
1631.000000	96.588290 
1630.000000	96.589986 
1629.000000	96.595929 
1628.000000	96.601871 
1627.000000	96.607240 
1626.000000	96.613465 
1625.000000	96.619119 
1624.000000	96.623898 
1623.000000	96.631938 
1622.000000	96.644415 
1621.000000	96.653426 
1620.000000	96.656031 
1619.000000	96.658464 
1618.000000	96.666151 
1617.000000	96.673427 
1616.000000	96.672045 
1615.000000	96.669410 
1614.000000	96.673039 
1613.000000	96.678699 
1612.000000	96.680782 
1611.000000	96.682165 
1610.000000	96.688276 
1609.000000	96.697308 
1608.000000	96.706014 
1607.000000	96.716932 
1606.000000	96.729663 
1605.000000	96.738251 
1604.000000	96.742904 
1603.000000	96.749306 
1602.000000	96.758194 
1601.000000	96.764750 
1600.000000	96.768559 
1599.000000	96.774935 
1598.000000	96.784614 
1597.000000	96.792447 
1596.000000	96.795991 
1595.000000	96.799128 
1594.000000	96.805230 
1593.000000	96.811438 
1592.000000	96.814905 
1591.000000	96.818547 
1590.000000	96.824975 
1589.000000	96.830656 
1588.000000	96.833021 
1587.000000	96.836505 
1586.000000	96.844179 
1585.000000	96.849792 
1584.000000	96.849477 
1583.000000	96.850141 
1582.000000	96.856489 
1581.000000	96.863276 
1580.000000	96.865901 
1579.000000	96.868322 
1578.000000	96.874339 
1577.000000	96.879721 
1576.000000	96.878991 
1575.000000	96.877765 
1574.000000	96.878826 
1573.000000	96.877507 
1572.000000	96.875976 
1571.000000	96.879189 
1570.000000	96.884681 
1569.000000	96.879094 
1568.000000	96.864494 
1567.000000	96.854588 
1566.000000	96.852614 
1565.000000	96.850825 
1564.000000	96.849135 
1563.000000	96.849508 
1562.000000	96.850486 
1561.000000	96.840814 
1560.000000	96.822780 
1559.000000	96.809493 
1558.000000	96.804393 
1557.000000	96.802334 
1556.000000	96.793861 
1555.000000	96.791477 
1554.000000	96.788365 
1553.000000	96.783770 
1552.000000	96.777743 
1551.000000	96.772511 
1550.000000	96.762741 
1549.000000	96.746596 
1548.000000	96.729260 
1547.000000	96.717954 
1546.000000	96.712379 
1545.000000	96.707067 
1544.000000	96.698073 
1543.000000	96.685294 
1542.000000	96.672193 
1541.000000	96.662373 
1540.000000	96.648221 
1539.000000	96.630135 
1538.000000	96.615404 
1537.000000	96.599508 
1536.000000	96.581949 
1535.000000	96.566812 
1534.000000	96.557754 
1533.000000	96.551592 
1532.000000	96.542243 
1531.000000	96.526292 
1530.000000	96.508538 
1529.000000	96.494245 
1528.000000	96.481849 
1527.000000	96.467572 
1526.000000	96.451058 
1525.000000	96.435395 
1524.000000	96.422956 
1523.000000	96.413348 
1522.000000	96.404850 
1521.000000	96.394042 
1520.000000	96.377283 
1519.000000	96.355507 
1518.000000	96.333620 
1517.000000	96.315201 
1516.000000	96.298712 
1515.000000	96.282175 
1514.000000	96.266440 
1513.000000	96.255005 
1512.000000	96.247926 
1511.000000	96.238060 
1510.000000	96.220624 
1509.000000	96.199584 
1508.000000	96.182797 
1507.000000	96.165628 
1506.000000	96.146061 
1505.000000	96.131286 
1504.000000	96.117019 
1503.000000	96.101056 
1502.000000	96.083438 
1501.000000	96.066985 
1500.000000	96.053500 
1499.000000	96.040681 
1498.000000	96.022857 
1497.000000	96.004914 
1496.000000	95.995645 
1495.000000	95.991466 
1494.000000	95.985156 
1493.000000	95.977740 
1492.000000	95.973872 
1491.000000	95.973986 
1490.000000	95.972630 
1489.000000	95.966799 
1488.000000	95.955583 
1487.000000	95.938237 
1486.000000	95.920752 
1485.000000	95.905274 
1484.000000	95.890168 
1483.000000	95.876958 
1482.000000	95.867115 
1481.000000	95.859705 
1480.000000	95.850707 
1479.000000	95.838521 
1478.000000	95.826228 
1477.000000	95.817486 
1476.000000	95.809102 
1475.000000	95.795522 
1474.000000	95.779673 
1473.000000	95.771465 
1472.000000	95.774247 
1471.000000	95.778099 
1470.000000	95.776182 
1469.000000	95.771319 
1468.000000	95.766138 
1467.000000	95.759518 
1466.000000	95.751709 
1465.000000	95.745999 
1464.000000	95.743957 
1463.000000	95.740022 
1462.000000	95.730062 
1461.000000	95.718286 
1460.000000	95.711242 
1459.000000	95.710388 
1458.000000	95.706318 
1457.000000	95.694149 
1456.000000	95.684951 
1455.000000	95.680723 
1454.000000	95.673162 
1453.000000	95.665926 
1452.000000	95.664371 
1451.000000	95.668153 
1450.000000	95.672914 
1449.000000	95.679858 
1448.000000	95.689914 
1447.000000	95.697265 
1446.000000	95.696031 
1445.000000	95.689975 
1444.000000	95.688205 
1443.000000	95.691028 
1442.000000	95.692377 
1441.000000	95.689708 
1440.000000	95.686469 
1439.000000	95.684596 
1438.000000	95.681939 
1437.000000	95.680476 
1436.000000	95.684846 
1435.000000	95.689703 
1434.000000	95.687621 
1433.000000	95.684001 
1432.000000	95.686822 
1431.000000	95.696305 
1430.000000	95.704833 
1429.000000	95.709138 
1428.000000	95.712417 
1427.000000	95.716784 
1426.000000	95.721186 
1425.000000	95.724974 
1424.000000	95.732404 
1423.000000	95.742159 
1422.000000	95.747207 
1421.000000	95.748356 
1420.000000	95.756550 
1419.000000	95.771651 
1418.000000	95.776015 
1417.000000	95.769010 
1416.000000	95.767681 
1415.000000	95.777918 
1414.000000	95.789671 
1413.000000	95.795044 
1412.000000	95.799081 
1411.000000	95.807865 
1410.000000	95.817189 
1409.000000	95.823918 
1408.000000	95.832458 
1407.000000	95.846468 
1406.000000	95.862800 
1405.000000	95.877436 
1404.000000	95.894150 
1403.000000	95.913550 
1402.000000	95.929409 
1401.000000	95.941787 
1400.000000	95.959012 
1399.000000	95.984166 
1398.000000	96.007102 
1397.000000	96.019451 
1396.000000	96.026037 
1395.000000	96.037017 
1394.000000	96.053667 
1393.000000	96.071745 
1392.000000	96.093276 
1391.000000	96.119960 
1390.000000	96.147358 
1389.000000	96.169811 
1388.000000	96.185415 
1387.000000	96.195562 
1386.000000	96.202597 
1385.000000	96.210238 
1384.000000	96.223501 
1383.000000	96.243191 
1382.000000	96.264095 
1381.000000	96.281547 
1380.000000	96.295557 
1379.000000	96.309490 
1378.000000	96.325748 
1377.000000	96.344462 
1376.000000	96.365122 
1375.000000	96.386845 
1374.000000	96.406557 
1373.000000	96.422119 
1372.000000	96.435727 
1371.000000	96.451622 
1370.000000	96.470922 
1369.000000	96.488926 
1368.000000	96.503159 
1367.000000	96.516345 
1366.000000	96.531951 
1365.000000	96.551338 
1364.000000	96.572545 
1363.000000	96.590518 
1362.000000	96.602083 
1361.000000	96.609538 
1360.000000	96.617668 
1359.000000	96.629810 
1358.000000	96.645810 
1357.000000	96.662606 
1356.000000	96.677605 
1355.000000	96.690083 
1354.000000	96.700510 
1353.000000	96.711114 
1352.000000	96.722961 
1351.000000	96.736095 
1350.000000	96.750847 
1349.000000	96.763968 
1348.000000	96.772813 
1347.000000	96.778518 
1346.000000	96.784564 
1345.000000	96.792394 
1344.000000	96.801546 
1343.000000	96.812425 
1342.000000	96.826407 
1341.000000	96.841924 
1340.000000	96.853764 
1339.000000	96.858432 
1338.000000	96.857344 
1337.000000	96.854486 
1336.000000	96.853006 
1335.000000	96.853621 
1334.000000	96.855589 
1333.000000	96.858392 
1332.000000	96.861861 
1331.000000	96.865998 
1330.000000	96.870518 
1329.000000	96.874679 
1328.000000	96.878074 
1327.000000	96.881679 
1326.000000	96.886066 
1325.000000	96.888702 
1324.000000	96.888183 
1323.000000	96.886266 
1322.000000	96.885201 
1321.000000	96.885590 
1320.000000	96.887696 
1319.000000	96.891626 
1318.000000	96.895794 
1317.000000	96.898166 
1316.000000	96.898823 
1315.000000	96.899081 
1314.000000	96.898605 
1313.000000	96.896654 
1312.000000	96.894799 
1311.000000	96.895280 
1310.000000	96.897139 
1309.000000	96.897678 
1308.000000	96.896644 
1307.000000	96.896594 
1306.000000	96.899080 
1305.000000	96.902330 
1304.000000	96.905052 
1303.000000	96.907158 
1302.000000	96.907598 
1301.000000	96.904869 
1300.000000	96.900547 
1299.000000	96.898522 
1298.000000	96.900035 
1297.000000	96.902101 
1296.000000	96.901580 
1295.000000	96.898884 
1294.000000	96.896390 
1293.000000	96.895858 
1292.000000	96.897825 
1291.000000	96.901356 
1290.000000	96.904230 
1289.000000	96.904894 
1288.000000	96.903905 
1287.000000	96.902304 
1286.000000	96.899597 
1285.000000	96.895688 
1284.000000	96.893332 
1283.000000	96.895015 
1282.000000	96.898506 
1281.000000	96.898944 
1280.000000	96.895277 
1279.000000	96.891673 
1278.000000	96.891853 
1277.000000	96.895312 
1276.000000	96.899424 
1275.000000	96.902716 
1274.000000	96.904701 
1273.000000	96.905170 
1272.000000	96.904817 
1271.000000	96.904636 
1270.000000	96.904083 
1269.000000	96.901848 
1268.000000	96.898787 
1267.000000	96.897040 
1266.000000	96.895921 
1265.000000	96.893059 
1264.000000	96.889574 
1263.000000	96.889628 
1262.000000	96.894190 
1261.000000	96.899115 
1260.000000	96.901135 
1259.000000	96.902116 
1258.000000	96.904567 
1257.000000	96.907084 
1256.000000	96.906650 
1255.000000	96.903338 
1254.000000	96.900326 
1253.000000	96.900061 
1252.000000	96.901529 
1251.000000	96.901407 
1250.000000	96.897776 
1249.000000	96.893029 
1248.000000	96.892236 
1247.000000	96.897028 
1246.000000	96.902248 
1245.000000	96.901624 
1244.000000	96.895188 
1243.000000	96.888437 
1242.000000	96.885836 
1241.000000	96.888114 
1240.000000	96.893886 
1239.000000	96.899745 
1238.000000	96.900140 
1237.000000	96.891631 
1236.000000	96.877025 
1235.000000	96.862157 
1234.000000	96.849266 
1233.000000	96.836674 
1232.000000	96.823499 
1231.000000	96.810220 
1230.000000	96.795718 
1229.000000	96.778583 
1228.000000	96.760411 
1227.000000	96.743197 
1226.000000	96.724163 
1225.000000	96.697911 
1224.000000	96.663568 
1223.000000	96.625337 
1222.000000	96.585883 
1221.000000	96.543517 
1220.000000	96.496493 
1219.000000	96.445843 
1218.000000	96.392906 
1217.000000	96.337601 
1216.000000	96.279532 
1215.000000	96.217745 
1214.000000	96.150185 
1213.000000	96.077391 
1212.000000	96.005401 
1211.000000	95.939438 
1210.000000	95.875712 
1209.000000	95.805667 
1208.000000	95.727926 
1207.000000	95.649661 
1206.000000	95.575805 
1205.000000	95.503257 
1204.000000	95.427198 
1203.000000	95.347301 
1202.000000	95.265926 
1201.000000	95.184872 
1200.000000	95.105612 
1199.000000	95.028749 
1198.000000	94.951915 
1197.000000	94.872248 
1196.000000	94.791052 
1195.000000	94.711839 
1194.000000	94.634085 
1193.000000	94.553539 
1192.000000	94.468816 
1191.000000	94.382670 
1190.000000	94.296513 
1189.000000	94.208678 
1188.000000	94.118478 
1187.000000	94.027037 
1186.000000	93.933811 
1185.000000	93.837140 
1184.000000	93.738049 
1183.000000	93.638673 
1182.000000	93.537518 
1181.000000	93.431502 
1180.000000	93.321853 
1179.000000	93.212041 
1178.000000	93.100277 
1177.000000	92.980789 
1176.000000	92.852707 
1175.000000	92.721151 
1174.000000	92.589326 
1173.000000	92.456169 
1172.000000	92.322321 
1171.000000	92.190680 
1170.000000	92.059993 
1169.000000	91.925937 
1168.000000	91.790618 
1167.000000	91.663862 
1166.000000	91.553826 
1165.000000	91.464334 
1164.000000	91.402603 
1163.000000	91.379658 
1162.000000	91.398598 
1161.000000	91.448249 
1160.000000	91.510257 
1159.000000	91.566676 
1158.000000	91.600778 
1157.000000	91.600039 
1156.000000	91.562648 
1155.000000	91.496497 
1154.000000	91.410388 
1153.000000	91.310638 
1152.000000	91.205147 
1151.000000	91.102210 
1150.000000	91.003182 
1149.000000	90.903679 
1148.000000	90.803578 
1147.000000	90.708070 
1146.000000	90.617374 
1145.000000	90.524184 
1144.000000	90.424110 
1143.000000	90.320786 
1142.000000	90.217979 
1141.000000	90.114564 
1140.000000	90.010168 
1139.000000	89.907847 
1138.000000	89.807936 
1137.000000	89.706478 
1136.000000	89.602287 
1135.000000	89.498341 
1134.000000	89.394282 
1133.000000	89.285519 
1132.000000	89.171757 
1131.000000	89.058208 
1130.000000	88.946282 
1129.000000	88.831507 
1128.000000	88.712790 
1127.000000	88.594770 
1126.000000	88.478561 
1125.000000	88.359193 
1124.000000	88.235001 
1123.000000	88.110862 
1122.000000	87.989286 
1121.000000	87.867065 
1120.000000	87.743242 
1119.000000	87.621114 
1118.000000	87.499989 
1117.000000	87.375190 
1116.000000	87.248839 
1115.000000	87.130010 
1114.000000	87.021226 
1113.000000	86.915595 
1112.000000	86.810047 
1111.000000	86.709566 
1110.000000	86.614875 
1109.000000	86.518367 
1108.000000	86.416062 
1107.000000	86.311545 
1106.000000	86.205769 
1105.000000	86.094697 
1104.000000	85.979727 
1103.000000	85.868972 
1102.000000	85.764003 
1101.000000	85.658228 
1100.000000	85.550393 
1099.000000	85.446071 
1098.000000	85.347823 
1097.000000	85.251280 
1096.000000	85.155477 
1095.000000	85.063486 
1094.000000	84.972071 
1093.000000	84.873843 
1092.000000	84.771675 
1091.000000	84.677418 
1090.000000	84.594361 
1089.000000	84.514245 
1088.000000	84.432698 
1087.000000	84.353206 
1086.000000	84.274859 
1085.000000	84.191881 
1084.000000	84.107239 
1083.000000	84.030952 
1082.000000	83.962426 
1081.000000	83.890238 
1080.000000	83.811873 
1079.000000	83.737331 
1078.000000	83.670118 
1077.000000	83.600801 
1076.000000	83.522889 
1075.000000	83.438835 
1074.000000	83.347147 
1073.000000	83.239704 
1072.000000	83.114808 
1071.000000	82.976529 
1070.000000	82.818491 
1069.000000	82.626437 
1068.000000	82.401872 
1067.000000	82.166977 
1066.000000	81.940538 
1065.000000	81.723631 
1064.000000	81.513054 
1063.000000	81.310107 
1062.000000	81.109513 
1061.000000	80.897804 
1060.000000	80.671479 
1059.000000	80.442701 
1058.000000	80.221060 
1057.000000	80.003845 
1056.000000	79.788627 
1055.000000	79.578996 
1054.000000	79.372266 
1053.000000	79.157663 
1052.000000	78.933122 
1051.000000	78.708008 
1050.000000	78.483394 
1049.000000	78.247721 
1048.000000	77.997486 
1047.000000	77.742846 
1046.000000	77.488938 
1045.000000	77.231023 
1044.000000	76.970384 
1043.000000	76.715693 
1042.000000	76.466051 
1041.000000	76.211445 
1040.000000	75.953132 
1039.000000	75.705112 
1038.000000	75.472721 
1037.000000	75.248922 
1036.000000	75.033880 
1035.000000	74.837748 
1034.000000	74.661347 
1033.000000	74.494452 
1032.000000	74.335243 
1031.000000	74.190774 
1030.000000	74.057620 
1029.000000	73.925306 
1028.000000	73.800306 
1027.000000	73.701807 
1026.000000	73.630676 
1025.000000	73.566595 
1024.000000	73.498829 
1023.000000	73.435049 
1022.000000	73.376382 
1021.000000	73.310294 
1020.000000	73.233737 
1019.000000	73.158718 
1018.000000	73.089330 
1017.000000	73.016816 
1016.000000	72.941842 
1015.000000	72.877377 
1014.000000	72.824456 
1013.000000	72.768996 
1012.000000	72.707511 
1011.000000	72.652344 
1010.000000	72.607155 
1009.000000	72.561894 
1008.000000	72.516879 
1007.000000	72.487091 
1006.000000	72.477076 
1005.000000	72.475442 
1004.000000	72.478712 
1003.000000	72.495991 
1002.000000	72.525236 
1001.000000	72.550773 
1000.000000	72.570895 
999.000000	 72.603058 
998.000000	 72.654607 
997.000000	 72.712180 
996.000000	 72.766693 
995.000000	 72.825600 
994.000000	 72.893391 
993.000000	 72.962837 
992.000000	 73.032466 
991.000000	 73.110933 
990.000000	 73.198030 
989.000000	 73.282975 
988.000000	 73.366684 
987.000000	 73.463714 
986.000000	 73.577482 
985.000000	 73.696240 
984.000000	 73.818078 
983.000000	 73.956262 
982.000000	 74.114167 
981.000000	 74.278308 
980.000000	 74.442328 
979.000000	 74.615380 
978.000000	 74.800568 
977.000000	 74.988218 
976.000000	 75.177274 
975.000000	 75.380884 
974.000000	 75.602988 
973.000000	 75.830377 
972.000000	 76.055272 
971.000000	 76.285810 
970.000000	 76.526997 
969.000000	 76.770674 
968.000000	 77.011252 
967.000000	 77.253295 
966.000000	 77.497607 
965.000000	 77.737482 
964.000000	 77.973761 
963.000000	 78.215985 
962.000000	 78.464104 
961.000000	 78.706368 
960.000000	 78.938822 
959.000000	 79.168940 
958.000000	 79.396939 
957.000000	 79.612530 
956.000000	 79.814474 
955.000000	 80.014879 
954.000000	 80.219247 
953.000000	 80.419473 
952.000000	 80.610754 
951.000000	 80.797699 
950.000000	 80.979752 
949.000000	 81.148330 
948.000000	 81.302927 
947.000000	 81.453282 
946.000000	 81.601418 
945.000000	 81.737947 
944.000000	 81.859920 
943.000000	 81.976047 
942.000000	 82.090974 
941.000000	 82.200829 
940.000000	 82.307485 
939.000000	 82.419808 
938.000000	 82.537080 
937.000000	 82.648500 
936.000000	 82.753016 
935.000000	 82.862471 
934.000000	 82.981164 
933.000000	 83.099739 
932.000000	 83.213698 
931.000000	 83.330536 
930.000000	 83.453539 
929.000000	 83.575204 
928.000000	 83.692009 
927.000000	 83.809729 
926.000000	 83.928989 
925.000000	 84.040576 
924.000000	 84.139689 
923.000000	 84.230796 
922.000000	 84.315611 
921.000000	 84.391335 
920.000000	 84.463164 
919.000000	 84.542138 
918.000000	 84.627010 
917.000000	 84.704326 
916.000000	 84.770497 
915.000000	 84.838450 
914.000000	 84.918935 
913.000000	 85.011140 
912.000000	 85.115334 
911.000000	 85.238553 
910.000000	 85.383105 
909.000000	 85.544318 
908.000000	 85.722808 
907.000000	 85.924172 
906.000000	 86.144659 
905.000000	 86.372756 
904.000000	 86.606252 
903.000000	 86.851521 
902.000000	 87.105430 
901.000000	 87.355796 
900.000000	 87.601181 
899.000000	 87.852304 
898.000000	 88.111508 
897.000000	 88.366851 
896.000000	 88.609068 
895.000000	 88.838614 
894.000000	 89.055211 
893.000000	 89.256695 
892.000000	 89.449364 
891.000000	 89.643050 
890.000000	 89.833877 
889.000000	 90.007016 
888.000000	 90.157138 
887.000000	 90.290971 
886.000000	 90.410722 
885.000000	 90.512429 
884.000000	 90.600640 
883.000000	 90.685711 
882.000000	 90.765528 
881.000000	 90.830498 
880.000000	 90.889249 
879.000000	 90.967103 
878.000000	 91.073437 
877.000000	 91.192212 
876.000000	 91.311054 
875.000000	 91.437880 
874.000000	 91.581891 
873.000000	 91.740714 
872.000000	 91.914833 
871.000000	 92.112964 
870.000000	 92.332881 
869.000000	 92.555254 
868.000000	 92.765767 
867.000000	 92.967524 
866.000000	 93.165146 
865.000000	 93.353733 
864.000000	 93.531775 
863.000000	 93.709191 
862.000000	 93.892336 
861.000000	 94.072832 
860.000000	 94.239802 
859.000000	 94.392629 
858.000000	 94.535200 
857.000000	 94.668455 
856.000000	 94.795505 
855.000000	 94.924342 
854.000000	 95.058700 
853.000000	 95.193836 
852.000000	 95.325124 
851.000000	 95.452387 
850.000000	 95.573886 
849.000000	 95.685792 
848.000000	 95.788919 
847.000000	 95.885616 
846.000000	 95.969960 
845.000000	 96.033692 
844.000000	 96.082373 
843.000000	 96.131452 
842.000000	 96.183812 
841.000000	 96.225085 
840.000000	 96.243995 
839.000000	 96.243194 
838.000000	 96.227576 
837.000000	 96.197817 
836.000000	 96.161120 
835.000000	 96.133506 
834.000000	 96.122915 
833.000000	 96.121193 
832.000000	 96.119424 
831.000000	 96.120058 
830.000000	 96.128256 
829.000000	 96.143623 
828.000000	 96.168036 
827.000000	 96.210055 
826.000000	 96.273117 
825.000000	 96.349163 
824.000000	 96.429122 
823.000000	 96.507560 
822.000000	 96.574442 
821.000000	 96.618556 
820.000000	 96.642718 
819.000000	 96.660113 
818.000000	 96.671929 
817.000000	 96.661972 
816.000000	 96.616693 
815.000000	 96.537909 
814.000000	 96.431530 
813.000000	 96.295053 
812.000000	 96.120950 
811.000000	 95.901200 
810.000000	 95.623129 
809.000000	 95.271868 
808.000000	 94.844288 
807.000000	 94.353522 
806.000000	 93.816952 
805.000000	 93.249691 
804.000000	 92.673003 
803.000000	 92.115416 
802.000000	 91.598892 
801.000000	 91.136768 
800.000000	 90.749130 
799.000000	 90.462226 
798.000000	 90.284693 
797.000000	 90.199840 
796.000000	 90.186460 
795.000000	 90.230037 
794.000000	 90.310424 
793.000000	 90.400872 
792.000000	 90.487646 
791.000000	 90.572919 
790.000000	 90.652204 
789.000000	 90.706103 
788.000000	 90.719137 
787.000000	 90.688981 
786.000000	 90.612683 
785.000000	 90.482419 
784.000000	 90.301998 
783.000000	 90.091643 
782.000000	 89.871103 
781.000000	 89.654767 
780.000000	 89.466386 
779.000000	 89.336675 
778.000000	 89.278347 
777.000000	 89.282341 
776.000000	 89.343564 
775.000000	 89.467702 
774.000000	 89.645702 
773.000000	 89.845921 
772.000000	 90.042913 
771.000000	 90.234165 
770.000000	 90.419665 
769.000000	 90.586572 
768.000000	 90.725061 
767.000000	 90.840006 
766.000000	 90.936332 
765.000000	 91.011200 
764.000000	 91.071160 
763.000000	 91.137837 
762.000000	 91.223435 
761.000000	 91.316298 
760.000000	 91.402166 
759.000000	 91.484178 
758.000000	 91.571218 
757.000000	 91.663442 
756.000000	 91.761961 
755.000000	 91.876866 
754.000000	 92.010652 
753.000000	 92.145203 
752.000000	 92.258144 
751.000000	 92.343745 
750.000000	 92.411095 
749.000000	 92.473436 
748.000000	 92.545860 
747.000000	 92.639417 
746.000000	 92.748169 
745.000000	 92.853897 
744.000000	 92.951243 
743.000000	 93.055657 
742.000000	 93.179770 
741.000000	 93.316670 
740.000000	 93.454694 
739.000000	 93.593589 
738.000000	 93.735714 
737.000000	 93.874113 
736.000000	 94.000710 
735.000000	 94.116987 
734.000000	 94.227419 
733.000000	 94.330514 
732.000000	 94.422688 
731.000000	 94.502562 
730.000000	 94.567072 
729.000000	 94.613043 
728.000000	 94.647160 
727.000000	 94.683995 
726.000000	 94.731673 
725.000000	 94.790041 
724.000000	 94.861059 
723.000000	 94.946041 
722.000000	 95.033129 
721.000000	 95.105872 
720.000000	 95.167596 
719.000000	 95.238143 
718.000000	 95.322307 
717.000000	 95.403064 
716.000000	 95.469169 
715.000000	 95.528006 
714.000000	 95.586241 
713.000000	 95.638769 
712.000000	 95.686287 
711.000000	 95.743197 
710.000000	 95.815735 
709.000000	 95.889480 
708.000000	 95.949733 
707.000000	 95.995871 
706.000000	 96.024405 
705.000000	 96.019095 
704.000000	 95.971401 
703.000000	 95.892887 
702.000000	 95.791952 
701.000000	 95.652082 
700.000000	 95.449144 
699.000000	 95.181138 
698.000000	 94.870485 
697.000000	 94.553048 
696.000000	 94.277205 
695.000000	 94.096278 
694.000000	 94.041717 
693.000000	 94.103967 
692.000000	 94.245879 
691.000000	 94.428095 
690.000000	 94.618337 
689.000000	 94.793369 
688.000000	 94.945214 
687.000000	 95.078530 
686.000000	 95.195804 
685.000000	 95.294024 
684.000000	 95.378136 
683.000000	 95.461950 
682.000000	 95.549940 
681.000000	 95.633790 
680.000000	 95.711284 
679.000000	 95.792967 
678.000000	 95.882411 
677.000000	 95.970442 
676.000000	 96.057060 
675.000000	 96.152136 
674.000000	 96.245879 
673.000000	 96.306518 
672.000000	 96.325134 
671.000000	 96.339762 
670.000000	 96.409186 
669.000000	 96.547577 
668.000000	 96.700225 
667.000000	 96.792836 
666.000000	 96.810399 
665.000000	 96.786719 
664.000000	 96.761407 
663.000000	 96.762345 
662.000000	 96.798328 
661.000000	 96.845460 
660.000000	 96.885275 
659.000000	 96.924818 
658.000000	 96.968388 
657.000000	 96.997011 
656.000000	 96.996932 
655.000000	 96.976584 
654.000000	 96.943057 
653.000000	 96.892152 
652.000000	 96.837095 
651.000000	 96.815018 
650.000000	 96.839136 

