4000.000000	97.683238 
3999.000000	97.682583 
3998.000000	97.680402 
3997.000000	97.677296 
3996.000000	97.674273 
3995.000000	97.672101 
3994.000000	97.671209 
3993.000000	97.671498 
3992.000000	97.672170 
3991.000000	97.672447 
3990.000000	97.672361 
3989.000000	97.672442 
3988.000000	97.672798 
3987.000000	97.672972 
3986.000000	97.672724 
3985.000000	97.672381 
3984.000000	97.672190 
3983.000000	97.671946 
3982.000000	97.671637 
3981.000000	97.671859 
3980.000000	97.672935 
3979.000000	97.674136 
3978.000000	97.674422 
3977.000000	97.673773 
3976.000000	97.673088 
3975.000000	97.672805 
3974.000000	97.672298 
3973.000000	97.670875 
3972.000000	97.668694 
3971.000000	97.666467 
3970.000000	97.664917 
3969.000000	97.664510 
3968.000000	97.665276 
3967.000000	97.666582 
3966.000000	97.667445 
3965.000000	97.667252 
3964.000000	97.666058 
3963.000000	97.664397 
3962.000000	97.662941 
3961.000000	97.662250 
3960.000000	97.662365 
3959.000000	97.662615 
3958.000000	97.662461 
3957.000000	97.662075 
3956.000000	97.661798 
3955.000000	97.661273 
3954.000000	97.659767 
3953.000000	97.657185 
3952.000000	97.654250 
3951.000000	97.651950 
3950.000000	97.650761 
3949.000000	97.650385 
3948.000000	97.650125 
3947.000000	97.649682 
3946.000000	97.649296 
3945.000000	97.649077 
3944.000000	97.648712 
3943.000000	97.648117 
3942.000000	97.647985 
3941.000000	97.649257 
3940.000000	97.651709 
3939.000000	97.653414 
3938.000000	97.652899 
3937.000000	97.650594 
3936.000000	97.647905 
3935.000000	97.645385 
3934.000000	97.642835 
3933.000000	97.640961 
3932.000000	97.640798 
3931.000000	97.641899 
3930.000000	97.642558 
3929.000000	97.642048 
3928.000000	97.641642 
3927.000000	97.642266 
3926.000000	97.642718 
3925.000000	97.641616 
3924.000000	97.639800 
3923.000000	97.638892 
3922.000000	97.638444 
3921.000000	97.637189 
3920.000000	97.635770 
3919.000000	97.635721 
3918.000000	97.636898 
3917.000000	97.637845 
3916.000000	97.638087 
3915.000000	97.638250 
3914.000000	97.638472 
3913.000000	97.638189 
3912.000000	97.637420 
3911.000000	97.636484 
3910.000000	97.635615 
3909.000000	97.634830 
3908.000000	97.634189 
3907.000000	97.633755 
3906.000000	97.633464 
3905.000000	97.633225 
3904.000000	97.633008 
3903.000000	97.632866 
3902.000000	97.632805 
3901.000000	97.632807 
3900.000000	97.632843 
3899.000000	97.632884 
3898.000000	97.632916 
3897.000000	97.632942 
3896.000000	97.632972 
3895.000000	97.632994 
3894.000000	97.632988 
3893.000000	97.632947 
3892.000000	97.632880 
3891.000000	97.632791 
3890.000000	97.632702 
3889.000000	97.632635 
3888.000000	97.632596 
3887.000000	97.632569 
3886.000000	97.632548 
3885.000000	97.632543 
3884.000000	97.632574 
3883.000000	97.632639 
3882.000000	97.632719 
3881.000000	97.632809 
3880.000000	97.632925 
3879.000000	97.633088 
3878.000000	97.633298 
3877.000000	97.633529 
3876.000000	97.633752 
3875.000000	97.633965 
3874.000000	97.634189 
3873.000000	97.634450 
3872.000000	97.634752 
3871.000000	97.635080 
3870.000000	97.635426 
3869.000000	97.635818 
3868.000000	97.636280 
3867.000000	97.636794 
3866.000000	97.637312 
3865.000000	97.637821 
3864.000000	97.638337 
3863.000000	97.638854 
3862.000000	97.639337 
3861.000000	97.639768 
3860.000000	97.640163 
3859.000000	97.640548 
3858.000000	97.640935 
3857.000000	97.641338 
3856.000000	97.641794 
3855.000000	97.642338 
3854.000000	97.642960 
3853.000000	97.643622 
3852.000000	97.644347 
3851.000000	97.645193 
3850.000000	97.646153 
3849.000000	97.647171 
3848.000000	97.648204 
3847.000000	97.649232 
3846.000000	97.650252 
3845.000000	97.651275 
3844.000000	97.652306 
3843.000000	97.653337 
3842.000000	97.654362 
3841.000000	97.655384 
3840.000000	97.656415 
3839.000000	97.657451 
3838.000000	97.658473 
3837.000000	97.659463 
3836.000000	97.660424 
3835.000000	97.661369 
3834.000000	97.662306 
3833.000000	97.663229 
3832.000000	97.664135 
3831.000000	97.665020 
3830.000000	97.665886 
3829.000000	97.666736 
3828.000000	97.667568 
3827.000000	97.668371 
3826.000000	97.669136 
3825.000000	97.669871 
3824.000000	97.670596 
3823.000000	97.671316 
3822.000000	97.672010 
3821.000000	97.672661 
3820.000000	97.673303 
3819.000000	97.673983 
3818.000000	97.674690 
3817.000000	97.675372 
3816.000000	97.676003 
3815.000000	97.676604 
3814.000000	97.677199 
3813.000000	97.677767 
3812.000000	97.678271 
3811.000000	97.678714 
3810.000000	97.679124 
3809.000000	97.679494 
3808.000000	97.679783 
3807.000000	97.679983 
3806.000000	97.680133 
3805.000000	97.680288 
3804.000000	97.680464 
3803.000000	97.680632 
3802.000000	97.680768 
3801.000000	97.680881 
3800.000000	97.681004 
3799.000000	97.681146 
3798.000000	97.681270 
3797.000000	97.681347 
3796.000000	97.681387 
3795.000000	97.681410 
3794.000000	97.681425 
3793.000000	97.681423 
3792.000000	97.681392 
3791.000000	97.681323 
3790.000000	97.681214 
3789.000000	97.681068 
3788.000000	97.680891 
3787.000000	97.680691 
3786.000000	97.680458 
3785.000000	97.680189 
3784.000000	97.679904 
3783.000000	97.679626 
3782.000000	97.679345 
3781.000000	97.679036 
3780.000000	97.678690 
3779.000000	97.678320 
3778.000000	97.677935 
3777.000000	97.677522 
3776.000000	97.677070 
3775.000000	97.676596 
3774.000000	97.676125 
3773.000000	97.675660 
3772.000000	97.675178 
3771.000000	97.674662 
3770.000000	97.674120 
3769.000000	97.673573 
3768.000000	97.673030 
3767.000000	97.672478 
3766.000000	97.671912 
3765.000000	97.671348 
3764.000000	97.670804 
3763.000000	97.670270 
3762.000000	97.669713 
3761.000000	97.669112 
3760.000000	97.668479 
3759.000000	97.667824 
3758.000000	97.667139 
3757.000000	97.666417 
3756.000000	97.665674 
3755.000000	97.664952 
3754.000000	97.664283 
3753.000000	97.663679 
3752.000000	97.663136 
3751.000000	97.662630 
3750.000000	97.662133 
3749.000000	97.661649 
3748.000000	97.661212 
3747.000000	97.660836 
3746.000000	97.660497 
3745.000000	97.660159 
3744.000000	97.659808 
3743.000000	97.659464 
3742.000000	97.659130 
3741.000000	97.658748 
3740.000000	97.658273 
3739.000000	97.657730 
3738.000000	97.657161 
3737.000000	97.656582 
3736.000000	97.655984 
3735.000000	97.655361 
3734.000000	97.654701 
3733.000000	97.653981 
3732.000000	97.653181 
3731.000000	97.652306 
3730.000000	97.651364 
3729.000000	97.650353 
3728.000000	97.649264 
3727.000000	97.648103 
3726.000000	97.646878 
3725.000000	97.645591 
3724.000000	97.644234 
3723.000000	97.642798 
3722.000000	97.641286 
3721.000000	97.639705 
3720.000000	97.638051 
3719.000000	97.636312 
3718.000000	97.634390 
3717.000000	97.632279 
3716.000000	97.630191 
3715.000000	97.628302 
3714.000000	97.626556 
3713.000000	97.625052 
3712.000000	97.623851 
3711.000000	97.622209 
3710.000000	97.619410 
3709.000000	97.615585 
3708.000000	97.611188 
3707.000000	97.606612 
3706.000000	97.602211 
3705.000000	97.598066 
3704.000000	97.593959 
3703.000000	97.589642 
3702.000000	97.584943 
3701.000000	97.579963 
3700.000000	97.575206 
3699.000000	97.570909 
3698.000000	97.566654 
3697.000000	97.562180 
3696.000000	97.557619 
3695.000000	97.553035 
3694.000000	97.548293 
3693.000000	97.543366 
3692.000000	97.538313 
3691.000000	97.533166 
3690.000000	97.527938 
3689.000000	97.522624 
3688.000000	97.517227 
3687.000000	97.511779 
3686.000000	97.506307 
3685.000000	97.500807 
3684.000000	97.495257 
3683.000000	97.489652 
3682.000000	97.484002 
3681.000000	97.478314 
3680.000000	97.472593 
3679.000000	97.466859 
3678.000000	97.461136 
3677.000000	97.455422 
3676.000000	97.449688 
3675.000000	97.443913 
3674.000000	97.438127 
3673.000000	97.432353 
3672.000000	97.426568 
3671.000000	97.420743 
3670.000000	97.414886 
3669.000000	97.409033 
3668.000000	97.403227 
3667.000000	97.397481 
3666.000000	97.391776 
3665.000000	97.386089 
3664.000000	97.380403 
3663.000000	97.374703 
3662.000000	97.368973 
3661.000000	97.363210 
3660.000000	97.357416 
3659.000000	97.351537 
3658.000000	97.345681 
3657.000000	97.339881 
3656.000000	97.333590 
3655.000000	97.326839 
3654.000000	97.320726 
3653.000000	97.314621 
3652.000000	97.306739 
3651.000000	97.298760 
3650.000000	97.293990 
3649.000000	97.290909 
3648.000000	97.285431 
3647.000000	97.278451 
3646.000000	97.274558 
3645.000000	97.275180 
3644.000000	97.277340 
3643.000000	97.277726 
3642.000000	97.276420 
3641.000000	97.275512 
3640.000000	97.275301 
3639.000000	97.273407 
3638.000000	97.268508 
3637.000000	97.263156 
3636.000000	97.258581 
3635.000000	97.250728 
3634.000000	97.236028 
3633.000000	97.218848 
3632.000000	97.206909 
3631.000000	97.202244 
3630.000000	97.202856 
3629.000000	97.200171 
3628.000000	97.190235 
3627.000000	97.188378 
3626.000000	97.197578 
3625.000000	97.200869 
3624.000000	97.193578 
3623.000000	97.184213 
3622.000000	97.177338 
3621.000000	97.170299 
3620.000000	97.161369 
3619.000000	97.152771 
3618.000000	97.149122 
3617.000000	97.155030 
3616.000000	97.168373 
3615.000000	97.181693 
3614.000000	97.190766 
3613.000000	97.196978 
3612.000000	97.203913 
3611.000000	97.212521 
3610.000000	97.219818 
3609.000000	97.223405 
3608.000000	97.224561 
3607.000000	97.226161 
3606.000000	97.229299 
3605.000000	97.232532 
3604.000000	97.235530 
3603.000000	97.240275 
3602.000000	97.246249 
3601.000000	97.249093 
3600.000000	97.246487 
3599.000000	97.241060 
3598.000000	97.236374 
3597.000000	97.235456 
3596.000000	97.239504 
3595.000000	97.245892 
3594.000000	97.249377 
3593.000000	97.247062 
3592.000000	97.239649 
3591.000000	97.228918 
3590.000000	97.217573 
3589.000000	97.210153 
3588.000000	97.209850 
3587.000000	97.215268 
3586.000000	97.224228 
3585.000000	97.234834 
3584.000000	97.243565 
3583.000000	97.248509 
3582.000000	97.251044 
3581.000000	97.252977 
3580.000000	97.254495 
3579.000000	97.255136 
3578.000000	97.254661 
3577.000000	97.253397 
3576.000000	97.251802 
3575.000000	97.249406 
3574.000000	97.245143 
3573.000000	97.238323 
3572.000000	97.229354 
3571.000000	97.219417 
3570.000000	97.210122 
3569.000000	97.203679 
3568.000000	97.202613 
3567.000000	97.207420 
3566.000000	97.215877 
3565.000000	97.224857 
3564.000000	97.230744 
3563.000000	97.231700 
3562.000000	97.229686 
3561.000000	97.228129 
3560.000000	97.228430 
3559.000000	97.229471 
3558.000000	97.229528 
3557.000000	97.227907 
3556.000000	97.225545 
3555.000000	97.223935 
3554.000000	97.223513 
3553.000000	97.223179 
3552.000000	97.221558 
3551.000000	97.218384 
3550.000000	97.214137 
3549.000000	97.209356 
3548.000000	97.205451 
3547.000000	97.204441 
3546.000000	97.206572 
3545.000000	97.209867 
3544.000000	97.212572 
3543.000000	97.214557 
3542.000000	97.216239 
3541.000000	97.217464 
3540.000000	97.217977 
3539.000000	97.217919 
3538.000000	97.217590 
3537.000000	97.217156 
3536.000000	97.216611 
3535.000000	97.215911 
3534.000000	97.214887 
3533.000000	97.213580 
3532.000000	97.212544 
3531.000000	97.212463 
3530.000000	97.213055 
3529.000000	97.212974 
3528.000000	97.211248 
3527.000000	97.208439 
3526.000000	97.206092 
3525.000000	97.205323 
3524.000000	97.206332 
3523.000000	97.208630 
3522.000000	97.211306 
3521.000000	97.213350 
3520.000000	97.214224 
3519.000000	97.214132 
3518.000000	97.213612 
3517.000000	97.212952 
3516.000000	97.211992 
3515.000000	97.210592 
3514.000000	97.209149 
3513.000000	97.208367 
3512.000000	97.208476 
3511.000000	97.209015 
3510.000000	97.209375 
3509.000000	97.209388 
3508.000000	97.209321 
3507.000000	97.209328 
3506.000000	97.209128 
3505.000000	97.208406 
3504.000000	97.207302 
3503.000000	97.206319 
3502.000000	97.205886 
3501.000000	97.206072 
3500.000000	97.206597 
3499.000000	97.207056 
3498.000000	97.207193 
3497.000000	97.206988 
3496.000000	97.206549 
3495.000000	97.205932 
3494.000000	97.205128 
3493.000000	97.204193 
3492.000000	97.203223 
3491.000000	97.202263 
3490.000000	97.201349 
3489.000000	97.200582 
3488.000000	97.200026 
3487.000000	97.199533 
3486.000000	97.198830 
3485.000000	97.197849 
3484.000000	97.196841 
3483.000000	97.196101 
3482.000000	97.195691 
3481.000000	97.195483 
3480.000000	97.195333 
3479.000000	97.195085 
3478.000000	97.194522 
3477.000000	97.193496 
3476.000000	97.192122 
3475.000000	97.190699 
3474.000000	97.189481 
3473.000000	97.188544 
3472.000000	97.187789 
3471.000000	97.186987 
3470.000000	97.185922 
3469.000000	97.184564 
3468.000000	97.183128 
3467.000000	97.181941 
3466.000000	97.181204 
3465.000000	97.180844 
3464.000000	97.180489 
3463.000000	97.179725 
3462.000000	97.178418 
3461.000000	97.176788 
3460.000000	97.175197 
3459.000000	97.173784 
3458.000000	97.172436 
3457.000000	97.171043 
3456.000000	97.169681 
3455.000000	97.168550 
3454.000000	97.167728 
3453.000000	97.167071 
3452.000000	97.166363 
3451.000000	97.165527 
3450.000000	97.164617 
3449.000000	97.163638 
3448.000000	97.162506 
3447.000000	97.161170 
3446.000000	97.159690 
3445.000000	97.158173 
3444.000000	97.156706 
3443.000000	97.155397 
3442.000000	97.154361 
3441.000000	97.153562 
3440.000000	97.152782 
3439.000000	97.151800 
3438.000000	97.150591 
3437.000000	97.149308 
3436.000000	97.148148 
3435.000000	97.147278 
3434.000000	97.146740 
3433.000000	97.146386 
3432.000000	97.145942 
3431.000000	97.145242 
3430.000000	97.144338 
3429.000000	97.143400 
3428.000000	97.142533 
3427.000000	97.141716 
3426.000000	97.140919 
3425.000000	97.140220 
3424.000000	97.139701 
3423.000000	97.139282 
3422.000000	97.138757 
3421.000000	97.138041 
3420.000000	97.137247 
3419.000000	97.136542 
3418.000000	97.135953 
3417.000000	97.135403 
3416.000000	97.134859 
3415.000000	97.134354 
3414.000000	97.133881 
3413.000000	97.133372 
3412.000000	97.132791 
3411.000000	97.132191 
3410.000000	97.131659 
3409.000000	97.131242 
3408.000000	97.130919 
3407.000000	97.130630 
3406.000000	97.130313 
3405.000000	97.129945 
3404.000000	97.129535 
3403.000000	97.129122 
3402.000000	97.128751 
3401.000000	97.128454 
3400.000000	97.128254 
3399.000000	97.128151 
3398.000000	97.128110 
3397.000000	97.128058 
3396.000000	97.127938 
3395.000000	97.127740 
3394.000000	97.127500 
3393.000000	97.127279 
3392.000000	97.127122 
3391.000000	97.127043 
3390.000000	97.127037 
3389.000000	97.127119 
3388.000000	97.127329 
3387.000000	97.127674 
3386.000000	97.128094 
3385.000000	97.128483 
3384.000000	97.128739 
3383.000000	97.128836 
3382.000000	97.128895 
3381.000000	97.129145 
3380.000000	97.129703 
3379.000000	97.130394 
3378.000000	97.130921 
3377.000000	97.131299 
3376.000000	97.131873 
3375.000000	97.132790 
3374.000000	97.133647 
3373.000000	97.133916 
3372.000000	97.133601 
3371.000000	97.133322 
3370.000000	97.133693 
3369.000000	97.134820 
3368.000000	97.136360 
3367.000000	97.137810 
3366.000000	97.138748 
3365.000000	97.139008 
3364.000000	97.138809 
3363.000000	97.138611 
3362.000000	97.138741 
3361.000000	97.139268 
3360.000000	97.140224 
3359.000000	97.141684 
3358.000000	97.143523 
3357.000000	97.145325 
3356.000000	97.146692 
3355.000000	97.147556 
3354.000000	97.148171 
3353.000000	97.148941 
3352.000000	97.150269 
3351.000000	97.152337 
3350.000000	97.154907 
3349.000000	97.157367 
3348.000000	97.159162 
3347.000000	97.160260 
3346.000000	97.161107 
3345.000000	97.162155 
3344.000000	97.163380 
3343.000000	97.164279 
3342.000000	97.164437 
3341.000000	97.164082 
3340.000000	97.163850 
3339.000000	97.164020 
3338.000000	97.164338 
3337.000000	97.164572 
3336.000000	97.164898 
3335.000000	97.165605 
3334.000000	97.166641 
3333.000000	97.167676 
3332.000000	97.168489 
3331.000000	97.169125 
3330.000000	97.169697 
3329.000000	97.170235 
3328.000000	97.170755 
3327.000000	97.171366 
3326.000000	97.172192 
3325.000000	97.173226 
3324.000000	97.174275 
3323.000000	97.175095 
3322.000000	97.175611 
3321.000000	97.175980 
3320.000000	97.176438 
3319.000000	97.177096 
3318.000000	97.177916 
3317.000000	97.178816 
3316.000000	97.179723 
3315.000000	97.180562 
3314.000000	97.181255 
3313.000000	97.181779 
3312.000000	97.182209 
3311.000000	97.182663 
3310.000000	97.183221 
3309.000000	97.183890 
3308.000000	97.184607 
3307.000000	97.185255 
3306.000000	97.185742 
3305.000000	97.186084 
3304.000000	97.186420 
3303.000000	97.186915 
3302.000000	97.187640 
3301.000000	97.188531 
3300.000000	97.189415 
3299.000000	97.190109 
3298.000000	97.190532 
3297.000000	97.190777 
3296.000000	97.191096 
3295.000000	97.191715 
3294.000000	97.192700 
3293.000000	97.193968 
3292.000000	97.195378 
3291.000000	97.196776 
3290.000000	97.198007 
3289.000000	97.198964 
3288.000000	97.199669 
3287.000000	97.200242 
3286.000000	97.200756 
3285.000000	97.201171 
3284.000000	97.201445 
3283.000000	97.201687 
3282.000000	97.202161 
3281.000000	97.203068 
3280.000000	97.204302 
3279.000000	97.205462 
3278.000000	97.206240 
3277.000000	97.206723 
3276.000000	97.207247 
3275.000000	97.207977 
3274.000000	97.208814 
3273.000000	97.209720 
3272.000000	97.210892 
3271.000000	97.212492 
3270.000000	97.214362 
3269.000000	97.216084 
3268.000000	97.217325 
3267.000000	97.218037 
3266.000000	97.218453 
3265.000000	97.218966 
3264.000000	97.219866 
3263.000000	97.221158 
3262.000000	97.222620 
3261.000000	97.224030 
3260.000000	97.225283 
3259.000000	97.226300 
3258.000000	97.227032 
3257.000000	97.227606 
3256.000000	97.228354 
3255.000000	97.229486 
3254.000000	97.230836 
3253.000000	97.232079 
3252.000000	97.233110 
3251.000000	97.234083 
3250.000000	97.235111 
3249.000000	97.236105 
3248.000000	97.236945 
3247.000000	97.237659 
3246.000000	97.238393 
3245.000000	97.239251 
3244.000000	97.240236 
3243.000000	97.241265 
3242.000000	97.242253 
3241.000000	97.243222 
3240.000000	97.244304 
3239.000000	97.245607 
3238.000000	97.247078 
3237.000000	97.248556 
3236.000000	97.249931 
3235.000000	97.251188 
3234.000000	97.252291 
3233.000000	97.253156 
3232.000000	97.253805 
3231.000000	97.254471 
3230.000000	97.255402 
3229.000000	97.256579 
3228.000000	97.257704 
3227.000000	97.258600 
3226.000000	97.259561 
3225.000000	97.261070 
3224.000000	97.263188 
3223.000000	97.265400 
3222.000000	97.267123 
3221.000000	97.268234 
3220.000000	97.269026 
3219.000000	97.269779 
3218.000000	97.270599 
3217.000000	97.271525 
3216.000000	97.272551 
3215.000000	97.273642 
3214.000000	97.274863 
3213.000000	97.276361 
3212.000000	97.278067 
3211.000000	97.279601 
3210.000000	97.280646 
3209.000000	97.281330 
3208.000000	97.282029 
3207.000000	97.282871 
3206.000000	97.283692 
3205.000000	97.284464 
3204.000000	97.285462 
3203.000000	97.286912 
3202.000000	97.288695 
3201.000000	97.290485 
3200.000000	97.292076 
3199.000000	97.293491 
3198.000000	97.294860 
3197.000000	97.296270 
3196.000000	97.297691 
3195.000000	97.299056 
3194.000000	97.300414 
3193.000000	97.301945 
3192.000000	97.303723 
3191.000000	97.305507 
3190.000000	97.306905 
3189.000000	97.307758 
3188.000000	97.308259 
3187.000000	97.308834 
3186.000000	97.309821 
3185.000000	97.311312 
3184.000000	97.313160 
3183.000000	97.315117 
3182.000000	97.317039 
3181.000000	97.318878 
3180.000000	97.320552 
3179.000000	97.321922 
3178.000000	97.322974 
3177.000000	97.323931 
3176.000000	97.325083 
3175.000000	97.326540 
3174.000000	97.328225 
3173.000000	97.329995 
3172.000000	97.331689 
3171.000000	97.333132 
3170.000000	97.334255 
3169.000000	97.335196 
3168.000000	97.336204 
3167.000000	97.337381 
3166.000000	97.338645 
3165.000000	97.339884 
3164.000000	97.341067 
3163.000000	97.342228 
3162.000000	97.343405 
3161.000000	97.344620 
3160.000000	97.345867 
3159.000000	97.347122 
3158.000000	97.348364 
3157.000000	97.349600 
3156.000000	97.350835 
3155.000000	97.352046 
3154.000000	97.353214 
3153.000000	97.354356 
3152.000000	97.355512 
3151.000000	97.356696 
3150.000000	97.357883 
3149.000000	97.359046 
3148.000000	97.360183 
3147.000000	97.361320 
3146.000000	97.362499 
3145.000000	97.363737 
3144.000000	97.365020 
3143.000000	97.366294 
3142.000000	97.367503 
3141.000000	97.368626 
3140.000000	97.369705 
3139.000000	97.370827 
3138.000000	97.372036 
3137.000000	97.373283 
3136.000000	97.374456 
3135.000000	97.375457 
3134.000000	97.376252 
3133.000000	97.376953 
3132.000000	97.377794 
3131.000000	97.378923 
3130.000000	97.380273 
3129.000000	97.381679 
3128.000000	97.383072 
3127.000000	97.384488 
3126.000000	97.385951 
3125.000000	97.387403 
3124.000000	97.388712 
3123.000000	97.389697 
3122.000000	97.390215 
3121.000000	97.390394 
3120.000000	97.390662 
3119.000000	97.391375 
3118.000000	97.392516 
3117.000000	97.393872 
3116.000000	97.395339 
3115.000000	97.396920 
3114.000000	97.398572 
3113.000000	97.400252 
3112.000000	97.401996 
3111.000000	97.403793 
3110.000000	97.405468 
3109.000000	97.406842 
3108.000000	97.407930 
3107.000000	97.408887 
3106.000000	97.409789 
3105.000000	97.410524 
3104.000000	97.410886 
3103.000000	97.410710 
3102.000000	97.410075 
3101.000000	97.409407 
3100.000000	97.409217 
3099.000000	97.409680 
3098.000000	97.410720 
3097.000000	97.412442 
3096.000000	97.414969 
3095.000000	97.417819 
3094.000000	97.420035 
3093.000000	97.421110 
3092.000000	97.421393 
3091.000000	97.421400 
3090.000000	97.421155 
3089.000000	97.420585 
3088.000000	97.420035 
3087.000000	97.420056 
3086.000000	97.420927 
3085.000000	97.422577 
3084.000000	97.424650 
3083.000000	97.426493 
3082.000000	97.427455 
3081.000000	97.427522 
3080.000000	97.427470 
3079.000000	97.427968 
3078.000000	97.428781 
3077.000000	97.429415 
3076.000000	97.430158 
3075.000000	97.431602 
3074.000000	97.433320 
3073.000000	97.434162 
3072.000000	97.433936 
3071.000000	97.433641 
3070.000000	97.433887 
3069.000000	97.434333 
3068.000000	97.434937 
3067.000000	97.436361 
3066.000000	97.438550 
3065.000000	97.440198 
3064.000000	97.440399 
3063.000000	97.439671 
3062.000000	97.438693 
3061.000000	97.437184 
3060.000000	97.434867 
3059.000000	97.432726 
3058.000000	97.432374 
3057.000000	97.434487 
3056.000000	97.438107 
3055.000000	97.441024 
3054.000000	97.440882 
3053.000000	97.436934 
3052.000000	97.431411 
3051.000000	97.428274 
3050.000000	97.429601 
3049.000000	97.433658 
3048.000000	97.436793 
3047.000000	97.436703 
3046.000000	97.433380 
3045.000000	97.428036 
3044.000000	97.422450 
3043.000000	97.418970 
3042.000000	97.419557 
3041.000000	97.423714 
3040.000000	97.427809 
3039.000000	97.427856 
3038.000000	97.423298 
3037.000000	97.417416 
3036.000000	97.413494 
3035.000000	97.411093 
3034.000000	97.407319 
3033.000000	97.401086 
3032.000000	97.394352 
3031.000000	97.389205 
3030.000000	97.385528 
3029.000000	97.382073 
3028.000000	97.377940 
3027.000000	97.372112 
3026.000000	97.363431 
3025.000000	97.352593 
3024.000000	97.342784 
3023.000000	97.336415 
3022.000000	97.332198 
3021.000000	97.327389 
3020.000000	97.321773 
3019.000000	97.316987 
3018.000000	97.312545 
3017.000000	97.305595 
3016.000000	97.295017 
3015.000000	97.283307 
3014.000000	97.273747 
3013.000000	97.267498 
3012.000000	97.263786 
3011.000000	97.260836 
3010.000000	97.255964 
3009.000000	97.246738 
3008.000000	97.233207 
3007.000000	97.218074 
3006.000000	97.204039 
3005.000000	97.191901 
3004.000000	97.181427 
3003.000000	97.172562 
3002.000000	97.165203 
3001.000000	97.159027 
3000.000000	97.154000 
2999.000000	97.149780 
2998.000000	97.144504 
2997.000000	97.135806 
2996.000000	97.123614 
2995.000000	97.110513 
2994.000000	97.098491 
2993.000000	97.086615 
2992.000000	97.072839 
2991.000000	97.057124 
2990.000000	97.041863 
2989.000000	97.029952 
2988.000000	97.023143 
2987.000000	97.021545 
2986.000000	97.023911 
2985.000000	97.028629 
2984.000000	97.034629 
2983.000000	97.041169 
2982.000000	97.047131 
2981.000000	97.051390 
2980.000000	97.053695 
2979.000000	97.054138 
2978.000000	97.052072 
2977.000000	97.047084 
2976.000000	97.041141 
2975.000000	97.037984 
2974.000000	97.039551 
2973.000000	97.044258 
2972.000000	97.049333 
2971.000000	97.053686 
2970.000000	97.057864 
2969.000000	97.062612 
2968.000000	97.068605 
2967.000000	97.076426 
2966.000000	97.085582 
2965.000000	97.094211 
2964.000000	97.100832 
2963.000000	97.105897 
2962.000000	97.110817 
2961.000000	97.116140 
2960.000000	97.121693 
2959.000000	97.127937 
2958.000000	97.135874 
2957.000000	97.145434 
2956.000000	97.154669 
2955.000000	97.160937 
2954.000000	97.163085 
2953.000000	97.162851 
2952.000000	97.163952 
2951.000000	97.168894 
2950.000000	97.176320 
2949.000000	97.182346 
2948.000000	97.184716 
2947.000000	97.184623 
2946.000000	97.184265 
2945.000000	97.184153 
2944.000000	97.183860 
2943.000000	97.183908 
2942.000000	97.184969 
2941.000000	97.185976 
2940.000000	97.185168 
2939.000000	97.183013 
2938.000000	97.182185 
2937.000000	97.184162 
2936.000000	97.187328 
2935.000000	97.188969 
2934.000000	97.187742 
2933.000000	97.183611 
2932.000000	97.177032 
2931.000000	97.169555 
2930.000000	97.164052 
2929.000000	97.162616 
2928.000000	97.164393 
2927.000000	97.166593 
2926.000000	97.167577 
2925.000000	97.168076 
2924.000000	97.169499 
2923.000000	97.172201 
2922.000000	97.175503 
2921.000000	97.178369 
2920.000000	97.179927 
2919.000000	97.180262 
2918.000000	97.180756 
2917.000000	97.182457 
2916.000000	97.183910 
2915.000000	97.182158 
2914.000000	97.176689 
2913.000000	97.171007 
2912.000000	97.168954 
2911.000000	97.170378 
2910.000000	97.171945 
2909.000000	97.171668 
2908.000000	97.170820 
2907.000000	97.171167 
2906.000000	97.172117 
2905.000000	97.171317 
2904.000000	97.167174 
2903.000000	97.160515 
2902.000000	97.154521 
2901.000000	97.153123 
2900.000000	97.158255 
2899.000000	97.168225 
2898.000000	97.179035 
2897.000000	97.187876 
2896.000000	97.194567 
2895.000000	97.199538 
2894.000000	97.202571 
2893.000000	97.204322 
2892.000000	97.207098 
2891.000000	97.212268 
2890.000000	97.218060 
2889.000000	97.221855 
2888.000000	97.223845 
2887.000000	97.226284 
2886.000000	97.229634 
2885.000000	97.232011 
2884.000000	97.232865 
2883.000000	97.234654 
2882.000000	97.239559 
2881.000000	97.246436 
2880.000000	97.252692 
2879.000000	97.258120 
2878.000000	97.264821 
2877.000000	97.273682 
2876.000000	97.282769 
2875.000000	97.289607 
2874.000000	97.293805 
2873.000000	97.296824 
2872.000000	97.300063 
2871.000000	97.303805 
2870.000000	97.307577 
2869.000000	97.310850 
2868.000000	97.313493 
2867.000000	97.315990 
2866.000000	97.319156 
2865.000000	97.323373 
2864.000000	97.328311 
2863.000000	97.333726 
2862.000000	97.340224 
2861.000000	97.348475 
2860.000000	97.357703 
2859.000000	97.365928 
2858.000000	97.372219 
2857.000000	97.378070 
2856.000000	97.385732 
2855.000000	97.395367 
2854.000000	97.404604 
2853.000000	97.411002 
2852.000000	97.414184 
2851.000000	97.415613 
2850.000000	97.417209 
2849.000000	97.420373 
2848.000000	97.425568 
2847.000000	97.432045 
2846.000000	97.438205 
2845.000000	97.442865 
2844.000000	97.446237 
2843.000000	97.449504 
2842.000000	97.453654 
2841.000000	97.458859 
2840.000000	97.464544 
2839.000000	97.469719 
2838.000000	97.473536 
2837.000000	97.475926 
2836.000000	97.477689 
2835.000000	97.479809 
2834.000000	97.482803 
2833.000000	97.486734 
2832.000000	97.491374 
2831.000000	97.496025 
2830.000000	97.499550 
2829.000000	97.501143 
2828.000000	97.501129 
2827.000000	97.500850 
2826.000000	97.501777 
2825.000000	97.504580 
2824.000000	97.508683 
2823.000000	97.512515 
2822.000000	97.514668 
2821.000000	97.515103 
2820.000000	97.515044 
2819.000000	97.515554 
2818.000000	97.516550 
2817.000000	97.517462 
2816.000000	97.518331 
2815.000000	97.519735 
2814.000000	97.521771 
2813.000000	97.523624 
2812.000000	97.524236 
2811.000000	97.523274 
2810.000000	97.521565 
2809.000000	97.520688 
2808.000000	97.521892 
2807.000000	97.525249 
2806.000000	97.529755 
2805.000000	97.534104 
2804.000000	97.537378 
2803.000000	97.539144 
2802.000000	97.539482 
2801.000000	97.539190 
2800.000000	97.539440 
2799.000000	97.540721 
2798.000000	97.542334 
2797.000000	97.543225 
2796.000000	97.543128 
2795.000000	97.542638 
2794.000000	97.542475 
2793.000000	97.542941 
2792.000000	97.543984 
2791.000000	97.545379 
2790.000000	97.546787 
2789.000000	97.547930 
2788.000000	97.548823 
2787.000000	97.549723 
2786.000000	97.550829 
2785.000000	97.552092 
2784.000000	97.553302 
2783.000000	97.554330 
2782.000000	97.555221 
2781.000000	97.556101 
2780.000000	97.557051 
2779.000000	97.558052 
2778.000000	97.559049 
2777.000000	97.560009 
2776.000000	97.560937 
2775.000000	97.561852 
2774.000000	97.562763 
2773.000000	97.563665 
2772.000000	97.564557 
2771.000000	97.565438 
2770.000000	97.566312 
2769.000000	97.567182 
2768.000000	97.568048 
2767.000000	97.568903 
2766.000000	97.569737 
2765.000000	97.570542 
2764.000000	97.571315 
2763.000000	97.572064 
2762.000000	97.572799 
2761.000000	97.573529 
2760.000000	97.574260 
2759.000000	97.574995 
2758.000000	97.575726 
2757.000000	97.576445 
2756.000000	97.577145 
2755.000000	97.577826 
2754.000000	97.578496 
2753.000000	97.579162 
2752.000000	97.579823 
2751.000000	97.580471 
2750.000000	97.581101 
2749.000000	97.581710 
2748.000000	97.582296 
2747.000000	97.582856 
2746.000000	97.583387 
2745.000000	97.583890 
2744.000000	97.584375 
2743.000000	97.584856 
2742.000000	97.585336 
2741.000000	97.585812 
2740.000000	97.586281 
2739.000000	97.586742 
2738.000000	97.587198 
2737.000000	97.587654 
2736.000000	97.588111 
2735.000000	97.588572 
2734.000000	97.589035 
2733.000000	97.589501 
2732.000000	97.589969 
2731.000000	97.590436 
2730.000000	97.590903 
2729.000000	97.591370 
2728.000000	97.591834 
2727.000000	97.592293 
2726.000000	97.592741 
2725.000000	97.593175 
2724.000000	97.593602 
2723.000000	97.594028 
2722.000000	97.594462 
2721.000000	97.594907 
2720.000000	97.595360 
2719.000000	97.595820 
2718.000000	97.596281 
2717.000000	97.596742 
2716.000000	97.597202 
2715.000000	97.597664 
2714.000000	97.598132 
2713.000000	97.598610 
2712.000000	97.599096 
2711.000000	97.599583 
2710.000000	97.600064 
2709.000000	97.600539 
2708.000000	97.601011 
2707.000000	97.601484 
2706.000000	97.601958 
2705.000000	97.602432 
2704.000000	97.602904 
2703.000000	97.603375 
2702.000000	97.603842 
2701.000000	97.604305 
2700.000000	97.604759 
2699.000000	97.605207 
2698.000000	97.605648 
2697.000000	97.606084 
2696.000000	97.606504 
2695.000000	97.606890 
2694.000000	97.607232 
2693.000000	97.607540 
2692.000000	97.607828 
2691.000000	97.608095 
2690.000000	97.608334 
2689.000000	97.608546 
2688.000000	97.608751 
2687.000000	97.608963 
2686.000000	97.609177 
2685.000000	97.609377 
2684.000000	97.609549 
2683.000000	97.609679 
2682.000000	97.609755 
2681.000000	97.609795 
2680.000000	97.609845 
2679.000000	97.609947 
2678.000000	97.610090 
2677.000000	97.610243 
2676.000000	97.610366 
2675.000000	97.610394 
2674.000000	97.610246 
2673.000000	97.609933 
2672.000000	97.609587 
2671.000000	97.609322 
2670.000000	97.609133 
2669.000000	97.608958 
2668.000000	97.608785 
2667.000000	97.608628 
2666.000000	97.608446 
2665.000000	97.608173 
2664.000000	97.607812 
2663.000000	97.607443 
2662.000000	97.607147 
2661.000000	97.606931 
2660.000000	97.606741 
2659.000000	97.606504 
2658.000000	97.606184 
2657.000000	97.605798 
2656.000000	97.605390 
2655.000000	97.604998 
2654.000000	97.604614 
2653.000000	97.604201 
2652.000000	97.603760 
2651.000000	97.603352 
2650.000000	97.603044 
2649.000000	97.602827 
2648.000000	97.602612 
2647.000000	97.602320 
2646.000000	97.601930 
2645.000000	97.601460 
2644.000000	97.600940 
2643.000000	97.600437 
2642.000000	97.600055 
2641.000000	97.599869 
2640.000000	97.599839 
2639.000000	97.599832 
2638.000000	97.599733 
2637.000000	97.599517 
2636.000000	97.599234 
2635.000000	97.598963 
2634.000000	97.598771 
2633.000000	97.598690 
2632.000000	97.598685 
2631.000000	97.598659 
2630.000000	97.598525 
2629.000000	97.598267 
2628.000000	97.597939 
2627.000000	97.597609 
2626.000000	97.597338 
2625.000000	97.597205 
2624.000000	97.597277 
2623.000000	97.597524 
2622.000000	97.597766 
2621.000000	97.597789 
2620.000000	97.597498 
2619.000000	97.596928 
2618.000000	97.596221 
2617.000000	97.595579 
2616.000000	97.595206 
2615.000000	97.595204 
2614.000000	97.595486 
2613.000000	97.595851 
2612.000000	97.596156 
2611.000000	97.596363 
2610.000000	97.596477 
2609.000000	97.596506 
2608.000000	97.596455 
2607.000000	97.596320 
2606.000000	97.596142 
2605.000000	97.596062 
2604.000000	97.596221 
2603.000000	97.596521 
2602.000000	97.596638 
2601.000000	97.596421 
2600.000000	97.596126 
2599.000000	97.596048 
2598.000000	97.596062 
2597.000000	97.595807 
2596.000000	97.595216 
2595.000000	97.594529 
2594.000000	97.593911 
2593.000000	97.593471 
2592.000000	97.593600 
2591.000000	97.594658 
2590.000000	97.596142 
2589.000000	97.596798 
2588.000000	97.595977 
2587.000000	97.594426 
2586.000000	97.593448 
2585.000000	97.593592 
2584.000000	97.594687 
2583.000000	97.596594 
2582.000000	97.599229 
2581.000000	97.601980 
2580.000000	97.603812 
2579.000000	97.604132 
2578.000000	97.603344 
2577.000000	97.602532 
2576.000000	97.602403 
2575.000000	97.602528 
2574.000000	97.601836 
2573.000000	97.599973 
2572.000000	97.597793 
2571.000000	97.596144 
2570.000000	97.594725 
2569.000000	97.592975 
2568.000000	97.591573 
2567.000000	97.591804 
2566.000000	97.593478 
2565.000000	97.594774 
2564.000000	97.594595 
2563.000000	97.593935 
2562.000000	97.594320 
2561.000000	97.596008 
2560.000000	97.598443 
2559.000000	97.601426 
2558.000000	97.604794 
2557.000000	97.607618 
2556.000000	97.608978 
2555.000000	97.609276 
2554.000000	97.609794 
2553.000000	97.610897 
2552.000000	97.611655 
2551.000000	97.611458 
2550.000000	97.610950 
2549.000000	97.610771 
2548.000000	97.610224 
2547.000000	97.608203 
2546.000000	97.605134 
2545.000000	97.602914 
2544.000000	97.602526 
2543.000000	97.602774 
2542.000000	97.602012 
2541.000000	97.600501 
2540.000000	97.600008 
2539.000000	97.601293 
2538.000000	97.603194 
2537.000000	97.604354 
2536.000000	97.604918 
2535.000000	97.605774 
2534.000000	97.606816 
2533.000000	97.606947 
2532.000000	97.605669 
2531.000000	97.603820 
2530.000000	97.602604 
2529.000000	97.602311 
2528.000000	97.602343 
2527.000000	97.602190 
2526.000000	97.602030 
2525.000000	97.602391 
2524.000000	97.603472 
2523.000000	97.604908 
2522.000000	97.606096 
2521.000000	97.606713 
2520.000000	97.606886 
2519.000000	97.606932 
2518.000000	97.607005 
2517.000000	97.606972 
2516.000000	97.606589 
2515.000000	97.605784 
2514.000000	97.604863 
2513.000000	97.604415 
2512.000000	97.604826 
2511.000000	97.605966 
2510.000000	97.607343 
2509.000000	97.608523 
2508.000000	97.609367 
2507.000000	97.609854 
2506.000000	97.610010 
2505.000000	97.610077 
2504.000000	97.610465 
2503.000000	97.611301 
2502.000000	97.612147 
2501.000000	97.612455 
2500.000000	97.612194 
2499.000000	97.611872 
2498.000000	97.611956 
2497.000000	97.612413 
2496.000000	97.612944 
2495.000000	97.613441 
2494.000000	97.613966 
2493.000000	97.614440 
2492.000000	97.614710 
2491.000000	97.614917 
2490.000000	97.615469 
2489.000000	97.616508 
2488.000000	97.617583 
2487.000000	97.618078 
2486.000000	97.617907 
2485.000000	97.617689 
2484.000000	97.618186 
2483.000000	97.619566 
2482.000000	97.621214 
2481.000000	97.622264 
2480.000000	97.622354 
2479.000000	97.621872 
2478.000000	97.621587 
2477.000000	97.621962 
2476.000000	97.622661 
2475.000000	97.622742 
2474.000000	97.621509 
2473.000000	97.619247 
2472.000000	97.616967 
2471.000000	97.615351 
2470.000000	97.614369 
2469.000000	97.614009 
2468.000000	97.614725 
2467.000000	97.616685 
2466.000000	97.619025 
2465.000000	97.620468 
2464.000000	97.620729 
2463.000000	97.620850 
2462.000000	97.622085 
2461.000000	97.624800 
2460.000000	97.628346 
2459.000000	97.631573 
2458.000000	97.633302 
2457.000000	97.632720 
2456.000000	97.629757 
2455.000000	97.625354 
2454.000000	97.621199 
2453.000000	97.618639 
2452.000000	97.617792 
2451.000000	97.617845 
2450.000000	97.618234 
2449.000000	97.619184 
2448.000000	97.620815 
2447.000000	97.622282 
2446.000000	97.622508 
2445.000000	97.621528 
2444.000000	97.620384 
2443.000000	97.619799 
2442.000000	97.619706 
2441.000000	97.620017 
2440.000000	97.620959 
2439.000000	97.622484 
2438.000000	97.624132 
2437.000000	97.625766 
2436.000000	97.627698 
2435.000000	97.629843 
2434.000000	97.631395 
2433.000000	97.631746 
2432.000000	97.631260 
2431.000000	97.630867 
2430.000000	97.631259 
2429.000000	97.632617 
2428.000000	97.634598 
2427.000000	97.636316 
2426.000000	97.636756 
2425.000000	97.635457 
2424.000000	97.633057 
2423.000000	97.630969 
2422.000000	97.630209 
2421.000000	97.631168 
2420.000000	97.633960 
2419.000000	97.637911 
2418.000000	97.641360 
2417.000000	97.643181 
2416.000000	97.644024 
2415.000000	97.645045 
2414.000000	97.646193 
2413.000000	97.646914 
2412.000000	97.647499 
2411.000000	97.648293 
2410.000000	97.648567 
2409.000000	97.647816 
2408.000000	97.647238 
2407.000000	97.648211 
2406.000000	97.650034 
2405.000000	97.650820 
2404.000000	97.650024 
2403.000000	97.648603 
2402.000000	97.647458 
2401.000000	97.647368 
2400.000000	97.649578 
2399.000000	97.654501 
2398.000000	97.660342 
2397.000000	97.664734 
2396.000000	97.667275 
2395.000000	97.668800 
2394.000000	97.668957 
2393.000000	97.666827 
2392.000000	97.663558 
2391.000000	97.662124 
2390.000000	97.664062 
2389.000000	97.668280 
2388.000000	97.673312 
2387.000000	97.679032 
2386.000000	97.685656 
2385.000000	97.692487 
2384.000000	97.698291 
2383.000000	97.701669 
2382.000000	97.700611 
2381.000000	97.693372 
2380.000000	97.680555 
2379.000000	97.665463 
2378.000000	97.651502 
2377.000000	97.640099 
2376.000000	97.632075 
2375.000000	97.629365 
2374.000000	97.633218 
2373.000000	97.641596 
2372.000000	97.650320 
2371.000000	97.656916 
2370.000000	97.661473 
2369.000000	97.664036 
2368.000000	97.663627 
2367.000000	97.660137 
2366.000000	97.655182 
2365.000000	97.650607 
2364.000000	97.647418 
2363.000000	97.646308 
2362.000000	97.647759 
2361.000000	97.651143 
2360.000000	97.655008 
2359.000000	97.658160 
2358.000000	97.659314 
2357.000000	97.657911 
2356.000000	97.654726 
2355.000000	97.651474 
2354.000000	97.648153 
2353.000000	97.645023 
2352.000000	97.644346 
2351.000000	97.647019 
2350.000000	97.650745 
2349.000000	97.652434 
2348.000000	97.651724 
2347.000000	97.650435 
2346.000000	97.650408 
2345.000000	97.652301 
2344.000000	97.655096 
2343.000000	97.657339 
2342.000000	97.657901 
2341.000000	97.656971 
2340.000000	97.655802 
2339.000000	97.655328 
2338.000000	97.655203 
2337.000000	97.654331 
2336.000000	97.653361 
2335.000000	97.653777 
2334.000000	97.655684 
2333.000000	97.656965 
2332.000000	97.657608 
2331.000000	97.658857 
2330.000000	97.661775 
2329.000000	97.664740 
2328.000000	97.667774 
2327.000000	97.671325 
2326.000000	97.674789 
2325.000000	97.676754 
2324.000000	97.677951 
2323.000000	97.680628 
2322.000000	97.684063 
2321.000000	97.684534 
2320.000000	97.681612 
2319.000000	97.678375 
2318.000000	97.677977 
2317.000000	97.677926 
2316.000000	97.676326 
2315.000000	97.673281 
2314.000000	97.672529 
2313.000000	97.674789 
2312.000000	97.680451 
2311.000000	97.687643 
2310.000000	97.694380 
2309.000000	97.697270 
2308.000000	97.697083 
2307.000000	97.696777 
2306.000000	97.698593 
2305.000000	97.700390 
2304.000000	97.700991 
2303.000000	97.701316 
2302.000000	97.704099 
2301.000000	97.708605 
2300.000000	97.712691 
2299.000000	97.712920 
2298.000000	97.707825 
2297.000000	97.696737 
2296.000000	97.682835 
2295.000000	97.670654 
2294.000000	97.662694 
2293.000000	97.656714 
2292.000000	97.649987 
2291.000000	97.642771 
2290.000000	97.637207 
2289.000000	97.634413 
2288.000000	97.633603 
2287.000000	97.633277 
2286.000000	97.631480 
2285.000000	97.627312 
2284.000000	97.621966 
2283.000000	97.617631 
2282.000000	97.613988 
2281.000000	97.608344 
2280.000000	97.599400 
2279.000000	97.589365 
2278.000000	97.581239 
2277.000000	97.576005 
2276.000000	97.573519 
2275.000000	97.573587 
2274.000000	97.575606 
2273.000000	97.578706 
2272.000000	97.583043 
2271.000000	97.588544 
2270.000000	97.592861 
2269.000000	97.593262 
2268.000000	97.590695 
2267.000000	97.588855 
2266.000000	97.589217 
2265.000000	97.589822 
2264.000000	97.588937 
2263.000000	97.586659 
2262.000000	97.582844 
2261.000000	97.576960 
2260.000000	97.570280 
2259.000000	97.565482 
2258.000000	97.563339 
2257.000000	97.562329 
2256.000000	97.561564 
2255.000000	97.561699 
2254.000000	97.562597 
2253.000000	97.562305 
2252.000000	97.559516 
2251.000000	97.555036 
2250.000000	97.550276 
2249.000000	97.545728 
2248.000000	97.541750 
2247.000000	97.539187 
2246.000000	97.538245 
2245.000000	97.537799 
2244.000000	97.536528 
2243.000000	97.534308 
2242.000000	97.531815 
2241.000000	97.529599 
2240.000000	97.527802 
2239.000000	97.526338 
2238.000000	97.524963 
2237.000000	97.523414 
2236.000000	97.521666 
2235.000000	97.519867 
2234.000000	97.518096 
2233.000000	97.516326 
2232.000000	97.514533 
2231.000000	97.512716 
2230.000000	97.510864 
2229.000000	97.508939 
2228.000000	97.506925 
2227.000000	97.504876 
2226.000000	97.502868 
2225.000000	97.500906 
2224.000000	97.498909 
2223.000000	97.496822 
2222.000000	97.494682 
2221.000000	97.492596 
2220.000000	97.490603 
2219.000000	97.488669 
2218.000000	97.486748 
2217.000000	97.484840 
2216.000000	97.482980 
2215.000000	97.481191 
2214.000000	97.479436 
2213.000000	97.477639 
2212.000000	97.475776 
2211.000000	97.473936 
2210.000000	97.472231 
2209.000000	97.470658 
2208.000000	97.469116 
2207.000000	97.467530 
2206.000000	97.465909 
2205.000000	97.464281 
2204.000000	97.462677 
2203.000000	97.461252 
2202.000000	97.460317 
2201.000000	97.459910 
2200.000000	97.459263 
2199.000000	97.457320 
2198.000000	97.453844 
2197.000000	97.449707 
2196.000000	97.445934 
2195.000000	97.442790 
2194.000000	97.440037 
2193.000000	97.437831 
2192.000000	97.436869 
2191.000000	97.437243 
2190.000000	97.437682 
2189.000000	97.436830 
2188.000000	97.435038 
2187.000000	97.433516 
2186.000000	97.431751 
2185.000000	97.427743 
2184.000000	97.421708 
2183.000000	97.417598 
2182.000000	97.418863 
2181.000000	97.424311 
2180.000000	97.429163 
2179.000000	97.430336 
2178.000000	97.428610 
2177.000000	97.426253 
2176.000000	97.424484 
2175.000000	97.423149 
2174.000000	97.421650 
2173.000000	97.420021 
2172.000000	97.419625 
2171.000000	97.422083 
2170.000000	97.426674 
2169.000000	97.429911 
2168.000000	97.429221 
2167.000000	97.426045 
2166.000000	97.423532 
2165.000000	97.421928 
2164.000000	97.418331 
2163.000000	97.411025 
2162.000000	97.402486 
2161.000000	97.397939 
2160.000000	97.401729 
2159.000000	97.414563 
2158.000000	97.432563 
2157.000000	97.449535 
2156.000000	97.461472 
2155.000000	97.467870 
2154.000000	97.469720 
2153.000000	97.468756 
2152.000000	97.467765 
2151.000000	97.468440 
2150.000000	97.468980 
2149.000000	97.466864 
2148.000000	97.464304 
2147.000000	97.467087 
2146.000000	97.476882 
2145.000000	97.488531 
2144.000000	97.496954 
2143.000000	97.503128 
2142.000000	97.510082 
2141.000000	97.516860 
2140.000000	97.520747 
2139.000000	97.523262 
2138.000000	97.529130 
2137.000000	97.539522 
2136.000000	97.549794 
2135.000000	97.554428 
2134.000000	97.551969 
2133.000000	97.545481 
2132.000000	97.540173 
2131.000000	97.539875 
2130.000000	97.544533 
2129.000000	97.550964 
2128.000000	97.556391 
2127.000000	97.560836 
2126.000000	97.565666 
2125.000000	97.571071 
2124.000000	97.575841 
2123.000000	97.578511 
2122.000000	97.577963 
2121.000000	97.574023 
2120.000000	97.568287 
2119.000000	97.563380 
2118.000000	97.560871 
2117.000000	97.560608 
2116.000000	97.561727 
2115.000000	97.562896 
2114.000000	97.561851 
2113.000000	97.557056 
2112.000000	97.550650 
2111.000000	97.547437 
2110.000000	97.549639 
2109.000000	97.554581 
2108.000000	97.558223 
2107.000000	97.559512 
2106.000000	97.559779 
2105.000000	97.559978 
2104.000000	97.560429 
2103.000000	97.561562 
2102.000000	97.562784 
2101.000000	97.561874 
2100.000000	97.557592 
2099.000000	97.552089 
2098.000000	97.549087 
2097.000000	97.549885 
2096.000000	97.552762 
2095.000000	97.555406 
2094.000000	97.556745 
2093.000000	97.556618 
2092.000000	97.555163 
2091.000000	97.553055 
2090.000000	97.551415 
2089.000000	97.550934 
2088.000000	97.551290 
2087.000000	97.551393 
2086.000000	97.550101 
2085.000000	97.546982 
2084.000000	97.542719 
2083.000000	97.538613 
2082.000000	97.535402 
2081.000000	97.532924 
2080.000000	97.530978 
2079.000000	97.529839 
2078.000000	97.529457 
2077.000000	97.528734 
2076.000000	97.526512 
2075.000000	97.523048 
2074.000000	97.519621 
2073.000000	97.516703 
2072.000000	97.513527 
2071.000000	97.509561 
2070.000000	97.505350 
2069.000000	97.501730 
2068.000000	97.499020 
2067.000000	97.497026 
2066.000000	97.495295 
2065.000000	97.493192 
2064.000000	97.490200 
2063.000000	97.486408 
2062.000000	97.482563 
2061.000000	97.479497 
2060.000000	97.477396 
2059.000000	97.475819 
2058.000000	97.474072 
2057.000000	97.471682 
2056.000000	97.468648 
2055.000000	97.465239 
2054.000000	97.461741 
2053.000000	97.458314 
2052.000000	97.455028 
2051.000000	97.451880 
2050.000000	97.448781 
2049.000000	97.445672 
2048.000000	97.442688 
2047.000000	97.440050 
2046.000000	97.437772 
2045.000000	97.435621 
2044.000000	97.433400 
2043.000000	97.431133 
2042.000000	97.428960 
2041.000000	97.426981 
2040.000000	97.425320 
2039.000000	97.424214 
2038.000000	97.423609 
2037.000000	97.422777 
2036.000000	97.420963 
2035.000000	97.418349 
2034.000000	97.416007 
2033.000000	97.414965 
2032.000000	97.415659 
2031.000000	97.417685 
2030.000000	97.419340 
2029.000000	97.418399 
2028.000000	97.414287 
2027.000000	97.409180 
2026.000000	97.405637 
2025.000000	97.403804 
2024.000000	97.402553 
2023.000000	97.402442 
2022.000000	97.405310 
2021.000000	97.410858 
2020.000000	97.415637 
2019.000000	97.416178 
2018.000000	97.411609 
2017.000000	97.403721 
2016.000000	97.396019 
2015.000000	97.391749 
2014.000000	97.391296 
2013.000000	97.391523 
2012.000000	97.389765 
2011.000000	97.388269 
2010.000000	97.391526 
2009.000000	97.399660 
2008.000000	97.407649 
2007.000000	97.411876 
2006.000000	97.413838 
2005.000000	97.416414 
2004.000000	97.420192 
2003.000000	97.424956 
2002.000000	97.431288 
2001.000000	97.437804 
2000.000000	97.439981 
1999.000000	97.433753 
1998.000000	97.419411 
1997.000000	97.401816 
1996.000000	97.387188 
1995.000000	97.379613 
1994.000000	97.379415 
1993.000000	97.383189 
1992.000000	97.385942 
1991.000000	97.385471 
1990.000000	97.384117 
1989.000000	97.385412 
1988.000000	97.389662 
1987.000000	97.393137 
1986.000000	97.391488 
1985.000000	97.384085 
1984.000000	97.374936 
1983.000000	97.369005 
1982.000000	97.367727 
1981.000000	97.368589 
1980.000000	97.369254 
1979.000000	97.370128 
1978.000000	97.372180 
1977.000000	97.374443 
1976.000000	97.375448 
1975.000000	97.375984 
1974.000000	97.378258 
1973.000000	97.383156 
1972.000000	97.389625 
1971.000000	97.395992 
1970.000000	97.400514 
1969.000000	97.401371 
1968.000000	97.397901 
1967.000000	97.392370 
1966.000000	97.389304 
1965.000000	97.391763 
1964.000000	97.399144 
1963.000000	97.408551 
1962.000000	97.417350 
1961.000000	97.424219 
1960.000000	97.428441 
1959.000000	97.429625 
1958.000000	97.428704 
1957.000000	97.428257 
1956.000000	97.430556 
1955.000000	97.435267 
1954.000000	97.439784 
1953.000000	97.442194 
1952.000000	97.443064 
1951.000000	97.444126 
1950.000000	97.446178 
1949.000000	97.449080 
1948.000000	97.452945 
1947.000000	97.457823 
1946.000000	97.462644 
1945.000000	97.465901 
1944.000000	97.467421 
1943.000000	97.468519 
1942.000000	97.470360 
1941.000000	97.472934 
1940.000000	97.475739 
1939.000000	97.478389 
1938.000000	97.480619 
1937.000000	97.482524 
1936.000000	97.484760 
1935.000000	97.487779 
1934.000000	97.491000 
1933.000000	97.493543 
1932.000000	97.495625 
1931.000000	97.498519 
1930.000000	97.502743 
1929.000000	97.507017 
1928.000000	97.510164 
1927.000000	97.512415 
1926.000000	97.514471 
1925.000000	97.516140 
1924.000000	97.517289 
1923.000000	97.519046 
1922.000000	97.521814 
1921.000000	97.523919 
1920.000000	97.524065 
1919.000000	97.523303 
1918.000000	97.523068 
1917.000000	97.522533 
1916.000000	97.520788 
1915.000000	97.519343 
1914.000000	97.519994 
1913.000000	97.522112 
1912.000000	97.523346 
1911.000000	97.522993 
1910.000000	97.522456 
1909.000000	97.522990 
1908.000000	97.524832 
1907.000000	97.527311 
1906.000000	97.529220 
1905.000000	97.529144 
1904.000000	97.526818 
1903.000000	97.524184 
1902.000000	97.523260 
1901.000000	97.523867 
1900.000000	97.524701 
1899.000000	97.525213 
1898.000000	97.525712 
1897.000000	97.526138 
1896.000000	97.525997 
1895.000000	97.525430 
1894.000000	97.524890 
1893.000000	97.524262 
1892.000000	97.523323 
1891.000000	97.522612 
1890.000000	97.522828 
1889.000000	97.523731 
1888.000000	97.524678 
1887.000000	97.525636 
1886.000000	97.526731 
1885.000000	97.527582 
1884.000000	97.527758 
1883.000000	97.527520 
1882.000000	97.527503 
1881.000000	97.527956 
1880.000000	97.528713 
1879.000000	97.529472 
1878.000000	97.530000 
1877.000000	97.530352 
1876.000000	97.530895 
1875.000000	97.532100 
1874.000000	97.534046 
1873.000000	97.536082 
1872.000000	97.537542 
1871.000000	97.538576 
1870.000000	97.539638 
1869.000000	97.540440 
1868.000000	97.540749 
1867.000000	97.541568 
1866.000000	97.543331 
1865.000000	97.544663 
1864.000000	97.544446 
1863.000000	97.543844 
1862.000000	97.544958 
1861.000000	97.547903 
1860.000000	97.551003 
1859.000000	97.553588 
1858.000000	97.556323 
1857.000000	97.559067 
1856.000000	97.560858 
1855.000000	97.561780 
1854.000000	97.562905 
1853.000000	97.564377 
1852.000000	97.566140 
1851.000000	97.568654 
1850.000000	97.571984 
1849.000000	97.575403 
1848.000000	97.578161 
1847.000000	97.580593 
1846.000000	97.583327 
1845.000000	97.586214 
1844.000000	97.588565 
1843.000000	97.590807 
1842.000000	97.593592 
1841.000000	97.596100 
1840.000000	97.598099 
1839.000000	97.600458 
1838.000000	97.603445 
1837.000000	97.605644 
1836.000000	97.606048 
1835.000000	97.606099 
1834.000000	97.607649 
1833.000000	97.610297 
1832.000000	97.612395 
1831.000000	97.612977 
1830.000000	97.612427 
1829.000000	97.612083 
1828.000000	97.612850 
1827.000000	97.614665 
1826.000000	97.617297 
1825.000000	97.620228 
1824.000000	97.622302 
1823.000000	97.623204 
1822.000000	97.623570 
1821.000000	97.623715 
1820.000000	97.623426 
1819.000000	97.623001 
1818.000000	97.623729 
1817.000000	97.625808 
1816.000000	97.627581 
1815.000000	97.628143 
1814.000000	97.628302 
1813.000000	97.628965 
1812.000000	97.629372 
1811.000000	97.628585 
1810.000000	97.627554 
1809.000000	97.627361 
1808.000000	97.627712 
1807.000000	97.628107 
1806.000000	97.628652 
1805.000000	97.629285 
1804.000000	97.629545 
1803.000000	97.629660 
1802.000000	97.630115 
1801.000000	97.630705 
1800.000000	97.630454 
1799.000000	97.629353 
1798.000000	97.628801 
1797.000000	97.629201 
1796.000000	97.629596 
1795.000000	97.629425 
1794.000000	97.629312 
1793.000000	97.629952 
1792.000000	97.630776 
1791.000000	97.631368 
1790.000000	97.632210 
1789.000000	97.633036 
1788.000000	97.633537 
1787.000000	97.634266 
1786.000000	97.635913 
1785.000000	97.637968 
1784.000000	97.639243 
1783.000000	97.639713 
1782.000000	97.639855 
1781.000000	97.640267 
1780.000000	97.641199 
1779.000000	97.642486 
1778.000000	97.644025 
1777.000000	97.645609 
1776.000000	97.647134 
1775.000000	97.648424 
1774.000000	97.649366 
1773.000000	97.650068 
1772.000000	97.650726 
1771.000000	97.651538 
1770.000000	97.652605 
1769.000000	97.653833 
1768.000000	97.655098 
1767.000000	97.656277 
1766.000000	97.657329 
1765.000000	97.658323 
1764.000000	97.659324 
1763.000000	97.660354 
1762.000000	97.661397 
1761.000000	97.662444 
1760.000000	97.663488 
1759.000000	97.664524 
1758.000000	97.665557 
1757.000000	97.666594 
1756.000000	97.667633 
1755.000000	97.668644 
1754.000000	97.669595 
1753.000000	97.670483 
1752.000000	97.671346 
1751.000000	97.672202 
1750.000000	97.673019 
1749.000000	97.673755 
1748.000000	97.674407 
1747.000000	97.675006 
1746.000000	97.675542 
1745.000000	97.676088 
1744.000000	97.676785 
1743.000000	97.677626 
1742.000000	97.678379 
1741.000000	97.678831 
1740.000000	97.678971 
1739.000000	97.679071 
1738.000000	97.679394 
1737.000000	97.679713 
1736.000000	97.679828 
1735.000000	97.680266 
1734.000000	97.680955 
1733.000000	97.680985 
1732.000000	97.680783 
1731.000000	97.680883 
1730.000000	97.681634 
1729.000000	97.682681 
1728.000000	97.683146 
1727.000000	97.682636 
1726.000000	97.681595 
1725.000000	97.681100 
1724.000000	97.681251 
1723.000000	97.681529 
1722.000000	97.681976 
1721.000000	97.682329 
1720.000000	97.681924 
1719.000000	97.680916 
1718.000000	97.680547 
1717.000000	97.680416 
1716.000000	97.678924 
1715.000000	97.676759 
1714.000000	97.675723 
1713.000000	97.675480 
1712.000000	97.674282 
1711.000000	97.672162 
1710.000000	97.670549 
1709.000000	97.669711 
1708.000000	97.668386 
1707.000000	97.665850 
1706.000000	97.663172 
1705.000000	97.661309 
1704.000000	97.659775 
1703.000000	97.657761 
1702.000000	97.655744 
1701.000000	97.654611 
1700.000000	97.652532 
1699.000000	97.648962 
1698.000000	97.646134 
1697.000000	97.643836 
1696.000000	97.641508 
1695.000000	97.638981 
1694.000000	97.636533 
1693.000000	97.633863 
1692.000000	97.630684 
1691.000000	97.627398 
1690.000000	97.624329 
1689.000000	97.621428 
1688.000000	97.618592 
1687.000000	97.615634 
1686.000000	97.612601 
1685.000000	97.609596 
1684.000000	97.606487 
1683.000000	97.603402 
1682.000000	97.600459 
1681.000000	97.597443 
1680.000000	97.594438 
1679.000000	97.591501 
1678.000000	97.588545 
1677.000000	97.585515 
1676.000000	97.582483 
1675.000000	97.579482 
1674.000000	97.576425 
1673.000000	97.573302 
1672.000000	97.570157 
1671.000000	97.567091 
1670.000000	97.564118 
1669.000000	97.561119 
1668.000000	97.558222 
1667.000000	97.555558 
1666.000000	97.552970 
1665.000000	97.550294 
1664.000000	97.547565 
1663.000000	97.544978 
1662.000000	97.542432 
1661.000000	97.539691 
1660.000000	97.536868 
1659.000000	97.534119 
1658.000000	97.531364 
1657.000000	97.528559 
1656.000000	97.525819 
1655.000000	97.523435 
1654.000000	97.521609 
1653.000000	97.518809 
1652.000000	97.514471 
1651.000000	97.511548 
1650.000000	97.509135 
1649.000000	97.506049 
1648.000000	97.503137 
1647.000000	97.501523 
1646.000000	97.500703 
1645.000000	97.500068 
1644.000000	97.499108 
1643.000000	97.497942 
1642.000000	97.496787 
1641.000000	97.495619 
1640.000000	97.494635 
1639.000000	97.493681 
1638.000000	97.492593 
1637.000000	97.491509 
1636.000000	97.490491 
1635.000000	97.488796 
1634.000000	97.487378 
1633.000000	97.486652 
1632.000000	97.485521 
1631.000000	97.484786 
1630.000000	97.484845 
1629.000000	97.484685 
1628.000000	97.483963 
1627.000000	97.484153 
1626.000000	97.485233 
1625.000000	97.485619 
1624.000000	97.485166 
1623.000000	97.485481 
1622.000000	97.487130 
1621.000000	97.489194 
1620.000000	97.491123 
1619.000000	97.492902 
1618.000000	97.494092 
1617.000000	97.492019 
1616.000000	97.487490 
1615.000000	97.486446 
1614.000000	97.489112 
1613.000000	97.490932 
1612.000000	97.491025 
1611.000000	97.491786 
1610.000000	97.493462 
1609.000000	97.495067 
1608.000000	97.498404 
1607.000000	97.504770 
1606.000000	97.510543 
1605.000000	97.512763 
1604.000000	97.514189 
1603.000000	97.517639 
1602.000000	97.522021 
1601.000000	97.525432 
1600.000000	97.528649 
1599.000000	97.532605 
1598.000000	97.535831 
1597.000000	97.537270 
1596.000000	97.538569 
1595.000000	97.541871 
1594.000000	97.546533 
1593.000000	97.550442 
1592.000000	97.553506 
1591.000000	97.556996 
1590.000000	97.560542 
1589.000000	97.563133 
1588.000000	97.565906 
1587.000000	97.570659 
1586.000000	97.576077 
1585.000000	97.578973 
1584.000000	97.581023 
1583.000000	97.585187 
1582.000000	97.589150 
1581.000000	97.590402 
1580.000000	97.591773 
1579.000000	97.595611 
1578.000000	97.600169 
1577.000000	97.603877 
1576.000000	97.606831 
1575.000000	97.611755 
1574.000000	97.618311 
1573.000000	97.622307 
1572.000000	97.624721 
1571.000000	97.629529 
1570.000000	97.633880 
1569.000000	97.632560 
1568.000000	97.632083 
1567.000000	97.635273 
1566.000000	97.636150 
1565.000000	97.632716 
1564.000000	97.630404 
1563.000000	97.631412 
1562.000000	97.630348 
1561.000000	97.626486 
1560.000000	97.635512 
1559.000000	97.649309 
1558.000000	97.643055 
1557.000000	97.635705 
1556.000000	97.634331 
1555.000000	97.638385 
1554.000000	97.642224 
1553.000000	97.641587 
1552.000000	97.636691 
1551.000000	97.630161 
1550.000000	97.625570 
1549.000000	97.621819 
1548.000000	97.616620 
1547.000000	97.610445 
1546.000000	97.604256 
1545.000000	97.599181 
1544.000000	97.595620 
1543.000000	97.592339 
1542.000000	97.588623 
1541.000000	97.580727 
1540.000000	97.561743 
1539.000000	97.539915 
1538.000000	97.528882 
1537.000000	97.522569 
1536.000000	97.512482 
1535.000000	97.501286 
1534.000000	97.493713 
1533.000000	97.489111 
1532.000000	97.483691 
1531.000000	97.474976 
1530.000000	97.463636 
1529.000000	97.450992 
1528.000000	97.438239 
1527.000000	97.427752 
1526.000000	97.419709 
1525.000000	97.410805 
1524.000000	97.398169 
1523.000000	97.383416 
1522.000000	97.371248 
1521.000000	97.361657 
1520.000000	97.350009 
1519.000000	97.333368 
1518.000000	97.313533 
1517.000000	97.296975 
1516.000000	97.286815 
1515.000000	97.279766 
1514.000000	97.271210 
1513.000000	97.260230 
1512.000000	97.246526 
1511.000000	97.229800 
1510.000000	97.212069 
1509.000000	97.196641 
1508.000000	97.186754 
1507.000000	97.179937 
1506.000000	97.168618 
1505.000000	97.152189 
1504.000000	97.134661 
1503.000000	97.116670 
1502.000000	97.098569 
1501.000000	97.081762 
1500.000000	97.066287 
1499.000000	97.050724 
1498.000000	97.035686 
1497.000000	97.023677 
1496.000000	97.013591 
1495.000000	97.004430 
1494.000000	96.997119 
1493.000000	96.991007 
1492.000000	96.984647 
1491.000000	96.977993 
1490.000000	96.971746 
1489.000000	96.963668 
1488.000000	96.949025 
1487.000000	96.929754 
1486.000000	96.912003 
1485.000000	96.894591 
1484.000000	96.875929 
1483.000000	96.858465 
1482.000000	96.846266 
1481.000000	96.838800 
1480.000000	96.829615 
1479.000000	96.815856 
1478.000000	96.801462 
1477.000000	96.790539 
1476.000000	96.780687 
1475.000000	96.769820 
1474.000000	96.759380 
1473.000000	96.751555 
1472.000000	96.744632 
1471.000000	96.735329 
1470.000000	96.723594 
1469.000000	96.709464 
1468.000000	96.693087 
1467.000000	96.677240 
1466.000000	96.665791 
1465.000000	96.659809 
1464.000000	96.656419 
1463.000000	96.649681 
1462.000000	96.637602 
1461.000000	96.622335 
1460.000000	96.607597 
1459.000000	96.596280 
1458.000000	96.591423 
1457.000000	96.593078 
1456.000000	96.593322 
1455.000000	96.585149 
1454.000000	96.568149 
1453.000000	96.551326 
1452.000000	96.543413 
1451.000000	96.544627 
1450.000000	96.550993 
1449.000000	96.560439 
1448.000000	96.569786 
1447.000000	96.574802 
1446.000000	96.572747 
1445.000000	96.567944 
1444.000000	96.566367 
1443.000000	96.566764 
1442.000000	96.566286 
1441.000000	96.564952 
1440.000000	96.563638 
1439.000000	96.560806 
1438.000000	96.560081 
1437.000000	96.568729 
1436.000000	96.582451 
1435.000000	96.587857 
1434.000000	96.582786 
1433.000000	96.576405 
1432.000000	96.576192 
1431.000000	96.580921 
1430.000000	96.586015 
1429.000000	96.591455 
1428.000000	96.596918 
1427.000000	96.600633 
1426.000000	96.601965 
1425.000000	96.607291 
1424.000000	96.621713 
1423.000000	96.636135 
1422.000000	96.640902 
1421.000000	96.640893 
1420.000000	96.648939 
1419.000000	96.664141 
1418.000000	96.675157 
1417.000000	96.681093 
1416.000000	96.686730 
1415.000000	96.692620 
1414.000000	96.696094 
1413.000000	96.698108 
1412.000000	96.702829 
1411.000000	96.710186 
1410.000000	96.717593 
1409.000000	96.725285 
1408.000000	96.734324 
1407.000000	96.745786 
1406.000000	96.760186 
1405.000000	96.779621 
1404.000000	96.804220 
1403.000000	96.826208 
1402.000000	96.840162 
1401.000000	96.851505 
1400.000000	96.870329 
1399.000000	96.896870 
1398.000000	96.920279 
1397.000000	96.933448 
1396.000000	96.940477 
1395.000000	96.950175 
1394.000000	96.966004 
1393.000000	96.987357 
1392.000000	97.012287 
1391.000000	97.036479 
1390.000000	97.056575 
1389.000000	97.073308 
1388.000000	97.089465 
1387.000000	97.104893 
1386.000000	97.116380 
1385.000000	97.124425 
1384.000000	97.134367 
1383.000000	97.148727 
1382.000000	97.165069 
1381.000000	97.180379 
1380.000000	97.195583 
1379.000000	97.213182 
1378.000000	97.231984 
1377.000000	97.248529 
1376.000000	97.262492 
1375.000000	97.277170 
1374.000000	97.294409 
1373.000000	97.312854 
1372.000000	97.330210 
1371.000000	97.346149 
1370.000000	97.361295 
1369.000000	97.376529 
1368.000000	97.392511 
1367.000000	97.406899 
1366.000000	97.417038 
1365.000000	97.424499 
1364.000000	97.434652 
1363.000000	97.450436 
1362.000000	97.468177 
1361.000000	97.482388 
1360.000000	97.493059 
1359.000000	97.503965 
1358.000000	97.516347 
1357.000000	97.528331 
1356.000000	97.538854 
1355.000000	97.548347 
1354.000000	97.557522 
1353.000000	97.566833 
1352.000000	97.576253 
1351.000000	97.586814 
1350.000000	97.598242 
1349.000000	97.608657 
1348.000000	97.617104 
1347.000000	97.623536 
1346.000000	97.628811 
1345.000000	97.633559 
1344.000000	97.637459 
1343.000000	97.639470 
1342.000000	97.640114 
1341.000000	97.642512 
1340.000000	97.649544 
1339.000000	97.659364 
1338.000000	97.667050 
1337.000000	97.671027 
1336.000000	97.673551 
1335.000000	97.675663 
1334.000000	97.676121 
1333.000000	97.674961 
1332.000000	97.674525 
1331.000000	97.676174 
1330.000000	97.678628 
1329.000000	97.680626 
1328.000000	97.682705 
1327.000000	97.685379 
1326.000000	97.687215 
1325.000000	97.686741 
1324.000000	97.684190 
1323.000000	97.679893 
1322.000000	97.674059 
1321.000000	97.668605 
1320.000000	97.666768 
1319.000000	97.669492 
1318.000000	97.674181 
1317.000000	97.677760 
1316.000000	97.679139 
1315.000000	97.678360 
1314.000000	97.676104 
1313.000000	97.674562 
1312.000000	97.676007 
1311.000000	97.679579 
1310.000000	97.681873 
1309.000000	97.681400 
1308.000000	97.680216 
1307.000000	97.680841 
1306.000000	97.683146 
1305.000000	97.685833 
1304.000000	97.688577 
1303.000000	97.690666 
1302.000000	97.690123 
1301.000000	97.686044 
1300.000000	97.680769 
1299.000000	97.677926 
1298.000000	97.678768 
1297.000000	97.681165 
1296.000000	97.682014 
1295.000000	97.680197 
1294.000000	97.677705 
1293.000000	97.677898 
1292.000000	97.681781 
1291.000000	97.686476 
1290.000000	97.688574 
1289.000000	97.688186 
1288.000000	97.687775 
1287.000000	97.687734 
1286.000000	97.685792 
1285.000000	97.681138 
1284.000000	97.676325 
1283.000000	97.674037 
1282.000000	97.674013 
1281.000000	97.674322 
1280.000000	97.674304 
1279.000000	97.674744 
1278.000000	97.676338 
1277.000000	97.679099 
1276.000000	97.682208 
1275.000000	97.684018 
1274.000000	97.683364 
1273.000000	97.681412 
1272.000000	97.680767 
1271.000000	97.682282 
1270.000000	97.684096 
1269.000000	97.684271 
1268.000000	97.682771 
1267.000000	97.680183 
1266.000000	97.676570 
1265.000000	97.672531 
1264.000000	97.669512 
1263.000000	97.668023 
1262.000000	97.666658 
1261.000000	97.663776 
1260.000000	97.659563 
1259.000000	97.655515 
1258.000000	97.652399 
1257.000000	97.649156 
1256.000000	97.643540 
1255.000000	97.634653 
1254.000000	97.625155 
1253.000000	97.619122 
1252.000000	97.616404 
1251.000000	97.611565 
1250.000000	97.600943 
1249.000000	97.588592 
1248.000000	97.581505 
1247.000000	97.580032 
1246.000000	97.577412 
1245.000000	97.568504 
1244.000000	97.554809 
1243.000000	97.541081 
1242.000000	97.531036 
1241.000000	97.526609 
1240.000000	97.526922 
1239.000000	97.526627 
1238.000000	97.519234 
1237.000000	97.503784 
1236.000000	97.485213 
1235.000000	97.467222 
1234.000000	97.448393 
1233.000000	97.426752 
1232.000000	97.404003 
1231.000000	97.382571 
1230.000000	97.361777 
1229.000000	97.339726 
1228.000000	97.316239 
1227.000000	97.290968 
1226.000000	97.260810 
1225.000000	97.222293 
1224.000000	97.175423 
1223.000000	97.122898 
1222.000000	97.066610 
1221.000000	97.006995 
1220.000000	96.944880 
1219.000000	96.881525 
1218.000000	96.816863 
1217.000000	96.749074 
1216.000000	96.675728 
1215.000000	96.595051 
1214.000000	96.507704 
1213.000000	96.418387 
1212.000000	96.333432 
1211.000000	96.254582 
1210.000000	96.176616 
1209.000000	96.093355 
1208.000000	96.004654 
1207.000000	95.915286 
1206.000000	95.828295 
1205.000000	95.742055 
1204.000000	95.653277 
1203.000000	95.560492 
1202.000000	95.465130 
1201.000000	95.370899 
1200.000000	95.281256 
1199.000000	95.195801 
1198.000000	95.110197 
1197.000000	95.021160 
1196.000000	94.929877 
1195.000000	94.838990 
1194.000000	94.748437 
1193.000000	94.656586 
1192.000000	94.563220 
1191.000000	94.468521 
1190.000000	94.371061 
1189.000000	94.269892 
1188.000000	94.166871 
1187.000000	94.063846 
1186.000000	93.959454 
1185.000000	93.851885 
1184.000000	93.742557 
1183.000000	93.633228 
1182.000000	93.521582 
1181.000000	93.404022 
1180.000000	93.281011 
1179.000000	93.154885 
1178.000000	93.024147 
1177.000000	92.885341 
1176.000000	92.739516 
1175.000000	92.591418 
1174.000000	92.442984 
1173.000000	92.293158 
1172.000000	92.143453 
1171.000000	91.997473 
1170.000000	91.855060 
1169.000000	91.713445 
1168.000000	91.574881 
1167.000000	91.447389 
1166.000000	91.338053 
1165.000000	91.252222 
1164.000000	91.199054 
1163.000000	91.189046 
1162.000000	91.222586 
1161.000000	91.285480 
1160.000000	91.356567 
1159.000000	91.415310 
1158.000000	91.443856 
1157.000000	91.430582 
1156.000000	91.374982 
1155.000000	91.285659 
1154.000000	91.172747 
1153.000000	91.045179 
1152.000000	90.913460 
1151.000000	90.787677 
1150.000000	90.670604 
1149.000000	90.557919 
1148.000000	90.446314 
1147.000000	90.336218 
1146.000000	90.226466 
1145.000000	90.113142 
1144.000000	89.995591 
1143.000000	89.877954 
1142.000000	89.763073 
1141.000000	89.649767 
1140.000000	89.536915 
1139.000000	89.424908 
1138.000000	89.312677 
1137.000000	89.198839 
1136.000000	89.085754 
1135.000000	88.976411 
1134.000000	88.867605 
1133.000000	88.753126 
1132.000000	88.633578 
1131.000000	88.515618 
1130.000000	88.401278 
1129.000000	88.285876 
1128.000000	88.167103 
1127.000000	88.047883 
1126.000000	87.929026 
1125.000000	87.807333 
1124.000000	87.682800 
1123.000000	87.559800 
1122.000000	87.439345 
1121.000000	87.317929 
1120.000000	87.195541 
1119.000000	87.076600 
1118.000000	86.961545 
1117.000000	86.846152 
1116.000000	86.730518 
1115.000000	86.619800 
1114.000000	86.514591 
1113.000000	86.409648 
1112.000000	86.303752 
1111.000000	86.201397 
1110.000000	86.103562 
1109.000000	86.006264 
1108.000000	85.908260 
1107.000000	85.811209 
1106.000000	85.712716 
1105.000000	85.608874 
1104.000000	85.503382 
1103.000000	85.403955 
1102.000000	85.310387 
1101.000000	85.216760 
1100.000000	85.124079 
1099.000000	85.039204 
1098.000000	84.962090 
1097.000000	84.886113 
1096.000000	84.810396 
1095.000000	84.739047 
1094.000000	84.669161 
1093.000000	84.593484 
1092.000000	84.515451 
1091.000000	84.447812 
1090.000000	84.395222 
1089.000000	84.350907 
1088.000000	84.310484 
1087.000000	84.275367 
1086.000000	84.242474 
1085.000000	84.205449 
1084.000000	84.167404 
1083.000000	84.138335 
1082.000000	84.118591 
1081.000000	84.098800 
1080.000000	84.077252 
1079.000000	84.062680 
1078.000000	84.057836 
1077.000000	84.054234 
1076.000000	84.045000 
1075.000000	84.029027 
1074.000000	84.001187 
1073.000000	83.952681 
1072.000000	83.882377 
1071.000000	83.793869 
1070.000000	83.680469 
1069.000000	83.528799 
1068.000000	83.340408 
1067.000000	83.135897 
1066.000000	82.933750 
1065.000000	82.737706 
1064.000000	82.547764 
1063.000000	82.367144 
1062.000000	82.192397 
1061.000000	82.011728 
1060.000000	81.820880 
1059.000000	81.629734 
1058.000000	81.448349 
1057.000000	81.277377 
1056.000000	81.115294 
1055.000000	80.962542 
1054.000000	80.814954 
1053.000000	80.665600 
1052.000000	80.516741 
1051.000000	80.377127 
1050.000000	80.244519 
1049.000000	80.105861 
1048.000000	79.957159 
1047.000000	79.807034 
1046.000000	79.659604 
1045.000000	79.510326 
1044.000000	79.359182 
1043.000000	79.212227 
1042.000000	79.069068 
1041.000000	78.923369 
1040.000000	78.776801 
1039.000000	78.638419 
1038.000000	78.510170 
1037.000000	78.387769 
1036.000000	78.275164 
1035.000000	78.182016 
1034.000000	78.107284 
1033.000000	78.041366 
1032.000000	77.983047 
1031.000000	77.937082 
1030.000000	77.897433 
1029.000000	77.853076 
1028.000000	77.809922 
1027.000000	77.785961 
1026.000000	77.783374 
1025.000000	77.785164 
1024.000000	77.780747 
1023.000000	77.774952 
1022.000000	77.769871 
1021.000000	77.758517 
1020.000000	77.739800 
1019.000000	77.721119 
1018.000000	77.703268 
1017.000000	77.680369 
1016.000000	77.656178 
1015.000000	77.641901 
1014.000000	77.636273 
1013.000000	77.626679 
1012.000000	77.611879 
1011.000000	77.604586 
1010.000000	77.609416 
1009.000000	77.617490 
1008.000000	77.625525 
1007.000000	77.641763 
1006.000000	77.670153 
1005.000000	77.706372 
1004.000000	77.751175 
1003.000000	77.809454 
1002.000000	77.874655 
1001.000000	77.933340 
1000.000000	77.987508 
999.000000	 78.053264 
998.000000	 78.134873 
997.000000	 78.219065 
996.000000	 78.297893 
995.000000	 78.378868 
994.000000	 78.468809 
993.000000	 78.565454 
992.000000	 78.668298 
991.000000	 78.780447 
990.000000	 78.896758 
989.000000	 79.006997 
988.000000	 79.113563 
987.000000	 79.229903 
986.000000	 79.360193 
985.000000	 79.497588 
984.000000	 79.642863 
983.000000	 79.805451 
982.000000	 79.983605 
981.000000	 80.162477 
980.000000	 80.335708 
979.000000	 80.511584 
978.000000	 80.694565 
977.000000	 80.878773 
976.000000	 81.063571 
975.000000	 81.257880 
974.000000	 81.463880 
973.000000	 81.672449 
972.000000	 81.879629 
971.000000	 82.092661 
970.000000	 82.314959 
969.000000	 82.539145 
968.000000	 82.759199 
967.000000	 82.976512 
966.000000	 83.190834 
965.000000	 83.398462 
964.000000	 83.602464 
963.000000	 83.811763 
962.000000	 84.026909 
961.000000	 84.238663 
960.000000	 84.442592 
959.000000	 84.642680 
958.000000	 84.838982 
957.000000	 85.024859 
956.000000	 85.199281 
955.000000	 85.370035 
954.000000	 85.542089 
953.000000	 85.713309 
952.000000	 85.882819 
951.000000	 86.051995 
950.000000	 86.216266 
949.000000	 86.367973 
948.000000	 86.508589 
947.000000	 86.646576 
946.000000	 86.782196 
945.000000	 86.906739 
944.000000	 87.018381 
943.000000	 87.126736 
942.000000	 87.239370 
941.000000	 87.354994 
940.000000	 87.472304 
939.000000	 87.593863 
938.000000	 87.718419 
937.000000	 87.840250 
936.000000	 87.959028 
935.000000	 88.080452 
934.000000	 88.205007 
933.000000	 88.326224 
932.000000	 88.442350 
931.000000	 88.559853 
930.000000	 88.682499 
929.000000	 88.805596 
928.000000	 88.923641 
927.000000	 89.035732 
926.000000	 89.141636 
925.000000	 89.239865 
924.000000	 89.331178 
923.000000	 89.418042 
922.000000	 89.500844 
921.000000	 89.580527 
920.000000	 89.662568 
919.000000	 89.750500 
918.000000	 89.837612 
917.000000	 89.913678 
916.000000	 89.978820 
915.000000	 90.043264 
914.000000	 90.115752 
913.000000	 90.200126 
912.000000	 90.299880 
911.000000	 90.415948 
910.000000	 90.541956 
909.000000	 90.671354 
908.000000	 90.806864 
907.000000	 90.953828 
906.000000	 91.108515 
905.000000	 91.263437 
904.000000	 91.419673 
903.000000	 91.582069 
902.000000	 91.746413 
901.000000	 91.904390 
900.000000	 92.058143 
899.000000	 92.216779 
898.000000	 92.379958 
897.000000	 92.537539 
896.000000	 92.684156 
895.000000	 92.822051 
894.000000	 92.951644 
893.000000	 93.071903 
892.000000	 93.189057 
891.000000	 93.311849 
890.000000	 93.436839 
889.000000	 93.548839 
888.000000	 93.636068 
887.000000	 93.696162 
886.000000	 93.730722 
885.000000	 93.745513 
884.000000	 93.753768 
883.000000	 93.766363 
882.000000	 93.779702 
881.000000	 93.786524 
880.000000	 93.796989 
879.000000	 93.832811 
878.000000	 93.899619 
877.000000	 93.981707 
876.000000	 94.066598 
875.000000	 94.158925 
874.000000	 94.266952 
873.000000	 94.392429 
872.000000	 94.537988 
871.000000	 94.707467 
870.000000	 94.892050 
869.000000	 95.069888 
868.000000	 95.226365 
867.000000	 95.364588 
866.000000	 95.492720 
865.000000	 95.612798 
864.000000	 95.726764 
863.000000	 95.842141 
862.000000	 95.963978 
861.000000	 96.088037 
860.000000	 96.207264 
859.000000	 96.319048 
858.000000	 96.422854 
857.000000	 96.517323 
856.000000	 96.603187 
855.000000	 96.683320 
854.000000	 96.757209 
853.000000	 96.820754 
852.000000	 96.873543 
851.000000	 96.921433 
850.000000	 96.971181 
849.000000	 97.027142 
848.000000	 97.091753 
847.000000	 97.162215 
846.000000	 97.227883 
845.000000	 97.278980 
844.000000	 97.317488 
843.000000	 97.352525 
842.000000	 97.386847 
841.000000	 97.416080 
840.000000	 97.438672 
839.000000	 97.456262 
838.000000	 97.465700 
837.000000	 97.462332 
836.000000	 97.452094 
835.000000	 97.449498 
834.000000	 97.460889 
833.000000	 97.478815 
832.000000	 97.494977 
831.000000	 97.509239 
830.000000	 97.523599 
829.000000	 97.537418 
828.000000	 97.552933 
827.000000	 97.576605 
826.000000	 97.610021 
825.000000	 97.646718 
824.000000	 97.680828 
823.000000	 97.710416 
822.000000	 97.731301 
821.000000	 97.738139 
820.000000	 97.732606 
819.000000	 97.720042 
818.000000	 97.696638 
817.000000	 97.648916 
816.000000	 97.567514 
815.000000	 97.454094 
814.000000	 97.313061 
813.000000	 97.143059 
812.000000	 96.937592 
811.000000	 96.685922 
810.000000	 96.370948 
809.000000	 95.974624 
808.000000	 95.491239 
807.000000	 94.932920 
806.000000	 94.322066 
805.000000	 93.684413 
804.000000	 93.049388 
803.000000	 92.446282 
802.000000	 91.895503 
801.000000	 91.412230 
800.000000	 91.019400 
799.000000	 90.742800 
798.000000	 90.588943 
797.000000	 90.539927 
796.000000	 90.571428 
795.000000	 90.661739 
794.000000	 90.784724 
793.000000	 90.914079 
792.000000	 91.038909 
791.000000	 91.159895 
790.000000	 91.267907 
789.000000	 91.340573 
788.000000	 91.360118 
787.000000	 91.319638 
786.000000	 91.212797 
785.000000	 91.035452 
784.000000	 90.801035 
783.000000	 90.539472 
782.000000	 90.278041 
781.000000	 90.037214 
780.000000	 89.843885 
779.000000	 89.726957 
778.000000	 89.694449 
777.000000	 89.733124 
776.000000	 89.834040 
775.000000	 89.998338 
774.000000	 90.214387 
773.000000	 90.452517 
772.000000	 90.690758 
771.000000	 90.926944 
770.000000	 91.159091 
769.000000	 91.373552 
768.000000	 91.560595 
767.000000	 91.723981 
766.000000	 91.867403 
765.000000	 91.988524 
764.000000	 92.094602 
763.000000	 92.206784 
762.000000	 92.338007 
761.000000	 92.480034 
760.000000	 92.620530 
759.000000	 92.758778 
758.000000	 92.896687 
757.000000	 93.029948 
756.000000	 93.159030 
755.000000	 93.295507 
754.000000	 93.445066 
753.000000	 93.593898 
752.000000	 93.722487 
751.000000	 93.825904 
750.000000	 93.913893 
749.000000	 93.998550 
748.000000	 94.087580 
747.000000	 94.181702 
746.000000	 94.273044 
745.000000	 94.353445 
744.000000	 94.428265 
743.000000	 94.513943 
742.000000	 94.619426 
741.000000	 94.739322 
740.000000	 94.866091 
739.000000	 94.996474 
738.000000	 95.123345 
737.000000	 95.234095 
736.000000	 95.322374 
735.000000	 95.392068 
734.000000	 95.448253 
733.000000	 95.494919 
732.000000	 95.541464 
731.000000	 95.597315 
730.000000	 95.657614 
729.000000	 95.708143 
728.000000	 95.744722 
727.000000	 95.776394 
726.000000	 95.811849 
725.000000	 95.853455 
724.000000	 95.904321 
723.000000	 95.968496 
722.000000	 96.041853 
721.000000	 96.114193 
720.000000	 96.182496 
719.000000	 96.251398 
718.000000	 96.318936 
717.000000	 96.374658 
716.000000	 96.414956 
715.000000	 96.447467 
714.000000	 96.478707 
713.000000	 96.511149 
712.000000	 96.553144 
711.000000	 96.615895 
710.000000	 96.695900 
709.000000	 96.777423 
708.000000	 96.850575 
707.000000	 96.913062 
706.000000	 96.956199 
705.000000	 96.962707 
704.000000	 96.923372 
703.000000	 96.845946 
702.000000	 96.737381 
701.000000	 96.587418 
700.000000	 96.380130 
699.000000	 96.111809 
698.000000	 95.799045 
697.000000	 95.480622 
696.000000	 95.212101 
695.000000	 95.046788 
694.000000	 95.006391 
693.000000	 95.074007 
692.000000	 95.216734 
691.000000	 95.402812 
690.000000	 95.604417 
689.000000	 95.799677 
688.000000	 95.977709 
687.000000	 96.135755 
686.000000	 96.266491 
685.000000	 96.362677 
684.000000	 96.435022 
683.000000	 96.504593 
682.000000	 96.579067 
681.000000	 96.651994 
680.000000	 96.724172 
679.000000	 96.803146 
678.000000	 96.884365 
677.000000	 96.958606 
676.000000	 97.027497 
675.000000	 97.098560 
674.000000	 97.164766 
673.000000	 97.199727 
672.000000	 97.185825 
671.000000	 97.118187 
670.000000	 97.001884 
669.000000	 96.855576 
668.000000	 96.797607 
667.000000	 96.960310 
666.000000	 97.220236 
665.000000	 97.402279 
664.000000	 97.494952 
663.000000	 97.535896 
662.000000	 97.561116 
661.000000	 97.590760 
660.000000	 97.631931 
659.000000	 97.686083 
658.000000	 97.742950 
657.000000	 97.784987 
656.000000	 97.795150 
655.000000	 97.768700 
654.000000	 97.715903 
653.000000	 97.653393 
652.000000	 97.602252 
651.000000	 97.590769 
650.000000	 97.635761 

