4000.000000	98.026841 
3999.000000	98.025536 
3998.000000	98.022540 
3997.000000	98.018835 
3996.000000	98.015635 
3995.000000	98.013723 
3994.000000	98.013464 
3993.000000	98.014568 
3992.000000	98.016031 
3991.000000	98.016954 
3990.000000	98.017305 
3989.000000	98.017563 
3988.000000	98.017855 
3987.000000	98.017882 
3986.000000	98.017620 
3985.000000	98.017526 
3984.000000	98.017822 
3983.000000	98.018141 
3982.000000	98.018201 
3981.000000	98.018305 
3980.000000	98.018730 
3979.000000	98.019020 
3978.000000	98.018523 
3977.000000	98.017436 
3976.000000	98.016680 
3975.000000	98.016631 
3974.000000	98.016572 
3973.000000	98.015608 
3972.000000	98.013686 
3971.000000	98.011507 
3970.000000	98.009918 
3969.000000	98.009391 
3968.000000	98.009814 
3967.000000	98.010525 
3966.000000	98.010738 
3965.000000	98.010077 
3964.000000	98.008648 
3963.000000	98.006863 
3962.000000	98.005278 
3961.000000	98.004430 
3960.000000	98.004431 
3959.000000	98.004745 
3958.000000	98.004807 
3957.000000	98.004561 
3956.000000	98.004179 
3955.000000	98.003503 
3954.000000	98.002194 
3953.000000	98.000301 
3952.000000	97.998299 
3951.000000	97.996729 
3950.000000	97.995787 
3949.000000	97.995262 
3948.000000	97.994785 
3947.000000	97.994255 
3946.000000	97.993858 
3945.000000	97.993607 
3944.000000	97.993181 
3943.000000	97.992463 
3942.000000	97.992022 
3941.000000	97.992672 
3940.000000	97.994300 
3939.000000	97.995416 
3938.000000	97.994877 
3937.000000	97.993036 
3936.000000	97.990943 
3935.000000	97.988958 
3934.000000	97.986910 
3933.000000	97.985420 
3932.000000	97.985353 
3931.000000	97.986277 
3930.000000	97.986728 
3929.000000	97.986113 
3928.000000	97.985525 
3927.000000	97.985885 
3926.000000	97.986408 
3925.000000	97.985915 
3924.000000	97.984832 
3923.000000	97.984301 
3922.000000	97.984064 
3921.000000	97.983323 
3920.000000	97.982605 
3919.000000	97.982907 
3918.000000	97.983961 
3917.000000	97.984698 
3916.000000	97.984842 
3915.000000	97.984838 
3914.000000	97.984827 
3913.000000	97.984555 
3912.000000	97.984080 
3911.000000	97.983581 
3910.000000	97.983191 
3909.000000	97.982931 
3908.000000	97.982746 
3907.000000	97.982585 
3906.000000	97.982447 
3905.000000	97.982341 
3904.000000	97.982281 
3903.000000	97.982279 
3902.000000	97.982340 
3901.000000	97.982451 
3900.000000	97.982582 
3899.000000	97.982703 
3898.000000	97.982795 
3897.000000	97.982864 
3896.000000	97.982923 
3895.000000	97.982971 
3894.000000	97.983001 
3893.000000	97.983016 
3892.000000	97.983029 
3891.000000	97.983045 
3890.000000	97.983076 
3889.000000	97.983137 
3888.000000	97.983230 
3887.000000	97.983336 
3886.000000	97.983443 
3885.000000	97.983553 
3884.000000	97.983681 
3883.000000	97.983824 
3882.000000	97.983965 
3881.000000	97.984104 
3880.000000	97.984259 
3879.000000	97.984455 
3878.000000	97.984694 
3877.000000	97.984950 
3876.000000	97.985197 
3875.000000	97.985430 
3874.000000	97.985672 
3873.000000	97.985948 
3872.000000	97.986264 
3871.000000	97.986603 
3870.000000	97.986956 
3869.000000	97.987345 
3868.000000	97.987789 
3867.000000	97.988269 
3866.000000	97.988741 
3865.000000	97.989193 
3864.000000	97.989648 
3863.000000	97.990111 
3862.000000	97.990556 
3861.000000	97.990965 
3860.000000	97.991355 
3859.000000	97.991746 
3858.000000	97.992147 
3857.000000	97.992576 
3856.000000	97.993070 
3855.000000	97.993668 
3854.000000	97.994354 
3853.000000	97.995079 
3852.000000	97.995848 
3851.000000	97.996699 
3850.000000	97.997617 
3849.000000	97.998548 
3848.000000	97.999462 
3847.000000	98.000351 
3846.000000	98.001222 
3845.000000	98.002086 
3844.000000	98.002952 
3843.000000	98.003816 
3842.000000	98.004674 
3841.000000	98.005537 
3840.000000	98.006417 
3839.000000	98.007310 
3838.000000	98.008192 
3837.000000	98.009040 
3836.000000	98.009854 
3835.000000	98.010646 
3834.000000	98.011423 
3833.000000	98.012184 
3832.000000	98.012928 
3831.000000	98.013653 
3830.000000	98.014365 
3829.000000	98.015064 
3828.000000	98.015749 
3827.000000	98.016411 
3826.000000	98.017040 
3825.000000	98.017642 
3824.000000	98.018237 
3823.000000	98.018825 
3822.000000	98.019384 
3821.000000	98.019892 
3820.000000	98.020377 
3819.000000	98.020883 
3818.000000	98.021401 
3817.000000	98.021881 
3816.000000	98.022298 
3815.000000	98.022671 
3814.000000	98.023025 
3813.000000	98.023346 
3812.000000	98.023602 
3811.000000	98.023803 
3810.000000	98.023987 
3809.000000	98.024152 
3808.000000	98.024266 
3807.000000	98.024317 
3806.000000	98.024334 
3805.000000	98.024362 
3804.000000	98.024408 
3803.000000	98.024445 
3802.000000	98.024453 
3801.000000	98.024444 
3800.000000	98.024448 
3799.000000	98.024473 
3798.000000	98.024477 
3797.000000	98.024427 
3796.000000	98.024333 
3795.000000	98.024226 
3794.000000	98.024122 
3793.000000	98.024022 
3792.000000	98.023917 
3791.000000	98.023799 
3790.000000	98.023661 
3789.000000	98.023498 
3788.000000	98.023311 
3787.000000	98.023106 
3786.000000	98.022882 
3785.000000	98.022641 
3784.000000	98.022406 
3783.000000	98.022201 
3782.000000	98.022013 
3781.000000	98.021811 
3780.000000	98.021586 
3779.000000	98.021351 
3778.000000	98.021119 
3777.000000	98.020876 
3776.000000	98.020610 
3775.000000	98.020334 
3774.000000	98.020072 
3773.000000	98.019828 
3772.000000	98.019579 
3771.000000	98.019303 
3770.000000	98.019000 
3769.000000	98.018681 
3768.000000	98.018353 
3767.000000	98.018005 
3766.000000	98.017636 
3765.000000	98.017266 
3764.000000	98.016917 
3763.000000	98.016582 
3762.000000	98.016232 
3761.000000	98.015848 
3760.000000	98.015439 
3759.000000	98.015015 
3758.000000	98.014569 
3757.000000	98.014094 
3756.000000	98.013606 
3755.000000	98.013150 
3754.000000	98.012760 
3753.000000	98.012445 
3752.000000	98.012192 
3751.000000	98.011964 
3750.000000	98.011724 
3749.000000	98.011468 
3748.000000	98.011228 
3747.000000	98.011023 
3746.000000	98.010842 
3745.000000	98.010660 
3744.000000	98.010458 
3743.000000	98.010247 
3742.000000	98.010020 
3741.000000	98.009722 
3740.000000	98.009317 
3739.000000	98.008840 
3738.000000	98.008344 
3737.000000	98.007846 
3736.000000	98.007331 
3735.000000	98.006789 
3734.000000	98.006209 
3733.000000	98.005573 
3732.000000	98.004865 
3731.000000	98.004087 
3730.000000	98.003248 
3729.000000	98.002346 
3728.000000	98.001382 
3727.000000	98.000367 
3726.000000	97.999313 
3725.000000	97.998222 
3724.000000	97.997087 
3723.000000	97.995896 
3722.000000	97.994635 
3721.000000	97.993289 
3720.000000	97.991860 
3719.000000	97.990362 
3718.000000	97.988813 
3717.000000	97.987191 
3716.000000	97.985498 
3715.000000	97.983829 
3714.000000	97.982262 
3713.000000	97.980874 
3712.000000	97.979647 
3711.000000	97.978130 
3710.000000	97.975895 
3709.000000	97.973017 
3708.000000	97.969757 
3707.000000	97.966324 
3706.000000	97.962943 
3705.000000	97.959710 
3704.000000	97.956539 
3703.000000	97.953291 
3702.000000	97.949854 
3701.000000	97.946268 
3700.000000	97.942738 
3699.000000	97.939341 
3698.000000	97.935945 
3697.000000	97.932487 
3696.000000	97.928986 
3695.000000	97.925422 
3694.000000	97.921791 
3693.000000	97.918097 
3692.000000	97.914351 
3691.000000	97.910573 
3690.000000	97.906776 
3689.000000	97.902958 
3688.000000	97.899124 
3687.000000	97.895301 
3686.000000	97.891506 
3685.000000	97.887728 
3684.000000	97.883944 
3683.000000	97.880150 
3682.000000	97.876354 
3681.000000	97.872561 
3680.000000	97.868770 
3679.000000	97.865000 
3678.000000	97.861274 
3677.000000	97.857597 
3676.000000	97.853942 
3675.000000	97.850291 
3674.000000	97.846671 
3673.000000	97.843104 
3672.000000	97.839563 
3671.000000	97.836023 
3670.000000	97.832492 
3669.000000	97.829011 
3668.000000	97.825625 
3667.000000	97.822345 
3666.000000	97.819149 
3665.000000	97.816013 
3664.000000	97.812926 
3663.000000	97.809876 
3662.000000	97.806846 
3661.000000	97.803829 
3660.000000	97.800830 
3659.000000	97.797863 
3658.000000	97.794943 
3657.000000	97.792069 
3656.000000	97.789243 
3655.000000	97.786483 
3654.000000	97.783810 
3653.000000	97.781213 
3652.000000	97.778623 
3651.000000	97.776047 
3650.000000	97.773737 
3649.000000	97.771672 
3648.000000	97.769318 
3647.000000	97.766690 
3646.000000	97.764679 
3645.000000	97.763879 
3644.000000	97.763820 
3643.000000	97.763564 
3642.000000	97.762925 
3641.000000	97.762444 
3640.000000	97.762252 
3639.000000	97.761516 
3638.000000	97.759753 
3637.000000	97.758184 
3636.000000	97.757567 
3635.000000	97.755855 
3634.000000	97.750539 
3633.000000	97.742861 
3632.000000	97.736831 
3631.000000	97.734590 
3630.000000	97.735962 
3629.000000	97.735948 
3628.000000	97.731699 
3627.000000	97.731754 
3626.000000	97.737724 
3625.000000	97.739757 
3624.000000	97.735534 
3623.000000	97.730462 
3622.000000	97.727406 
3621.000000	97.724418 
3620.000000	97.719603 
3619.000000	97.713928 
3618.000000	97.710860 
3617.000000	97.713863 
3616.000000	97.721612 
3615.000000	97.729345 
3614.000000	97.734550 
3613.000000	97.738279 
3612.000000	97.742861 
3611.000000	97.748726 
3610.000000	97.753556 
3609.000000	97.755359 
3608.000000	97.754811 
3607.000000	97.754255 
3606.000000	97.755207 
3605.000000	97.757185 
3604.000000	97.759902 
3603.000000	97.764168 
3602.000000	97.768943 
3601.000000	97.770820 
3600.000000	97.768235 
3599.000000	97.763396 
3598.000000	97.759104 
3597.000000	97.757309 
3596.000000	97.758913 
3595.000000	97.762797 
3594.000000	97.766035 
3593.000000	97.766451 
3592.000000	97.763584 
3591.000000	97.757700 
3590.000000	97.750433 
3589.000000	97.745243 
3588.000000	97.744725 
3587.000000	97.748285 
3586.000000	97.754820 
3585.000000	97.762953 
3584.000000	97.769637 
3583.000000	97.773355 
3582.000000	97.775438 
3581.000000	97.777280 
3580.000000	97.778655 
3579.000000	97.778962 
3578.000000	97.778298 
3577.000000	97.777347 
3576.000000	97.776688 
3575.000000	97.776001 
3574.000000	97.774407 
3573.000000	97.771101 
3572.000000	97.765897 
3571.000000	97.759344 
3570.000000	97.752934 
3569.000000	97.748886 
3568.000000	97.748939 
3567.000000	97.752622 
3566.000000	97.758007 
3565.000000	97.763512 
3564.000000	97.767105 
3563.000000	97.767559 
3562.000000	97.766383 
3561.000000	97.766108 
3560.000000	97.767417 
3559.000000	97.768896 
3558.000000	97.768969 
3557.000000	97.767405 
3556.000000	97.765474 
3555.000000	97.764591 
3554.000000	97.764875 
3553.000000	97.765133 
3552.000000	97.764280 
3551.000000	97.762399 
3550.000000	97.760043 
3549.000000	97.757532 
3548.000000	97.755708 
3547.000000	97.755832 
3546.000000	97.757737 
3545.000000	97.759689 
3544.000000	97.760570 
3543.000000	97.760845 
3542.000000	97.761329 
3541.000000	97.762063 
3540.000000	97.762664 
3539.000000	97.762914 
3538.000000	97.762822 
3537.000000	97.762555 
3536.000000	97.762355 
3535.000000	97.762360 
3534.000000	97.762274 
3533.000000	97.761708 
3532.000000	97.760782 
3531.000000	97.760082 
3530.000000	97.759731 
3529.000000	97.759038 
3528.000000	97.757463 
3527.000000	97.755498 
3526.000000	97.754208 
3525.000000	97.754126 
3524.000000	97.755077 
3523.000000	97.756591 
3522.000000	97.758147 
3521.000000	97.759232 
3520.000000	97.759557 
3519.000000	97.759245 
3518.000000	97.758637 
3517.000000	97.757944 
3516.000000	97.757108 
3515.000000	97.756103 
3514.000000	97.755231 
3513.000000	97.754875 
3512.000000	97.754976 
3511.000000	97.755025 
3510.000000	97.754624 
3509.000000	97.753897 
3508.000000	97.753302 
3507.000000	97.753064 
3506.000000	97.752949 
3505.000000	97.752625 
3504.000000	97.752053 
3503.000000	97.751478 
3502.000000	97.751131 
3501.000000	97.751003 
3500.000000	97.750893 
3499.000000	97.750631 
3498.000000	97.750223 
3497.000000	97.749785 
3496.000000	97.749403 
3495.000000	97.749062 
3494.000000	97.748702 
3493.000000	97.748299 
3492.000000	97.747881 
3491.000000	97.747485 
3490.000000	97.747131 
3489.000000	97.746822 
3488.000000	97.746532 
3487.000000	97.746210 
3486.000000	97.745809 
3485.000000	97.745341 
3484.000000	97.744870 
3483.000000	97.744440 
3482.000000	97.744038 
3481.000000	97.743639 
3480.000000	97.743263 
3479.000000	97.742939 
3478.000000	97.742622 
3477.000000	97.742201 
3476.000000	97.741607 
3475.000000	97.740861 
3474.000000	97.740069 
3473.000000	97.739377 
3472.000000	97.738902 
3471.000000	97.738657 
3470.000000	97.738542 
3469.000000	97.738413 
3468.000000	97.738181 
3467.000000	97.737848 
3466.000000	97.737517 
3465.000000	97.737280 
3464.000000	97.737039 
3463.000000	97.736530 
3462.000000	97.735606 
3461.000000	97.734462 
3460.000000	97.733472 
3459.000000	97.732760 
3458.000000	97.732086 
3457.000000	97.731140 
3456.000000	97.729874 
3455.000000	97.728598 
3454.000000	97.727721 
3453.000000	97.727429 
3452.000000	97.727621 
3451.000000	97.728042 
3450.000000	97.728402 
3449.000000	97.728423 
3448.000000	97.727929 
3447.000000	97.726966 
3446.000000	97.725814 
3445.000000	97.724812 
3444.000000	97.724133 
3443.000000	97.723766 
3442.000000	97.723564 
3441.000000	97.723300 
3440.000000	97.722783 
3439.000000	97.721973 
3438.000000	97.720994 
3437.000000	97.720034 
3436.000000	97.719250 
3435.000000	97.718771 
3434.000000	97.718641 
3433.000000	97.718729 
3432.000000	97.718762 
3431.000000	97.718559 
3430.000000	97.718161 
3429.000000	97.717720 
3428.000000	97.717312 
3427.000000	97.716874 
3426.000000	97.716350 
3425.000000	97.715828 
3424.000000	97.715446 
3423.000000	97.715201 
3422.000000	97.714943 
3421.000000	97.714560 
3420.000000	97.714104 
3419.000000	97.713699 
3418.000000	97.713387 
3417.000000	97.713113 
3416.000000	97.712832 
3415.000000	97.712533 
3414.000000	97.712193 
3413.000000	97.711780 
3412.000000	97.711310 
3411.000000	97.710844 
3410.000000	97.710430 
3409.000000	97.710080 
3408.000000	97.709779 
3407.000000	97.709495 
3406.000000	97.709201 
3405.000000	97.708888 
3404.000000	97.708575 
3403.000000	97.708284 
3402.000000	97.708024 
3401.000000	97.707785 
3400.000000	97.707558 
3399.000000	97.707342 
3398.000000	97.707145 
3397.000000	97.706974 
3396.000000	97.706834 
3395.000000	97.706719 
3394.000000	97.706614 
3393.000000	97.706510 
3392.000000	97.706409 
3391.000000	97.706317 
3390.000000	97.706246 
3389.000000	97.706204 
3388.000000	97.706197 
3387.000000	97.706225 
3386.000000	97.706280 
3385.000000	97.706359 
3384.000000	97.706456 
3383.000000	97.706571 
3382.000000	97.706705 
3381.000000	97.706864 
3380.000000	97.707052 
3379.000000	97.707267 
3378.000000	97.707506 
3377.000000	97.707764 
3376.000000	97.708043 
3375.000000	97.708345 
3374.000000	97.708668 
3373.000000	97.709007 
3372.000000	97.709364 
3371.000000	97.709741 
3370.000000	97.710143 
3369.000000	97.710575 
3368.000000	97.711034 
3367.000000	97.711513 
3366.000000	97.711998 
3365.000000	97.712479 
3364.000000	97.712950 
3363.000000	97.713418 
3362.000000	97.713890 
3361.000000	97.714369 
3360.000000	97.714859 
3359.000000	97.715364 
3358.000000	97.715886 
3357.000000	97.716419 
3356.000000	97.716948 
3355.000000	97.717461 
3354.000000	97.717961 
3353.000000	97.718470 
3352.000000	97.719020 
3351.000000	97.719631 
3350.000000	97.720296 
3349.000000	97.720970 
3348.000000	97.721597 
3347.000000	97.722154 
3346.000000	97.722661 
3345.000000	97.723164 
3344.000000	97.723682 
3343.000000	97.724186 
3342.000000	97.724633 
3341.000000	97.725039 
3340.000000	97.725458 
3339.000000	97.725900 
3338.000000	97.726328 
3337.000000	97.726723 
3336.000000	97.727095 
3335.000000	97.727462 
3334.000000	97.727830 
3333.000000	97.728194 
3332.000000	97.728552 
3331.000000	97.728905 
3330.000000	97.729255 
3329.000000	97.729601 
3328.000000	97.729940 
3327.000000	97.730273 
3326.000000	97.730604 
3325.000000	97.730932 
3324.000000	97.731256 
3323.000000	97.731575 
3322.000000	97.731889 
3321.000000	97.732200 
3320.000000	97.732513 
3319.000000	97.732827 
3318.000000	97.733138 
3317.000000	97.733441 
3316.000000	97.733733 
3315.000000	97.734013 
3314.000000	97.734281 
3313.000000	97.734542 
3312.000000	97.734798 
3311.000000	97.735055 
3310.000000	97.735311 
3309.000000	97.735563 
3308.000000	97.735807 
3307.000000	97.736040 
3306.000000	97.736264 
3305.000000	97.736488 
3304.000000	97.736725 
3303.000000	97.736984 
3302.000000	97.737269 
3301.000000	97.737575 
3300.000000	97.737891 
3299.000000	97.738209 
3298.000000	97.738526 
3297.000000	97.738839 
3296.000000	97.739154 
3295.000000	97.739494 
3294.000000	97.739883 
3293.000000	97.740319 
3292.000000	97.740782 
3291.000000	97.741251 
3290.000000	97.741708 
3289.000000	97.742133 
3288.000000	97.742522 
3287.000000	97.742896 
3286.000000	97.743281 
3285.000000	97.743676 
3284.000000	97.744050 
3283.000000	97.744384 
3282.000000	97.744711 
3281.000000	97.745100 
3280.000000	97.745571 
3279.000000	97.746043 
3278.000000	97.746425 
3277.000000	97.746750 
3276.000000	97.747158 
3275.000000	97.747703 
3274.000000	97.748288 
3273.000000	97.748836 
3272.000000	97.749428 
3271.000000	97.750189 
3270.000000	97.751101 
3269.000000	97.751991 
3268.000000	97.752680 
3267.000000	97.753115 
3266.000000	97.753400 
3265.000000	97.753762 
3264.000000	97.754406 
3263.000000	97.755329 
3262.000000	97.756292 
3261.000000	97.757063 
3260.000000	97.757607 
3259.000000	97.757994 
3258.000000	97.758228 
3257.000000	97.758322 
3256.000000	97.758454 
3255.000000	97.758811 
3254.000000	97.759356 
3253.000000	97.759971 
3252.000000	97.760682 
3251.000000	97.761573 
3250.000000	97.762551 
3249.000000	97.763363 
3248.000000	97.763869 
3247.000000	97.764187 
3246.000000	97.764563 
3245.000000	97.765161 
3244.000000	97.765955 
3243.000000	97.766750 
3242.000000	97.767326 
3241.000000	97.767614 
3240.000000	97.767766 
3239.000000	97.768030 
3238.000000	97.768568 
3237.000000	97.769403 
3236.000000	97.770453 
3235.000000	97.771554 
3234.000000	97.772495 
3233.000000	97.773137 
3232.000000	97.773512 
3231.000000	97.773796 
3230.000000	97.774146 
3229.000000	97.774603 
3228.000000	97.775156 
3227.000000	97.775849 
3226.000000	97.776786 
3225.000000	97.778016 
3224.000000	97.779415 
3223.000000	97.780693 
3222.000000	97.781613 
3221.000000	97.782171 
3220.000000	97.782563 
3219.000000	97.782931 
3218.000000	97.783277 
3217.000000	97.783587 
3216.000000	97.783917 
3215.000000	97.784368 
3214.000000	97.785029 
3213.000000	97.785928 
3212.000000	97.786971 
3211.000000	97.787960 
3210.000000	97.788740 
3209.000000	97.789341 
3208.000000	97.789910 
3207.000000	97.790511 
3206.000000	97.791066 
3205.000000	97.791538 
3204.000000	97.792065 
3203.000000	97.792858 
3202.000000	97.793974 
3201.000000	97.795247 
3200.000000	97.796420 
3199.000000	97.797339 
3198.000000	97.798054 
3197.000000	97.798736 
3196.000000	97.799483 
3195.000000	97.800258 
3194.000000	97.801034 
3193.000000	97.801918 
3192.000000	97.803004 
3191.000000	97.804131 
3190.000000	97.804987 
3189.000000	97.805462 
3188.000000	97.805761 
3187.000000	97.806209 
3186.000000	97.806972 
3185.000000	97.808032 
3184.000000	97.809256 
3183.000000	97.810459 
3182.000000	97.811523 
3181.000000	97.812418 
3180.000000	97.813167 
3179.000000	97.813811 
3178.000000	97.814453 
3177.000000	97.815246 
3176.000000	97.816257 
3175.000000	97.817393 
3174.000000	97.818506 
3173.000000	97.819551 
3172.000000	97.820559 
3171.000000	97.821488 
3170.000000	97.822262 
3169.000000	97.822926 
3168.000000	97.823653 
3167.000000	97.824536 
3166.000000	97.825480 
3165.000000	97.826325 
3164.000000	97.827009 
3163.000000	97.827573 
3162.000000	97.828092 
3161.000000	97.828625 
3160.000000	97.829200 
3159.000000	97.829816 
3158.000000	97.830461 
3157.000000	97.831132 
3156.000000	97.831821 
3155.000000	97.832506 
3154.000000	97.833172 
3153.000000	97.833836 
3152.000000	97.834523 
3151.000000	97.835229 
3150.000000	97.835931 
3149.000000	97.836613 
3148.000000	97.837279 
3147.000000	97.837945 
3146.000000	97.838631 
3145.000000	97.839346 
3144.000000	97.840084 
3143.000000	97.840822 
3142.000000	97.841528 
3141.000000	97.842183 
3140.000000	97.842800 
3139.000000	97.843426 
3138.000000	97.844100 
3137.000000	97.844809 
3136.000000	97.845489 
3135.000000	97.846072 
3134.000000	97.846531 
3133.000000	97.846922 
3132.000000	97.847360 
3131.000000	97.847918 
3130.000000	97.848587 
3129.000000	97.849319 
3128.000000	97.850117 
3127.000000	97.851009 
3126.000000	97.851977 
3125.000000	97.852929 
3124.000000	97.853758 
3123.000000	97.854375 
3122.000000	97.854734 
3121.000000	97.854897 
3120.000000	97.855055 
3119.000000	97.855391 
3118.000000	97.855940 
3117.000000	97.856665 
3116.000000	97.857587 
3115.000000	97.858733 
3114.000000	97.859981 
3113.000000	97.861128 
3112.000000	97.862110 
3111.000000	97.863050 
3110.000000	97.864063 
3109.000000	97.865079 
3108.000000	97.865934 
3107.000000	97.866585 
3106.000000	97.867154 
3105.000000	97.867737 
3104.000000	97.868207 
3103.000000	97.868264 
3102.000000	97.867758 
3101.000000	97.866921 
3100.000000	97.866170 
3099.000000	97.865743 
3098.000000	97.865760 
3097.000000	97.866525 
3096.000000	97.868275 
3095.000000	97.870513 
3094.000000	97.872172 
3093.000000	97.872680 
3092.000000	97.872535 
3091.000000	97.872537 
3090.000000	97.872853 
3089.000000	97.873137 
3088.000000	97.873164 
3087.000000	97.873050 
3086.000000	97.873069 
3085.000000	97.873409 
3084.000000	97.873964 
3083.000000	97.874316 
3082.000000	97.874086 
3081.000000	97.873428 
3080.000000	97.873008 
3079.000000	97.873187 
3078.000000	97.873487 
3077.000000	97.873406 
3076.000000	97.873412 
3075.000000	97.874281 
3074.000000	97.875708 
3073.000000	97.876633 
3072.000000	97.876805 
3071.000000	97.876855 
3070.000000	97.876901 
3069.000000	97.876434 
3068.000000	97.875703 
3067.000000	97.875766 
3066.000000	97.876773 
3065.000000	97.877484 
3064.000000	97.876955 
3063.000000	97.875484 
3062.000000	97.873542 
3061.000000	97.871034 
3060.000000	97.868160 
3059.000000	97.865979 
3058.000000	97.865555 
3057.000000	97.867078 
3056.000000	97.869761 
3055.000000	97.871792 
3054.000000	97.870816 
3053.000000	97.866041 
3052.000000	97.860260 
3051.000000	97.858086 
3050.000000	97.861198 
3049.000000	97.866410 
3048.000000	97.869015 
3047.000000	97.867089 
3046.000000	97.861822 
3045.000000	97.855365 
3044.000000	97.849787 
3043.000000	97.847169 
3042.000000	97.848745 
3041.000000	97.853289 
3040.000000	97.857230 
3039.000000	97.857261 
3038.000000	97.852807 
3037.000000	97.845959 
3036.000000	97.839263 
3035.000000	97.833588 
3034.000000	97.828175 
3033.000000	97.822306 
3032.000000	97.816246 
3031.000000	97.810723 
3030.000000	97.806267 
3029.000000	97.803051 
3028.000000	97.800370 
3027.000000	97.796018 
3026.000000	97.787556 
3025.000000	97.775204 
3024.000000	97.762605 
3023.000000	97.753314 
3022.000000	97.747118 
3021.000000	97.741323 
3020.000000	97.734809 
3019.000000	97.728682 
3018.000000	97.723071 
3017.000000	97.715800 
3016.000000	97.705201 
3015.000000	97.692662 
3014.000000	97.681458 
3013.000000	97.673904 
3012.000000	97.669836 
3011.000000	97.666680 
3010.000000	97.660802 
3009.000000	97.650189 
3008.000000	97.636372 
3007.000000	97.622829 
3006.000000	97.611219 
3005.000000	97.600314 
3004.000000	97.588719 
3003.000000	97.577077 
3002.000000	97.566986 
3001.000000	97.559192 
3000.000000	97.553473 
2999.000000	97.548877 
2998.000000	97.543394 
2997.000000	97.534866 
2996.000000	97.523239 
2995.000000	97.510860 
2994.000000	97.499458 
2993.000000	97.487770 
2992.000000	97.473370 
2991.000000	97.456241 
2990.000000	97.439398 
2989.000000	97.426287 
2988.000000	97.418520 
2987.000000	97.415875 
2986.000000	97.417419 
2985.000000	97.422246 
2984.000000	97.429349 
2983.000000	97.437172 
2982.000000	97.443814 
2981.000000	97.448031 
2980.000000	97.449745 
2979.000000	97.449097 
2978.000000	97.445577 
2977.000000	97.439121 
2976.000000	97.431842 
2975.000000	97.427267 
2974.000000	97.427418 
2973.000000	97.431527 
2972.000000	97.437646 
2971.000000	97.444376 
2970.000000	97.450735 
2969.000000	97.455924 
2968.000000	97.460291 
2967.000000	97.465499 
2966.000000	97.472584 
2965.000000	97.480442 
2964.000000	97.487145 
2963.000000	97.492212 
2962.000000	97.496666 
2961.000000	97.501372 
2960.000000	97.506517 
2959.000000	97.512567 
2958.000000	97.520508 
2957.000000	97.530468 
2956.000000	97.540551 
2955.000000	97.547717 
2954.000000	97.550360 
2953.000000	97.550248 
2952.000000	97.551592 
2951.000000	97.557344 
2950.000000	97.566025 
2949.000000	97.572830 
2948.000000	97.574223 
2947.000000	97.570952 
2946.000000	97.566671 
2945.000000	97.564406 
2944.000000	97.564832 
2943.000000	97.567032 
2942.000000	97.569440 
2941.000000	97.570217 
2940.000000	97.568231 
2939.000000	97.564456 
2938.000000	97.561603 
2937.000000	97.561528 
2936.000000	97.563219 
2935.000000	97.563781 
2934.000000	97.561223 
2933.000000	97.555935 
2932.000000	97.549865 
2931.000000	97.544914 
2930.000000	97.542105 
2929.000000	97.541608 
2928.000000	97.542800 
2927.000000	97.544352 
2926.000000	97.544899 
2925.000000	97.544210 
2924.000000	97.543603 
2923.000000	97.544770 
2922.000000	97.547949 
2921.000000	97.551432 
2920.000000	97.553178 
2919.000000	97.552882 
2918.000000	97.552075 
2917.000000	97.551995 
2916.000000	97.551804 
2915.000000	97.549639 
2914.000000	97.545419 
2913.000000	97.541684 
2912.000000	97.540934 
2911.000000	97.542713 
2910.000000	97.544243 
2909.000000	97.543927 
2908.000000	97.543134 
2907.000000	97.543950 
2906.000000	97.546070 
2905.000000	97.546679 
2904.000000	97.543337 
2903.000000	97.536806 
2902.000000	97.531081 
2901.000000	97.530606 
2900.000000	97.536980 
2899.000000	97.548014 
2898.000000	97.559460 
2897.000000	97.568209 
2896.000000	97.573797 
2895.000000	97.577088 
2894.000000	97.578983 
2893.000000	97.580690 
2892.000000	97.583837 
2891.000000	97.588894 
2890.000000	97.594133 
2889.000000	97.597550 
2888.000000	97.599502 
2887.000000	97.601988 
2886.000000	97.605532 
2885.000000	97.608569 
2884.000000	97.610426 
2883.000000	97.613089 
2882.000000	97.618724 
2881.000000	97.626688 
2880.000000	97.634510 
2879.000000	97.641238 
2878.000000	97.648038 
2877.000000	97.655555 
2876.000000	97.662428 
2875.000000	97.667156 
2874.000000	97.670237 
2873.000000	97.673441 
2872.000000	97.677586 
2871.000000	97.681965 
2870.000000	97.685735 
2869.000000	97.688942 
2868.000000	97.692132 
2867.000000	97.695669 
2866.000000	97.699695 
2865.000000	97.704250 
2864.000000	97.709235 
2863.000000	97.714697 
2862.000000	97.721213 
2861.000000	97.729314 
2860.000000	97.738210 
2859.000000	97.745934 
2858.000000	97.751489 
2857.000000	97.756380 
2856.000000	97.763116 
2855.000000	97.772282 
2854.000000	97.781835 
2853.000000	97.789298 
2852.000000	97.793828 
2851.000000	97.796174 
2850.000000	97.797832 
2849.000000	97.800582 
2848.000000	97.805772 
2847.000000	97.813109 
2846.000000	97.820519 
2845.000000	97.825990 
2844.000000	97.829438 
2843.000000	97.832377 
2842.000000	97.836124 
2841.000000	97.840722 
2840.000000	97.845315 
2839.000000	97.849060 
2838.000000	97.851803 
2837.000000	97.854202 
2836.000000	97.857105 
2835.000000	97.860693 
2834.000000	97.864600 
2833.000000	97.868965 
2832.000000	97.874520 
2831.000000	97.881069 
2830.000000	97.886624 
2829.000000	97.889137 
2828.000000	97.888843 
2827.000000	97.888194 
2826.000000	97.889500 
2825.000000	97.893126 
2824.000000	97.897846 
2823.000000	97.902043 
2822.000000	97.904516 
2821.000000	97.904920 
2820.000000	97.903885 
2819.000000	97.902456 
2818.000000	97.901303 
2817.000000	97.900717 
2816.000000	97.901119 
2815.000000	97.902875 
2814.000000	97.905483 
2813.000000	97.907525 
2812.000000	97.907875 
2811.000000	97.906742 
2810.000000	97.905407 
2809.000000	97.905127 
2808.000000	97.906362 
2807.000000	97.908833 
2806.000000	97.911953 
2805.000000	97.915113 
2804.000000	97.917668 
2803.000000	97.919001 
2802.000000	97.919014 
2801.000000	97.918595 
2800.000000	97.919090 
2799.000000	97.920981 
2798.000000	97.923349 
2797.000000	97.924889 
2796.000000	97.925260 
2795.000000	97.925136 
2794.000000	97.925288 
2793.000000	97.925964 
2792.000000	97.927025 
2791.000000	97.928206 
2790.000000	97.929178 
2789.000000	97.929732 
2788.000000	97.930008 
2787.000000	97.930374 
2786.000000	97.931073 
2785.000000	97.932048 
2784.000000	97.933098 
2783.000000	97.934075 
2782.000000	97.934943 
2781.000000	97.935750 
2780.000000	97.936545 
2779.000000	97.937342 
2778.000000	97.938139 
2777.000000	97.938933 
2776.000000	97.939718 
2775.000000	97.940493 
2774.000000	97.941256 
2773.000000	97.942006 
2772.000000	97.942729 
2771.000000	97.943408 
2770.000000	97.944054 
2769.000000	97.944723 
2768.000000	97.945483 
2767.000000	97.946343 
2766.000000	97.947217 
2765.000000	97.947986 
2764.000000	97.948603 
2763.000000	97.949099 
2762.000000	97.949522 
2761.000000	97.949905 
2760.000000	97.950313 
2759.000000	97.950854 
2758.000000	97.951581 
2757.000000	97.952393 
2756.000000	97.953073 
2755.000000	97.953510 
2754.000000	97.953849 
2753.000000	97.954382 
2752.000000	97.955222 
2751.000000	97.956166 
2750.000000	97.956945 
2749.000000	97.957573 
2748.000000	97.958237 
2747.000000	97.958866 
2746.000000	97.959108 
2745.000000	97.958841 
2744.000000	97.958442 
2743.000000	97.958404 
2742.000000	97.958822 
2741.000000	97.959418 
2740.000000	97.959918 
2739.000000	97.960270 
2738.000000	97.960498 
2737.000000	97.960617 
2736.000000	97.960747 
2735.000000	97.961100 
2734.000000	97.961753 
2733.000000	97.962547 
2732.000000	97.963262 
2731.000000	97.963840 
2730.000000	97.964391 
2729.000000	97.965027 
2728.000000	97.965723 
2727.000000	97.966327 
2726.000000	97.966718 
2725.000000	97.966945 
2724.000000	97.967203 
2723.000000	97.967616 
2722.000000	97.968113 
2721.000000	97.968550 
2720.000000	97.968906 
2719.000000	97.969296 
2718.000000	97.969808 
2717.000000	97.970396 
2716.000000	97.970944 
2715.000000	97.971395 
2714.000000	97.971787 
2713.000000	97.972167 
2712.000000	97.972531 
2711.000000	97.972853 
2710.000000	97.973136 
2709.000000	97.973416 
2708.000000	97.973729 
2707.000000	97.974085 
2706.000000	97.974482 
2705.000000	97.974913 
2704.000000	97.975358 
2703.000000	97.975780 
2702.000000	97.976153 
2701.000000	97.976495 
2700.000000	97.976869 
2699.000000	97.977315 
2698.000000	97.977821 
2697.000000	97.978319 
2696.000000	97.978723 
2695.000000	97.979009 
2694.000000	97.979220 
2693.000000	97.979422 
2692.000000	97.979632 
2691.000000	97.979835 
2690.000000	97.980011 
2689.000000	97.980156 
2688.000000	97.980275 
2687.000000	97.980384 
2686.000000	97.980505 
2685.000000	97.980656 
2684.000000	97.980830 
2683.000000	97.981001 
2682.000000	97.981140 
2681.000000	97.981243 
2680.000000	97.981321 
2679.000000	97.981393 
2678.000000	97.981462 
2677.000000	97.981523 
2676.000000	97.981561 
2675.000000	97.981565 
2674.000000	97.981530 
2673.000000	97.981465 
2672.000000	97.981389 
2671.000000	97.981309 
2670.000000	97.981216 
2669.000000	97.981108 
2668.000000	97.980986 
2667.000000	97.980854 
2666.000000	97.980711 
2665.000000	97.980558 
2664.000000	97.980398 
2663.000000	97.980237 
2662.000000	97.980076 
2661.000000	97.979914 
2660.000000	97.979742 
2659.000000	97.979548 
2658.000000	97.979329 
2657.000000	97.979085 
2656.000000	97.978823 
2655.000000	97.978553 
2654.000000	97.978280 
2653.000000	97.978007 
2652.000000	97.977740 
2651.000000	97.977482 
2650.000000	97.977239 
2649.000000	97.977014 
2648.000000	97.976807 
2647.000000	97.976606 
2646.000000	97.976392 
2645.000000	97.976144 
2644.000000	97.975849 
2643.000000	97.975516 
2642.000000	97.975191 
2641.000000	97.974923 
2640.000000	97.974730 
2639.000000	97.974587 
2638.000000	97.974461 
2637.000000	97.974335 
2636.000000	97.974197 
2635.000000	97.974041 
2634.000000	97.973887 
2633.000000	97.973765 
2632.000000	97.973663 
2631.000000	97.973521 
2630.000000	97.973317 
2629.000000	97.973125 
2628.000000	97.973037 
2627.000000	97.973036 
2626.000000	97.973032 
2625.000000	97.973011 
2624.000000	97.973078 
2623.000000	97.973295 
2622.000000	97.973535 
2621.000000	97.973578 
2620.000000	97.973312 
2619.000000	97.972776 
2618.000000	97.972113 
2617.000000	97.971540 
2616.000000	97.971281 
2615.000000	97.971414 
2614.000000	97.971803 
2613.000000	97.972198 
2612.000000	97.972455 
2611.000000	97.972587 
2610.000000	97.972651 
2609.000000	97.972688 
2608.000000	97.972715 
2607.000000	97.972716 
2606.000000	97.972681 
2605.000000	97.972638 
2604.000000	97.972613 
2603.000000	97.972577 
2602.000000	97.972484 
2601.000000	97.972381 
2600.000000	97.972354 
2599.000000	97.972398 
2598.000000	97.972405 
2597.000000	97.972319 
2596.000000	97.972179 
2595.000000	97.972030 
2594.000000	97.971849 
2593.000000	97.971625 
2592.000000	97.971477 
2591.000000	97.971529 
2590.000000	97.971728 
2589.000000	97.971862 
2588.000000	97.971821 
2587.000000	97.971720 
2586.000000	97.971722 
2585.000000	97.971868 
2584.000000	97.972103 
2583.000000	97.972353 
2582.000000	97.972511 
2581.000000	97.972471 
2580.000000	97.972238 
2579.000000	97.971991 
2578.000000	97.971931 
2577.000000	97.972105 
2576.000000	97.972396 
2575.000000	97.972633 
2574.000000	97.972718 
2573.000000	97.972645 
2572.000000	97.972467 
2571.000000	97.972213 
2570.000000	97.971880 
2569.000000	97.971550 
2568.000000	97.971446 
2567.000000	97.971726 
2566.000000	97.972215 
2565.000000	97.972480 
2564.000000	97.972269 
2563.000000	97.971744 
2562.000000	97.971294 
2561.000000	97.971212 
2560.000000	97.971638 
2559.000000	97.972618 
2558.000000	97.973975 
2557.000000	97.975216 
2556.000000	97.975882 
2555.000000	97.975953 
2554.000000	97.975757 
2553.000000	97.975482 
2552.000000	97.975013 
2551.000000	97.974388 
2550.000000	97.974039 
2549.000000	97.974274 
2548.000000	97.974720 
2547.000000	97.974637 
2546.000000	97.973832 
2545.000000	97.972939 
2544.000000	97.972604 
2543.000000	97.972676 
2542.000000	97.972545 
2541.000000	97.972144 
2540.000000	97.972106 
2539.000000	97.972831 
2538.000000	97.973831 
2537.000000	97.974329 
2536.000000	97.974270 
2535.000000	97.974232 
2534.000000	97.974453 
2533.000000	97.974418 
2532.000000	97.973603 
2531.000000	97.972240 
2530.000000	97.971115 
2529.000000	97.970725 
2528.000000	97.970893 
2527.000000	97.971140 
2526.000000	97.971297 
2525.000000	97.971638 
2524.000000	97.972437 
2523.000000	97.973510 
2522.000000	97.974264 
2521.000000	97.974209 
2520.000000	97.973361 
2519.000000	97.972179 
2518.000000	97.971202 
2517.000000	97.970688 
2516.000000	97.970421 
2515.000000	97.969926 
2514.000000	97.969091 
2513.000000	97.968477 
2512.000000	97.968735 
2511.000000	97.969871 
2510.000000	97.971354 
2509.000000	97.972762 
2508.000000	97.973966 
2507.000000	97.974766 
2506.000000	97.975035 
2505.000000	97.975307 
2504.000000	97.976514 
2503.000000	97.978732 
2502.000000	97.980723 
2501.000000	97.981257 
2500.000000	97.980442 
2499.000000	97.979329 
2498.000000	97.978578 
2497.000000	97.978124 
2496.000000	97.977982 
2495.000000	97.978494 
2494.000000	97.979638 
2493.000000	97.980702 
2492.000000	97.981035 
2491.000000	97.980819 
2490.000000	97.980794 
2489.000000	97.981333 
2488.000000	97.982047 
2487.000000	97.982326 
2486.000000	97.982047 
2485.000000	97.981615 
2484.000000	97.981464 
2483.000000	97.981640 
2482.000000	97.981902 
2481.000000	97.982087 
2480.000000	97.982263 
2479.000000	97.982560 
2478.000000	97.982996 
2477.000000	97.983468 
2476.000000	97.983775 
2475.000000	97.983643 
2474.000000	97.982893 
2473.000000	97.981684 
2472.000000	97.980490 
2471.000000	97.979738 
2470.000000	97.979554 
2469.000000	97.979877 
2468.000000	97.980558 
2467.000000	97.981286 
2466.000000	97.981615 
2465.000000	97.981318 
2464.000000	97.980685 
2463.000000	97.980364 
2462.000000	97.980832 
2461.000000	97.982089 
2460.000000	97.983692 
2459.000000	97.984998 
2458.000000	97.985475 
2457.000000	97.984951 
2456.000000	97.983694 
2455.000000	97.982276 
2454.000000	97.981277 
2453.000000	97.980953 
2452.000000	97.981087 
2451.000000	97.981192 
2450.000000	97.981131 
2449.000000	97.981366 
2448.000000	97.982305 
2447.000000	97.983541 
2446.000000	97.984150 
2445.000000	97.983774 
2444.000000	97.982948 
2443.000000	97.982349 
2442.000000	97.982178 
2441.000000	97.982396 
2440.000000	97.983037 
2439.000000	97.984038 
2438.000000	97.985255 
2437.000000	97.986869 
2436.000000	97.989195 
2435.000000	97.991827 
2434.000000	97.993603 
2433.000000	97.993877 
2432.000000	97.993366 
2431.000000	97.993312 
2430.000000	97.994214 
2429.000000	97.995768 
2428.000000	97.997404 
2427.000000	97.998389 
2426.000000	97.997891 
2425.000000	97.995615 
2424.000000	97.992431 
2423.000000	97.989747 
2422.000000	97.988356 
2421.000000	97.988654 
2420.000000	97.991113 
2419.000000	97.995378 
2418.000000	97.999773 
2417.000000	98.002841 
2416.000000	98.004728 
2415.000000	98.006120 
2414.000000	98.007022 
2413.000000	98.007728 
2412.000000	98.009377 
2411.000000	98.011985 
2410.000000	98.013347 
2409.000000	98.011835 
2408.000000	98.009068 
2407.000000	98.007894 
2406.000000	98.008671 
2405.000000	98.009356 
2404.000000	98.008593 
2403.000000	98.006826 
2402.000000	98.005009 
2401.000000	98.004079 
2400.000000	98.005251 
2399.000000	98.009051 
2398.000000	98.014292 
2397.000000	98.019313 
2396.000000	98.023600 
2395.000000	98.026942 
2394.000000	98.028044 
2393.000000	98.026143 
2392.000000	98.023286 
2391.000000	98.022925 
2390.000000	98.026126 
2389.000000	98.030956 
2388.000000	98.035505 
2387.000000	98.039714 
2386.000000	98.044056 
2385.000000	98.048142 
2384.000000	98.051194 
2383.000000	98.052391 
2382.000000	98.050314 
2381.000000	98.043638 
2380.000000	98.033019 
2379.000000	98.021178 
2378.000000	98.010346 
2377.000000	98.000971 
2376.000000	97.993868 
2375.000000	97.991640 
2374.000000	97.995840 
2373.000000	98.003907 
2372.000000	98.011120 
2371.000000	98.015585 
2370.000000	98.018696 
2369.000000	98.021006 
2368.000000	98.020726 
2367.000000	98.016804 
2366.000000	98.010989 
2365.000000	98.006068 
2364.000000	98.003478 
2363.000000	98.003201 
2362.000000	98.004845 
2361.000000	98.007799 
2360.000000	98.011047 
2359.000000	98.013679 
2358.000000	98.014601 
2357.000000	98.013177 
2356.000000	98.010004 
2355.000000	98.006560 
2354.000000	98.003319 
2353.000000	98.000782 
2352.000000	98.000572 
2351.000000	98.003134 
2350.000000	98.006392 
2349.000000	98.007816 
2348.000000	98.007058 
2347.000000	98.005591 
2346.000000	98.005248 
2345.000000	98.006811 
2344.000000	98.009576 
2343.000000	98.012166 
2342.000000	98.013601 
2341.000000	98.014039 
2340.000000	98.014289 
2339.000000	98.014809 
2338.000000	98.015162 
2337.000000	98.014757 
2336.000000	98.014347 
2335.000000	98.014965 
2334.000000	98.016180 
2333.000000	98.016414 
2332.000000	98.016411 
2331.000000	98.018135 
2330.000000	98.022177 
2329.000000	98.026726 
2328.000000	98.031343 
2327.000000	98.036349 
2326.000000	98.040864 
2325.000000	98.043133 
2324.000000	98.043946 
2323.000000	98.045641 
2322.000000	98.047829 
2321.000000	98.047143 
2320.000000	98.043407 
2319.000000	98.040104 
2318.000000	98.040064 
2317.000000	98.040904 
2316.000000	98.040117 
2315.000000	98.037671 
2314.000000	98.036143 
2313.000000	98.036305 
2312.000000	98.039269 
2311.000000	98.045827 
2310.000000	98.054980 
2309.000000	98.062019 
2308.000000	98.064180 
2307.000000	98.063201 
2306.000000	98.062681 
2305.000000	98.063120 
2304.000000	98.063759 
2303.000000	98.064669 
2302.000000	98.067233 
2301.000000	98.070395 
2300.000000	98.071515 
2299.000000	98.067900 
2298.000000	98.059589 
2297.000000	98.047584 
2296.000000	98.034418 
2295.000000	98.022714 
2294.000000	98.014028 
2293.000000	98.007510 
2292.000000	98.002086 
2291.000000	97.997964 
2290.000000	97.995795 
2289.000000	97.995150 
2288.000000	97.994556 
2287.000000	97.992655 
2286.000000	97.988583 
2285.000000	97.982895 
2284.000000	97.977780 
2283.000000	97.975513 
2282.000000	97.975531 
2281.000000	97.974701 
2280.000000	97.970671 
2279.000000	97.964091 
2278.000000	97.957210 
2277.000000	97.951762 
2276.000000	97.948515 
2275.000000	97.947018 
2274.000000	97.945828 
2273.000000	97.944511 
2272.000000	97.945122 
2271.000000	97.949198 
2270.000000	97.954113 
2269.000000	97.955256 
2268.000000	97.951990 
2267.000000	97.948107 
2266.000000	97.946422 
2265.000000	97.945890 
2264.000000	97.944459 
2263.000000	97.941575 
2262.000000	97.937200 
2261.000000	97.931330 
2260.000000	97.925283 
2259.000000	97.921234 
2258.000000	97.919587 
2257.000000	97.918704 
2256.000000	97.917476 
2255.000000	97.916557 
2254.000000	97.916418 
2253.000000	97.915834 
2252.000000	97.913565 
2251.000000	97.910024 
2250.000000	97.906181 
2249.000000	97.902066 
2248.000000	97.897636 
2247.000000	97.893820 
2246.000000	97.891432 
2245.000000	97.889814 
2244.000000	97.887633 
2243.000000	97.884560 
2242.000000	97.881324 
2241.000000	97.878617 
2240.000000	97.876543 
2239.000000	97.874891 
2238.000000	97.873319 
2237.000000	97.871485 
2236.000000	97.869310 
2235.000000	97.866967 
2234.000000	97.864613 
2233.000000	97.862263 
2232.000000	97.859894 
2231.000000	97.857503 
2230.000000	97.855079 
2229.000000	97.852614 
2228.000000	97.850123 
2227.000000	97.847620 
2226.000000	97.845105 
2225.000000	97.842568 
2224.000000	97.839999 
2223.000000	97.837405 
2222.000000	97.834812 
2221.000000	97.832245 
2220.000000	97.829713 
2219.000000	97.827208 
2218.000000	97.824714 
2217.000000	97.822223 
2216.000000	97.819736 
2215.000000	97.817260 
2214.000000	97.814798 
2213.000000	97.812354 
2212.000000	97.809938 
2211.000000	97.807568 
2210.000000	97.805256 
2209.000000	97.802998 
2208.000000	97.800770 
2207.000000	97.798550 
2206.000000	97.796323 
2205.000000	97.794080 
2204.000000	97.791806 
2203.000000	97.789489 
2202.000000	97.787122 
2201.000000	97.784867 
2200.000000	97.782786 
2199.000000	97.780439 
2198.000000	97.777492 
2197.000000	97.774172 
2196.000000	97.771028 
2195.000000	97.768443 
2194.000000	97.766379 
2193.000000	97.764596 
2192.000000	97.763050 
2191.000000	97.761739 
2190.000000	97.760238 
2189.000000	97.758077 
2188.000000	97.755660 
2187.000000	97.753702 
2186.000000	97.751370 
2185.000000	97.746546 
2184.000000	97.739274 
2183.000000	97.733650 
2182.000000	97.733876 
2181.000000	97.739445 
2180.000000	97.745185 
2179.000000	97.746652 
2178.000000	97.743728 
2177.000000	97.739051 
2176.000000	97.735205 
2175.000000	97.733424 
2174.000000	97.733636 
2173.000000	97.735017 
2172.000000	97.737254 
2171.000000	97.740909 
2170.000000	97.745418 
2169.000000	97.747713 
2168.000000	97.745001 
2167.000000	97.738540 
2166.000000	97.732353 
2165.000000	97.727754 
2164.000000	97.721634 
2163.000000	97.711554 
2162.000000	97.700954 
2161.000000	97.697247 
2160.000000	97.704947 
2159.000000	97.721539 
2158.000000	97.739392 
2157.000000	97.752273 
2156.000000	97.759795 
2155.000000	97.765304 
2154.000000	97.771512 
2153.000000	97.779010 
2152.000000	97.787006 
2151.000000	97.793299 
2150.000000	97.794697 
2149.000000	97.790613 
2148.000000	97.786154 
2147.000000	97.788052 
2146.000000	97.796969 
2145.000000	97.807144 
2144.000000	97.814597 
2143.000000	97.821818 
2142.000000	97.831971 
2141.000000	97.842555 
2140.000000	97.848704 
2139.000000	97.850658 
2138.000000	97.853923 
2137.000000	97.862268 
2136.000000	97.873289 
2135.000000	97.880876 
2134.000000	97.880711 
2133.000000	97.873999 
2132.000000	97.867364 
2131.000000	97.867678 
2130.000000	97.875944 
2129.000000	97.887013 
2128.000000	97.895429 
2127.000000	97.900378 
2126.000000	97.904128 
2125.000000	97.907759 
2124.000000	97.910173 
2123.000000	97.910112 
2122.000000	97.907489 
2121.000000	97.903311 
2120.000000	97.899299 
2119.000000	97.896959 
2118.000000	97.896372 
2117.000000	97.896378 
2116.000000	97.895957 
2115.000000	97.894539 
2114.000000	97.891312 
2113.000000	97.886065 
2112.000000	97.881026 
2111.000000	97.879715 
2110.000000	97.882995 
2109.000000	97.887837 
2108.000000	97.890872 
2107.000000	97.891632 
2106.000000	97.891313 
2105.000000	97.890626 
2104.000000	97.890235 
2103.000000	97.891083 
2102.000000	97.892350 
2101.000000	97.891001 
2100.000000	97.885604 
2099.000000	97.879338 
2098.000000	97.877144 
2097.000000	97.880423 
2096.000000	97.886306 
2095.000000	97.891025 
2094.000000	97.892741 
2093.000000	97.891461 
2092.000000	97.888182 
2091.000000	97.884669 
2090.000000	97.882620 
2089.000000	97.882299 
2088.000000	97.882398 
2087.000000	97.881245 
2086.000000	97.877971 
2085.000000	97.872872 
2084.000000	97.867296 
2083.000000	97.862724 
2082.000000	97.859527 
2081.000000	97.856990 
2080.000000	97.854716 
2079.000000	97.853238 
2078.000000	97.852674 
2077.000000	97.851713 
2076.000000	97.849071 
2075.000000	97.845283 
2074.000000	97.841700 
2073.000000	97.838279 
2072.000000	97.833804 
2071.000000	97.827965 
2070.000000	97.821809 
2069.000000	97.816449 
2068.000000	97.812446 
2067.000000	97.809997 
2066.000000	97.808614 
2065.000000	97.806668 
2064.000000	97.802554 
2063.000000	97.796538 
2062.000000	97.790588 
2061.000000	97.786412 
2060.000000	97.784144 
2059.000000	97.782966 
2058.000000	97.781941 
2057.000000	97.780057 
2056.000000	97.776405 
2055.000000	97.770717 
2054.000000	97.763861 
2053.000000	97.757452 
2052.000000	97.752695 
2051.000000	97.749342 
2050.000000	97.745887 
2049.000000	97.741126 
2048.000000	97.735634 
2047.000000	97.731115 
2046.000000	97.728271 
2045.000000	97.726172 
2044.000000	97.723787 
2043.000000	97.721202 
2042.000000	97.718943 
2041.000000	97.717079 
2040.000000	97.715601 
2039.000000	97.714923 
2038.000000	97.715052 
2037.000000	97.714781 
2036.000000	97.712781 
2035.000000	97.709193 
2034.000000	97.705579 
2033.000000	97.703473 
2032.000000	97.703210 
2031.000000	97.703821 
2030.000000	97.703561 
2029.000000	97.701208 
2028.000000	97.697330 
2027.000000	97.693961 
2026.000000	97.692318 
2025.000000	97.691710 
2024.000000	97.691193 
2023.000000	97.691435 
2022.000000	97.693759 
2021.000000	97.697936 
2020.000000	97.701802 
2019.000000	97.703102 
2018.000000	97.700992 
2017.000000	97.696302 
2016.000000	97.691406 
2015.000000	97.688663 
2014.000000	97.688133 
2013.000000	97.687303 
2012.000000	97.684227 
2011.000000	97.680709 
2010.000000	97.680405 
2009.000000	97.684225 
2008.000000	97.689473 
2007.000000	97.693403 
2006.000000	97.695835 
2005.000000	97.697516 
2004.000000	97.698399 
2003.000000	97.698711 
2002.000000	97.699966 
2001.000000	97.702951 
2000.000000	97.705771 
1999.000000	97.705203 
1998.000000	97.699834 
1997.000000	97.691533 
1996.000000	97.684139 
1995.000000	97.680629 
1994.000000	97.681394 
1993.000000	97.684456 
1992.000000	97.687073 
1991.000000	97.688123 
1990.000000	97.688614 
1989.000000	97.689952 
1988.000000	97.692145 
1987.000000	97.693549 
1986.000000	97.692284 
1985.000000	97.688055 
1984.000000	97.682683 
1983.000000	97.678600 
1982.000000	97.676818 
1981.000000	97.676694 
1980.000000	97.677705 
1979.000000	97.680090 
1978.000000	97.683424 
1977.000000	97.686173 
1976.000000	97.687583 
1975.000000	97.688961 
1974.000000	97.691973 
1973.000000	97.696674 
1972.000000	97.701780 
1971.000000	97.706079 
1970.000000	97.708836 
1969.000000	97.709499 
1968.000000	97.708078 
1967.000000	97.705827 
1966.000000	97.704913 
1965.000000	97.706807 
1964.000000	97.711464 
1963.000000	97.717800 
1962.000000	97.724473 
1961.000000	97.730236 
1960.000000	97.734104 
1959.000000	97.735736 
1958.000000	97.735889 
1957.000000	97.736302 
1956.000000	97.738408 
1955.000000	97.742169 
1954.000000	97.746299 
1953.000000	97.749694 
1952.000000	97.752400 
1951.000000	97.755100 
1950.000000	97.758196 
1949.000000	97.761766 
1948.000000	97.765989 
1947.000000	97.770863 
1946.000000	97.775671 
1945.000000	97.779461 
1944.000000	97.782076 
1943.000000	97.784253 
1942.000000	97.786773 
1941.000000	97.789778 
1940.000000	97.793065 
1939.000000	97.796428 
1938.000000	97.799695 
1937.000000	97.802805 
1936.000000	97.805936 
1935.000000	97.809252 
1934.000000	97.812519 
1933.000000	97.815398 
1932.000000	97.818137 
1931.000000	97.821556 
1930.000000	97.825963 
1929.000000	97.830452 
1928.000000	97.834239 
1927.000000	97.837542 
1926.000000	97.840767 
1925.000000	97.843436 
1924.000000	97.845147 
1923.000000	97.846929 
1922.000000	97.849654 
1921.000000	97.852395 
1920.000000	97.854107 
1919.000000	97.855585 
1918.000000	97.857736 
1917.000000	97.859214 
1916.000000	97.858939 
1915.000000	97.858608 
1914.000000	97.860127 
1913.000000	97.862926 
1912.000000	97.865100 
1911.000000	97.866624 
1910.000000	97.868633 
1909.000000	97.870903 
1908.000000	97.872849 
1907.000000	97.874569 
1906.000000	97.876087 
1905.000000	97.876190 
1904.000000	97.874204 
1903.000000	97.872111 
1902.000000	97.872002 
1901.000000	97.873431 
1900.000000	97.874933 
1899.000000	97.876072 
1898.000000	97.877151 
1897.000000	97.877992 
1896.000000	97.878274 
1895.000000	97.878466 
1894.000000	97.879018 
1893.000000	97.879601 
1892.000000	97.879914 
1891.000000	97.880401 
1890.000000	97.881471 
1889.000000	97.882799 
1888.000000	97.883961 
1887.000000	97.884975 
1886.000000	97.885923 
1885.000000	97.886731 
1884.000000	97.887427 
1883.000000	97.888150 
1882.000000	97.888969 
1881.000000	97.889863 
1880.000000	97.890809 
1879.000000	97.891806 
1878.000000	97.892849 
1877.000000	97.893930 
1876.000000	97.895047 
1875.000000	97.896210 
1874.000000	97.897422 
1873.000000	97.898667 
1872.000000	97.899921 
1871.000000	97.901164 
1870.000000	97.902392 
1869.000000	97.903615 
1868.000000	97.904848 
1867.000000	97.906113 
1866.000000	97.907423 
1865.000000	97.908772 
1864.000000	97.910154 
1863.000000	97.911577 
1862.000000	97.913051 
1861.000000	97.914576 
1860.000000	97.916136 
1859.000000	97.917722 
1858.000000	97.919334 
1857.000000	97.920969 
1856.000000	97.922621 
1855.000000	97.924288 
1854.000000	97.925974 
1853.000000	97.927678 
1852.000000	97.929397 
1851.000000	97.931131 
1850.000000	97.932878 
1849.000000	97.934625 
1848.000000	97.936357 
1847.000000	97.938065 
1846.000000	97.939749 
1845.000000	97.941412 
1844.000000	97.943047 
1843.000000	97.944660 
1842.000000	97.946275 
1841.000000	97.947864 
1840.000000	97.949404 
1839.000000	97.950927 
1838.000000	97.952456 
1837.000000	97.953912 
1836.000000	97.955218 
1835.000000	97.956421 
1834.000000	97.957654 
1833.000000	97.958920 
1832.000000	97.960112 
1831.000000	97.961144 
1830.000000	97.962045 
1829.000000	97.962968 
1828.000000	97.964030 
1827.000000	97.965214 
1826.000000	97.966472 
1825.000000	97.967769 
1824.000000	97.968980 
1823.000000	97.970022 
1822.000000	97.970923 
1821.000000	97.971689 
1820.000000	97.972301 
1819.000000	97.972844 
1818.000000	97.973545 
1817.000000	97.974429 
1816.000000	97.975242 
1815.000000	97.975846 
1814.000000	97.976386 
1813.000000	97.977034 
1812.000000	97.977658 
1811.000000	97.978060 
1810.000000	97.978341 
1809.000000	97.978665 
1808.000000	97.979034 
1807.000000	97.979412 
1806.000000	97.979808 
1805.000000	97.980202 
1804.000000	97.980564 
1803.000000	97.980951 
1802.000000	97.981409 
1801.000000	97.981879 
1800.000000	97.982251 
1799.000000	97.982543 
1798.000000	97.982908 
1797.000000	97.983401 
1796.000000	97.983941 
1795.000000	97.984478 
1794.000000	97.985061 
1793.000000	97.985696 
1792.000000	97.986296 
1791.000000	97.986878 
1790.000000	97.987542 
1789.000000	97.988260 
1788.000000	97.988984 
1787.000000	97.989712 
1786.000000	97.990446 
1785.000000	97.991158 
1784.000000	97.991839 
1783.000000	97.992508 
1782.000000	97.993175 
1781.000000	97.993851 
1780.000000	97.994548 
1779.000000	97.995270 
1778.000000	97.996015 
1777.000000	97.996776 
1776.000000	97.997544 
1775.000000	97.998306 
1774.000000	97.999055 
1773.000000	97.999792 
1772.000000	98.000528 
1771.000000	98.001280 
1770.000000	98.002060 
1769.000000	98.002872 
1768.000000	98.003703 
1767.000000	98.004534 
1766.000000	98.005350 
1765.000000	98.006148 
1764.000000	98.006932 
1763.000000	98.007710 
1762.000000	98.008486 
1761.000000	98.009262 
1760.000000	98.010034 
1759.000000	98.010801 
1758.000000	98.011557 
1757.000000	98.012300 
1756.000000	98.013023 
1755.000000	98.013722 
1754.000000	98.014391 
1753.000000	98.015036 
1752.000000	98.015666 
1751.000000	98.016284 
1750.000000	98.016882 
1749.000000	98.017449 
1748.000000	98.017978 
1747.000000	98.018476 
1746.000000	98.018953 
1745.000000	98.019419 
1744.000000	98.019877 
1743.000000	98.020324 
1742.000000	98.020758 
1741.000000	98.021161 
1740.000000	98.021524 
1739.000000	98.021874 
1738.000000	98.022251 
1737.000000	98.022626 
1736.000000	98.022955 
1735.000000	98.023296 
1734.000000	98.023612 
1733.000000	98.023779 
1732.000000	98.023910 
1731.000000	98.024063 
1730.000000	98.024306 
1729.000000	98.024623 
1728.000000	98.024855 
1727.000000	98.024866 
1726.000000	98.024710 
1725.000000	98.024634 
1724.000000	98.024660 
1723.000000	98.024669 
1722.000000	98.024682 
1721.000000	98.024633 
1720.000000	98.024382 
1719.000000	98.024019 
1718.000000	98.023815 
1717.000000	98.023568 
1716.000000	98.022933 
1715.000000	98.022117 
1714.000000	98.021503 
1713.000000	98.020995 
1712.000000	98.020251 
1711.000000	98.019281 
1710.000000	98.018317 
1709.000000	98.017391 
1708.000000	98.016344 
1707.000000	98.015148 
1706.000000	98.013931 
1705.000000	98.012722 
1704.000000	98.011462 
1703.000000	98.010138 
1702.000000	98.008775 
1701.000000	98.007368 
1700.000000	98.005896 
1699.000000	98.004366 
1698.000000	98.002787 
1697.000000	98.001160 
1696.000000	97.999484 
1695.000000	97.997758 
1694.000000	97.995971 
1693.000000	97.994112 
1692.000000	97.992180 
1691.000000	97.990185 
1690.000000	97.988138 
1689.000000	97.986047 
1688.000000	97.983913 
1687.000000	97.981735 
1686.000000	97.979522 
1685.000000	97.977278 
1684.000000	97.975001 
1683.000000	97.972700 
1682.000000	97.970391 
1681.000000	97.968077 
1680.000000	97.965764 
1679.000000	97.963458 
1678.000000	97.961152 
1677.000000	97.958836 
1676.000000	97.956505 
1675.000000	97.954162 
1674.000000	97.951807 
1673.000000	97.949447 
1672.000000	97.947090 
1671.000000	97.944744 
1670.000000	97.942416 
1669.000000	97.940114 
1668.000000	97.937845 
1667.000000	97.935608 
1666.000000	97.933389 
1665.000000	97.931178 
1664.000000	97.928973 
1663.000000	97.926774 
1662.000000	97.924579 
1661.000000	97.922391 
1660.000000	97.920219 
1659.000000	97.918063 
1658.000000	97.915920 
1657.000000	97.913789 
1656.000000	97.911673 
1655.000000	97.909573 
1654.000000	97.907479 
1653.000000	97.905373 
1652.000000	97.903276 
1651.000000	97.901232 
1650.000000	97.899241 
1649.000000	97.897301 
1648.000000	97.895420 
1647.000000	97.893599 
1646.000000	97.891835 
1645.000000	97.890126 
1644.000000	97.888470 
1643.000000	97.886865 
1642.000000	97.885309 
1641.000000	97.883802 
1640.000000	97.882341 
1639.000000	97.880917 
1638.000000	97.879524 
1637.000000	97.878158 
1636.000000	97.876820 
1635.000000	97.875519 
1634.000000	97.874268 
1633.000000	97.873073 
1632.000000	97.871929 
1631.000000	97.870836 
1630.000000	97.869792 
1629.000000	97.868792 
1628.000000	97.867823 
1627.000000	97.866897 
1626.000000	97.866043 
1625.000000	97.865219 
1624.000000	97.864381 
1623.000000	97.863635 
1622.000000	97.863096 
1621.000000	97.862715 
1620.000000	97.862415 
1619.000000	97.862257 
1618.000000	97.862253 
1617.000000	97.861401 
1616.000000	97.859284 
1615.000000	97.857874 
1614.000000	97.857539 
1613.000000	97.856497 
1612.000000	97.854831 
1611.000000	97.854297 
1610.000000	97.854612 
1609.000000	97.854237 
1608.000000	97.854608 
1607.000000	97.857133 
1606.000000	97.859486 
1605.000000	97.859625 
1604.000000	97.859748 
1603.000000	97.861704 
1602.000000	97.863995 
1601.000000	97.864997 
1600.000000	97.865751 
1599.000000	97.867397 
1598.000000	97.869020 
1597.000000	97.869719 
1596.000000	97.870196 
1595.000000	97.871443 
1594.000000	97.873072 
1593.000000	97.874234 
1592.000000	97.875190 
1591.000000	97.876609 
1590.000000	97.878212 
1589.000000	97.879519 
1588.000000	97.881082 
1587.000000	97.883577 
1586.000000	97.886214 
1585.000000	97.887559 
1584.000000	97.888524 
1583.000000	97.890482 
1582.000000	97.892324 
1581.000000	97.893080 
1580.000000	97.894350 
1579.000000	97.897237 
1578.000000	97.900697 
1577.000000	97.903588 
1576.000000	97.905604 
1575.000000	97.908537 
1574.000000	97.912441 
1573.000000	97.914730 
1572.000000	97.916035 
1571.000000	97.918706 
1570.000000	97.920974 
1569.000000	97.920071 
1568.000000	97.919981 
1567.000000	97.921944 
1566.000000	97.922371 
1565.000000	97.920550 
1564.000000	97.919662 
1563.000000	97.920295 
1562.000000	97.918910 
1561.000000	97.915846 
1560.000000	97.921405 
1559.000000	97.929526 
1558.000000	97.925392 
1557.000000	97.922389 
1556.000000	97.922412 
1555.000000	97.924380 
1554.000000	97.926609 
1553.000000	97.927472 
1552.000000	97.926223 
1551.000000	97.923531 
1550.000000	97.921889 
1549.000000	97.921165 
1548.000000	97.919720 
1547.000000	97.917045 
1546.000000	97.913448 
1545.000000	97.909868 
1544.000000	97.906702 
1543.000000	97.903616 
1542.000000	97.901356 
1541.000000	97.898308 
1540.000000	97.888821 
1539.000000	97.877351 
1538.000000	97.872570 
1537.000000	97.868947 
1536.000000	97.860967 
1535.000000	97.852086 
1534.000000	97.846376 
1533.000000	97.843239 
1532.000000	97.840106 
1531.000000	97.835062 
1530.000000	97.827918 
1529.000000	97.819413 
1528.000000	97.810930 
1527.000000	97.804862 
1526.000000	97.801379 
1525.000000	97.797178 
1524.000000	97.789177 
1523.000000	97.778612 
1522.000000	97.769696 
1521.000000	97.763131 
1520.000000	97.755763 
1519.000000	97.744489 
1518.000000	97.729786 
1517.000000	97.716907 
1516.000000	97.709208 
1515.000000	97.705021 
1514.000000	97.700638 
1513.000000	97.694908 
1512.000000	97.687159 
1511.000000	97.676515 
1510.000000	97.664296 
1509.000000	97.653569 
1508.000000	97.647496 
1507.000000	97.643109 
1506.000000	97.634505 
1505.000000	97.623466 
1504.000000	97.612012 
1503.000000	97.598830 
1502.000000	97.584773 
1501.000000	97.571903 
1500.000000	97.560492 
1499.000000	97.549384 
1498.000000	97.539566 
1497.000000	97.533103 
1496.000000	97.528253 
1495.000000	97.524063 
1494.000000	97.521470 
1493.000000	97.519526 
1492.000000	97.516658 
1491.000000	97.512850 
1490.000000	97.508968 
1489.000000	97.503373 
1488.000000	97.492298 
1487.000000	97.477682 
1486.000000	97.464937 
1485.000000	97.453053 
1484.000000	97.440274 
1483.000000	97.428030 
1482.000000	97.419558 
1481.000000	97.414802 
1480.000000	97.408875 
1479.000000	97.399480 
1478.000000	97.389626 
1477.000000	97.382383 
1476.000000	97.375742 
1475.000000	97.368458 
1474.000000	97.362261 
1473.000000	97.358481 
1472.000000	97.355023 
1471.000000	97.349862 
1470.000000	97.343199 
1469.000000	97.334238 
1468.000000	97.322626 
1467.000000	97.310836 
1466.000000	97.302790 
1465.000000	97.299948 
1464.000000	97.299890 
1463.000000	97.297481 
1462.000000	97.290414 
1461.000000	97.279697 
1460.000000	97.267953 
1459.000000	97.257791 
1458.000000	97.252304 
1457.000000	97.252835 
1456.000000	97.255468 
1455.000000	97.253995 
1454.000000	97.244829 
1453.000000	97.233809 
1452.000000	97.227843 
1451.000000	97.227520 
1450.000000	97.230627 
1449.000000	97.236551 
1448.000000	97.243373 
1447.000000	97.247654 
1446.000000	97.246975 
1445.000000	97.244082 
1444.000000	97.243073 
1443.000000	97.243270 
1442.000000	97.243021 
1441.000000	97.242135 
1440.000000	97.240345 
1439.000000	97.236069 
1438.000000	97.232944 
1437.000000	97.237901 
1436.000000	97.248684 
1435.000000	97.254788 
1434.000000	97.252721 
1433.000000	97.248309 
1432.000000	97.247698 
1431.000000	97.250732 
1430.000000	97.254209 
1429.000000	97.258020 
1428.000000	97.261761 
1427.000000	97.263930 
1426.000000	97.264135 
1425.000000	97.267657 
1424.000000	97.278244 
1423.000000	97.288050 
1422.000000	97.289195 
1421.000000	97.285839 
1420.000000	97.288619 
1419.000000	97.296950 
1418.000000	97.302502 
1417.000000	97.305144 
1416.000000	97.307953 
1415.000000	97.310737 
1414.000000	97.311136 
1413.000000	97.309756 
1412.000000	97.310138 
1411.000000	97.312943 
1410.000000	97.316721 
1409.000000	97.321339 
1408.000000	97.326709 
1407.000000	97.333585 
1406.000000	97.343381 
1405.000000	97.358708 
1404.000000	97.379180 
1403.000000	97.396974 
1402.000000	97.406918 
1401.000000	97.414117 
1400.000000	97.428036 
1399.000000	97.449163 
1398.000000	97.467721 
1397.000000	97.476683 
1396.000000	97.478990 
1395.000000	97.482893 
1394.000000	97.493130 
1393.000000	97.510076 
1392.000000	97.530863 
1391.000000	97.550363 
1390.000000	97.565665 
1389.000000	97.577975 
1388.000000	97.589821 
1387.000000	97.600959 
1386.000000	97.609019 
1385.000000	97.614812 
1384.000000	97.622677 
1383.000000	97.634301 
1382.000000	97.647152 
1381.000000	97.658187 
1380.000000	97.668047 
1379.000000	97.679441 
1378.000000	97.692396 
1377.000000	97.704654 
1376.000000	97.715693 
1375.000000	97.727300 
1374.000000	97.740252 
1373.000000	97.753959 
1372.000000	97.767523 
1371.000000	97.780656 
1370.000000	97.793134 
1369.000000	97.805415 
1368.000000	97.818462 
1367.000000	97.830591 
1366.000000	97.839231 
1365.000000	97.845072 
1364.000000	97.852285 
1363.000000	97.863389 
1362.000000	97.875866 
1361.000000	97.886096 
1360.000000	97.894539 
1359.000000	97.903811 
1358.000000	97.913889 
1357.000000	97.922495 
1356.000000	97.928906 
1355.000000	97.934164 
1354.000000	97.939592 
1353.000000	97.946134 
1352.000000	97.954006 
1351.000000	97.963786 
1350.000000	97.974035 
1349.000000	97.982005 
1348.000000	97.987007 
1347.000000	97.990237 
1346.000000	97.993859 
1345.000000	97.998966 
1344.000000	98.004499 
1343.000000	98.007803 
1342.000000	98.007882 
1341.000000	98.007462 
1340.000000	98.010549 
1339.000000	98.017187 
1338.000000	98.023494 
1337.000000	98.027118 
1336.000000	98.028664 
1335.000000	98.028481 
1334.000000	98.026185 
1333.000000	98.023063 
1332.000000	98.021713 
1331.000000	98.022621 
1330.000000	98.023666 
1329.000000	98.023796 
1328.000000	98.024500 
1327.000000	98.026841 
1326.000000	98.029087 
1325.000000	98.029195 
1324.000000	98.027153 
1323.000000	98.023516 
1322.000000	98.018892 
1321.000000	98.015255 
1320.000000	98.015235 
1319.000000	98.018809 
1318.000000	98.022820 
1317.000000	98.024445 
1316.000000	98.023284 
1315.000000	98.020012 
1314.000000	98.015765 
1313.000000	98.013093 
1312.000000	98.014473 
1311.000000	98.018912 
1310.000000	98.022390 
1309.000000	98.022642 
1308.000000	98.021435 
1307.000000	98.021659 
1306.000000	98.023692 
1305.000000	98.026257 
1304.000000	98.028743 
1303.000000	98.030602 
1302.000000	98.030499 
1301.000000	98.027776 
1300.000000	98.024113 
1299.000000	98.022242 
1298.000000	98.023246 
1297.000000	98.025621 
1296.000000	98.026865 
1295.000000	98.025714 
1294.000000	98.023270 
1293.000000	98.022035 
1292.000000	98.023211 
1291.000000	98.025371 
1290.000000	98.026618 
1289.000000	98.027092 
1288.000000	98.027800 
1287.000000	98.027999 
1286.000000	98.026115 
1285.000000	98.022930 
1284.000000	98.021296 
1283.000000	98.022216 
1282.000000	98.023365 
1281.000000	98.022214 
1280.000000	98.018974 
1279.000000	98.015656 
1278.000000	98.013896 
1277.000000	98.014497 
1276.000000	98.017239 
1275.000000	98.020143 
1274.000000	98.020481 
1273.000000	98.017697 
1272.000000	98.014005 
1271.000000	98.011318 
1270.000000	98.008986 
1269.000000	98.005535 
1268.000000	98.000894 
1267.000000	97.995512 
1266.000000	97.989119 
1265.000000	97.982027 
1264.000000	97.976212 
1263.000000	97.973427 
1262.000000	97.972807 
1261.000000	97.971716 
1260.000000	97.968912 
1259.000000	97.965631 
1258.000000	97.963494 
1257.000000	97.962035 
1256.000000	97.958660 
1255.000000	97.951757 
1254.000000	97.943594 
1253.000000	97.938331 
1252.000000	97.936283 
1251.000000	97.932660 
1250.000000	97.924212 
1249.000000	97.914931 
1248.000000	97.911702 
1247.000000	97.915167 
1246.000000	97.918653 
1245.000000	97.915952 
1244.000000	97.906820 
1243.000000	97.895385 
1242.000000	97.886694 
1241.000000	97.884577 
1240.000000	97.888936 
1239.000000	97.894044 
1238.000000	97.892671 
1237.000000	97.883059 
1236.000000	97.869620 
1235.000000	97.856867 
1234.000000	97.845506 
1233.000000	97.834584 
1232.000000	97.823777 
1231.000000	97.812474 
1230.000000	97.799972 
1229.000000	97.787734 
1228.000000	97.778319 
1227.000000	97.770821 
1226.000000	97.760219 
1225.000000	97.742727 
1224.000000	97.719346 
1223.000000	97.693175 
1222.000000	97.665851 
1221.000000	97.637968 
1220.000000	97.610491 
1219.000000	97.583849 
1218.000000	97.557170 
1217.000000	97.529387 
1216.000000	97.499393 
1215.000000	97.464951 
1214.000000	97.424528 
1213.000000	97.381208 
1212.000000	97.341384 
1211.000000	97.307390 
1210.000000	97.274114 
1209.000000	97.235332 
1208.000000	97.191184 
1207.000000	97.147098 
1206.000000	97.106935 
1205.000000	97.069422 
1204.000000	97.030584 
1203.000000	96.987881 
1202.000000	96.942544 
1201.000000	96.898720 
1200.000000	96.859325 
1199.000000	96.822463 
1198.000000	96.783540 
1197.000000	96.741056 
1196.000000	96.697993 
1195.000000	96.657213 
1194.000000	96.618103 
1193.000000	96.578517 
1192.000000	96.537330 
1191.000000	96.493961 
1190.000000	96.448097 
1189.000000	96.401124 
1188.000000	96.355258 
1187.000000	96.310148 
1186.000000	96.263109 
1185.000000	96.213630 
1184.000000	96.164199 
1183.000000	96.115371 
1182.000000	96.063956 
1181.000000	96.008223 
1180.000000	95.950807 
1179.000000	95.893497 
1178.000000	95.833114 
1177.000000	95.766407 
1176.000000	95.695648 
1175.000000	95.625171 
1174.000000	95.555278 
1173.000000	95.484189 
1172.000000	95.413476 
1171.000000	95.346215 
1170.000000	95.281436 
1169.000000	95.215768 
1168.000000	95.149895 
1167.000000	95.088798 
1166.000000	95.036702 
1165.000000	94.996688 
1164.000000	94.974137 
1163.000000	94.974416 
1162.000000	94.995900 
1161.000000	95.028947 
1160.000000	95.062118 
1159.000000	95.086486 
1158.000000	95.095287 
1157.000000	95.084529 
1156.000000	95.054796 
1155.000000	95.009793 
1154.000000	94.953289 
1153.000000	94.889530 
1152.000000	94.824779 
1151.000000	94.764271 
1150.000000	94.708009 
1149.000000	94.653107 
1148.000000	94.599337 
1147.000000	94.548280 
1146.000000	94.498048 
1145.000000	94.443933 
1144.000000	94.384679 
1143.000000	94.323921 
1142.000000	94.264918 
1141.000000	94.207479 
1140.000000	94.150370 
1139.000000	94.093128 
1138.000000	94.035226 
1137.000000	93.976653 
1136.000000	93.919103 
1135.000000	93.863533 
1134.000000	93.807303 
1133.000000	93.747289 
1132.000000	93.684755 
1131.000000	93.623161 
1130.000000	93.562394 
1129.000000	93.499787 
1128.000000	93.435824 
1127.000000	93.373477 
1126.000000	93.312009 
1125.000000	93.246798 
1124.000000	93.176028 
1123.000000	93.103151 
1122.000000	93.032227 
1121.000000	92.964790 
1120.000000	92.901197 
1119.000000	92.840606 
1118.000000	92.779712 
1117.000000	92.715913 
1116.000000	92.651540 
1115.000000	92.590840 
1114.000000	92.533718 
1113.000000	92.477011 
1112.000000	92.420506 
1111.000000	92.366139 
1110.000000	92.312558 
1109.000000	92.256665 
1108.000000	92.198993 
1107.000000	92.142055 
1106.000000	92.084919 
1105.000000	92.025251 
1104.000000	91.965330 
1103.000000	91.909418 
1102.000000	91.856292 
1101.000000	91.801344 
1100.000000	91.745063 
1099.000000	91.693092 
1098.000000	91.648298 
1097.000000	91.608746 
1096.000000	91.572526 
1095.000000	91.537465 
1094.000000	91.497628 
1093.000000	91.448012 
1092.000000	91.392900 
1091.000000	91.342645 
1090.000000	91.302192 
1089.000000	91.268623 
1088.000000	91.238352 
1087.000000	91.209448 
1086.000000	91.178449 
1085.000000	91.143344 
1084.000000	91.109271 
1083.000000	91.083262 
1082.000000	91.063769 
1081.000000	91.043358 
1080.000000	91.021120 
1079.000000	91.003669 
1078.000000	90.993855 
1077.000000	90.987135 
1076.000000	90.979448 
1075.000000	90.969971 
1074.000000	90.955739 
1073.000000	90.932356 
1072.000000	90.900301 
1071.000000	90.861420 
1070.000000	90.808665 
1069.000000	90.729933 
1068.000000	90.625305 
1067.000000	90.512504 
1066.000000	90.411414 
1065.000000	90.328691 
1064.000000	90.259548 
1063.000000	90.195446 
1062.000000	90.125781 
1061.000000	90.040618 
1060.000000	89.938743 
1059.000000	89.830072 
1058.000000	89.726901 
1057.000000	89.635404 
1056.000000	89.555861 
1055.000000	89.485147 
1054.000000	89.417201 
1053.000000	89.346702 
1052.000000	89.274449 
1051.000000	89.204677 
1050.000000	89.136838 
1049.000000	89.066007 
1048.000000	88.990950 
1047.000000	88.914791 
1046.000000	88.838583 
1045.000000	88.761129 
1044.000000	88.683664 
1043.000000	88.607981 
1042.000000	88.531543 
1041.000000	88.451364 
1040.000000	88.371256 
1039.000000	88.298385 
1038.000000	88.234579 
1037.000000	88.178219 
1036.000000	88.131950 
1035.000000	88.099812 
1034.000000	88.078716 
1033.000000	88.061221 
1032.000000	88.044450 
1031.000000	88.028030 
1030.000000	88.007451 
1029.000000	87.980566 
1028.000000	87.957748 
1027.000000	87.953388 
1026.000000	87.967944 
1025.000000	87.988448 
1024.000000	88.005306 
1023.000000	88.017908 
1022.000000	88.025529 
1021.000000	88.025537 
1020.000000	88.021005 
1019.000000	88.019001 
1018.000000	88.020653 
1017.000000	88.022256 
1016.000000	88.025156 
1015.000000	88.034143 
1014.000000	88.047070 
1013.000000	88.057008 
1012.000000	88.064244 
1011.000000	88.075496 
1010.000000	88.091961 
1009.000000	88.109002 
1008.000000	88.127120 
1007.000000	88.152342 
1006.000000	88.186067 
1005.000000	88.224991 
1004.000000	88.269893 
1003.000000	88.323113 
1002.000000	88.378326 
1001.000000	88.425360 
1000.000000	88.465784 
999.000000	 88.511810 
998.000000	 88.568730 
997.000000	 88.629747 
996.000000	 88.689142 
995.000000	 88.749477 
994.000000	 88.813878 
993.000000	 88.881464 
992.000000	 88.952259 
991.000000	 89.027326 
990.000000	 89.103121 
989.000000	 89.174814 
988.000000	 89.245475 
987.000000	 89.322535 
986.000000	 89.405717 
985.000000	 89.488923 
984.000000	 89.573587 
983.000000	 89.668226 
982.000000	 89.773719 
981.000000	 89.880566 
980.000000	 89.982825 
979.000000	 90.084156 
978.000000	 90.187657 
977.000000	 90.290607 
976.000000	 90.392613 
975.000000	 90.498945 
974.000000	 90.611597 
973.000000	 90.725361 
972.000000	 90.836510 
971.000000	 90.947885 
970.000000	 91.061968 
969.000000	 91.175756 
968.000000	 91.285766 
967.000000	 91.392356 
966.000000	 91.496824 
965.000000	 91.599729 
964.000000	 91.703608 
963.000000	 91.811465 
962.000000	 91.920986 
961.000000	 92.025794 
960.000000	 92.123553 
959.000000	 92.217464 
958.000000	 92.309360 
957.000000	 92.397297 
956.000000	 92.481017 
955.000000	 92.564018 
954.000000	 92.648598 
953.000000	 92.733380 
952.000000	 92.816460 
951.000000	 92.896384 
950.000000	 92.970159 
949.000000	 93.035619 
948.000000	 93.096074 
947.000000	 93.157554 
946.000000	 93.220897 
945.000000	 93.281225 
944.000000	 93.335372 
943.000000	 93.385277 
942.000000	 93.434248 
941.000000	 93.484536 
940.000000	 93.538299 
939.000000	 93.596004 
938.000000	 93.653905 
937.000000	 93.707631 
936.000000	 93.757999 
935.000000	 93.809223 
934.000000	 93.862480 
933.000000	 93.915895 
932.000000	 93.969450 
931.000000	 94.024578 
930.000000	 94.079703 
929.000000	 94.131329 
928.000000	 94.179287 
927.000000	 94.226438 
926.000000	 94.273657 
925.000000	 94.318846 
924.000000	 94.359756 
923.000000	 94.394370 
922.000000	 94.420849 
921.000000	 94.441634 
920.000000	 94.464989 
919.000000	 94.497069 
918.000000	 94.534364 
917.000000	 94.568851 
916.000000	 94.598688 
915.000000	 94.628757 
914.000000	 94.662707 
913.000000	 94.700302 
912.000000	 94.741409 
911.000000	 94.786943 
910.000000	 94.836422 
909.000000	 94.889176 
908.000000	 94.946859 
907.000000	 95.010884 
906.000000	 95.079363 
905.000000	 95.150296 
904.000000	 95.224668 
903.000000	 95.302000 
902.000000	 95.376617 
901.000000	 95.444025 
900.000000	 95.507940 
899.000000	 95.575803 
898.000000	 95.649744 
897.000000	 95.726431 
896.000000	 95.801877 
895.000000	 95.871073 
894.000000	 95.928015 
893.000000	 95.973075 
892.000000	 96.016707 
891.000000	 96.068584 
890.000000	 96.125445 
889.000000	 96.175964 
888.000000	 96.213834 
887.000000	 96.239512 
886.000000	 96.254219 
885.000000	 96.260777 
884.000000	 96.266273 
883.000000	 96.273993 
882.000000	 96.275888 
881.000000	 96.264313 
880.000000	 96.249692 
879.000000	 96.254053 
878.000000	 96.286047 
877.000000	 96.333777 
876.000000	 96.383385 
875.000000	 96.434124 
874.000000	 96.492535 
873.000000	 96.562764 
872.000000	 96.646251 
871.000000	 96.741115 
870.000000	 96.837726 
869.000000	 96.922696 
868.000000	 96.990787 
867.000000	 97.047472 
866.000000	 97.099187 
865.000000	 97.147838 
864.000000	 97.195984 
863.000000	 97.249537 
862.000000	 97.311195 
861.000000	 97.375966 
860.000000	 97.436216 
859.000000	 97.487949 
858.000000	 97.531567 
857.000000	 97.570593 
856.000000	 97.609972 
855.000000	 97.651227 
854.000000	 97.688717 
853.000000	 97.714819 
852.000000	 97.729060 
851.000000	 97.738886 
850.000000	 97.752610 
849.000000	 97.775136 
848.000000	 97.807611 
847.000000	 97.845220 
846.000000	 97.877849 
845.000000	 97.899980 
844.000000	 97.918121 
843.000000	 97.941614 
842.000000	 97.968220 
841.000000	 97.986566 
840.000000	 97.991050 
839.000000	 97.985862 
838.000000	 97.975831 
837.000000	 97.962809 
836.000000	 97.951474 
835.000000	 97.949099 
834.000000	 97.956374 
833.000000	 97.965361 
832.000000	 97.968889 
831.000000	 97.966208 
830.000000	 97.959103 
829.000000	 97.950129 
828.000000	 97.946257 
827.000000	 97.955882 
826.000000	 97.978493 
825.000000	 98.003981 
824.000000	 98.024333 
823.000000	 98.038673 
822.000000	 98.046683 
821.000000	 98.047114 
820.000000	 98.043940 
819.000000	 98.043706 
818.000000	 98.043869 
817.000000	 98.031425 
816.000000	 97.996106 
815.000000	 97.939863 
814.000000	 97.871527 
813.000000	 97.796601 
812.000000	 97.713343 
811.000000	 97.613011 
810.000000	 97.481464 
809.000000	 97.306024 
808.000000	 97.085011 
807.000000	 96.829478 
806.000000	 96.555440 
805.000000	 96.277141 
804.000000	 96.006453 
803.000000	 95.752105 
802.000000	 95.518499 
801.000000	 95.311580 
800.000000	 95.145728 
799.000000	 95.036569 
798.000000	 94.985983 
797.000000	 94.981649 
796.000000	 95.010450 
795.000000	 95.063013 
794.000000	 95.126923 
793.000000	 95.188529 
792.000000	 95.243568 
791.000000	 95.295702 
790.000000	 95.343077 
789.000000	 95.375596 
788.000000	 95.385802 
787.000000	 95.372539 
786.000000	 95.333387 
785.000000	 95.264062 
784.000000	 95.167538 
783.000000	 95.055198 
782.000000	 94.938109 
781.000000	 94.826310 
780.000000	 94.736017 
779.000000	 94.684729 
778.000000	 94.676423 
777.000000	 94.702500 
776.000000	 94.758853 
775.000000	 94.849094 
774.000000	 94.968012 
773.000000	 95.095729 
772.000000	 95.214462 
771.000000	 95.321061 
770.000000	 95.418966 
769.000000	 95.508530 
768.000000	 95.589955 
767.000000	 95.665682 
766.000000	 95.734477 
765.000000	 95.791843 
764.000000	 95.840695 
763.000000	 95.892772 
762.000000	 95.954485 
761.000000	 96.019297 
760.000000	 96.078475 
759.000000	 96.131309 
758.000000	 96.180818 
757.000000	 96.228527 
756.000000	 96.279241 
755.000000	 96.342246 
754.000000	 96.419390 
753.000000	 96.496623 
752.000000	 96.554214 
751.000000	 96.584233 
750.000000	 96.596744 
749.000000	 96.612118 
748.000000	 96.647072 
747.000000	 96.702566 
746.000000	 96.763355 
745.000000	 96.813742 
744.000000	 96.853987 
743.000000	 96.896258 
742.000000	 96.946502 
741.000000	 96.998852 
740.000000	 97.047439 
739.000000	 97.093887 
738.000000	 97.141048 
737.000000	 97.187228 
736.000000	 97.229396 
735.000000	 97.266224 
734.000000	 97.297321 
733.000000	 97.325231 
732.000000	 97.356560 
731.000000	 97.393094 
730.000000	 97.423794 
729.000000	 97.436517 
728.000000	 97.434818 
727.000000	 97.434268 
726.000000	 97.446124 
725.000000	 97.471636 
724.000000	 97.508966 
723.000000	 97.555196 
722.000000	 97.601721 
721.000000	 97.637815 
720.000000	 97.660836 
719.000000	 97.676153 
718.000000	 97.686889 
717.000000	 97.692170 
716.000000	 97.695260 
715.000000	 97.701823 
714.000000	 97.709900 
713.000000	 97.714302 
712.000000	 97.720751 
711.000000	 97.741755 
710.000000	 97.775365 
709.000000	 97.807696 
708.000000	 97.829434 
707.000000	 97.840667 
706.000000	 97.843335 
705.000000	 97.835378 
704.000000	 97.815458 
703.000000	 97.787241 
702.000000	 97.751918 
701.000000	 97.702806 
700.000000	 97.633239 
699.000000	 97.542955 
698.000000	 97.438777 
697.000000	 97.334792 
696.000000	 97.250974 
695.000000	 97.206605 
694.000000	 97.207138 
693.000000	 97.241549 
692.000000	 97.294541 
691.000000	 97.354168 
690.000000	 97.411871 
689.000000	 97.461884 
688.000000	 97.502254 
687.000000	 97.534128 
686.000000	 97.557356 
685.000000	 97.572841 
684.000000	 97.587731 
683.000000	 97.608402 
682.000000	 97.631444 
681.000000	 97.649038 
680.000000	 97.661815 
679.000000	 97.676938 
678.000000	 97.696542 
677.000000	 97.718245 
676.000000	 97.740241 
675.000000	 97.761782 
674.000000	 97.779753 
673.000000	 97.786729 
672.000000	 97.778667 
671.000000	 97.754117 
670.000000	 97.713549 
669.000000	 97.662896 
668.000000	 97.644635 
667.000000	 97.696628 
666.000000	 97.779015 
665.000000	 97.837051 
664.000000	 97.869811 
663.000000	 97.889291 
662.000000	 97.904840 
661.000000	 97.920227 
660.000000	 97.935461 
659.000000	 97.950454 
658.000000	 97.965043 
657.000000	 97.979078 
656.000000	 97.990813 
655.000000	 97.998511 
654.000000	 98.002558 
653.000000	 98.004603 
652.000000	 98.006704 
651.000000	 98.011935 
650.000000	 98.022396 

