4000.000000	97.512054 
3999.000000	97.510919 
3998.000000	97.508542 
3997.000000	97.505984 
3996.000000	97.504059 
3995.000000	97.503032 
3994.000000	97.502915 
3993.000000	97.503573 
3992.000000	97.504571 
3991.000000	97.505241 
3990.000000	97.505173 
3989.000000	97.504543 
3988.000000	97.503803 
3987.000000	97.503251 
3986.000000	97.503024 
3985.000000	97.503171 
3984.000000	97.503464 
3983.000000	97.503465 
3982.000000	97.503159 
3981.000000	97.503176 
3980.000000	97.503881 
3979.000000	97.504651 
3978.000000	97.504655 
3977.000000	97.504076 
3976.000000	97.503891 
3975.000000	97.504362 
3974.000000	97.504458 
3973.000000	97.503050 
3972.000000	97.500124 
3971.000000	97.496774 
3970.000000	97.494272 
3969.000000	97.493270 
3968.000000	97.493738 
3967.000000	97.495038 
3966.000000	97.496301 
3965.000000	97.496974 
3964.000000	97.496863 
3963.000000	97.495938 
3962.000000	97.494416 
3961.000000	97.492819 
3960.000000	97.491576 
3959.000000	97.490720 
3958.000000	97.490013 
3957.000000	97.489351 
3956.000000	97.488752 
3955.000000	97.487908 
3954.000000	97.486442 
3953.000000	97.484375 
3952.000000	97.482165 
3951.000000	97.480189 
3950.000000	97.478252 
3949.000000	97.476018 
3948.000000	97.473560 
3947.000000	97.471493 
3946.000000	97.470565 
3945.000000	97.471155 
3944.000000	97.472757 
3943.000000	97.473869 
3942.000000	97.473602 
3941.000000	97.472486 
3940.000000	97.471565 
3939.000000	97.471263 
3938.000000	97.471156 
3937.000000	97.470687 
3936.000000	97.469779 
3935.000000	97.468542 
3934.000000	97.467140 
3933.000000	97.465780 
3932.000000	97.464700 
3931.000000	97.463747 
3930.000000	97.462518 
3929.000000	97.461326 
3928.000000	97.461075 
3927.000000	97.462096 
3926.000000	97.463399 
3925.000000	97.463394 
3924.000000	97.461621 
3923.000000	97.458934 
3922.000000	97.456130 
3921.000000	97.453508 
3920.000000	97.451421 
3919.000000	97.450445 
3918.000000	97.450573 
3917.000000	97.450947 
3916.000000	97.450907 
3915.000000	97.450663 
3914.000000	97.450685 
3913.000000	97.450941 
3912.000000	97.451029 
3911.000000	97.450912 
3910.000000	97.450732 
3909.000000	97.450451 
3908.000000	97.449981 
3907.000000	97.449043 
3906.000000	97.447204 
3905.000000	97.443728 
3904.000000	97.438406 
3903.000000	97.432735 
3902.000000	97.429083 
3901.000000	97.428549 
3900.000000	97.430359 
3899.000000	97.432575 
3898.000000	97.433953 
3897.000000	97.434393 
3896.000000	97.434105 
3895.000000	97.433524 
3894.000000	97.433208 
3893.000000	97.433363 
3892.000000	97.433344 
3891.000000	97.432242 
3890.000000	97.430129 
3889.000000	97.427805 
3888.000000	97.426055 
3887.000000	97.425171 
3886.000000	97.424964 
3885.000000	97.424994 
3884.000000	97.424799 
3883.000000	97.424027 
3882.000000	97.422766 
3881.000000	97.421545 
3880.000000	97.420843 
3879.000000	97.420520 
3878.000000	97.420164 
3877.000000	97.419713 
3876.000000	97.419470 
3875.000000	97.419416 
3874.000000	97.419063 
3873.000000	97.418118 
3872.000000	97.416810 
3871.000000	97.415493 
3870.000000	97.414344 
3869.000000	97.413580 
3868.000000	97.413266 
3867.000000	97.413129 
3866.000000	97.412898 
3865.000000	97.412617 
3864.000000	97.412499 
3863.000000	97.412525 
3862.000000	97.412393 
3861.000000	97.412049 
3860.000000	97.411756 
3859.000000	97.411684 
3858.000000	97.411704 
3857.000000	97.411546 
3856.000000	97.411119 
3855.000000	97.410569 
3854.000000	97.409731 
3853.000000	97.408495 
3852.000000	97.407454 
3851.000000	97.407035 
3850.000000	97.406976 
3849.000000	97.407080 
3848.000000	97.407460 
3847.000000	97.408266 
3846.000000	97.409157 
3845.000000	97.409461 
3844.000000	97.408892 
3843.000000	97.407696 
3842.000000	97.406257 
3841.000000	97.405009 
3840.000000	97.404264 
3839.000000	97.404206 
3838.000000	97.404897 
3837.000000	97.405841 
3836.000000	97.406359 
3835.000000	97.406233 
3834.000000	97.405799 
3833.000000	97.405717 
3832.000000	97.406329 
3831.000000	97.407459 
3830.000000	97.408739 
3829.000000	97.409861 
3828.000000	97.410966 
3827.000000	97.412376 
3826.000000	97.413575 
3825.000000	97.413551 
3824.000000	97.411813 
3823.000000	97.409346 
3822.000000	97.407592 
3821.000000	97.406411 
3820.000000	97.405180 
3819.000000	97.403609 
3818.000000	97.401721 
3817.000000	97.400912 
3816.000000	97.403325 
3815.000000	97.409461 
3814.000000	97.416651 
3813.000000	97.421129 
3812.000000	97.421803 
3811.000000	97.421289 
3810.000000	97.422385 
3809.000000	97.424692 
3808.000000	97.425275 
3807.000000	97.422411 
3806.000000	97.417472 
3805.000000	97.412506 
3804.000000	97.407663 
3803.000000	97.404336 
3802.000000	97.404465 
3801.000000	97.407603 
3800.000000	97.411827 
3799.000000	97.413935 
3798.000000	97.412534 
3797.000000	97.411081 
3796.000000	97.414238 
3795.000000	97.422370 
3794.000000	97.431058 
3793.000000	97.436584 
3792.000000	97.439787 
3791.000000	97.444051 
3790.000000	97.449650 
3789.000000	97.453136 
3788.000000	97.452579 
3787.000000	97.449921 
3786.000000	97.447917 
3785.000000	97.446663 
3784.000000	97.444320 
3783.000000	97.440228 
3782.000000	97.435257 
3781.000000	97.430663 
3780.000000	97.427716 
3779.000000	97.428094 
3778.000000	97.432326 
3777.000000	97.438208 
3776.000000	97.442070 
3775.000000	97.442000 
3774.000000	97.438730 
3773.000000	97.433816 
3772.000000	97.428213 
3771.000000	97.421761 
3770.000000	97.414393 
3769.000000	97.408150 
3768.000000	97.405258 
3767.000000	97.404946 
3766.000000	97.405559 
3765.000000	97.406653 
3764.000000	97.408881 
3763.000000	97.411498 
3762.000000	97.411891 
3761.000000	97.408730 
3760.000000	97.403210 
3759.000000	97.398312 
3758.000000	97.393665 
3757.000000	97.385700 
3756.000000	97.373594 
3755.000000	97.359199 
3754.000000	97.344033 
3753.000000	97.328588 
3752.000000	97.314982 
3751.000000	97.306118 
3750.000000	97.301152 
3749.000000	97.296969 
3748.000000	97.293592 
3747.000000	97.293899 
3746.000000	97.300603 
3745.000000	97.310095 
3744.000000	97.320502 
3743.000000	97.332828 
3742.000000	97.340012 
3741.000000	97.333869 
3740.000000	97.317725 
3739.000000	97.304794 
3738.000000	97.304718 
3737.000000	97.312819 
3736.000000	97.319250 
3735.000000	97.322477 
3734.000000	97.327094 
3733.000000	97.333155 
3732.000000	97.337962 
3731.000000	97.342601 
3730.000000	97.347800 
3729.000000	97.350755 
3728.000000	97.350228 
3727.000000	97.348869 
3726.000000	97.350016 
3725.000000	97.353374 
3724.000000	97.356350 
3723.000000	97.358492 
3722.000000	97.361600 
3721.000000	97.366265 
3720.000000	97.368484 
3719.000000	97.365467 
3718.000000	97.359912 
3717.000000	97.355620 
3716.000000	97.353417 
3715.000000	97.349737 
3714.000000	97.340697 
3713.000000	97.328340 
3712.000000	97.317592 
3711.000000	97.311651 
3710.000000	97.309701 
3709.000000	97.309124 
3708.000000	97.308735 
3707.000000	97.306770 
3706.000000	97.302267 
3705.000000	97.295947 
3704.000000	97.289949 
3703.000000	97.285032 
3702.000000	97.278330 
3701.000000	97.266613 
3700.000000	97.250741 
3699.000000	97.234679 
3698.000000	97.222530 
3697.000000	97.215321 
3696.000000	97.211037 
3695.000000	97.207120 
3694.000000	97.200914 
3693.000000	97.191792 
3692.000000	97.180691 
3691.000000	97.168844 
3690.000000	97.155046 
3689.000000	97.139869 
3688.000000	97.129408 
3687.000000	97.126961 
3686.000000	97.128557 
3685.000000	97.128156 
3684.000000	97.124065 
3683.000000	97.119318 
3682.000000	97.116874 
3681.000000	97.113471 
3680.000000	97.102523 
3679.000000	97.080815 
3678.000000	97.052625 
3677.000000	97.026385 
3676.000000	97.004890 
3675.000000	96.987224 
3674.000000	96.972462 
3673.000000	96.957754 
3672.000000	96.940947 
3671.000000	96.927074 
3670.000000	96.920478 
3669.000000	96.918546 
3668.000000	96.915085 
3667.000000	96.906331 
3666.000000	96.895059 
3665.000000	96.886526 
3664.000000	96.881541 
3663.000000	96.876853 
3662.000000	96.868485 
3661.000000	96.853746 
3660.000000	96.833115 
3659.000000	96.809247 
3658.000000	96.786206 
3657.000000	96.765650 
3656.000000	96.746026 
3655.000000	96.726450 
3654.000000	96.705831 
3653.000000	96.682653 
3652.000000	96.656014 
3651.000000	96.626239 
3650.000000	96.594514 
3649.000000	96.565565 
3648.000000	96.547107 
3647.000000	96.542124 
3646.000000	96.547401 
3645.000000	96.557724 
3644.000000	96.568640 
3643.000000	96.577572 
3642.000000	96.582942 
3641.000000	96.582762 
3640.000000	96.575998 
3639.000000	96.562911 
3638.000000	96.545632 
3637.000000	96.526934 
3636.000000	96.508435 
3635.000000	96.489420 
3634.000000	96.467981 
3633.000000	96.443798 
3632.000000	96.417818 
3631.000000	96.391033 
3630.000000	96.364397 
3629.000000	96.339215 
3628.000000	96.320164 
3627.000000	96.311214 
3626.000000	96.308980 
3625.000000	96.310513 
3624.000000	96.317281 
3623.000000	96.329842 
3622.000000	96.344331 
3621.000000	96.354315 
3620.000000	96.354016 
3619.000000	96.342248 
3618.000000	96.324953 
3617.000000	96.311406 
3616.000000	96.309549 
3615.000000	96.322763 
3614.000000	96.346002 
3613.000000	96.368444 
3612.000000	96.381985 
3611.000000	96.386383 
3610.000000	96.388296 
3609.000000	96.395754 
3608.000000	96.410957 
3607.000000	96.429631 
3606.000000	96.447093 
3605.000000	96.463015 
3604.000000	96.480945 
3603.000000	96.502373 
3602.000000	96.523455 
3601.000000	96.538164 
3600.000000	96.543607 
3599.000000	96.542448 
3598.000000	96.540309 
3597.000000	96.541234 
3596.000000	96.546384 
3595.000000	96.553618 
3594.000000	96.558253 
3593.000000	96.558068 
3592.000000	96.553993 
3591.000000	96.548482 
3590.000000	96.544756 
3589.000000	96.545249 
3588.000000	96.548936 
3587.000000	96.552143 
3586.000000	96.553866 
3585.000000	96.556147 
3584.000000	96.562041 
3583.000000	96.572447 
3582.000000	96.585724 
3581.000000	96.598195 
3580.000000	96.606387 
3579.000000	96.609210 
3578.000000	96.607629 
3577.000000	96.603827 
3576.000000	96.599307 
3575.000000	96.595182 
3574.000000	96.591305 
3573.000000	96.586649 
3572.000000	96.579487 
3571.000000	96.568531 
3570.000000	96.554436 
3569.000000	96.540890 
3568.000000	96.532335 
3567.000000	96.530298 
3566.000000	96.532851 
3565.000000	96.537174 
3564.000000	96.541639 
3563.000000	96.546598 
3562.000000	96.552595 
3561.000000	96.558904 
3560.000000	96.563708 
3559.000000	96.565516 
3558.000000	96.564361 
3557.000000	96.561833 
3556.000000	96.559732 
3555.000000	96.558914 
3554.000000	96.559140 
3553.000000	96.559252 
3552.000000	96.558102 
3551.000000	96.555063 
3550.000000	96.550293 
3549.000000	96.545142 
3548.000000	96.541806 
3547.000000	96.541222 
3546.000000	96.542002 
3545.000000	96.542127 
3544.000000	96.541669 
3543.000000	96.542456 
3542.000000	96.545337 
3541.000000	96.549258 
3540.000000	96.552761 
3539.000000	96.555130 
3538.000000	96.556204 
3537.000000	96.555801 
3536.000000	96.554134 
3535.000000	96.551910 
3534.000000	96.549960 
3533.000000	96.548924 
3532.000000	96.549138 
3531.000000	96.550438 
3530.000000	96.551812 
3529.000000	96.551887 
3528.000000	96.550122 
3527.000000	96.547363 
3526.000000	96.545120 
3525.000000	96.544275 
3524.000000	96.544701 
3523.000000	96.545812 
3522.000000	96.547157 
3521.000000	96.548532 
3520.000000	96.549851 
3519.000000	96.550940 
3518.000000	96.551573 
3517.000000	96.551596 
3516.000000	96.551106 
3515.000000	96.550498 
3514.000000	96.550259 
3513.000000	96.550638 
3512.000000	96.551389 
3511.000000	96.551866 
3510.000000	96.551559 
3509.000000	96.550621 
3508.000000	96.549770 
3507.000000	96.549586 
3506.000000	96.549991 
3505.000000	96.550398 
3504.000000	96.550271 
3503.000000	96.549512 
3502.000000	96.548409 
3501.000000	96.547345 
3500.000000	96.546602 
3499.000000	96.546346 
3498.000000	96.546550 
3497.000000	96.546922 
3496.000000	96.547015 
3495.000000	96.546605 
3494.000000	96.545988 
3493.000000	96.545764 
3492.000000	96.546167 
3491.000000	96.546666 
3490.000000	96.546558 
3489.000000	96.545897 
3488.000000	96.545316 
3487.000000	96.544899 
3486.000000	96.543983 
3485.000000	96.542399 
3484.000000	96.541044 
3483.000000	96.540665 
3482.000000	96.540690 
3481.000000	96.539997 
3480.000000	96.538429 
3479.000000	96.536787 
3478.000000	96.535599 
3477.000000	96.534513 
3476.000000	96.532846 
3475.000000	96.530364 
3474.000000	96.527532 
3473.000000	96.525168 
3472.000000	96.523808 
3471.000000	96.523204 
3470.000000	96.522468 
3469.000000	96.520966 
3468.000000	96.518956 
3467.000000	96.517248 
3466.000000	96.516379 
3465.000000	96.516131 
3464.000000	96.515651 
3463.000000	96.513967 
3462.000000	96.510614 
3461.000000	96.506048 
3460.000000	96.501351 
3459.000000	96.497324 
3458.000000	96.493991 
3457.000000	96.490953 
3456.000000	96.488167 
3455.000000	96.486044 
3454.000000	96.484964 
3453.000000	96.484853 
3452.000000	96.485206 
3451.000000	96.485496 
3450.000000	96.485302 
3449.000000	96.484196 
3448.000000	96.481708 
3447.000000	96.477706 
3446.000000	96.472741 
3445.000000	96.467947 
3444.000000	96.464401 
3443.000000	96.462487 
3442.000000	96.461701 
3441.000000	96.460943 
3440.000000	96.459298 
3439.000000	96.456605 
3438.000000	96.453361 
3437.000000	96.450239 
3436.000000	96.447843 
3435.000000	96.446590 
3434.000000	96.446470 
3433.000000	96.446792 
3432.000000	96.446482 
3431.000000	96.445038 
3430.000000	96.442919 
3429.000000	96.440968 
3428.000000	96.439522 
3427.000000	96.438273 
3426.000000	96.436922 
3425.000000	96.435635 
3424.000000	96.434722 
3423.000000	96.433978 
3422.000000	96.432754 
3421.000000	96.430787 
3420.000000	96.428703 
3419.000000	96.427355 
3418.000000	96.426873 
3417.000000	96.426748 
3416.000000	96.426640 
3415.000000	96.426629 
3414.000000	96.426647 
3413.000000	96.426221 
3412.000000	96.425037 
3411.000000	96.423482 
3410.000000	96.422310 
3409.000000	96.421933 
3408.000000	96.422150 
3407.000000	96.422390 
3406.000000	96.422157 
3405.000000	96.421361 
3404.000000	96.420405 
3403.000000	96.419765 
3402.000000	96.419520 
3401.000000	96.419437 
3400.000000	96.419433 
3399.000000	96.419643 
3398.000000	96.419992 
3397.000000	96.420117 
3396.000000	96.419869 
3395.000000	96.419626 
3394.000000	96.419839 
3393.000000	96.420463 
3392.000000	96.421049 
3391.000000	96.421291 
3390.000000	96.421341 
3389.000000	96.421631 
3388.000000	96.422511 
3387.000000	96.424012 
3386.000000	96.425777 
3385.000000	96.427182 
3384.000000	96.427769 
3383.000000	96.427663 
3382.000000	96.427624 
3381.000000	96.428433 
3380.000000	96.430145 
3379.000000	96.432028 
3378.000000	96.433310 
3377.000000	96.434038 
3376.000000	96.434931 
3375.000000	96.436457 
3374.000000	96.438298 
3373.000000	96.439776 
3372.000000	96.440675 
3371.000000	96.441445 
3370.000000	96.442703 
3369.000000	96.444674 
3368.000000	96.447077 
3367.000000	96.449325 
3366.000000	96.450878 
3365.000000	96.451571 
3364.000000	96.451733 
3363.000000	96.451965 
3362.000000	96.452681 
3361.000000	96.453917 
3360.000000	96.455567 
3359.000000	96.457601 
3358.000000	96.459968 
3357.000000	96.462408 
3356.000000	96.464548 
3355.000000	96.466272 
3354.000000	96.467896 
3353.000000	96.469937 
3352.000000	96.472683 
3351.000000	96.475997 
3350.000000	96.479410 
3349.000000	96.482367 
3348.000000	96.484536 
3347.000000	96.486000 
3346.000000	96.487243 
3345.000000	96.488801 
3344.000000	96.490735 
3343.000000	96.492544 
3342.000000	96.493752 
3341.000000	96.494548 
3340.000000	96.495562 
3339.000000	96.497020 
3338.000000	96.498531 
3337.000000	96.499729 
3336.000000	96.500776 
3335.000000	96.502080 
3334.000000	96.503733 
3333.000000	96.505476 
3332.000000	96.507107 
3331.000000	96.508714 
3330.000000	96.510469 
3329.000000	96.512362 
3328.000000	96.514238 
3327.000000	96.516018 
3326.000000	96.517777 
3325.000000	96.519605 
3324.000000	96.521456 
3323.000000	96.523208 
3322.000000	96.524822 
3321.000000	96.526398 
3320.000000	96.528044 
3319.000000	96.529772 
3318.000000	96.531522 
3317.000000	96.533240 
3316.000000	96.534905 
3315.000000	96.536524 
3314.000000	96.538112 
3313.000000	96.539690 
3312.000000	96.541268 
3311.000000	96.542849 
3310.000000	96.544429 
3309.000000	96.546003 
3308.000000	96.547567 
3307.000000	96.549117 
3306.000000	96.550653 
3305.000000	96.552187 
3304.000000	96.553730 
3303.000000	96.555292 
3302.000000	96.556876 
3301.000000	96.558479 
3300.000000	96.560092 
3299.000000	96.561707 
3298.000000	96.563320 
3297.000000	96.564932 
3296.000000	96.566551 
3295.000000	96.568185 
3294.000000	96.569831 
3293.000000	96.571485 
3292.000000	96.573140 
3291.000000	96.574794 
3290.000000	96.576445 
3289.000000	96.578090 
3288.000000	96.579724 
3287.000000	96.581347 
3286.000000	96.582960 
3285.000000	96.584570 
3284.000000	96.586183 
3283.000000	96.587810 
3282.000000	96.589464 
3281.000000	96.591160 
3280.000000	96.592890 
3279.000000	96.594609 
3278.000000	96.596263 
3277.000000	96.597843 
3276.000000	96.599412 
3275.000000	96.601034 
3274.000000	96.602704 
3273.000000	96.604399 
3272.000000	96.606173 
3271.000000	96.608089 
3270.000000	96.610115 
3269.000000	96.612115 
3268.000000	96.613974 
3267.000000	96.615692 
3266.000000	96.617398 
3265.000000	96.619278 
3264.000000	96.621450 
3263.000000	96.623840 
3262.000000	96.626193 
3261.000000	96.628296 
3260.000000	96.630133 
3259.000000	96.631785 
3258.000000	96.633276 
3257.000000	96.634658 
3256.000000	96.636187 
3255.000000	96.638123 
3254.000000	96.640397 
3253.000000	96.642676 
3252.000000	96.644795 
3251.000000	96.646939 
3250.000000	96.649273 
3249.000000	96.651627 
3248.000000	96.653674 
3247.000000	96.655348 
3246.000000	96.656933 
3245.000000	96.658750 
3244.000000	96.660841 
3243.000000	96.663012 
3242.000000	96.665130 
3241.000000	96.667280 
3240.000000	96.669592 
3239.000000	96.672052 
3238.000000	96.674589 
3237.000000	96.677281 
3236.000000	96.680291 
3235.000000	96.683481 
3234.000000	96.686294 
3233.000000	96.688224 
3232.000000	96.689330 
3231.000000	96.690310 
3230.000000	96.691876 
3229.000000	96.694106 
3228.000000	96.696520 
3227.000000	96.698691 
3226.000000	96.700755 
3225.000000	96.703168 
3224.000000	96.706047 
3223.000000	96.709008 
3222.000000	96.711681 
3221.000000	96.714151 
3220.000000	96.716694 
3219.000000	96.719227 
3218.000000	96.721361 
3217.000000	96.722951 
3216.000000	96.724294 
3215.000000	96.725822 
3214.000000	96.727766 
3213.000000	96.730122 
3212.000000	96.732704 
3211.000000	96.735205 
3210.000000	96.737374 
3209.000000	96.739241 
3208.000000	96.741059 
3207.000000	96.742984 
3206.000000	96.744886 
3205.000000	96.746606 
3204.000000	96.748284 
3203.000000	96.750323 
3202.000000	96.752962 
3201.000000	96.755998 
3200.000000	96.758931 
3199.000000	96.761420 
3198.000000	96.763573 
3197.000000	96.765754 
3196.000000	96.768163 
3195.000000	96.770685 
3194.000000	96.773167 
3193.000000	96.775678 
3192.000000	96.778390 
3191.000000	96.781274 
3190.000000	96.784044 
3189.000000	96.786444 
3188.000000	96.788488 
3187.000000	96.790467 
3186.000000	96.792741 
3185.000000	96.795435 
3184.000000	96.798378 
3183.000000	96.801235 
3182.000000	96.803825 
3181.000000	96.806228 
3180.000000	96.808607 
3179.000000	96.811021 
3178.000000	96.813451 
3177.000000	96.815925 
3176.000000	96.818516 
3175.000000	96.821252 
3174.000000	96.824094 
3173.000000	96.826969 
3172.000000	96.829756 
3171.000000	96.832299 
3170.000000	96.834552 
3169.000000	96.836702 
3168.000000	96.839016 
3167.000000	96.841552 
3166.000000	96.844146 
3165.000000	96.846634 
3164.000000	96.848978 
3163.000000	96.851189 
3162.000000	96.853304 
3161.000000	96.855437 
3160.000000	96.857712 
3159.000000	96.860123 
3158.000000	96.862547 
3157.000000	96.864938 
3156.000000	96.867381 
3155.000000	96.869910 
3154.000000	96.872405 
3153.000000	96.874761 
3152.000000	96.877038 
3151.000000	96.879318 
3150.000000	96.881506 
3149.000000	96.883427 
3148.000000	96.885064 
3147.000000	96.886645 
3146.000000	96.888535 
3145.000000	96.890981 
3144.000000	96.893909 
3143.000000	96.896879 
3142.000000	96.899395 
3141.000000	96.901372 
3140.000000	96.903146 
3139.000000	96.905057 
3138.000000	96.907129 
3137.000000	96.909186 
3136.000000	96.911101 
3135.000000	96.912816 
3134.000000	96.914345 
3133.000000	96.915845 
3132.000000	96.917494 
3131.000000	96.919277 
3130.000000	96.921117 
3129.000000	96.923221 
3128.000000	96.925960 
3127.000000	96.929355 
3126.000000	96.932929 
3125.000000	96.936111 
3124.000000	96.938660 
3123.000000	96.940600 
3122.000000	96.942068 
3121.000000	96.943357 
3120.000000	96.944893 
3119.000000	96.946946 
3118.000000	96.949428 
3117.000000	96.952063 
3116.000000	96.954618 
3115.000000	96.956915 
3114.000000	96.958801 
3113.000000	96.960310 
3112.000000	96.961797 
3111.000000	96.963715 
3110.000000	96.966244 
3109.000000	96.969190 
3108.000000	96.972208 
3107.000000	96.975098 
3106.000000	96.977801 
3105.000000	96.980145 
3104.000000	96.981732 
3103.000000	96.982276 
3102.000000	96.982055 
3101.000000	96.981857 
3100.000000	96.982351 
3099.000000	96.983681 
3098.000000	96.985747 
3097.000000	96.988589 
3096.000000	96.992131 
3095.000000	96.995755 
3094.000000	96.998687 
3093.000000	97.000700 
3092.000000	97.002181 
3091.000000	97.003472 
3090.000000	97.004515 
3089.000000	97.005206 
3088.000000	97.005722 
3087.000000	97.006460 
3086.000000	97.007824 
3085.000000	97.010046 
3084.000000	97.012877 
3083.000000	97.015543 
3082.000000	97.017453 
3081.000000	97.019017 
3080.000000	97.021225 
3079.000000	97.024154 
3078.000000	97.026705 
3077.000000	97.028289 
3076.000000	97.029786 
3075.000000	97.031980 
3074.000000	97.033992 
3073.000000	97.034500 
3072.000000	97.033787 
3071.000000	97.033400 
3070.000000	97.034124 
3069.000000	97.035508 
3068.000000	97.037089 
3067.000000	97.038811 
3066.000000	97.040280 
3065.000000	97.040861 
3064.000000	97.040647 
3063.000000	97.040253 
3062.000000	97.039576 
3061.000000	97.037802 
3060.000000	97.034972 
3059.000000	97.032655 
3058.000000	97.032805 
3057.000000	97.036264 
3056.000000	97.042067 
3055.000000	97.047451 
3054.000000	97.049103 
3053.000000	97.045855 
3052.000000	97.040481 
3051.000000	97.037803 
3050.000000	97.040207 
3049.000000	97.045681 
3048.000000	97.050351 
3047.000000	97.052061 
3046.000000	97.051084 
3045.000000	97.048711 
3044.000000	97.046362 
3043.000000	97.045582 
3042.000000	97.047422 
3041.000000	97.051091 
3040.000000	97.053753 
3039.000000	97.052522 
3038.000000	97.047030 
3037.000000	97.039735 
3036.000000	97.033291 
3035.000000	97.027857 
3034.000000	97.021800 
3033.000000	97.014704 
3032.000000	97.008294 
3031.000000	97.004163 
3030.000000	97.001874 
3029.000000	96.999907 
3028.000000	96.997149 
3027.000000	96.992624 
3026.000000	96.985150 
3025.000000	96.974807 
3024.000000	96.964105 
3023.000000	96.956151 
3022.000000	96.951736 
3021.000000	96.949361 
3020.000000	96.947590 
3019.000000	96.945860 
3018.000000	96.943148 
3017.000000	96.937660 
3016.000000	96.928569 
3015.000000	96.917114 
3014.000000	96.905630 
3013.000000	96.896008 
3012.000000	96.888780 
3011.000000	96.882601 
3010.000000	96.874728 
3009.000000	96.863319 
3008.000000	96.849434 
3007.000000	96.835917 
3006.000000	96.824205 
3005.000000	96.813337 
3004.000000	96.802218 
3003.000000	96.791567 
3002.000000	96.783089 
3001.000000	96.777543 
3000.000000	96.773905 
2999.000000	96.769740 
2998.000000	96.762475 
2997.000000	96.751475 
2996.000000	96.739086 
2995.000000	96.728429 
2994.000000	96.719719 
2993.000000	96.709742 
2992.000000	96.695528 
2991.000000	96.677886 
2990.000000	96.660927 
2989.000000	96.648864 
2988.000000	96.643670 
2987.000000	96.644791 
2986.000000	96.650161 
2985.000000	96.657725 
2984.000000	96.666357 
2983.000000	96.675280 
2982.000000	96.682986 
2981.000000	96.687570 
2980.000000	96.688230 
2979.000000	96.685714 
2978.000000	96.681305 
2977.000000	96.676200 
2976.000000	96.671899 
2975.000000	96.669974 
2974.000000	96.670887 
2973.000000	96.673821 
2972.000000	96.678063 
2971.000000	96.683710 
2970.000000	96.690666 
2969.000000	96.698058 
2968.000000	96.705398 
2967.000000	96.713387 
2966.000000	96.722652 
2965.000000	96.732363 
2964.000000	96.741055 
2963.000000	96.748400 
2962.000000	96.755326 
2961.000000	96.762686 
2960.000000	96.770634 
2959.000000	96.779142 
2958.000000	96.788295 
2957.000000	96.797878 
2956.000000	96.806972 
2955.000000	96.814154 
2954.000000	96.818415 
2953.000000	96.820474 
2952.000000	96.823188 
2951.000000	96.829581 
2950.000000	96.839607 
2949.000000	96.849502 
2948.000000	96.855250 
2947.000000	96.856195 
2946.000000	96.854760 
2945.000000	96.853444 
2944.000000	96.853192 
2943.000000	96.854171 
2942.000000	96.856253 
2941.000000	96.858366 
2940.000000	96.859054 
2939.000000	96.858594 
2938.000000	96.859351 
2937.000000	96.862923 
2936.000000	96.867766 
2935.000000	96.870876 
2934.000000	96.871254 
2933.000000	96.870383 
2932.000000	96.869590 
2931.000000	96.868484 
2930.000000	96.866472 
2929.000000	96.864514 
2928.000000	96.864231 
2927.000000	96.865665 
2926.000000	96.866966 
2925.000000	96.866603 
2924.000000	96.865309 
2923.000000	96.865304 
2922.000000	96.867700 
2921.000000	96.871228 
2920.000000	96.873919 
2919.000000	96.875546 
2918.000000	96.877451 
2917.000000	96.879712 
2916.000000	96.879717 
2915.000000	96.874883 
2914.000000	96.866475 
2913.000000	96.859237 
2912.000000	96.856577 
2911.000000	96.857112 
2910.000000	96.856823 
2909.000000	96.853861 
2908.000000	96.850174 
2907.000000	96.848491 
2906.000000	96.848896 
2905.000000	96.848627 
2904.000000	96.845045 
2903.000000	96.838312 
2902.000000	96.832678 
2901.000000	96.832923 
2900.000000	96.840566 
2899.000000	96.852926 
2898.000000	96.865394 
2897.000000	96.875186 
2896.000000	96.881805 
2895.000000	96.885174 
2894.000000	96.885332 
2893.000000	96.884200 
2892.000000	96.885381 
2891.000000	96.890690 
2890.000000	96.898008 
2889.000000	96.903923 
2888.000000	96.907695 
2887.000000	96.911006 
2886.000000	96.914475 
2885.000000	96.916854 
2884.000000	96.918129 
2883.000000	96.921108 
2882.000000	96.928313 
2881.000000	96.938622 
2880.000000	96.948662 
2879.000000	96.957065 
2878.000000	96.965410 
2877.000000	96.974921 
2876.000000	96.984183 
2875.000000	96.991071 
2874.000000	96.995624 
2873.000000	96.999740 
2872.000000	97.004631 
2871.000000	97.009789 
2870.000000	97.014307 
2869.000000	97.018084 
2868.000000	97.021552 
2867.000000	97.025124 
2866.000000	97.029231 
2865.000000	97.034240 
2864.000000	97.040090 
2863.000000	97.046591 
2862.000000	97.054281 
2861.000000	97.064123 
2860.000000	97.075857 
2859.000000	97.087524 
2858.000000	97.097468 
2857.000000	97.106267 
2856.000000	97.115688 
2855.000000	97.125867 
2854.000000	97.134665 
2853.000000	97.140055 
2852.000000	97.142292 
2851.000000	97.143584 
2850.000000	97.146147 
2849.000000	97.150763 
2848.000000	97.156772 
2847.000000	97.162880 
2846.000000	97.167975 
2845.000000	97.171587 
2844.000000	97.173986 
2843.000000	97.176134 
2842.000000	97.179424 
2841.000000	97.184740 
2840.000000	97.191234 
2839.000000	97.196475 
2838.000000	97.198587 
2837.000000	97.198200 
2836.000000	97.197915 
2835.000000	97.199839 
2834.000000	97.204122 
2833.000000	97.209822 
2832.000000	97.216203 
2831.000000	97.222738 
2830.000000	97.228500 
2829.000000	97.232393 
2828.000000	97.234115 
2827.000000	97.234603 
2826.000000	97.235459 
2825.000000	97.237832 
2824.000000	97.241639 
2823.000000	97.245673 
2822.000000	97.248585 
2821.000000	97.249886 
2820.000000	97.250051 
2819.000000	97.249821 
2818.000000	97.249681 
2817.000000	97.250013 
2816.000000	97.251325 
2815.000000	97.253906 
2814.000000	97.257292 
2813.000000	97.260296 
2812.000000	97.261811 
2811.000000	97.261693 
2810.000000	97.260957 
2809.000000	97.261054 
2808.000000	97.262766 
2807.000000	97.265807 
2806.000000	97.269315 
2805.000000	97.272556 
2804.000000	97.275134 
2803.000000	97.276847 
2802.000000	97.277783 
2801.000000	97.278510 
2800.000000	97.279729 
2799.000000	97.281545 
2798.000000	97.283303 
2797.000000	97.284329 
2796.000000	97.284630 
2795.000000	97.284793 
2794.000000	97.285381 
2793.000000	97.286531 
2792.000000	97.288052 
2791.000000	97.289663 
2790.000000	97.291128 
2789.000000	97.292320 
2788.000000	97.293262 
2787.000000	97.294117 
2786.000000	97.295072 
2785.000000	97.296215 
2784.000000	97.297489 
2783.000000	97.298776 
2782.000000	97.299994 
2781.000000	97.301144 
2780.000000	97.302263 
2779.000000	97.303379 
2778.000000	97.304497 
2777.000000	97.305609 
2776.000000	97.306709 
2775.000000	97.307796 
2774.000000	97.308874 
2773.000000	97.309944 
2772.000000	97.311006 
2771.000000	97.312056 
2770.000000	97.313099 
2769.000000	97.314141 
2768.000000	97.315185 
2767.000000	97.316224 
2766.000000	97.317245 
2765.000000	97.318242 
2764.000000	97.319214 
2763.000000	97.320168 
2762.000000	97.321109 
2761.000000	97.322038 
2760.000000	97.322960 
2759.000000	97.323878 
2758.000000	97.324792 
2757.000000	97.325699 
2756.000000	97.326596 
2755.000000	97.327479 
2754.000000	97.328352 
2753.000000	97.329218 
2752.000000	97.330076 
2751.000000	97.330924 
2750.000000	97.331758 
2749.000000	97.332576 
2748.000000	97.333378 
2747.000000	97.334156 
2746.000000	97.334904 
2745.000000	97.335628 
2744.000000	97.336342 
2743.000000	97.337052 
2742.000000	97.337759 
2741.000000	97.338461 
2740.000000	97.339159 
2739.000000	97.339853 
2738.000000	97.340545 
2737.000000	97.341234 
2736.000000	97.341918 
2735.000000	97.342599 
2734.000000	97.343286 
2733.000000	97.343982 
2732.000000	97.344683 
2731.000000	97.345381 
2730.000000	97.346073 
2729.000000	97.346761 
2728.000000	97.347450 
2727.000000	97.348131 
2726.000000	97.348785 
2725.000000	97.349403 
2724.000000	97.349997 
2723.000000	97.350588 
2722.000000	97.351179 
2721.000000	97.351763 
2720.000000	97.352341 
2719.000000	97.352935 
2718.000000	97.353568 
2717.000000	97.354241 
2716.000000	97.354915 
2715.000000	97.355549 
2714.000000	97.356161 
2713.000000	97.356821 
2712.000000	97.357552 
2711.000000	97.358274 
2710.000000	97.358874 
2709.000000	97.359337 
2708.000000	97.359780 
2707.000000	97.360343 
2706.000000	97.361103 
2705.000000	97.362048 
2704.000000	97.363066 
2703.000000	97.363936 
2702.000000	97.364471 
2701.000000	97.364759 
2700.000000	97.365193 
2699.000000	97.366141 
2698.000000	97.367560 
2697.000000	97.368937 
2696.000000	97.369682 
2695.000000	97.369596 
2694.000000	97.369051 
2693.000000	97.368719 
2692.000000	97.368989 
2691.000000	97.369699 
2690.000000	97.370376 
2689.000000	97.370655 
2688.000000	97.370428 
2687.000000	97.369771 
2686.000000	97.368983 
2685.000000	97.368629 
2684.000000	97.369146 
2683.000000	97.370341 
2682.000000	97.371493 
2681.000000	97.372131 
2680.000000	97.372512 
2679.000000	97.373153 
2678.000000	97.374122 
2677.000000	97.375039 
2676.000000	97.375514 
2675.000000	97.375305 
2674.000000	97.374325 
2673.000000	97.372891 
2672.000000	97.371761 
2671.000000	97.371424 
2670.000000	97.371494 
2669.000000	97.371206 
2668.000000	97.370446 
2667.000000	97.369784 
2666.000000	97.369466 
2665.000000	97.368912 
2664.000000	97.367536 
2663.000000	97.365665 
2662.000000	97.364267 
2661.000000	97.363774 
2660.000000	97.363592 
2659.000000	97.362816 
2658.000000	97.361240 
2657.000000	97.359561 
2656.000000	97.358653 
2655.000000	97.358750 
2654.000000	97.359299 
2653.000000	97.359520 
2652.000000	97.359111 
2651.000000	97.358452 
2650.000000	97.358176 
2649.000000	97.358524 
2648.000000	97.359055 
2647.000000	97.358970 
2646.000000	97.357744 
2645.000000	97.355511 
2644.000000	97.352977 
2643.000000	97.350942 
2642.000000	97.349792 
2641.000000	97.349408 
2640.000000	97.349463 
2639.000000	97.349749 
2638.000000	97.350181 
2637.000000	97.350596 
2636.000000	97.350768 
2635.000000	97.350666 
2634.000000	97.350529 
2633.000000	97.350549 
2632.000000	97.350572 
2631.000000	97.350295 
2630.000000	97.349707 
2629.000000	97.349132 
2628.000000	97.348819 
2627.000000	97.348659 
2626.000000	97.348430 
2625.000000	97.348146 
2624.000000	97.348020 
2623.000000	97.348159 
2622.000000	97.348401 
2621.000000	97.348455 
2620.000000	97.348149 
2619.000000	97.347526 
2618.000000	97.346812 
2617.000000	97.346317 
2616.000000	97.346203 
2615.000000	97.346397 
2614.000000	97.346662 
2613.000000	97.346819 
2612.000000	97.346871 
2611.000000	97.346892 
2610.000000	97.346936 
2609.000000	97.347031 
2608.000000	97.347185 
2607.000000	97.347359 
2606.000000	97.347493 
2605.000000	97.347562 
2604.000000	97.347587 
2603.000000	97.347583 
2602.000000	97.347565 
2601.000000	97.347595 
2600.000000	97.347736 
2599.000000	97.347946 
2598.000000	97.348098 
2597.000000	97.348118 
2596.000000	97.348052 
2595.000000	97.347967 
2594.000000	97.347843 
2593.000000	97.347700 
2592.000000	97.347786 
2591.000000	97.348329 
2590.000000	97.349100 
2589.000000	97.349519 
2588.000000	97.349338 
2587.000000	97.348973 
2586.000000	97.349016 
2585.000000	97.349585 
2584.000000	97.350361 
2583.000000	97.351062 
2582.000000	97.351632 
2581.000000	97.352099 
2580.000000	97.352530 
2579.000000	97.353093 
2578.000000	97.353928 
2577.000000	97.354920 
2576.000000	97.355694 
2575.000000	97.355891 
2574.000000	97.355422 
2573.000000	97.354543 
2572.000000	97.353652 
2571.000000	97.352929 
2570.000000	97.352272 
2569.000000	97.351622 
2568.000000	97.351229 
2567.000000	97.351410 
2566.000000	97.352098 
2565.000000	97.352863 
2564.000000	97.353346 
2563.000000	97.353449 
2562.000000	97.353199 
2561.000000	97.352818 
2560.000000	97.352942 
2559.000000	97.354277 
2558.000000	97.356807 
2557.000000	97.359478 
2556.000000	97.361103 
2555.000000	97.361514 
2554.000000	97.361392 
2553.000000	97.361188 
2552.000000	97.360639 
2551.000000	97.359635 
2550.000000	97.358876 
2549.000000	97.359066 
2548.000000	97.359822 
2547.000000	97.360080 
2546.000000	97.359514 
2545.000000	97.358893 
2544.000000	97.358872 
2543.000000	97.359117 
2542.000000	97.358998 
2541.000000	97.358598 
2540.000000	97.358512 
2539.000000	97.358930 
2538.000000	97.359445 
2537.000000	97.359704 
2536.000000	97.359821 
2535.000000	97.360041 
2534.000000	97.360307 
2533.000000	97.360371 
2532.000000	97.360186 
2531.000000	97.359988 
2530.000000	97.360007 
2529.000000	97.360214 
2528.000000	97.360387 
2527.000000	97.360385 
2526.000000	97.360312 
2525.000000	97.360391 
2524.000000	97.360707 
2523.000000	97.361155 
2522.000000	97.361569 
2521.000000	97.361875 
2520.000000	97.362094 
2519.000000	97.362273 
2518.000000	97.362447 
2517.000000	97.362638 
2516.000000	97.362835 
2515.000000	97.362998 
2514.000000	97.363120 
2513.000000	97.363282 
2512.000000	97.363601 
2511.000000	97.364104 
2510.000000	97.364730 
2509.000000	97.365396 
2508.000000	97.366032 
2507.000000	97.366581 
2506.000000	97.367040 
2505.000000	97.367485 
2504.000000	97.368006 
2503.000000	97.368600 
2502.000000	97.369184 
2501.000000	97.369692 
2500.000000	97.370136 
2499.000000	97.370573 
2498.000000	97.371042 
2497.000000	97.371543 
2496.000000	97.372072 
2495.000000	97.372633 
2494.000000	97.373204 
2493.000000	97.373733 
2492.000000	97.374189 
2491.000000	97.374606 
2490.000000	97.375081 
2489.000000	97.375673 
2488.000000	97.376292 
2487.000000	97.376751 
2486.000000	97.376980 
2485.000000	97.377146 
2484.000000	97.377498 
2483.000000	97.378086 
2482.000000	97.378738 
2481.000000	97.379298 
2480.000000	97.379775 
2479.000000	97.380235 
2478.000000	97.380728 
2477.000000	97.381364 
2476.000000	97.382212 
2475.000000	97.383018 
2474.000000	97.383291 
2473.000000	97.382808 
2472.000000	97.381865 
2471.000000	97.380936 
2470.000000	97.380306 
2469.000000	97.380168 
2468.000000	97.380687 
2467.000000	97.381654 
2466.000000	97.382335 
2465.000000	97.382085 
2464.000000	97.381114 
2463.000000	97.380446 
2462.000000	97.381010 
2461.000000	97.382864 
2460.000000	97.385119 
2459.000000	97.386587 
2458.000000	97.386594 
2457.000000	97.385303 
2456.000000	97.383295 
2455.000000	97.381049 
2454.000000	97.378925 
2453.000000	97.377251 
2452.000000	97.376027 
2451.000000	97.374847 
2450.000000	97.373704 
2449.000000	97.373471 
2448.000000	97.374803 
2447.000000	97.376892 
2446.000000	97.378181 
2445.000000	97.378369 
2444.000000	97.378538 
2443.000000	97.379372 
2442.000000	97.380441 
2441.000000	97.381257 
2440.000000	97.381926 
2439.000000	97.382595 
2438.000000	97.383286 
2437.000000	97.384483 
2436.000000	97.386797 
2435.000000	97.389736 
2434.000000	97.391779 
2433.000000	97.392092 
2432.000000	97.391466 
2431.000000	97.391286 
2430.000000	97.392148 
2429.000000	97.393778 
2428.000000	97.395586 
2427.000000	97.396899 
2426.000000	97.397225 
2425.000000	97.396738 
2424.000000	97.396211 
2423.000000	97.396198 
2422.000000	97.396648 
2421.000000	97.397429 
2420.000000	97.398702 
2419.000000	97.400500 
2418.000000	97.402378 
2417.000000	97.403953 
2416.000000	97.405341 
2415.000000	97.406816 
2414.000000	97.408340 
2413.000000	97.409783 
2412.000000	97.411313 
2411.000000	97.413054 
2410.000000	97.414692 
2409.000000	97.415993 
2408.000000	97.417378 
2407.000000	97.419347 
2406.000000	97.421506 
2405.000000	97.422858 
2404.000000	97.422932 
2403.000000	97.422082 
2402.000000	97.420922 
2401.000000	97.420073 
2400.000000	97.420309 
2399.000000	97.422277 
2398.000000	97.425994 
2397.000000	97.430914 
2396.000000	97.435743 
2395.000000	97.439041 
2394.000000	97.440198 
2393.000000	97.439104 
2392.000000	97.437696 
2391.000000	97.437687 
2390.000000	97.438783 
2389.000000	97.440059 
2388.000000	97.440958 
2387.000000	97.441552 
2386.000000	97.442064 
2385.000000	97.442625 
2384.000000	97.443300 
2383.000000	97.444105 
2382.000000	97.444999 
2381.000000	97.445932 
2380.000000	97.446917 
2379.000000	97.447968 
2378.000000	97.448936 
2377.000000	97.449579 
2376.000000	97.449797 
2375.000000	97.449744 
2374.000000	97.449638 
2373.000000	97.449514 
2372.000000	97.449281 
2371.000000	97.448954 
2370.000000	97.448657 
2369.000000	97.448430 
2368.000000	97.448181 
2367.000000	97.447836 
2366.000000	97.447407 
2365.000000	97.446964 
2364.000000	97.446597 
2363.000000	97.446276 
2362.000000	97.445908 
2361.000000	97.445441 
2360.000000	97.444822 
2359.000000	97.444059 
2358.000000	97.443137 
2357.000000	97.442026 
2356.000000	97.440690 
2355.000000	97.439053 
2354.000000	97.437107 
2353.000000	97.434957 
2352.000000	97.432725 
2351.000000	97.430563 
2350.000000	97.428612 
2349.000000	97.426902 
2348.000000	97.425326 
2347.000000	97.423734 
2346.000000	97.422035 
2345.000000	97.420227 
2344.000000	97.418354 
2343.000000	97.416442 
2342.000000	97.414505 
2341.000000	97.412545 
2340.000000	97.410555 
2339.000000	97.408517 
2338.000000	97.406414 
2337.000000	97.404244 
2336.000000	97.402027 
2335.000000	97.399785 
2334.000000	97.397530 
2333.000000	97.395257 
2332.000000	97.392958 
2331.000000	97.390634 
2330.000000	97.388291 
2329.000000	97.385943 
2328.000000	97.383597 
2327.000000	97.381265 
2326.000000	97.378947 
2325.000000	97.376647 
2324.000000	97.374378 
2323.000000	97.372146 
2322.000000	97.369947 
2321.000000	97.367763 
2320.000000	97.365593 
2319.000000	97.363452 
2318.000000	97.361367 
2317.000000	97.359348 
2316.000000	97.357396 
2315.000000	97.355514 
2314.000000	97.353716 
2313.000000	97.352027 
2312.000000	97.350482 
2311.000000	97.349103 
2310.000000	97.347845 
2309.000000	97.346564 
2308.000000	97.344928 
2307.000000	97.342712 
2306.000000	97.340463 
2305.000000	97.338515 
2304.000000	97.337261 
2303.000000	97.336552 
2302.000000	97.336331 
2301.000000	97.336930 
2300.000000	97.337479 
2299.000000	97.336896 
2298.000000	97.334254 
2297.000000	97.330589 
2296.000000	97.327158 
2295.000000	97.325697 
2294.000000	97.326188 
2293.000000	97.327681 
2292.000000	97.328714 
2291.000000	97.329070 
2290.000000	97.329206 
2289.000000	97.329306 
2288.000000	97.328880 
2287.000000	97.327414 
2286.000000	97.325191 
2285.000000	97.323197 
2284.000000	97.322827 
2283.000000	97.324661 
2282.000000	97.328017 
2281.000000	97.331013 
2280.000000	97.332246 
2279.000000	97.331473 
2278.000000	97.329699 
2277.000000	97.328294 
2276.000000	97.328300 
2275.000000	97.330063 
2274.000000	97.332893 
2273.000000	97.335901 
2272.000000	97.338773 
2271.000000	97.341581 
2270.000000	97.343839 
2269.000000	97.344724 
2268.000000	97.344459 
2267.000000	97.344459 
2266.000000	97.345410 
2265.000000	97.346538 
2264.000000	97.346614 
2263.000000	97.345249 
2262.000000	97.342523 
2261.000000	97.338625 
2260.000000	97.334561 
2259.000000	97.331772 
2258.000000	97.330895 
2257.000000	97.331187 
2256.000000	97.332022 
2255.000000	97.333747 
2254.000000	97.336497 
2253.000000	97.338933 
2252.000000	97.339230 
2251.000000	97.336968 
2250.000000	97.333098 
2249.000000	97.328853 
2248.000000	97.325288 
2247.000000	97.323340 
2246.000000	97.323203 
2245.000000	97.323792 
2244.000000	97.323444 
2243.000000	97.321556 
2242.000000	97.318998 
2241.000000	97.317108 
2240.000000	97.316474 
2239.000000	97.316803 
2238.000000	97.317388 
2237.000000	97.317583 
2236.000000	97.317160 
2235.000000	97.316353 
2234.000000	97.315540 
2233.000000	97.314875 
2232.000000	97.314298 
2231.000000	97.313738 
2230.000000	97.313051 
2229.000000	97.311942 
2228.000000	97.310288 
2227.000000	97.308485 
2226.000000	97.307115 
2225.000000	97.306278 
2224.000000	97.305521 
2223.000000	97.304465 
2222.000000	97.303269 
2221.000000	97.302310 
2220.000000	97.301639 
2219.000000	97.301026 
2218.000000	97.300307 
2217.000000	97.299550 
2216.000000	97.298903 
2215.000000	97.298395 
2214.000000	97.297936 
2213.000000	97.297441 
2212.000000	97.296908 
2211.000000	97.296388 
2210.000000	97.295913 
2209.000000	97.295482 
2208.000000	97.295074 
2207.000000	97.294664 
2206.000000	97.294223 
2205.000000	97.293754 
2204.000000	97.293369 
2203.000000	97.293221 
2202.000000	97.293266 
2201.000000	97.293204 
2200.000000	97.292647 
2199.000000	97.291316 
2198.000000	97.289279 
2197.000000	97.287160 
2196.000000	97.285799 
2195.000000	97.285404 
2194.000000	97.285277 
2193.000000	97.284732 
2192.000000	97.283979 
2191.000000	97.283637 
2190.000000	97.283783 
2189.000000	97.284137 
2188.000000	97.284872 
2187.000000	97.286207 
2186.000000	97.287194 
2185.000000	97.286268 
2184.000000	97.283762 
2183.000000	97.282841 
2182.000000	97.286402 
2181.000000	97.293526 
2180.000000	97.299611 
2179.000000	97.300988 
2178.000000	97.298137 
2177.000000	97.294666 
2176.000000	97.293832 
2175.000000	97.296077 
2174.000000	97.299477 
2173.000000	97.301765 
2172.000000	97.302272 
2171.000000	97.302148 
2170.000000	97.302582 
2169.000000	97.302951 
2168.000000	97.301538 
2167.000000	97.298272 
2166.000000	97.295481 
2165.000000	97.294875 
2164.000000	97.294909 
2163.000000	97.293151 
2162.000000	97.291283 
2161.000000	97.295220 
2160.000000	97.309011 
2159.000000	97.329996 
2158.000000	97.350302 
2157.000000	97.363670 
2156.000000	97.369256 
2155.000000	97.369626 
2154.000000	97.368227 
2153.000000	97.368386 
2152.000000	97.371794 
2151.000000	97.376539 
2150.000000	97.378348 
2149.000000	97.375637 
2148.000000	97.372462 
2147.000000	97.374386 
2146.000000	97.381960 
2145.000000	97.390514 
2144.000000	97.396339 
2143.000000	97.400404 
2142.000000	97.404919 
2141.000000	97.409103 
2140.000000	97.410798 
2139.000000	97.410864 
2138.000000	97.413260 
2137.000000	97.420594 
2136.000000	97.430896 
2135.000000	97.438833 
2134.000000	97.439770 
2133.000000	97.433479 
2132.000000	97.425062 
2131.000000	97.421004 
2130.000000	97.423252 
2129.000000	97.427814 
2128.000000	97.429470 
2127.000000	97.427193 
2126.000000	97.424283 
2125.000000	97.424063 
2124.000000	97.426527 
2123.000000	97.428899 
2122.000000	97.428359 
2121.000000	97.424144 
2120.000000	97.417788 
2119.000000	97.411562 
2118.000000	97.406604 
2117.000000	97.402720 
2116.000000	97.399592 
2115.000000	97.397156 
2114.000000	97.394565 
2113.000000	97.390297 
2112.000000	97.384640 
2111.000000	97.380768 
2110.000000	97.381641 
2109.000000	97.386485 
2108.000000	97.391541 
2107.000000	97.393870 
2106.000000	97.393422 
2105.000000	97.392179 
2104.000000	97.392472 
2103.000000	97.395209 
2102.000000	97.398386 
2101.000000	97.398127 
2100.000000	97.392860 
2099.000000	97.386075 
2098.000000	97.383447 
2097.000000	97.387058 
2096.000000	97.394030 
2095.000000	97.399979 
2094.000000	97.402817 
2093.000000	97.402870 
2092.000000	97.401181 
2091.000000	97.398969 
2090.000000	97.397614 
2089.000000	97.397621 
2088.000000	97.397777 
2087.000000	97.396229 
2086.000000	97.392416 
2085.000000	97.387532 
2084.000000	97.383321 
2083.000000	97.380596 
2082.000000	97.379008 
2081.000000	97.378002 
2080.000000	97.377808 
2079.000000	97.379164 
2078.000000	97.381906 
2077.000000	97.384326 
2076.000000	97.384783 
2075.000000	97.383516 
2074.000000	97.382035 
2073.000000	97.380742 
2072.000000	97.378394 
2071.000000	97.374252 
2070.000000	97.369433 
2069.000000	97.365719 
2068.000000	97.363900 
2067.000000	97.363562 
2066.000000	97.363711 
2065.000000	97.363231 
2064.000000	97.361366 
2063.000000	97.358305 
2062.000000	97.355185 
2061.000000	97.353241 
2060.000000	97.352890 
2059.000000	97.353737 
2058.000000	97.354950 
2057.000000	97.355536 
2056.000000	97.354764 
2055.000000	97.352510 
2054.000000	97.349421 
2053.000000	97.346563 
2052.000000	97.344720 
2051.000000	97.343960 
2050.000000	97.343817 
2049.000000	97.343745 
2048.000000	97.343507 
2047.000000	97.343196 
2046.000000	97.342986 
2045.000000	97.342949 
2044.000000	97.343108 
2043.000000	97.343517 
2042.000000	97.344168 
2041.000000	97.344852 
2040.000000	97.345361 
2039.000000	97.345891 
2038.000000	97.346892 
2037.000000	97.348346 
2036.000000	97.349468 
2035.000000	97.349452 
2034.000000	97.348463 
2033.000000	97.347765 
2032.000000	97.348573 
2031.000000	97.350840 
2030.000000	97.353064 
2029.000000	97.353533 
2028.000000	97.351860 
2027.000000	97.349215 
2026.000000	97.347088 
2025.000000	97.346093 
2024.000000	97.346293 
2023.000000	97.348095 
2022.000000	97.352061 
2021.000000	97.357626 
2020.000000	97.362567 
2019.000000	97.364485 
2018.000000	97.362540 
2017.000000	97.357963 
2016.000000	97.353298 
2015.000000	97.350565 
2014.000000	97.349644 
2013.000000	97.348389 
2012.000000	97.345225 
2011.000000	97.341814 
2010.000000	97.341621 
2009.000000	97.345580 
2008.000000	97.350744 
2007.000000	97.353960 
2006.000000	97.355374 
2005.000000	97.356599 
2004.000000	97.357586 
2003.000000	97.357546 
2002.000000	97.357398 
2001.000000	97.358372 
2000.000000	97.358843 
1999.000000	97.355331 
1998.000000	97.346564 
1997.000000	97.335259 
1996.000000	97.325950 
1995.000000	97.321486 
1994.000000	97.321791 
1993.000000	97.324428 
1992.000000	97.326134 
1991.000000	97.325633 
1990.000000	97.325052 
1989.000000	97.327293 
1988.000000	97.332056 
1987.000000	97.335469 
1986.000000	97.334058 
1985.000000	97.328321 
1984.000000	97.321872 
1983.000000	97.317652 
1982.000000	97.315995 
1981.000000	97.316068 
1980.000000	97.317880 
1979.000000	97.321887 
1978.000000	97.326968 
1977.000000	97.330548 
1976.000000	97.331365 
1975.000000	97.330974 
1974.000000	97.331935 
1973.000000	97.335337 
1972.000000	97.340327 
1971.000000	97.345192 
1970.000000	97.348264 
1969.000000	97.348263 
1968.000000	97.344812 
1967.000000	97.339201 
1966.000000	97.334491 
1965.000000	97.333603 
1964.000000	97.337341 
1963.000000	97.344393 
1962.000000	97.352552 
1961.000000	97.359854 
1960.000000	97.364795 
1959.000000	97.366408 
1958.000000	97.365114 
1957.000000	97.363213 
1956.000000	97.363145 
1955.000000	97.365049 
1954.000000	97.366991 
1953.000000	97.367579 
1952.000000	97.367214 
1951.000000	97.366711 
1950.000000	97.366328 
1949.000000	97.366523 
1948.000000	97.368287 
1947.000000	97.371857 
1946.000000	97.375711 
1945.000000	97.377839 
1944.000000	97.377664 
1943.000000	97.376003 
1942.000000	97.373829 
1941.000000	97.371671 
1940.000000	97.369993 
1939.000000	97.369153 
1938.000000	97.369037 
1937.000000	97.369524 
1936.000000	97.370930 
1935.000000	97.373088 
1934.000000	97.374582 
1933.000000	97.374383 
1932.000000	97.373651 
1931.000000	97.374467 
1930.000000	97.377214 
1929.000000	97.380027 
1928.000000	97.381366 
1927.000000	97.381770 
1926.000000	97.382398 
1925.000000	97.383175 
1924.000000	97.382986 
1923.000000	97.381317 
1922.000000	97.378644 
1921.000000	97.375517 
1920.000000	97.372460 
1919.000000	97.370310 
1918.000000	97.369367 
1917.000000	97.368415 
1916.000000	97.366172 
1915.000000	97.363555 
1914.000000	97.362389 
1913.000000	97.362884 
1912.000000	97.363565 
1911.000000	97.363434 
1910.000000	97.362919 
1909.000000	97.362347 
1908.000000	97.361423 
1907.000000	97.360251 
1906.000000	97.359322 
1905.000000	97.358266 
1904.000000	97.355955 
1903.000000	97.352836 
1902.000000	97.351052 
1901.000000	97.351262 
1900.000000	97.351793 
1899.000000	97.351315 
1898.000000	97.350506 
1897.000000	97.350410 
1896.000000	97.350279 
1895.000000	97.348705 
1894.000000	97.345829 
1893.000000	97.342790 
1892.000000	97.340248 
1891.000000	97.338507 
1890.000000	97.337849 
1889.000000	97.337773 
1888.000000	97.337213 
1887.000000	97.336421 
1886.000000	97.336689 
1885.000000	97.337631 
1884.000000	97.336877 
1883.000000	97.333535 
1882.000000	97.330159 
1881.000000	97.329533 
1880.000000	97.331431 
1879.000000	97.333373 
1878.000000	97.333423 
1877.000000	97.331914 
1876.000000	97.330537 
1875.000000	97.330737 
1874.000000	97.333034 
1873.000000	97.336543 
1872.000000	97.339377 
1871.000000	97.340392 
1870.000000	97.340188 
1869.000000	97.340087 
1868.000000	97.340319 
1867.000000	97.340902 
1866.000000	97.342495 
1865.000000	97.344353 
1864.000000	97.344655 
1863.000000	97.343724 
1862.000000	97.344341 
1861.000000	97.348079 
1860.000000	97.353267 
1859.000000	97.357757 
1858.000000	97.361813 
1857.000000	97.366288 
1856.000000	97.370477 
1855.000000	97.373453 
1854.000000	97.375345 
1853.000000	97.376263 
1852.000000	97.376552 
1851.000000	97.377865 
1850.000000	97.381495 
1849.000000	97.386321 
1848.000000	97.389709 
1847.000000	97.390891 
1846.000000	97.391657 
1845.000000	97.393697 
1844.000000	97.396389 
1843.000000	97.398486 
1842.000000	97.400286 
1841.000000	97.402475 
1840.000000	97.405495 
1839.000000	97.409623 
1838.000000	97.414244 
1837.000000	97.417538 
1836.000000	97.418108 
1835.000000	97.417119 
1834.000000	97.417124 
1833.000000	97.418858 
1832.000000	97.421331 
1831.000000	97.423256 
1830.000000	97.423676 
1829.000000	97.422877 
1828.000000	97.422283 
1827.000000	97.423011 
1826.000000	97.425281 
1825.000000	97.428496 
1824.000000	97.431260 
1823.000000	97.432412 
1822.000000	97.432422 
1821.000000	97.432524 
1820.000000	97.433048 
1819.000000	97.433334 
1818.000000	97.433750 
1817.000000	97.435521 
1816.000000	97.437438 
1815.000000	97.437499 
1814.000000	97.436735 
1813.000000	97.438146 
1812.000000	97.441410 
1811.000000	97.441457 
1810.000000	97.436842 
1809.000000	97.432721 
1808.000000	97.431921 
1807.000000	97.431720 
1806.000000	97.430509 
1805.000000	97.430101 
1804.000000	97.430865 
1803.000000	97.430275 
1802.000000	97.426880 
1801.000000	97.422989 
1800.000000	97.420417 
1799.000000	97.417782 
1798.000000	97.415897 
1797.000000	97.416627 
1796.000000	97.417516 
1795.000000	97.415336 
1794.000000	97.411811 
1793.000000	97.412231 
1792.000000	97.416469 
1791.000000	97.418171 
1790.000000	97.416914 
1789.000000	97.417941 
1788.000000	97.422474 
1787.000000	97.427209 
1786.000000	97.430110 
1785.000000	97.432131 
1784.000000	97.433530 
1783.000000	97.434314 
1782.000000	97.435285 
1781.000000	97.437057 
1780.000000	97.439331 
1779.000000	97.441206 
1778.000000	97.443581 
1777.000000	97.447178 
1776.000000	97.450644 
1775.000000	97.452722 
1774.000000	97.453255 
1773.000000	97.453597 
1772.000000	97.455227 
1771.000000	97.456989 
1770.000000	97.457478 
1769.000000	97.458155 
1768.000000	97.460830 
1767.000000	97.464436 
1766.000000	97.466770 
1765.000000	97.468172 
1764.000000	97.470798 
1763.000000	97.475042 
1762.000000	97.478548 
1761.000000	97.480075 
1760.000000	97.481049 
1759.000000	97.482311 
1758.000000	97.483187 
1757.000000	97.482885 
1756.000000	97.482603 
1755.000000	97.483072 
1754.000000	97.482517 
1753.000000	97.479606 
1752.000000	97.476490 
1751.000000	97.477091 
1750.000000	97.481723 
1749.000000	97.486797 
1748.000000	97.489991 
1747.000000	97.492139 
1746.000000	97.493694 
1745.000000	97.494828 
1744.000000	97.496882 
1743.000000	97.499715 
1742.000000	97.500923 
1741.000000	97.499883 
1740.000000	97.499129 
1739.000000	97.500334 
1738.000000	97.501253 
1737.000000	97.500085 
1736.000000	97.497671 
1735.000000	97.496122 
1734.000000	97.496245 
1733.000000	97.496596 
1732.000000	97.497531 
1731.000000	97.501180 
1730.000000	97.507448 
1729.000000	97.512322 
1728.000000	97.513675 
1727.000000	97.513116 
1726.000000	97.512560 
1725.000000	97.512052 
1724.000000	97.511183 
1723.000000	97.509764 
1722.000000	97.508267 
1721.000000	97.506778 
1720.000000	97.505094 
1719.000000	97.502501 
1718.000000	97.498822 
1717.000000	97.496437 
1716.000000	97.494957 
1715.000000	97.492105 
1714.000000	97.489823 
1713.000000	97.489572 
1712.000000	97.489279 
1711.000000	97.487625 
1710.000000	97.485524 
1709.000000	97.483661 
1708.000000	97.481758 
1707.000000	97.479750 
1706.000000	97.478222 
1705.000000	97.476991 
1704.000000	97.473742 
1703.000000	97.467825 
1702.000000	97.460894 
1701.000000	97.456162 
1700.000000	97.453883 
1699.000000	97.450510 
1698.000000	97.446379 
1697.000000	97.443971 
1696.000000	97.442823 
1695.000000	97.440761 
1694.000000	97.437486 
1693.000000	97.434104 
1692.000000	97.430957 
1691.000000	97.427759 
1690.000000	97.424347 
1689.000000	97.420744 
1688.000000	97.417017 
1687.000000	97.413250 
1686.000000	97.409588 
1685.000000	97.406361 
1684.000000	97.403332 
1683.000000	97.399993 
1682.000000	97.396472 
1681.000000	97.392873 
1680.000000	97.389400 
1679.000000	97.386066 
1678.000000	97.382656 
1677.000000	97.378856 
1676.000000	97.374950 
1675.000000	97.371538 
1674.000000	97.367913 
1673.000000	97.363086 
1672.000000	97.357994 
1671.000000	97.354569 
1670.000000	97.353425 
1669.000000	97.352019 
1668.000000	97.349068 
1667.000000	97.346507 
1666.000000	97.344517 
1665.000000	97.342114 
1664.000000	97.339640 
1663.000000	97.338136 
1662.000000	97.336417 
1661.000000	97.330967 
1660.000000	97.323051 
1659.000000	97.317543 
1658.000000	97.317029 
1657.000000	97.316982 
1656.000000	97.314922 
1655.000000	97.311541 
1654.000000	97.310827 
1653.000000	97.308089 
1652.000000	97.296459 
1651.000000	97.283349 
1650.000000	97.271067 
1649.000000	97.262914 
1648.000000	97.258311 
1647.000000	97.256616 
1646.000000	97.255254 
1645.000000	97.255167 
1644.000000	97.254124 
1643.000000	97.252078 
1642.000000	97.250956 
1641.000000	97.251718 
1640.000000	97.252431 
1639.000000	97.250372 
1638.000000	97.245742 
1637.000000	97.240702 
1636.000000	97.236278 
1635.000000	97.235803 
1634.000000	97.241052 
1633.000000	97.247285 
1632.000000	97.249557 
1631.000000	97.248799 
1630.000000	97.249988 
1629.000000	97.254117 
1628.000000	97.257905 
1627.000000	97.260782 
1626.000000	97.264761 
1625.000000	97.269528 
1624.000000	97.274023 
1623.000000	97.279719 
1622.000000	97.287395 
1621.000000	97.292354 
1620.000000	97.292626 
1619.000000	97.292578 
1618.000000	97.297006 
1617.000000	97.302308 
1616.000000	97.301087 
1615.000000	97.298337 
1614.000000	97.300306 
1613.000000	97.303518 
1612.000000	97.303547 
1611.000000	97.303339 
1610.000000	97.308191 
1609.000000	97.316710 
1608.000000	97.324941 
1607.000000	97.334051 
1606.000000	97.344220 
1605.000000	97.351066 
1604.000000	97.354358 
1603.000000	97.359235 
1602.000000	97.367623 
1601.000000	97.375359 
1600.000000	97.379962 
1599.000000	97.384575 
1598.000000	97.391109 
1597.000000	97.397192 
1596.000000	97.401076 
1595.000000	97.405089 
1594.000000	97.411575 
1593.000000	97.418159 
1592.000000	97.421937 
1591.000000	97.424872 
1590.000000	97.430091 
1589.000000	97.436209 
1588.000000	97.441110 
1587.000000	97.447173 
1586.000000	97.456230 
1585.000000	97.463462 
1584.000000	97.465313 
1583.000000	97.466573 
1582.000000	97.471718 
1581.000000	97.477760 
1580.000000	97.481184 
1579.000000	97.484862 
1578.000000	97.492382 
1577.000000	97.500580 
1576.000000	97.502925 
1575.000000	97.502936 
1574.000000	97.505448 
1573.000000	97.507518 
1572.000000	97.509500 
1571.000000	97.515027 
1570.000000	97.522278 
1569.000000	97.519685 
1568.000000	97.507858 
1567.000000	97.499319 
1566.000000	97.498617 
1565.000000	97.499436 
1564.000000	97.500100 
1563.000000	97.501478 
1562.000000	97.503060 
1561.000000	97.496029 
1560.000000	97.481363 
1559.000000	97.472144 
1558.000000	97.472667 
1557.000000	97.476363 
1556.000000	97.473985 
1555.000000	97.474152 
1554.000000	97.472146 
1553.000000	97.468391 
1552.000000	97.463926 
1551.000000	97.461137 
1550.000000	97.455848 
1549.000000	97.446154 
1548.000000	97.435361 
1547.000000	97.428596 
1546.000000	97.425519 
1545.000000	97.422621 
1544.000000	97.417556 
1543.000000	97.409476 
1542.000000	97.399835 
1541.000000	97.392683 
1540.000000	97.381699 
1539.000000	97.365189 
1538.000000	97.351609 
1537.000000	97.339329 
1536.000000	97.326388 
1535.000000	97.314612 
1534.000000	97.306723 
1533.000000	97.300799 
1532.000000	97.292746 
1531.000000	97.279481 
1530.000000	97.264744 
1529.000000	97.253588 
1528.000000	97.244926 
1527.000000	97.234519 
1526.000000	97.220739 
1525.000000	97.206552 
1524.000000	97.195231 
1523.000000	97.186544 
1522.000000	97.178340 
1521.000000	97.167666 
1520.000000	97.152302 
1519.000000	97.133285 
1518.000000	97.113720 
1517.000000	97.096397 
1516.000000	97.081400 
1515.000000	97.068089 
1514.000000	97.056270 
1513.000000	97.046899 
1512.000000	97.039357 
1511.000000	97.028671 
1510.000000	97.011887 
1509.000000	96.992080 
1508.000000	96.975848 
1507.000000	96.960682 
1506.000000	96.943312 
1505.000000	96.928983 
1504.000000	96.916844 
1503.000000	96.904488 
1502.000000	96.890481 
1501.000000	96.876132 
1500.000000	96.863176 
1499.000000	96.850737 
1498.000000	96.834394 
1497.000000	96.816111 
1496.000000	96.802524 
1495.000000	96.793139 
1494.000000	96.783383 
1493.000000	96.772991 
1492.000000	96.764683 
1491.000000	96.759137 
1490.000000	96.753312 
1489.000000	96.746275 
1488.000000	96.737147 
1487.000000	96.722536 
1486.000000	96.705069 
1485.000000	96.687142 
1484.000000	96.669073 
1483.000000	96.653203 
1482.000000	96.640752 
1481.000000	96.630720 
1480.000000	96.619652 
1479.000000	96.605467 
1478.000000	96.589767 
1477.000000	96.575989 
1476.000000	96.562754 
1475.000000	96.544819 
1474.000000	96.522889 
1473.000000	96.506208 
1472.000000	96.501006 
1471.000000	96.499677 
1470.000000	96.494376 
1469.000000	96.486492 
1468.000000	96.478502 
1467.000000	96.468770 
1466.000000	96.455987 
1465.000000	96.443153 
1464.000000	96.434109 
1463.000000	96.425608 
1462.000000	96.413128 
1461.000000	96.399714 
1460.000000	96.391648 
1459.000000	96.390125 
1458.000000	96.382798 
1457.000000	96.361124 
1456.000000	96.340499 
1455.000000	96.330113 
1454.000000	96.321095 
1453.000000	96.313415 
1452.000000	96.312023 
1451.000000	96.317784 
1450.000000	96.325925 
1449.000000	96.335677 
1448.000000	96.347209 
1447.000000	96.355254 
1446.000000	96.354399 
1445.000000	96.348149 
1444.000000	96.345033 
1443.000000	96.345326 
1442.000000	96.343487 
1441.000000	96.338323 
1440.000000	96.335039 
1439.000000	96.335807 
1438.000000	96.335074 
1437.000000	96.330282 
1436.000000	96.328027 
1435.000000	96.330208 
1434.000000	96.331486 
1433.000000	96.333323 
1432.000000	96.339894 
1431.000000	96.350556 
1430.000000	96.358732 
1429.000000	96.362108 
1428.000000	96.365183 
1427.000000	96.371369 
1426.000000	96.379456 
1425.000000	96.386689 
1424.000000	96.395923 
1423.000000	96.407761 
1422.000000	96.416859 
1421.000000	96.422137 
1420.000000	96.430964 
1419.000000	96.443251 
1418.000000	96.445282 
1417.000000	96.438475 
1416.000000	96.439103 
1415.000000	96.451949 
1414.000000	96.466296 
1413.000000	96.473253 
1412.000000	96.477319 
1411.000000	96.485714 
1410.000000	96.495459 
1409.000000	96.502770 
1408.000000	96.510976 
1407.000000	96.523867 
1406.000000	96.539387 
1405.000000	96.554117 
1404.000000	96.571574 
1403.000000	96.592797 
1402.000000	96.611809 
1401.000000	96.627524 
1400.000000	96.646939 
1399.000000	96.673497 
1398.000000	96.698140 
1397.000000	96.712029 
1396.000000	96.718789 
1395.000000	96.728963 
1394.000000	96.745835 
1393.000000	96.765938 
1392.000000	96.790369 
1391.000000	96.820010 
1390.000000	96.849983 
1389.000000	96.874137 
1388.000000	96.890411 
1387.000000	96.901134 
1386.000000	96.909750 
1385.000000	96.919495 
1384.000000	96.933807 
1383.000000	96.952945 
1382.000000	96.972786 
1381.000000	96.990057 
1380.000000	97.004901 
1379.000000	97.019794 
1378.000000	97.036510 
1377.000000	97.054796 
1376.000000	97.073453 
1375.000000	97.091580 
1374.000000	97.107983 
1373.000000	97.122482 
1372.000000	97.137032 
1371.000000	97.154321 
1370.000000	97.174876 
1369.000000	97.194329 
1368.000000	97.210008 
1367.000000	97.223874 
1366.000000	97.238893 
1365.000000	97.256583 
1364.000000	97.275498 
1363.000000	97.291305 
1362.000000	97.301381 
1361.000000	97.307925 
1360.000000	97.315274 
1359.000000	97.326694 
1358.000000	97.342382 
1357.000000	97.359109 
1356.000000	97.373147 
1355.000000	97.383022 
1354.000000	97.389972 
1353.000000	97.397492 
1352.000000	97.406714 
1351.000000	97.416662 
1350.000000	97.427780 
1349.000000	97.438283 
1348.000000	97.446053 
1347.000000	97.451382 
1346.000000	97.456807 
1345.000000	97.463432 
1344.000000	97.470141 
1343.000000	97.476366 
1342.000000	97.483578 
1341.000000	97.492288 
1340.000000	97.499934 
1339.000000	97.503857 
1338.000000	97.503949 
1337.000000	97.502046 
1336.000000	97.500324 
1335.000000	97.500003 
1334.000000	97.501407 
1333.000000	97.504371 
1332.000000	97.507875 
1331.000000	97.510744 
1330.000000	97.512477 
1329.000000	97.513057 
1328.000000	97.512752 
1327.000000	97.512808 
1326.000000	97.514271 
1325.000000	97.515205 
1324.000000	97.513931 
1323.000000	97.511120 
1322.000000	97.507979 
1321.000000	97.504913 
1320.000000	97.503106 
1319.000000	97.504487 
1318.000000	97.508861 
1317.000000	97.513511 
1316.000000	97.516048 
1315.000000	97.515801 
1314.000000	97.512668 
1313.000000	97.507682 
1312.000000	97.503976 
1311.000000	97.504327 
1310.000000	97.507581 
1309.000000	97.510326 
1308.000000	97.511359 
1307.000000	97.512515 
1306.000000	97.515165 
1305.000000	97.517593 
1304.000000	97.518563 
1303.000000	97.518697 
1302.000000	97.518179 
1301.000000	97.515911 
1300.000000	97.512364 
1299.000000	97.510138 
1298.000000	97.510505 
1297.000000	97.511580 
1296.000000	97.511018 
1295.000000	97.509243 
1294.000000	97.508270 
1293.000000	97.509239 
1292.000000	97.512012 
1291.000000	97.515572 
1290.000000	97.518287 
1289.000000	97.518871 
1288.000000	97.517333 
1287.000000	97.514316 
1286.000000	97.509980 
1285.000000	97.505029 
1284.000000	97.501975 
1283.000000	97.502547 
1282.000000	97.504599 
1281.000000	97.504148 
1280.000000	97.500593 
1279.000000	97.497744 
1278.000000	97.498953 
1277.000000	97.503755 
1276.000000	97.509382 
1275.000000	97.513749 
1274.000000	97.515963 
1273.000000	97.516139 
1272.000000	97.515636 
1271.000000	97.515784 
1270.000000	97.515852 
1269.000000	97.514014 
1268.000000	97.510698 
1267.000000	97.508315 
1266.000000	97.507313 
1265.000000	97.506217 
1264.000000	97.505473 
1263.000000	97.507184 
1262.000000	97.510722 
1261.000000	97.512485 
1260.000000	97.511576 
1259.000000	97.512033 
1258.000000	97.516439 
1257.000000	97.521209 
1256.000000	97.520813 
1255.000000	97.514668 
1254.000000	97.507529 
1253.000000	97.503945 
1252.000000	97.503697 
1251.000000	97.502698 
1250.000000	97.497655 
1249.000000	97.490024 
1248.000000	97.484974 
1247.000000	97.485232 
1246.000000	97.486623 
1245.000000	97.482449 
1244.000000	97.471394 
1243.000000	97.458680 
1242.000000	97.450293 
1241.000000	97.448456 
1240.000000	97.451416 
1239.000000	97.454214 
1238.000000	97.450488 
1237.000000	97.437214 
1236.000000	97.417811 
1235.000000	97.398180 
1234.000000	97.380250 
1233.000000	97.361890 
1232.000000	97.341793 
1231.000000	97.320533 
1230.000000	97.297825 
1229.000000	97.272924 
1228.000000	97.246816 
1227.000000	97.219864 
1226.000000	97.188144 
1225.000000	97.146520 
1224.000000	97.095083 
1223.000000	97.038386 
1222.000000	96.978536 
1221.000000	96.913453 
1220.000000	96.842156 
1219.000000	96.766992 
1218.000000	96.689480 
1217.000000	96.608234 
1216.000000	96.521941 
1215.000000	96.430729 
1214.000000	96.334511 
1213.000000	96.234293 
1212.000000	96.134688 
1211.000000	96.039381 
1210.000000	95.944192 
1209.000000	95.840933 
1208.000000	95.728884 
1207.000000	95.616324 
1206.000000	95.509525 
1205.000000	95.406223 
1204.000000	95.301509 
1203.000000	95.194045 
1202.000000	95.084544 
1201.000000	94.973584 
1200.000000	94.863275 
1199.000000	94.756505 
1198.000000	94.652365 
1197.000000	94.546732 
1196.000000	94.438372 
1195.000000	94.329813 
1194.000000	94.221690 
1193.000000	94.111236 
1192.000000	93.997466 
1191.000000	93.882677 
1190.000000	93.767584 
1189.000000	93.649836 
1188.000000	93.528371 
1187.000000	93.404534 
1186.000000	93.278362 
1185.000000	93.148635 
1184.000000	93.016561 
1183.000000	92.884148 
1182.000000	92.749166 
1181.000000	92.607274 
1180.000000	92.458752 
1179.000000	92.307162 
1178.000000	92.151769 
1177.000000	91.988220 
1176.000000	91.816556 
1175.000000	91.641323 
1174.000000	91.463815 
1173.000000	91.281878 
1172.000000	91.097694 
1171.000000	90.916916 
1170.000000	90.739144 
1169.000000	90.558649 
1168.000000	90.376490 
1167.000000	90.203299 
1166.000000	90.049076 
1165.000000	89.920575 
1164.000000	89.830192 
1163.000000	89.794624 
1162.000000	89.818489 
1161.000000	89.886130 
1160.000000	89.971769 
1159.000000	90.050501 
1158.000000	90.099607 
1157.000000	90.101792 
1156.000000	90.053610 
1155.000000	89.965255 
1154.000000	89.849490 
1153.000000	89.715563 
1152.000000	89.573201 
1151.000000	89.432434 
1150.000000	89.295920 
1149.000000	89.159503 
1148.000000	89.022868 
1147.000000	88.891268 
1146.000000	88.764874 
1145.000000	88.636197 
1144.000000	88.501304 
1143.000000	88.364662 
1142.000000	88.229924 
1141.000000	88.095009 
1140.000000	87.959181 
1139.000000	87.825545 
1138.000000	87.693449 
1137.000000	87.557740 
1136.000000	87.418374 
1135.000000	87.281320 
1134.000000	87.147404 
1133.000000	87.010268 
1132.000000	86.868044 
1131.000000	86.726571 
1130.000000	86.588118 
1129.000000	86.447627 
1128.000000	86.303379 
1127.000000	86.160333 
1126.000000	86.019288 
1125.000000	85.873766 
1124.000000	85.721777 
1123.000000	85.570180 
1122.000000	85.423192 
1121.000000	85.276835 
1120.000000	85.128542 
1119.000000	84.981475 
1118.000000	84.835610 
1117.000000	84.686085 
1116.000000	84.534137 
1115.000000	84.388131 
1114.000000	84.250334 
1113.000000	84.114517 
1112.000000	83.979164 
1111.000000	83.849361 
1110.000000	83.723176 
1109.000000	83.591322 
1108.000000	83.453171 
1107.000000	83.317727 
1106.000000	83.186697 
1105.000000	83.051806 
1104.000000	82.911179 
1103.000000	82.773099 
1102.000000	82.639830 
1101.000000	82.504942 
1100.000000	82.369034 
1099.000000	82.240249 
1098.000000	82.119854 
1097.000000	81.999358 
1096.000000	81.876806 
1095.000000	81.758395 
1094.000000	81.642620 
1093.000000	81.520571 
1092.000000	81.394877 
1091.000000	81.280024 
1090.000000	81.180600 
1089.000000	81.086992 
1088.000000	80.994874 
1087.000000	80.909804 
1086.000000	80.830079 
1085.000000	80.745671 
1084.000000	80.658000 
1083.000000	80.580277 
1082.000000	80.513875 
1081.000000	80.444892 
1080.000000	80.369041 
1079.000000	80.298965 
1078.000000	80.240798 
1077.000000	80.183435 
1076.000000	80.117350 
1075.000000	80.044318 
1074.000000	79.962703 
1073.000000	79.862537 
1072.000000	79.740458 
1071.000000	79.600301 
1070.000000	79.434487 
1069.000000	79.226027 
1068.000000	78.975851 
1067.000000	78.709063 
1066.000000	78.446987 
1065.000000	78.190902 
1064.000000	77.939186 
1063.000000	77.697752 
1062.000000	77.464103 
1061.000000	77.222673 
1060.000000	76.967791 
1059.000000	76.714126 
1058.000000	76.475298 
1057.000000	76.248622 
1056.000000	76.028014 
1055.000000	75.813692 
1054.000000	75.601605 
1053.000000	75.381309 
1052.000000	75.152433 
1051.000000	74.925779 
1050.000000	74.701488 
1049.000000	74.466367 
1048.000000	74.218065 
1047.000000	73.969029 
1046.000000	73.722919 
1045.000000	73.470417 
1044.000000	73.210578 
1043.000000	72.953258 
1042.000000	72.697865 
1041.000000	72.432680 
1040.000000	72.159201 
1039.000000	71.894861 
1038.000000	71.647925 
1037.000000	71.412370 
1036.000000	71.190001 
1035.000000	70.992800 
1034.000000	70.819711 
1033.000000	70.655946 
1032.000000	70.498535 
1031.000000	70.357507 
1030.000000	70.230084 
1029.000000	70.102083 
1028.000000	69.978360 
1027.000000	69.882071 
1026.000000	69.817831 
1025.000000	69.763627 
1024.000000	69.704823 
1023.000000	69.647880 
1022.000000	69.594345 
1021.000000	69.531248 
1020.000000	69.455706 
1019.000000	69.381733 
1018.000000	69.314538 
1017.000000	69.243800 
1016.000000	69.168537 
1015.000000	69.101862 
1014.000000	69.044678 
1013.000000	68.981819 
1012.000000	68.911130 
1011.000000	68.849721 
1010.000000	68.804703 
1009.000000	68.764298 
1008.000000	68.724284 
1007.000000	68.696573 
1006.000000	68.685039 
1005.000000	68.679155 
1004.000000	68.677356 
1003.000000	68.689914 
1002.000000	68.713256 
1001.000000	68.729509 
1000.000000	68.738245 
999.000000	 68.760746 
998.000000	 68.805407 
997.000000	 68.856185 
996.000000	 68.902583 
995.000000	 68.954157 
994.000000	 69.017163 
993.000000	 69.083240 
992.000000	 69.149498 
991.000000	 69.224769 
990.000000	 69.308701 
989.000000	 69.389484 
988.000000	 69.468812 
987.000000	 69.564000 
986.000000	 69.679559 
985.000000	 69.802362 
984.000000	 69.930236 
983.000000	 70.078313 
982.000000	 70.250443 
981.000000	 70.431247 
980.000000	 70.613836 
979.000000	 70.809462 
978.000000	 71.022152 
977.000000	 71.240065 
976.000000	 71.460155 
975.000000	 71.695983 
974.000000	 71.952324 
973.000000	 72.216113 
972.000000	 72.480723 
971.000000	 72.755846 
970.000000	 73.045015 
969.000000	 73.335999 
968.000000	 73.621658 
967.000000	 73.909302 
966.000000	 74.202355 
965.000000	 74.493399 
964.000000	 74.781430 
963.000000	 75.075304 
962.000000	 75.374285 
961.000000	 75.665401 
960.000000	 75.945157 
959.000000	 76.223776 
958.000000	 76.503557 
957.000000	 76.773578 
956.000000	 77.030417 
955.000000	 77.283661 
954.000000	 77.536315 
953.000000	 77.779631 
952.000000	 78.011440 
951.000000	 78.239356 
950.000000	 78.462115 
949.000000	 78.668445 
948.000000	 78.858490 
947.000000	 79.045436 
946.000000	 79.231362 
945.000000	 79.402475 
944.000000	 79.553976 
943.000000	 79.699449 
942.000000	 79.849590 
941.000000	 80.000498 
940.000000	 80.149091 
939.000000	 80.300988 
938.000000	 80.456701 
937.000000	 80.607795 
936.000000	 80.752721 
935.000000	 80.900080 
934.000000	 81.052319 
933.000000	 81.203357 
932.000000	 81.355295 
931.000000	 81.518582 
930.000000	 81.691636 
929.000000	 81.859097 
928.000000	 82.014870 
927.000000	 82.168912 
926.000000	 82.326864 
925.000000	 82.480585 
924.000000	 82.623376 
923.000000	 82.757745 
922.000000	 82.884544 
921.000000	 83.001214 
920.000000	 83.113715 
919.000000	 83.232759 
918.000000	 83.354972 
917.000000	 83.465184 
916.000000	 83.560990 
915.000000	 83.658392 
914.000000	 83.770379 
913.000000	 83.897042 
912.000000	 84.038767 
911.000000	 84.200605 
910.000000	 84.380271 
909.000000	 84.569882 
908.000000	 84.772547 
907.000000	 84.999768 
906.000000	 85.250773 
905.000000	 85.512256 
904.000000	 85.779205 
903.000000	 86.057032 
902.000000	 86.342603 
901.000000	 86.623657 
900.000000	 86.898801 
899.000000	 87.178520 
898.000000	 87.464486 
897.000000	 87.745798 
896.000000	 88.016770 
895.000000	 88.279528 
894.000000	 88.529231 
893.000000	 88.757150 
892.000000	 88.969791 
891.000000	 89.184703 
890.000000	 89.403897 
889.000000	 89.609636 
888.000000	 89.788778 
887.000000	 89.943153 
886.000000	 90.075573 
885.000000	 90.185765 
884.000000	 90.282414 
883.000000	 90.378886 
882.000000	 90.474077 
881.000000	 90.558416 
880.000000	 90.641348 
879.000000	 90.749022 
878.000000	 90.889689 
877.000000	 91.045651 
876.000000	 91.205649 
875.000000	 91.380456 
874.000000	 91.579244 
873.000000	 91.796062 
872.000000	 92.028332 
871.000000	 92.283832 
870.000000	 92.558880 
869.000000	 92.831394 
868.000000	 93.085873 
867.000000	 93.326994 
866.000000	 93.561484 
865.000000	 93.785536 
864.000000	 93.998199 
863.000000	 94.209156 
862.000000	 94.423417 
861.000000	 94.632889 
860.000000	 94.831276 
859.000000	 95.023300 
858.000000	 95.212197 
857.000000	 95.391897 
856.000000	 95.558305 
855.000000	 95.715064 
854.000000	 95.862272 
853.000000	 95.992929 
852.000000	 96.106634 
851.000000	 96.214225 
850.000000	 96.323596 
849.000000	 96.432927 
848.000000	 96.540928 
847.000000	 96.649349 
846.000000	 96.751938 
845.000000	 96.836566 
844.000000	 96.902886 
843.000000	 96.962857 
842.000000	 97.019377 
841.000000	 97.059839 
840.000000	 97.075875 
839.000000	 97.073784 
838.000000	 97.060519 
837.000000	 97.035759 
836.000000	 97.004722 
835.000000	 96.982805 
834.000000	 96.978264 
833.000000	 96.983281 
832.000000	 96.989728 
831.000000	 97.000367 
830.000000	 97.017708 
829.000000	 97.037282 
828.000000	 97.061523 
827.000000	 97.104958 
826.000000	 97.173383 
825.000000	 97.251236 
824.000000	 97.320700 
823.000000	 97.379125 
822.000000	 97.428280 
821.000000	 97.463158 
820.000000	 97.481240 
819.000000	 97.486913 
818.000000	 97.477477 
817.000000	 97.437363 
816.000000	 97.353575 
815.000000	 97.226670 
814.000000	 97.060598 
813.000000	 96.851121 
812.000000	 96.588737 
811.000000	 96.261870 
810.000000	 95.852068 
809.000000	 95.338918 
808.000000	 94.718899 
807.000000	 94.011927 
806.000000	 93.245283 
805.000000	 92.442159 
804.000000	 91.630122 
803.000000	 90.843951 
802.000000	 90.110589 
801.000000	 89.447238 
800.000000	 88.881473 
799.000000	 88.451622 
798.000000	 88.174602 
797.000000	 88.031233 
796.000000	 87.991822 
795.000000	 88.035817 
794.000000	 88.139539 
793.000000	 88.269832 
792.000000	 88.402498 
791.000000	 88.528452 
790.000000	 88.633932 
789.000000	 88.694325 
788.000000	 88.694764 
787.000000	 88.637196 
786.000000	 88.520501 
785.000000	 88.333777 
784.000000	 88.077919 
783.000000	 87.775773 
782.000000	 87.454162 
781.000000	 87.135877 
780.000000	 86.855078 
779.000000	 86.655141 
778.000000	 86.558379 
777.000000	 86.557391 
776.000000	 86.643305 
775.000000	 86.817611 
774.000000	 87.066569 
773.000000	 87.350815 
772.000000	 87.635517 
771.000000	 87.911292 
770.000000	 88.175767 
769.000000	 88.417010 
768.000000	 88.627164 
767.000000	 88.812146 
766.000000	 88.975906 
765.000000	 89.113388 
764.000000	 89.229561 
763.000000	 89.346235 
762.000000	 89.478110 
761.000000	 89.618898 
760.000000	 89.760867 
759.000000	 89.909699 
758.000000	 90.069521 
757.000000	 90.232428 
756.000000	 90.395256 
755.000000	 90.569045 
754.000000	 90.757978 
753.000000	 90.943554 
752.000000	 91.103127 
751.000000	 91.233270 
750.000000	 91.346711 
749.000000	 91.458322 
748.000000	 91.580881 
747.000000	 91.720681 
746.000000	 91.869317 
745.000000	 92.012173 
744.000000	 92.150732 
743.000000	 92.303221 
742.000000	 92.478996 
741.000000	 92.667816 
740.000000	 92.858633 
739.000000	 93.051431 
738.000000	 93.244366 
737.000000	 93.426003 
736.000000	 93.588330 
735.000000	 93.733713 
734.000000	 93.863830 
733.000000	 93.975744 
732.000000	 94.072012 
731.000000	 94.159521 
730.000000	 94.234886 
729.000000	 94.286799 
728.000000	 94.318142 
727.000000	 94.349554 
726.000000	 94.397603 
725.000000	 94.465691 
724.000000	 94.556213 
723.000000	 94.671517 
722.000000	 94.799518 
721.000000	 94.919111 
720.000000	 95.026242 
719.000000	 95.135101 
718.000000	 95.248706 
717.000000	 95.351731 
716.000000	 95.437303 
715.000000	 95.518206 
714.000000	 95.604673 
713.000000	 95.691937 
712.000000	 95.778605 
711.000000	 95.874970 
710.000000	 95.981879 
709.000000	 96.080837 
708.000000	 96.157249 
707.000000	 96.215057 
706.000000	 96.256341 
705.000000	 96.266953 
704.000000	 96.233024 
703.000000	 96.152130 
702.000000	 96.016836 
701.000000	 95.804357 
700.000000	 95.496718 
699.000000	 95.101307 
698.000000	 94.645891 
697.000000	 94.176320 
696.000000	 93.766449 
695.000000	 93.500319 
694.000000	 93.423118 
693.000000	 93.515188 
692.000000	 93.719408 
691.000000	 93.981609 
690.000000	 94.260961 
689.000000	 94.528222 
688.000000	 94.771807 
687.000000	 94.993724 
686.000000	 95.191250 
685.000000	 95.355766 
684.000000	 95.492954 
683.000000	 95.622495 
682.000000	 95.750908 
681.000000	 95.866847 
680.000000	 95.968777 
679.000000	 96.072338 
678.000000	 96.183987 
677.000000	 96.288872 
676.000000	 96.383385 
675.000000	 96.492047 
674.000000	 96.616070 
673.000000	 96.716956 
672.000000	 96.776018 
671.000000	 96.833948 
670.000000	 96.948578 
669.000000	 97.111326 
668.000000	 97.239027 
667.000000	 97.288316 
666.000000	 97.303986 
665.000000	 97.320844 
664.000000	 97.341111 
663.000000	 97.367602 
662.000000	 97.413096 
661.000000	 97.471872 
660.000000	 97.529217 
659.000000	 97.581810 
658.000000	 97.628602 
657.000000	 97.652295 
656.000000	 97.640282 
655.000000	 97.607926 
654.000000	 97.564326 
653.000000	 97.497565 
652.000000	 97.417858 
651.000000	 97.380376 
650.000000	 97.423174 

